RelativeTimeMilliseconds,ECG,ART,ART (Sys),ART (Dia),PPG
6003980,-0.14000,68.0000,110,64,0.56850
6003990,-0.17000,67.4375,110,64,0.55751
6004000,-0.17000,67.4375,111,64,0.55751
6004010,-0.18000,67.1875,111,64,0.55263
6004020,-0.18000,66.6250,111,64,0.54286
6004030,-0.18000,66.3750,111,64,0.53822
6004040,-0.18000,66.0625,111,64,0.53455
6004050,-0.18000,65.7500,111,64,0.53138
6004060,-0.18000,65.1250,111,64,0.52332
6004070,-0.17000,64.8750,111,64,0.51917
6004080,-0.17000,64.7500,111,64,0.51502
6004090,-0.15500,65.5625,111,64,0.50232
6004100,-0.15000,67.2500,111,64,0.49792
6004110,-0.15000,67.2500,111,64,0.49792
6004120,-0.14500,70.2500,111,64,0.49353
6004130,-0.13000,84.9375,111,64,0.48181
6004140,-0.11500,89.3750,111,64,0.47766
6004150,-0.11500,89.3750,111,64,0.47766
6004160,-0.09000,95.3125,111,64,0.46838
6004170,-0.07500,98.4375,111,64,0.46007
6004180,-0.07500,98.4375,111,64,0.46007
6004190,-0.02500,101.1250,111,64,0.45275
6004200,0.00000,102.6250,111,64,0.44933
6004210,0.00000,102.6250,111,64,0.44933
6004220,0.03000,105.9375,111,64,0.44249
6004230,0.09000,109.0000,111,64,0.43663
6004240,0.09000,109.0000,111,64,0.43663
6004250,0.11000,110.3125,111,64,0.43492
6004260,0.10000,112.1875,111,64,0.42979
6004270,0.07000,112.8125,111,64,0.42711
6004280,-0.01000,113.5000,111,64,0.42198
6004290,-0.01000,113.5000,111,64,0.42198
6004300,-0.04000,113.6875,111,64,0.41636
6004310,-0.07500,113.3125,111,64,0.41001
6004320,-0.07500,113.3125,111,64,0.41001
6004330,-0.08500,112.9375,111,64,0.40708
6004340,-0.08500,111.3125,111,64,0.40195
6004350,-0.08500,111.3125,111,64,0.40195
6004360,-0.08500,110.5000,111,64,0.39976
6004370,-0.08500,109.5625,111,64,0.39756
6004380,-0.09000,107.2500,111,64,0.39658
6004390,-0.08500,105.6875,111,64,0.39976
6004400,-0.08500,103.6875,111,64,0.40635
6004410,-0.08500,101.4375,111,64,0.41685
6004420,-0.08500,94.5000,111,64,0.46984
6004430,-0.08500,92.9375,111,64,0.48962
6004440,-0.08000,91.8125,111,64,0.50891
6004450,-0.08000,91.8125,111,64,0.50891
6004460,-0.07500,90.4375,111,64,0.55165
6004470,-0.07500,89.8125,111,64,0.57192
6004480,-0.07500,89.2500,111,64,0.59072
6004490,-0.06500,87.2500,111,64,0.63639
6004500,-0.06500,87.2500,111,64,0.63639
6004510,-0.06500,85.8125,111,64,0.66056
6004520,-0.06500,85.8125,111,64,0.66056
6004530,-0.07000,83.8125,111,64,0.68669
6004540,-0.07000,83.8125,111,64,0.68669
6004550,-0.07000,83.2500,111,64,0.69402
6004560,-0.07000,82.1250,111,64,0.70891
6004570,-0.07000,82.1250,111,64,0.70891
6004580,-0.06500,81.1250,111,64,0.72796
6004590,-0.05000,80.1875,111,64,0.75287
6004600,-0.05000,80.1875,111,64,0.75287
6004610,-0.01500,78.8125,111,64,0.76850
6004620,-0.01500,78.8125,111,64,0.76850
6004630,-0.00500,78.3750,111,64,0.77070
6004640,0.00000,77.9375,111,64,0.77143
6004650,0.00000,77.5000,111,64,0.77143
6004660,-0.02500,76.1875,111,64,0.76679
6004670,-0.02500,76.1875,111,64,0.76679
6004680,-0.06500,75.2500,111,64,0.75775
6004690,-0.08500,74.3750,111,64,0.74383
6004700,-0.08500,74.3750,111,64,0.74383
6004710,-0.08000,73.5625,111,64,0.72625
6004720,-0.08000,73.5625,111,64,0.72625
6004730,-0.10000,72.3750,111,64,0.69988
6004740,-0.07500,72.0000,111,64,0.69158
6004750,-0.07500,72.0000,111,64,0.69158
6004760,0.62000,71.3750,111,64,0.67473
6004770,0.62000,71.3750,111,64,0.67473
6004780,1.04000,70.7500,111,64,0.65812
6004790,0.99000,70.4375,111,64,0.64982
6004800,0.50500,70.1250,111,64,0.64176
6004810,-0.08500,69.1250,111,64,0.61856
6004820,-0.08500,69.1250,111,64,0.61856
6004830,-0.14500,68.7500,111,64,0.61123
6004840,-0.18500,68.1875,111,64,0.59927
6004850,-0.18500,68.1875,111,64,0.59927
6004860,-0.19000,67.6250,111,64,0.58681
6004870,-0.18500,67.1250,111,64,0.57460
6004880,-0.18000,66.8750,111,64,0.56825
6004890,-0.18000,66.2500,111,64,0.55629
6004900,-0.18000,66.2500,111,64,0.55629
6004910,-0.18000,66.0000,111,64,0.55067
6004920,-0.18000,65.5625,111,64,0.53895
6004930,-0.18000,65.8750,111,64,0.52991
6004940,-0.18000,65.8750,111,64,0.52991
6004950,-0.16000,68.7500,111,64,0.51966
6004960,-0.16000,68.7500,111,64,0.51966
6004970,-0.16000,72.2500,111,64,0.51429
6004980,-0.14500,87.5625,111,64,0.49792
6004990,-0.14500,87.5625,111,64,0.49792
6005000,-0.12500,91.8750,110,64,0.49280
6005010,-0.09500,99.2500,110,64,0.47595
6005020,-0.09500,99.2500,110,64,0.47595
6005030,-0.08500,100.6875,110,64,0.47131
6005040,-0.06500,102.1250,110,64,0.46764
6005050,-0.04500,103.6875,110,64,0.46349
6005060,-0.01500,107.1250,110,64,0.45495
6005070,0.04000,110.4375,110,64,0.44615
6005080,0.06500,111.9375,110,64,0.44151
6005090,0.06500,111.9375,110,64,0.44151
6005100,0.08500,114.2500,110,64,0.43248
6005110,0.08500,115.0625,110,64,0.42833
6005120,0.05500,115.7500,110,64,0.42418
6005130,0.01000,116.1875,110,64,0.42002
6005140,-0.06500,116.6250,110,64,0.41148
6005150,-0.08500,116.5000,110,64,0.40806
6005160,-0.08500,116.5000,110,64,0.40806
6005170,-0.10500,115.5625,110,64,0.39756
6005180,-0.10500,115.0000,110,64,0.39414
6005190,-0.10500,115.0000,110,64,0.39414
6005200,-0.10500,113.6250,110,64,0.38779
6005210,-0.10000,111.6875,110,64,0.38486
6005220,-0.10000,111.6875,110,64,0.38486
6005230,-0.10500,109.0625,110,64,0.39096
6005240,-0.10500,107.2500,110,64,0.39878
6005250,-0.10500,107.2500,110,64,0.39878
6005260,-0.10500,99.9375,110,64,0.44884
6005270,-0.10500,99.9375,110,64,0.44884
6005280,-0.10500,97.5000,110,64,0.47375
6005290,-0.10000,93.1250,110,64,0.55556
6005300,-0.10000,93.1250,110,64,0.55556
6005310,-0.09500,92.4375,110,64,0.58144
6005320,-0.09500,91.8750,110,64,0.60537
6005330,-0.09000,90.1250,110,64,0.65885
6005340,-0.09000,90.1250,110,64,0.65885
6005350,-0.08500,88.7500,110,64,0.68864
6005360,-0.08000,88.0000,110,64,0.70281
6005370,-0.08000,88.0000,110,64,0.70281
6005380,-0.08500,86.5625,110,64,0.72918
6005390,-0.07500,85.2500,110,64,0.75165
6005400,-0.07500,85.2500,110,64,0.75165
6005410,-0.07500,84.6250,110,64,0.76117
6005420,-0.07500,83.0000,110,64,0.78364
6005430,-0.07500,83.0000,110,64,0.78364
6005440,-0.07500,82.5625,110,64,0.78779
6005450,-0.04000,81.1875,110,64,0.80244
6005460,-0.04000,81.1875,110,64,0.80244
6005470,-0.02500,80.6875,110,64,0.80684
6005480,-0.02000,80.2500,110,64,0.81050
6005490,-0.00500,78.8125,110,64,0.81465
6005500,-0.00500,78.8125,110,64,0.81465
6005510,-0.02500,78.3750,110,64,0.81392
6005520,-0.03500,77.9375,110,64,0.81221
6005530,-0.04500,77.5000,110,64,0.80928
6005540,-0.09000,76.1875,110,64,0.79267
6005550,-0.09000,76.1875,110,64,0.79267
6005560,-0.09500,75.7500,110,64,0.78486
6005570,-0.08500,74.5625,110,64,0.75653
6005580,-0.08500,74.5625,110,64,0.75653
6005590,-0.10000,74.1875,110,64,0.74628
6005600,-0.09000,73.8125,110,64,0.73626
6005610,0.11500,73.4375,110,64,0.72625
6005620,0.55500,72.6875,110,64,0.70818
6005630,0.97000,72.3750,110,64,0.69988
6005640,0.99000,72.0000,110,64,0.69255
6005650,0.53500,71.6250,110,64,0.68498
6005660,-0.08500,70.4375,110,64,0.66129
6005670,-0.08500,70.4375,110,64,0.66129
6005680,-0.15500,70.0000,110,64,0.65348
6005690,-0.18000,69.6250,110,64,0.64615
6005700,-0.19000,68.8125,110,64,0.63175
6005710,-0.19000,68.0625,110,64,0.61832
6005720,-0.19000,68.0625,110,64,0.61832
6005730,-0.19000,67.7500,110,64,0.61148
6005740,-0.18000,67.1250,110,64,0.60000
6005750,-0.17500,66.7500,110,64,0.59389
6005760,-0.17000,66.4375,110,64,0.58755
6005770,-0.17000,66.1250,110,64,0.58095
6005780,-0.17000,65.6875,110,64,0.56825
6005790,-0.16000,65.8125,110,64,0.56215
6005800,-0.16000,66.2500,110,64,0.55629
6005810,-0.15500,67.5000,110,64,0.55043
6005820,-0.14500,73.8125,110,64,0.53797
6005830,-0.13500,84.0625,110,64,0.52796
6005840,-0.13500,84.0625,110,64,0.52796
6005850,-0.12500,88.8125,110,64,0.52234
6005860,-0.09500,97.3750,110,64,0.50549
6005870,-0.09500,97.3750,110,64,0.50549
6005880,-0.07500,98.9375,110,64,0.49988
6005890,-0.02000,103.2500,110,64,0.48449
6005900,-0.02000,103.2500,110,64,0.48449
6005910,0.00000,104.9375,110,64,0.47937
6005920,0.05500,108.2500,110,64,0.46862
6005930,0.05500,108.2500,110,64,0.46862
6005940,0.10000,112.3125,110,64,0.45592
6005950,0.10000,113.1875,110,64,0.45104
6005960,0.10000,113.1875,110,64,0.45104
6005970,0.04000,114.7500,110,64,0.43590
6005980,-0.00500,114.9375,110,64,0.43101
6005990,-0.00500,114.9375,110,64,0.43101
6006000,-0.03500,114.9375,110,64,0.42613
6006010,-0.07000,114.3125,110,64,0.41172
6006020,-0.07000,114.3125,110,64,0.41172
6006030,-0.08000,113.3750,110,64,0.40586
6006040,-0.08000,112.8125,110,64,0.40195
6006050,-0.08000,112.8125,110,64,0.40195
6006060,-0.08500,110.3125,110,64,0.39121
6006070,-0.08500,109.1250,110,64,0.38974
6006080,-0.08500,109.1250,110,64,0.38974
6006090,-0.08500,103.8750,110,64,0.40488
6006100,-0.08500,101.4375,110,64,0.41880
6006110,-0.08500,101.4375,110,64,0.41880
6006120,-0.07500,96.4375,110,64,0.45885
6006130,-0.07500,92.8125,110,64,0.50183
6006140,-0.07500,92.8125,110,64,0.50183
6006150,-0.07500,91.6875,110,64,0.52576
6006160,-0.07500,90.8750,110,64,0.55018
6006170,-0.07000,89.0000,110,64,0.61636
6006180,-0.06500,88.3750,110,64,0.63516
6006190,-0.06500,87.6250,110,64,0.65201
6006200,-0.06500,87.6250,110,64,0.65201
6006210,-0.06500,85.3750,110,64,0.69451
6006220,-0.06500,85.3750,110,64,0.69451
6006230,-0.06000,84.5625,110,64,0.70452
6006240,-0.05500,83.8750,110,64,0.71306
6006250,-0.05500,83.1875,110,64,0.72210
6006260,-0.05500,81.9375,110,64,0.73968
6006270,-0.06000,81.3750,110,64,0.74725
6006280,-0.05500,80.8125,110,64,0.75409
6006290,-0.04500,80.3125,110,64,0.76020
6006300,-0.02500,79.3125,110,64,0.77045
6006310,-0.01000,78.8125,110,64,0.77436
6006320,0.01000,77.8125,110,64,0.77973
6006330,0.01000,77.8125,110,64,0.77973
6006340,0.02500,76.8125,110,64,0.77973
6006350,-0.01000,75.8750,110,64,0.77753
6006360,-0.02000,75.3750,110,64,0.77534
6006370,-0.02000,75.3750,110,64,0.77534
6006380,-0.06500,74.0000,110,64,0.76044
6006390,-0.06500,74.0000,110,64,0.76044
6006400,-0.07500,73.5625,110,64,0.75263
6006410,-0.06500,72.1875,110,64,0.72259
6006420,-0.06500,71.8125,110,64,0.71282
6006430,-0.09500,71.3750,110,64,0.70305
6006440,-0.09500,71.3750,110,64,0.70305
6006450,0.32500,70.3125,110,64,0.67228
6006460,0.84500,69.9375,110,64,0.66227
6006470,0.84500,69.9375,110,64,0.66227
6006480,0.83500,69.2500,110,64,0.64225
6006490,0.29500,68.5625,110,64,0.62320
6006500,0.29500,68.5625,110,64,0.62320
6006510,-0.10000,67.8750,110,64,0.60562
6006520,-0.10000,67.8750,110,64,0.60562
6006530,-0.14500,67.5625,110,64,0.59756
6006540,-0.16000,66.9375,110,64,0.58364
6006550,-0.17000,66.5625,110,64,0.57656
6006560,-0.17000,66.2500,110,64,0.56923
6006570,-0.16500,65.9375,110,64,0.56190
6006580,-0.16500,65.2500,110,64,0.54725
6006590,-0.16500,64.9375,110,64,0.53993
6006600,-0.15500,64.2500,110,64,0.52503
6006610,-0.15500,64.2500,110,64,0.52503
6006620,-0.15000,63.6875,110,64,0.51062
6006630,-0.14500,63.4375,110,64,0.47595
6006640,-0.14500,63.3750,110,64,0.42711
6006650,-0.14500,63.5000,110,64,0.39853
6006660,-0.13500,65.5625,110,64,0.36728
6006670,-0.13000,68.3125,110,64,0.35678
6006680,-0.11500,72.3125,110,64,0.34750
6006690,-0.10500,77.1250,110,64,0.33871
6006700,-0.08000,89.6875,110,64,0.31551
6006710,-0.08000,89.6875,110,64,0.31551
6006720,-0.04500,93.8750,110,64,0.30159
6006730,-0.02500,96.1875,110,64,0.29206
6006740,-0.02500,96.1875,110,64,0.29206
6006750,0.02000,98.6250,110,64,0.27888
6006760,0.02000,98.6250,110,64,0.27888
6006770,0.05000,100.0000,110,64,0.27179
6006780,0.08000,102.8750,110,64,0.25763
6006790,0.10500,104.1250,110,64,0.25104
6006800,0.12000,105.3125,110,64,0.24444
6006810,0.10000,106.2500,110,64,0.23810
6006820,0.06500,107.3750,110,64,0.22662
6006830,0.02000,107.6250,110,64,0.22295
6006840,-0.05000,107.7500,110,64,0.21636
6006850,-0.06500,107.3750,110,64,0.20684
6006860,-0.07500,107.0625,110,64,0.20220
6006870,-0.08500,106.6250,110,64,0.19756
6006880,-0.08500,106.6250,110,64,0.19756
6006890,-0.09500,104.4375,110,64,0.18315
6006900,-0.09500,104.4375,110,64,0.18315
6006910,-0.09500,103.3750,110,64,0.17851
6006920,-0.09500,100.4375,110,64,0.17265
6006930,-0.09500,100.4375,110,64,0.17265
6006940,-0.09500,93.8125,110,64,0.17998
6006950,-0.09500,93.8125,110,64,0.17998
6006960,-0.09500,91.4375,110,64,0.18974
6006970,-0.08000,87.3750,110,64,0.25055
6006980,-0.08000,87.3750,110,64,0.25055
6006990,-0.07500,86.2500,110,64,0.30842
6007000,-0.07000,85.8125,110,64,0.33822
6007010,-0.07000,85.8125,110,64,0.33822
6007020,-0.06500,84.6875,110,64,0.39365
6007030,-0.06500,83.3750,110,64,0.43516
6007040,-0.06500,83.3750,110,64,0.43516
6007050,-0.06000,82.6875,110,64,0.45397
6007060,-0.06500,81.2500,110,64,0.48840
6007070,-0.06500,80.6250,110,64,0.50354
6007080,-0.06500,80.0625,110,64,0.51746
6007090,-0.06500,78.5000,110,64,0.55336
6007100,-0.06500,78.5000,110,64,0.55336
6007110,-0.06500,78.0625,110,64,0.56313
6007120,-0.05500,77.1250,110,64,0.57802
6007130,-0.05500,77.1250,110,64,0.57802
6007140,-0.01500,75.7500,110,64,0.59096
6007150,-0.01500,75.7500,110,64,0.59096
6007160,-0.01500,75.3750,110,64,0.59365
6007170,0.00000,74.1250,110,64,0.59731
6007180,0.00000,74.1250,110,64,0.59731
6007190,-0.00500,73.6875,110,64,0.59634
6007200,-0.03500,72.8750,110,64,0.59048
6007210,-0.04500,72.1250,110,64,0.57802
6007220,-0.04500,72.1250,110,64,0.57802
6007230,-0.08500,71.3125,110,64,0.56215
6007240,-0.08500,71.3125,110,64,0.56215
6007250,-0.08500,70.8750,110,64,0.55238
6007260,-0.08000,69.7500,110,64,0.51819
6007270,-0.08000,69.7500,110,64,0.51819
6007280,-0.10000,69.3750,110,64,0.50720
6007290,0.17500,68.3125,110,64,0.47668
6007300,0.17500,68.3125,110,64,0.47668
6007310,0.68000,68.0000,110,64,0.46691
6007320,0.98500,67.3750,110,64,0.45006
6007330,0.98500,67.3750,110,64,0.45006
6007340,0.45500,66.7500,110,64,0.43614
6007350,-0.09500,66.1250,110,64,0.42100
6007360,-0.09500,66.1250,110,64,0.42100
6007370,-0.15000,65.8125,110,64,0.41294
6007380,-0.17500,65.1875,110,64,0.39731
6007390,-0.18500,64.8750,110,64,0.38974
6007400,-0.18500,64.5625,110,64,0.38242
6007410,-0.18000,64.2500,110,64,0.37558
6007420,-0.18000,63.6250,110,64,0.36215
6007430,-0.18000,63.0000,110,64,0.35189
6007440,-0.18000,62.6875,110,64,0.34652
6007450,-0.17500,62.1250,110,64,0.33480
6007460,-0.17000,61.9375,110,64,0.32918
6007470,-0.17000,61.9375,110,64,0.32918
6007480,-0.16000,62.0000,110,64,0.31844
6007490,-0.15500,64.1875,110,64,0.30745
6007500,-0.15500,64.1875,110,64,0.30745
6007510,-0.13000,71.0625,110,64,0.29646
6007520,-0.12000,76.0000,110,64,0.29255
6007530,-0.12000,76.0000,110,64,0.29255
6007540,-0.10500,85.3750,110,64,0.28376
6007550,-0.07500,91.3125,110,64,0.27253
6007560,-0.05500,93.0000,110,64,0.26691
6007570,-0.05500,93.0000,110,64,0.26691
6007580,-0.02000,96.5625,110,64,0.25226
6007590,0.00500,98.0000,110,64,0.24737
6007600,0.03000,99.5000,110,64,0.24274
6007610,0.03000,99.5000,110,64,0.24274
6007620,0.06000,102.6250,110,64,0.23297
6007630,0.10500,105.3125,110,64,0.22735
6007640,0.09000,106.3125,110,64,0.22393
6007650,0.06000,107.5625,110,64,0.21563
6007660,0.02000,107.9375,110,64,0.21074
6007670,0.02000,107.9375,110,64,0.21074
6007680,-0.01000,108.0625,110,64,0.20611
6007690,-0.06500,107.8125,110,64,0.19316
6007700,-0.06500,107.8125,110,64,0.19316
6007710,-0.09000,107.1250,110,64,0.18559
6007720,-0.09000,107.1250,110,64,0.18559
6007730,-0.09000,106.6250,110,64,0.18315
6007740,-0.09500,104.4375,110,64,0.17558
6007750,-0.09500,104.4375,110,64,0.17558
6007760,-0.09500,101.9375,110,64,0.17045
6007770,-0.09500,98.2500,110,64,0.17192
6007780,-0.09500,98.2500,110,64,0.17192
6007790,-0.09000,93.5000,110,64,0.19023
6007800,-0.09000,93.5000,110,64,0.19023
6007810,-0.09000,91.2500,110,64,0.20757
6007820,-0.09000,88.3750,110,64,0.25836
6007830,-0.08500,87.5625,110,64,0.28596
6007840,-0.08000,87.0000,110,64,0.31355
6007850,-0.07500,86.5000,110,64,0.34408
6007860,-0.07000,84.8125,110,64,0.43272
6007870,-0.07000,84.1875,110,64,0.45788
6007880,-0.07000,83.4375,110,64,0.48083
6007890,-0.07000,83.4375,110,64,0.48083
6007900,-0.07000,81.3750,110,64,0.53797
6007910,-0.07500,80.7500,110,64,0.55360
6007920,-0.07000,80.2500,110,64,0.56581
6007930,-0.06500,79.1875,110,64,0.58608
6007940,-0.06500,79.1875,110,64,0.58608
6007950,-0.06500,78.6875,110,64,0.59585
6007960,-0.07000,78.2500,110,64,0.60488
6007970,-0.07000,77.8125,110,64,0.61319
6007980,-0.06000,76.8750,110,64,0.62637
6007990,-0.04000,76.4375,110,64,0.63175
6008000,-0.01500,75.5000,111,64,0.63980
6008010,-0.01500,75.5000,111,64,0.63980
6008020,-0.00500,74.6250,111,64,0.64396
6008030,-0.01500,73.8125,111,64,0.64249
6008040,-0.01500,73.8125,111,64,0.64249
6008050,-0.03500,73.3750,111,64,0.64005
6008060,-0.04000,72.5625,111,64,0.63077
6008070,-0.05500,72.1875,111,64,0.62369
6008080,-0.08000,71.7500,111,64,0.61490
6008090,-0.09500,71.3750,111,64,0.60488
6008100,-0.08500,70.1250,111,64,0.57216
6008110,-0.08500,70.1250,111,64,0.57216
6008120,-0.08500,69.7500,111,64,0.56142
6008130,-0.05500,68.6875,111,64,0.53480
6008140,0.26000,68.3750,111,64,0.52552
6008150,0.26000,68.3750,111,64,0.52552
6008160,0.78000,68.0000,111,64,0.51600
6008170,1.11500,67.6875,111,64,0.50672
6008180,0.92000,67.0625,111,64,0.48913
6008190,0.37000,66.7500,111,64,0.48132
6008200,-0.10500,66.1250,111,64,0.46642
6008210,-0.10500,66.1250,111,64,0.46642
6008220,-0.17000,65.1875,111,64,0.44689
6008230,-0.18000,64.9375,111,64,0.44176
6008240,-0.18000,64.9375,111,64,0.44176
6008250,-0.18500,64.0000,111,64,0.42125
6008260,-0.18000,63.6875,111,64,0.41416
6008270,-0.18000,63.6875,111,64,0.41416
6008280,-0.18000,63.0625,111,64,0.40024
6008290,-0.18000,62.5000,111,64,0.38779
6008300,-0.18000,62.5000,111,64,0.38779
6008310,-0.16500,62.1250,111,64,0.37631
6008320,-0.16500,62.1250,111,64,0.37631
6008330,-0.16000,62.1250,111,64,0.37045
6008340,-0.15500,63.3125,111,64,0.36239
6008350,-0.14500,65.2500,111,64,0.35775
6008360,-0.13500,68.5000,111,64,0.34945
6008370,-0.11000,83.1875,111,64,0.32869
6008380,-0.09500,87.4375,111,64,0.32283
6008390,-0.09500,87.4375,111,64,0.32283
6008400,-0.08500,90.6875,111,64,0.31697
6008410,-0.07000,93.0000,111,64,0.31136
6008420,-0.02500,97.0625,111,64,0.29915
6008430,-0.00500,98.3750,111,64,0.29499
6008440,-0.00500,98.3750,111,64,0.29499
6008450,0.04000,103.2500,111,64,0.27912
6008460,0.07000,104.8750,111,64,0.27082
6008470,0.07000,104.8750,111,64,0.27082
6008480,0.10000,106.3125,111,64,0.26618
6008490,0.10000,109.2500,111,64,0.25153
6008500,0.10000,109.2500,111,64,0.25153
6008510,0.06500,109.7500,111,64,0.24908
6008520,-0.01000,110.2500,111,64,0.24127
6008530,-0.01000,110.2500,111,64,0.24127
6008540,-0.04000,110.2500,111,64,0.23223
6008550,-0.07500,109.8125,111,64,0.22393
6008560,-0.08000,109.3750,111,64,0.21978
6008570,-0.08000,109.3750,111,64,0.21978
6008580,-0.08500,107.6250,111,64,0.20977
6008590,-0.08500,106.7500,111,64,0.21197
6008600,-0.08500,106.7500,111,64,0.21197
6008610,-0.08500,102.8750,111,64,0.25324
6008620,-0.08500,101.0000,111,64,0.27741
6008630,-0.08500,101.0000,111,64,0.27741
6008640,-0.08500,98.7500,111,64,0.30672
6008650,-0.08500,96.3125,111,64,0.36215
6008660,-0.08500,91.8125,111,64,0.48303
6008670,-0.07500,89.2500,111,64,0.56093
6008680,-0.07500,88.5625,111,64,0.59194
6008690,-0.06500,87.4375,111,64,0.63614
6008700,-0.06500,87.4375,111,64,0.63614
6008710,-0.06500,86.3125,111,64,0.67546
6008720,-0.06500,85.6250,111,64,0.69353
6008730,-0.06500,85.6250,111,64,0.69353
6008740,-0.06000,83.3750,111,64,0.74066
6008750,-0.06000,82.6875,111,64,0.75385
6008760,-0.06000,82.6875,111,64,0.75385
6008770,-0.05500,80.8750,111,64,0.78608
6008780,-0.05500,80.3125,111,64,0.79316
6008790,-0.05500,79.8125,111,64,0.79829
6008800,-0.06000,79.3125,111,64,0.80342
6008810,-0.06000,79.3125,111,64,0.80342
6008820,-0.06000,78.4375,111,64,0.81245
6008830,-0.02500,77.4375,111,64,0.81856
6008840,-0.00500,77.0000,111,64,0.82051
6008850,-0.00500,77.0000,111,64,0.82051
6008860,0.00000,76.0625,111,64,0.82100
6008870,0.01000,75.5625,111,64,0.81856
6008880,-0.00500,74.6875,111,64,0.80855
6008890,-0.02000,74.1250,111,64,0.80015
6008900,-0.02000,73.7500,111,64,0.79216
6008910,-0.04500,73.4375,111,64,0.78339
6008920,-0.07000,73.0625,111,64,0.77265
6008930,-0.07000,73.0625,111,64,0.77265
6008940,-0.08000,71.8750,111,64,0.73797
6008950,-0.07500,71.4375,111,64,0.72650
6008960,-0.07500,71.0000,111,64,0.71551
6008970,-0.07500,71.0000,111,64,0.71551
6008980,-0.10000,70.2500,111,64,0.69475
6008990,-0.03500,69.8750,111,64,0.68474
6009000,0.29500,69.4375,111,64,0.67595
6009010,0.81000,69.1250,111,64,0.66789
6009020,1.12000,68.5000,111,64,0.65079
6009030,0.89500,68.1875,111,64,0.64249
6009040,0.35000,67.8750,111,64,0.63419
6009050,-0.10000,66.9375,111,64,0.61026
6009060,-0.10000,66.9375,111,64,0.61026
6009070,-0.15000,66.6250,111,64,0.60244
6009080,-0.18000,66.0000,111,64,0.58730
6009090,-0.18000,66.0000,111,64,0.58730
6009100,-0.18000,65.3750,111,64,0.57363
6009110,-0.18000,64.8750,111,64,0.56093
6009120,-0.18000,64.8750,111,64,0.56093
6009130,-0.18000,64.6250,111,64,0.55409
6009140,-0.18500,64.0000,111,64,0.54017
6009150,-0.18000,63.6250,111,64,0.53309
6009160,-0.17500,63.1250,111,64,0.51966
6009170,-0.17500,63.1250,111,64,0.51966
6009180,-0.17000,63.0000,111,64,0.50525
6009190,-0.15500,64.3750,111,64,0.49231
6009200,-0.15500,64.3750,111,64,0.49231
6009210,-0.14500,66.5625,111,64,0.48742
6009220,-0.14000,74.8750,111,64,0.47595
6009230,-0.13000,80.1250,111,64,0.47009
6009240,-0.11500,85.0625,111,64,0.46422
6009250,-0.08500,94.3750,111,64,0.44591
6009260,-0.08500,94.3750,111,64,0.44591
6009270,-0.04000,97.1250,111,64,0.43419
6009280,-0.01000,98.3125,111,64,0.42857
6009290,0.01500,101.1250,111,64,0.41905
6009300,0.01500,101.1250,111,64,0.41905
6009310,0.04500,102.7500,111,64,0.41587
6009320,0.07500,104.4375,111,64,0.41172
6009330,0.10000,106.0000,111,64,0.40513
6009340,0.11500,108.6250,111,64,0.39463
6009350,0.06500,110.3750,111,64,0.38486
6009360,0.02500,110.9375,111,64,0.37973
6009370,-0.01500,111.4375,111,64,0.36947
6009380,-0.01500,111.4375,111,64,0.36947
6009390,-0.06500,111.3750,111,64,0.36190
6009400,-0.07500,111.1250,111,64,0.35995
6009410,-0.07500,111.1250,111,64,0.35995
6009420,-0.09000,109.8750,111,64,0.34945
6009430,-0.09000,109.3125,111,64,0.34676
6009440,-0.09000,109.3125,111,64,0.34676
6009450,-0.09000,106.8750,111,64,0.35897
6009460,-0.09000,105.6875,111,64,0.37387
6009470,-0.08500,104.1250,111,64,0.39512
6009480,-0.08500,104.1250,111,64,0.39512
6009490,-0.08500,102.3125,111,64,0.42198
6009500,-0.08500,97.6250,111,64,0.48327
6009510,-0.08000,95.1875,111,64,0.51209
6009520,-0.07500,91.3125,111,64,0.57631
6009530,-0.07000,89.3750,111,64,0.63492
6009540,-0.07000,89.3750,111,64,0.63492
6009550,-0.06500,88.1875,111,64,0.68425
6009560,-0.06500,88.1875,111,64,0.68425
6009570,-0.06000,86.3750,111,64,0.74408
6009580,-0.05500,85.6875,111,64,0.76117
6009590,-0.05500,85.6875,111,64,0.76117
6009600,-0.05500,84.1875,111,64,0.78608
6009610,-0.05500,84.1875,111,64,0.78608
6009620,-0.05500,82.7500,111,64,0.81148
6009630,-0.05500,82.1250,111,64,0.82369
6009640,-0.05500,81.5625,111,64,0.83492
6009650,-0.05500,81.0000,111,64,0.84493
6009660,-0.06500,79.5625,111,64,0.86886
6009670,-0.06500,79.5625,111,64,0.86886
6009680,-0.05000,79.1250,111,64,0.87521
6009690,-0.01500,77.7500,111,64,0.88742
6009700,-0.01500,77.7500,111,64,0.88742
6009710,-0.01000,77.2500,111,64,0.88767
6009720,0.00000,76.8125,111,64,0.88742
6009730,-0.01000,75.4375,111,64,0.87888
6009740,-0.01000,75.4375,111,64,0.87888
6009750,-0.03500,74.6250,111,64,0.86398
6009760,-0.03500,74.6250,111,64,0.86398
6009770,-0.05500,73.3125,111,64,0.83321
6009780,-0.09500,72.8750,111,64,0.82173
6009790,-0.09500,72.4375,111,64,0.81074
6009800,-0.09500,72.4375,111,64,0.81074
6009810,-0.08500,72.0625,111,64,0.79976
6009820,-0.11500,70.8750,111,64,0.76386
6009830,-0.00500,70.5625,111,64,0.75433
6009840,0.37000,70.1875,111,64,0.74457
6009850,0.37000,70.1875,111,64,0.74457
6009860,1.13000,69.1250,111,64,0.71600
6009870,1.13000,69.1250,111,64,0.71600
6009880,0.78500,68.8125,111,64,0.70403
6009890,-0.04000,67.8750,111,64,0.67814
6009900,-0.04000,67.8750,111,64,0.67814
6009910,-0.13000,67.5000,111,64,0.66911
6009920,-0.17000,67.1875,111,64,0.66032
6009930,-0.19500,66.2500,111,64,0.63810
6009940,-0.19500,65.9375,111,64,0.62930
6009950,-0.19500,65.9375,111,64,0.62930
6009960,-0.19500,65.6875,111,64,0.62295
6009970,-0.19500,65.3750,111,64,0.61587
6009980,-0.19000,64.5625,111,64,0.59316
6009990,-0.18500,64.2500,111,64,0.58681
6010000,-0.18500,64.2500,112,64,0.58681
6010010,-0.18000,63.5625,112,64,0.56581
6010020,-0.18000,63.5625,112,64,0.56581
6010030,-0.17000,64.0625,112,64,0.55018
6010040,-0.16000,65.1875,112,64,0.54188
6010050,-0.16000,65.1875,112,64,0.54188
6010060,-0.15500,71.1250,112,64,0.52894
6010070,-0.13500,81.1875,112,64,0.51502
6010080,-0.13500,81.1875,112,64,0.51502
6010090,-0.12000,86.0625,112,64,0.50818
6010100,-0.08500,95.3750,112,64,0.48889
6010110,-0.08500,95.3750,112,64,0.48889
6010120,-0.06500,96.9375,112,64,0.48449
6010130,-0.04000,98.2500,112,64,0.47863
6010140,-0.01500,100.9375,112,64,0.46618
6010150,0.03000,104.1875,112,64,0.45446
6010160,0.06000,105.8125,112,64,0.44713
6010170,0.06000,105.8125,112,64,0.44713
6010180,0.08500,108.8125,112,64,0.43565
6010190,0.07500,111.0000,112,64,0.42393
6010200,0.07500,111.0000,112,64,0.42393
6010210,0.03500,111.6875,112,64,0.41929
6010220,-0.00500,112.6250,112,64,0.41050
6010230,-0.04500,112.8125,112,64,0.40513
6010240,-0.07000,112.8750,112,64,0.40000
6010250,-0.09500,112.2500,112,64,0.38608
6010260,-0.09500,112.2500,112,64,0.38608
6010270,-0.10500,111.8125,112,64,0.38193
6010280,-0.10500,111.2500,112,64,0.37924
6010290,-0.10500,109.2500,112,64,0.38657
6010300,-0.10500,109.2500,112,64,0.38657
6010310,-0.10000,108.3750,112,64,0.39292
6010320,-0.09500,107.2500,112,64,0.40537
6010330,-0.10000,105.8750,112,64,0.42418
6010340,-0.10000,102.0625,112,64,0.48816
6010350,-0.10000,97.1250,112,64,0.57509
6010360,-0.10000,94.7500,112,64,0.60342
6010370,-0.10000,94.7500,112,64,0.60342
6010380,-0.10000,91.5625,112,64,0.66081
6010390,-0.09000,90.0625,112,64,0.70330
6010400,-0.09000,90.0625,112,64,0.70330
6010410,-0.09000,88.3750,112,64,0.76508
6010420,-0.09000,87.7500,112,64,0.78950
6010430,-0.09000,87.7500,112,64,0.78950
6010440,-0.08000,86.3750,112,64,0.82906
6010450,-0.07500,85.0000,112,64,0.86178
6010460,-0.07500,85.0000,112,64,0.86178
6010470,-0.07500,83.6250,112,64,0.88596
6010480,-0.07500,83.0000,112,64,0.89353
6010490,-0.07500,83.0000,112,64,0.89353
6010500,-0.07500,81.3125,112,64,0.91966
6010510,-0.07500,80.8750,112,64,0.92747
6010520,-0.07500,80.8750,112,64,0.92747
6010530,-0.04500,79.4375,112,64,0.94628
6010540,-0.04500,79.4375,112,64,0.94628
6010550,-0.02500,78.5000,112,64,0.95360
6010560,-0.02500,78.5000,112,64,0.95360
6010570,-0.01000,78.0000,112,64,0.95507
6010580,-0.00500,77.1250,112,64,0.95165
6010590,-0.01500,76.6250,112,64,0.94603
6010600,-0.03500,76.1875,112,64,0.93846
6010610,-0.04000,75.7500,112,64,0.92991
6010620,-0.09000,74.5625,112,64,0.89841
6010630,-0.10500,74.1875,112,64,0.88645
6010640,-0.10500,74.1875,112,64,0.88645
6010650,-0.09500,73.7500,112,64,0.87448
6010660,-0.09000,72.5625,112,64,0.84054
6010670,-0.09000,72.5625,112,64,0.84054
6010680,-0.03000,71.7500,112,64,0.81905
6010690,0.30500,71.0625,112,64,0.68889
6010700,0.30500,71.0625,112,64,0.68889
6010710,1.07000,70.4375,112,64,0.62222
6010720,1.07000,70.4375,112,64,0.62222
6010730,0.30000,69.5000,112,64,0.58535
6010740,-0.02500,69.1250,112,64,0.57705
6010750,-0.02500,69.1250,112,64,0.57705
6010760,-0.17000,68.5625,112,64,0.56093
6010770,-0.19000,67.9375,112,64,0.54603
6010780,-0.19000,67.9375,112,64,0.54603
6010790,-0.20000,67.3750,112,64,0.53309
6010800,-0.20000,67.1250,112,64,0.52674
6010810,-0.20000,67.1250,112,64,0.52674
6010820,-0.20000,66.6250,112,64,0.51306
6010830,-0.20000,66.3125,112,64,0.50598
6010840,-0.19000,65.7500,112,64,0.49182
6010850,-0.19000,65.7500,112,64,0.49182
6010860,-0.19000,65.3125,112,64,0.47790
6010870,-0.18000,65.1875,112,64,0.47057
6010880,-0.18000,65.2500,112,64,0.46349
6010890,-0.17000,65.6250,112,64,0.45739
6010900,-0.15500,72.6250,112,64,0.43883
6010910,-0.15500,72.6250,112,64,0.43883
6010920,-0.14500,77.5000,112,64,0.43248
6010930,-0.13500,82.8125,112,64,0.42613
6010940,-0.12500,91.9375,112,64,0.41392
6010950,-0.09500,97.3125,112,64,0.40195
6010960,-0.07500,99.0000,112,64,0.39634
6010970,-0.07500,99.0000,112,64,0.39634
6010980,-0.02500,103.3125,112,64,0.38071
6010990,0.00000,105.0000,112,64,0.37656
6011000,0.02500,106.7500,111,64,0.37192
6011010,0.05500,110.0625,111,64,0.36239
6011020,0.05500,110.0625,111,64,0.36239
6011030,0.10000,112.6250,111,64,0.35238
6011040,0.10000,112.6250,111,64,0.35238
6011050,0.04500,115.0000,111,64,0.33773
6011060,0.00500,115.4375,111,64,0.33309
6011070,0.00500,115.4375,111,64,0.33309
6011080,-0.03500,115.6875,111,64,0.32869
6011090,-0.07500,115.6875,111,64,0.31917
6011100,-0.07500,115.6875,111,64,0.31917
6011110,-0.09500,115.1875,111,64,0.31160
6011120,-0.09500,115.1875,111,64,0.31160
6011130,-0.10000,113.6250,111,64,0.31184
6011140,-0.10000,113.6250,111,64,0.31184
6011150,-0.10000,112.8750,111,64,0.31893
6011160,-0.10000,112.0000,111,64,0.33089
6011170,-0.10000,111.0000,111,64,0.34750
6011180,-0.10500,108.1875,111,64,0.39219
6011190,-0.10500,106.3125,111,64,0.41490
6011200,-0.10500,104.0625,111,64,0.43687
6011210,-0.10500,101.5625,111,64,0.46154
6011220,-0.10000,96.6875,111,64,0.51160
6011230,-0.09500,94.8125,111,64,0.53553
6011240,-0.08500,92.6250,111,64,0.57973
6011250,-0.08500,92.6250,111,64,0.57973
6011260,-0.08500,91.3750,111,64,0.61905
6011270,-0.07500,90.2500,111,64,0.65568
6011280,-0.07500,90.2500,111,64,0.65568
6011290,-0.07500,89.6250,111,64,0.66984
6011300,-0.07500,87.4375,111,64,0.70940
6011310,-0.07500,87.4375,111,64,0.70940
6011320,-0.07500,85.9375,111,64,0.73651
6011330,-0.07500,84.6250,111,64,0.75995
6011340,-0.07500,84.0000,111,64,0.77021
6011350,-0.07000,83.3750,111,64,0.77998
6011360,-0.07000,83.3750,111,64,0.77998
6011370,-0.07500,82.8125,111,64,0.78901
6011380,-0.05500,81.3125,111,64,0.80928
6011390,-0.04000,80.8125,111,64,0.81197
6011400,-0.04000,80.8125,111,64,0.81197
6011410,-0.01500,79.4375,111,64,0.81880
6011420,-0.01500,79.4375,111,64,0.81880
6011430,-0.00500,78.4375,111,64,0.81661
6011440,-0.01500,78.0000,111,64,0.81319
6011450,-0.01500,78.0000,111,64,0.81319
6011460,-0.02500,77.1250,111,64,0.80098
6011470,-0.06000,76.2500,111,64,0.78388
6011480,-0.08000,75.8125,111,64,0.77411
6011490,-0.08000,75.8125,111,64,0.77411
6011500,-0.07500,74.5000,111,64,0.74359
6011510,-0.07500,74.5000,111,64,0.74359
6011520,-0.09000,73.6875,111,64,0.72381
6011530,-0.08000,73.0000,111,64,0.70501
6011540,-0.08000,73.0000,111,64,0.70501
6011550,0.12500,72.6250,111,64,0.69573
6011560,1.02000,72.0000,111,64,0.67741
6011570,0.98000,71.3750,111,64,0.65885
6011580,0.51000,71.0625,111,64,0.65006
6011590,0.51000,71.0625,111,64,0.65006
6011600,0.08500,70.7500,111,64,0.64151
6011610,-0.13500,69.8125,111,64,0.61636
6011620,-0.13500,69.8125,111,64,0.61636
6011630,-0.17500,69.1250,111,64,0.59976
6011640,-0.18000,68.8125,111,64,0.59121
6011650,-0.18000,68.8125,111,64,0.59121
6011660,-0.18500,67.8125,111,64,0.56654
6011670,-0.18500,67.5000,111,64,0.55849
6011680,-0.18500,67.5000,111,64,0.55849
6011690,-0.18500,67.1250,111,64,0.55092
6011700,-0.18000,66.0000,111,64,0.52796
6011710,-0.18000,66.0000,111,64,0.52796
6011720,-0.18000,65.6875,111,64,0.51990
6011730,-0.16500,65.8750,111,64,0.49548
6011740,-0.16500,65.8750,111,64,0.49548
6011750,-0.15500,66.9375,111,64,0.48767
6011760,-0.14500,72.9375,111,64,0.47253
6011770,-0.14500,72.9375,111,64,0.47253
6011780,-0.13500,83.1250,111,64,0.45788
6011790,-0.10500,91.8750,111,64,0.44542
6011800,-0.10500,91.8750,111,64,0.44542
6011810,-0.09000,94.8125,111,64,0.43907
6011820,-0.05500,99.8125,111,64,0.42076
6011830,-0.05500,99.8125,111,64,0.42076
6011840,-0.01500,102.6875,111,64,0.40879
6011850,0.01000,106.0625,111,64,0.39634
6011860,0.01000,106.0625,111,64,0.39634
6011870,0.04500,107.6875,111,64,0.38999
6011880,0.11000,110.5625,111,64,0.37851
6011890,0.10500,112.5625,111,64,0.36850
6011900,0.10500,112.5625,111,64,0.36850
6011910,0.08000,113.2500,111,64,0.36264
6011920,0.00000,114.1250,111,64,0.35092
6011930,-0.03500,114.4375,111,64,0.33895
6011940,-0.05500,114.4375,111,64,0.33309
6011950,-0.05500,114.4375,111,64,0.33309
6011960,-0.07500,114.0625,111,64,0.32210
6011970,-0.07500,113.2500,111,64,0.31404
6011980,-0.07500,113.2500,111,64,0.31404
6011990,-0.08500,112.0000,111,64,0.31477
6012000,-0.08500,112.0000,111,64,0.31477
6012010,-0.08500,109.1875,111,64,0.34432
6012020,-0.08500,109.1875,111,64,0.34432
6012030,-0.08500,107.8125,111,64,0.36313
6012040,-0.09500,104.1250,111,64,0.41050
6012050,-0.09500,99.3125,111,64,0.46227
6012060,-0.09500,99.3125,111,64,0.46227
6012070,-0.09000,94.5625,111,64,0.51209
6012080,-0.08500,92.8125,111,64,0.53236
6012090,-0.08500,92.8125,111,64,0.53236
6012100,-0.08000,90.0625,111,64,0.58828
6012110,-0.07500,89.5000,111,64,0.60708
6012120,-0.07500,89.5000,111,64,0.60708
6012130,-0.06500,87.6875,111,64,0.66007
6012140,-0.06500,87.6875,111,64,0.66007
6012150,-0.06500,86.1875,111,64,0.69206
6012160,-0.06500,86.1875,111,64,0.69206
6012170,-0.06500,85.4375,111,64,0.70696
6012180,-0.06500,83.9375,111,64,0.73431
6012190,-0.06000,83.2500,111,64,0.74383
6012200,-0.06000,82.6250,111,64,0.75116
6012210,-0.06000,82.0000,111,64,0.75971
6012220,-0.05500,80.9375,111,64,0.77680
6012230,-0.04500,80.3750,111,64,0.78462
6012240,-0.03000,79.8750,111,64,0.79145
6012250,-0.00500,78.3750,111,64,0.80537
6012260,-0.00500,78.3750,111,64,0.80537
6012270,0.01000,77.8750,111,64,0.80708
6012280,0.02500,77.3750,111,64,0.80708
6012290,0.01500,76.8750,111,64,0.80440
6012300,-0.00500,75.8750,111,64,0.79414
6012310,-0.01000,75.3750,111,64,0.78706
6012320,-0.02500,74.9375,111,64,0.77851
6012330,-0.05500,74.4375,111,64,0.76874
6012340,-0.07500,73.5000,111,64,0.74628
6012350,-0.07000,73.0625,111,64,0.73407
6012360,-0.06500,72.6250,111,64,0.72186
6012370,-0.06500,72.2500,111,64,0.70940
6012380,-0.09000,71.3750,111,64,0.68596
6012390,-0.05000,71.0000,111,64,0.67521
6012400,0.25500,70.5625,111,64,0.66422
6012410,0.77500,70.1875,111,64,0.65324
6012420,1.10000,69.5000,111,64,0.63077
6012430,0.39000,68.8750,111,64,0.60952
6012440,0.39000,68.8750,111,64,0.60952
6012450,0.02000,68.5000,111,64,0.59902
6012460,-0.08500,67.7500,111,64,0.57802
6012470,-0.13000,67.4375,111,64,0.56777
6012480,-0.15500,67.1250,111,64,0.55727
6012490,-0.16000,66.7500,111,64,0.54750
6012500,-0.16500,65.8125,111,64,0.51819
6012510,-0.16500,65.8125,111,64,0.51819
6012520,-0.16500,65.2500,111,64,0.49841
6012530,-0.16500,64.5625,111,64,0.47937
6012540,-0.16000,64.1875,111,64,0.46960
6012550,-0.15500,63.8125,111,64,0.45983
6012560,-0.15500,63.8125,111,64,0.45983
6012570,-0.15500,63.5000,111,64,0.45031
6012580,-0.14500,63.0625,111,64,0.43297
6012590,-0.14000,63.0625,111,64,0.42564
6012600,-0.13500,63.3750,111,64,0.41709
6012610,-0.11500,69.9375,111,64,0.38974
6012620,-0.11500,69.9375,111,64,0.38974
6012630,-0.09500,79.5625,111,64,0.37216
6012640,-0.08000,84.2500,111,64,0.36386
6012650,-0.08000,84.2500,111,64,0.36386
6012660,-0.04500,93.0000,111,64,0.33944
6012670,-0.04500,93.0000,111,64,0.33944
6012680,-0.02500,94.3750,111,64,0.33138
6012690,0.01000,97.8750,111,64,0.31184
6012700,0.01000,97.8750,111,64,0.31184
6012710,0.04000,99.1875,111,64,0.30476
6012720,0.09500,102.0000,111,64,0.29060
6012730,0.09500,102.0000,111,64,0.29060
6012740,0.11000,104.5000,111,64,0.27106
6012750,0.09000,105.5000,111,64,0.25592
6012760,0.02500,106.7500,111,64,0.23736
6012770,0.02500,106.7500,111,64,0.23736
6012780,-0.00500,107.3125,111,64,0.22540
6012790,-0.03500,107.3125,111,64,0.22149
6012800,-0.05500,107.1875,111,64,0.21636
6012810,-0.07000,107.0000,111,64,0.21074
6012820,-0.08000,106.2500,111,64,0.20024
6012830,-0.08000,105.6875,111,64,0.19560
6012840,-0.08500,105.1250,111,64,0.19219
6012850,-0.08500,102.3125,111,64,0.19707
6012860,-0.08500,102.3125,111,64,0.19707
6012870,-0.08500,100.9375,111,64,0.20659
6012880,-0.07500,97.1875,111,64,0.23590
6012890,-0.07500,92.5000,111,64,0.27448
6012900,-0.07500,92.5000,111,64,0.27448
6012910,-0.06500,90.3750,111,64,0.29768
6012920,-0.06500,88.7500,111,64,0.32186
6012930,-0.05500,86.2500,111,64,0.39048
6012940,-0.05500,86.2500,111,64,0.39048
6012950,-0.05000,85.7500,111,64,0.41099
6012960,-0.05500,84.7500,111,64,0.44860
6012970,-0.05500,84.7500,111,64,0.44860
6012980,-0.05000,83.5000,111,64,0.48034
6012990,-0.04500,82.8125,111,64,0.49280
6013000,-0.04500,82.1250,111,64,0.50623
6013010,-0.04500,81.4375,111,64,0.51966
6013020,-0.04500,80.1250,111,64,0.54554
6013030,-0.04500,79.5625,111,64,0.55751
6013040,-0.05000,79.0000,111,64,0.56850
6013050,-0.05000,78.4375,111,64,0.57851
6013060,-0.05000,77.0625,111,64,0.60269
6013070,-0.03500,76.6250,111,64,0.60855
6013080,-0.03500,76.6250,111,64,0.60855
6013090,-0.00500,75.3125,111,64,0.61587
6013100,0.00000,74.8125,111,64,0.61709
6013110,0.00000,74.8125,111,64,0.61709
6013120,0.01000,73.9375,111,64,0.61490
6013130,0.01000,73.9375,111,64,0.61490
6013140,-0.02500,72.6250,111,64,0.59902
6013150,-0.02500,72.6250,111,64,0.59902
6013160,-0.03500,72.1875,111,64,0.59096
6013170,-0.07500,70.9375,111,64,0.56337
6013180,-0.07500,70.9375,111,64,0.56337
6013190,-0.08000,70.5625,111,64,0.55482
6013200,-0.07500,70.1250,111,64,0.54603
6013210,-0.06500,69.7500,111,64,0.53748
6013220,-0.09500,68.5625,111,64,0.51209
6013230,-0.09500,68.5625,111,64,0.51209
6013240,0.10500,68.2500,111,64,0.50379
6013250,1.05500,67.2500,111,64,0.47814
6013260,1.05500,67.2500,111,64,0.47814
6013270,1.07500,66.9375,111,64,0.46960
6013280,0.12000,66.3125,111,64,0.45421
6013290,0.12000,66.3125,111,64,0.45421
6013300,-0.05500,65.6875,111,64,0.43980
6013310,-0.12000,65.4375,111,64,0.43199
6013320,-0.16500,64.8125,111,64,0.41661
6013330,-0.16500,64.8125,111,64,0.41661
6013340,-0.17000,64.1875,111,64,0.40122
6013350,-0.17000,63.6250,111,64,0.38559
6013360,-0.17000,63.6250,111,64,0.38559
6013370,-0.17000,62.6875,111,64,0.36435
6013380,-0.17000,62.6875,111,64,0.36435
6013390,-0.16500,62.3750,111,64,0.35873
6013400,-0.16000,61.8125,111,64,0.34530
6013410,-0.16000,61.8125,111,64,0.34530
6013420,-0.15000,61.5000,111,64,0.32430
6013430,-0.15000,61.5000,111,64,0.32430
6013440,-0.14500,61.8125,111,64,0.31746
6013450,-0.14000,62.7500,111,64,0.31087
6013460,-0.11500,72.5000,111,64,0.29133
6013470,-0.10500,77.5625,111,64,0.28474
6013480,-0.10500,77.5625,111,64,0.28474
6013490,-0.08500,89.5625,111,64,0.27033
6013500,-0.08500,89.5625,111,64,0.27033
6013510,-0.05000,93.1875,111,64,0.25910
6013520,-0.05000,93.1875,111,64,0.25910
6013530,-0.03000,94.3750,111,64,0.25348
6013540,0.01500,98.1250,111,64,0.23761
6013550,0.01500,98.1250,111,64,0.23761
6013560,0.04000,99.5625,111,64,0.23223
6013570,0.07000,101.0625,111,64,0.22686
6013580,0.09500,103.7500,111,64,0.21807
6013590,0.10000,104.8125,111,64,0.21490
6013600,0.04000,106.3125,111,64,0.20562
6013610,0.00500,107.0000,111,64,0.19585
6013620,0.00500,107.0000,111,64,0.19585
6013630,-0.05000,107.0625,111,64,0.18657
6013640,-0.06500,106.9375,111,64,0.18217
6013650,-0.06500,106.9375,111,64,0.18217
6013660,-0.07500,106.0000,111,64,0.16972
6013670,-0.07500,105.4375,111,64,0.16703
6013680,-0.07500,105.4375,111,64,0.16703
6013690,-0.08000,103.1250,111,64,0.17289
6013700,-0.08000,103.1250,111,64,0.17289
6013710,-0.08000,101.9375,111,64,0.18120
6013720,-0.08500,98.6875,111,64,0.21148
6013730,-0.08500,98.6875,111,64,0.21148
6013740,-0.08000,94.0625,111,64,0.25763
6013750,-0.07000,89.6875,111,64,0.31136
6013760,-0.07000,89.6875,111,64,0.31136
6013770,-0.07000,86.5000,111,64,0.38437
6013780,-0.07000,86.5000,111,64,0.38437
6013790,-0.07000,86.0000,111,64,0.40269
6013800,-0.06500,85.1250,111,64,0.44103
6013810,-0.06500,84.0000,111,64,0.47717
6013820,-0.06500,84.0000,111,64,0.47717
6013830,-0.06000,82.6250,111,64,0.51087
6013840,-0.05500,81.9375,111,64,0.52698
6013850,-0.05500,81.9375,111,64,0.52698
6013860,-0.05500,80.0000,111,64,0.57070
6013870,-0.05500,80.0000,111,64,0.57070
6013880,-0.05500,78.9375,111,64,0.59316
6013890,-0.05500,78.0000,111,64,0.60928
6013900,-0.05500,78.0000,111,64,0.60928
6013910,-0.05500,77.5000,111,64,0.61734
6013920,-0.02500,76.6250,111,64,0.63126
6013930,-0.02500,76.6250,111,64,0.63126
6013940,0.00000,75.2500,111,64,0.64420
6013950,0.00500,74.8125,111,64,0.64591
6013960,0.00500,74.8125,111,64,0.64591
6013970,0.01500,74.3750,111,64,0.64591
6013980,-0.00500,73.1875,111,64,0.63516
6013990,-0.00500,73.1875,111,64,0.63516
6014000,-0.03500,72.3125,111,64,0.62100
6014010,-0.05500,71.5000,111,64,0.60391
6014020,-0.05500,71.5000,111,64,0.60391
6014030,-0.07000,71.0625,111,64,0.59487
6014040,-0.06500,70.2500,111,64,0.57631
6014050,-0.06500,70.2500,111,64,0.57631
6014060,-0.06500,69.4375,111,64,0.55751
6014070,-0.07500,68.6875,111,64,0.53968
6014080,-0.07500,68.6875,111,64,0.53968
6014090,0.70000,67.6250,111,64,0.51355
6014100,1.10500,67.3125,111,64,0.50452
6014110,1.10500,67.3125,111,64,0.50452
6014120,0.47500,66.7500,111,64,0.48742
6014130,0.06000,66.1875,111,64,0.47155
6014140,0.06000,66.1875,111,64,0.47155
6014150,-0.13000,65.5625,111,64,0.45592
6014160,-0.15500,65.3125,111,64,0.44835
6014170,-0.16500,64.6875,111,64,0.43419
6014180,-0.16500,64.6875,111,64,0.43419
6014190,-0.17000,64.4375,111,64,0.42759
6014200,-0.17500,64.1875,111,64,0.42051
6014210,-0.18000,63.8750,111,64,0.41319
6014220,-0.17500,63.3125,111,64,0.39902
6014230,-0.17500,62.6250,111,64,0.38462
6014240,-0.17500,62.6250,111,64,0.38462
6014250,-0.17000,62.3125,111,64,0.37729
6014260,-0.16500,61.8125,111,64,0.35580
6014270,-0.16500,61.8125,111,64,0.35580
6014280,-0.15500,61.9375,111,64,0.34994
6014290,-0.15000,62.5625,111,64,0.34457
6014300,-0.13000,71.2500,111,64,0.32454
6014310,-0.13000,71.2500,111,64,0.32454
6014320,-0.12000,76.3125,111,64,0.31770
6014330,-0.11500,81.5000,111,64,0.31087
6014340,-0.10000,89.5625,111,64,0.29817
6014350,-0.08500,92.1250,111,64,0.29182
6014360,-0.06500,93.8750,111,64,0.28571
6014370,-0.04500,95.0625,111,64,0.27985
6014380,0.00000,98.7500,111,64,0.26593
6014390,0.03000,100.2500,111,64,0.26154
6014400,0.03000,100.2500,111,64,0.26154
6014410,0.08500,104.8125,111,64,0.24689
6014420,0.08500,104.8125,111,64,0.24689
6014430,0.10000,106.0000,111,64,0.24176
6014440,0.06500,107.7500,111,64,0.23126
6014450,0.06500,107.7500,111,64,0.23126
6014460,-0.01500,108.8750,111,64,0.21563
6014470,-0.01500,108.8750,111,64,0.21563
6014480,-0.04500,109.0000,111,64,0.21172
6014490,-0.06500,108.9375,111,64,0.20879
6014500,-0.08500,108.1875,111,64,0.19707
6014510,-0.08500,108.1875,111,64,0.19707
6014520,-0.08500,107.6875,111,64,0.19341
6014530,-0.09000,105.7500,111,64,0.19438
6014540,-0.09000,105.7500,111,64,0.19438
6014550,-0.09500,104.8125,111,64,0.20171
6014560,-0.09500,102.1875,111,64,0.23053
6014570,-0.09500,102.1875,111,64,0.23053
6014580,-0.09000,98.3125,111,64,0.27277
6014590,-0.09000,95.9375,111,64,0.29451
6014600,-0.08500,93.3750,111,64,0.31941
6014610,-0.08500,91.0625,111,64,0.34554
6014620,-0.07500,88.0625,111,64,0.39585
6014630,-0.07500,87.2500,111,64,0.41929
6014640,-0.07000,86.8125,111,64,0.44127
6014650,-0.06500,86.3750,111,64,0.46203
6014660,-0.06500,84.8125,111,64,0.51893
6014670,-0.06500,84.8125,111,64,0.51893
6014680,-0.05500,84.1875,111,64,0.53358
6014690,-0.05500,82.1875,111,64,0.57534
6014700,-0.05500,82.1875,111,64,0.57534
6014710,-0.05500,80.8125,111,64,0.60244
6014720,-0.05500,80.8125,111,64,0.60244
6014730,-0.05500,80.2500,111,64,0.61441
6014740,-0.05500,78.6875,111,64,0.64444
6014750,-0.05500,78.6875,111,64,0.64444
6014760,-0.05000,78.2500,111,64,0.65275
6014770,-0.01000,76.8750,111,64,0.67033
6014780,-0.01000,76.8750,111,64,0.67033
6014790,0.01000,75.9375,111,64,0.72112
6014800,0.02000,75.4375,111,64,0.73626
6014810,0.02000,75.4375,111,64,0.73626
6014820,0.02500,74.6250,111,64,0.74432
6014830,0.00000,74.1875,111,64,0.74237
6014840,-0.00500,73.8125,111,64,0.73773
6014850,-0.01500,73.3750,111,64,0.73114
6014860,-0.07000,72.1875,111,64,0.70354
6014870,-0.07000,72.1875,111,64,0.70354
6014880,-0.07500,71.7500,111,64,0.69377
6014890,-0.06500,70.5000,111,64,0.66398
6014900,-0.06500,70.5000,111,64,0.66398
6014910,-0.07500,70.1250,111,64,0.65421
6014920,0.03500,69.3750,111,64,0.63492
6014930,0.03500,69.3750,111,64,0.63492
6014940,0.45000,68.6875,111,64,0.61612
6014950,0.96000,68.3750,111,64,0.60659
6014960,1.14500,68.1250,111,64,0.59707
6014970,0.73000,67.8125,111,64,0.58755
6014980,-0.04000,66.8125,111,64,0.56142
6014990,-0.04000,66.8125,111,64,0.56142
6015000,-0.12500,66.5000,112,64,0.55311
6015010,-0.16500,66.1250,112,64,0.54505
6015020,-0.18500,65.5625,112,64,0.52967
6015030,-0.19000,65.3125,112,64,0.52186
6015040,-0.19000,65.0000,112,64,0.51404
6015050,-0.19000,64.7500,112,64,0.50623
6015060,-0.19000,63.7500,112,64,0.48352
6015070,-0.19000,63.7500,112,64,0.48352
6015080,-0.19000,63.4375,112,64,0.47668
6015090,-0.18500,63.1250,112,64,0.47033
6015100,-0.17500,62.6250,112,64,0.45641
6015110,-0.17000,62.4375,112,64,0.44908
6015120,-0.16000,62.4375,112,64,0.44176
6015130,-0.15000,66.2500,112,64,0.41905
6015140,-0.15000,66.2500,112,64,0.41905
6015150,-0.14000,69.9375,112,64,0.41221
6015160,-0.12000,79.9375,112,64,0.39878
6015170,-0.12000,79.9375,112,64,0.39878
6015180,-0.10500,88.6875,112,64,0.38706
6015190,-0.07500,93.7500,112,64,0.37729
6015200,-0.07500,93.7500,112,64,0.37729
6015210,-0.05500,95.1875,112,64,0.37167
6015220,-0.03500,97.6250,112,64,0.35971
6015230,-0.01000,99.0000,112,64,0.35409
6015240,0.01000,100.5625,112,64,0.34847
6015250,0.04000,102.2500,112,64,0.34286
6015260,0.07000,105.3750,112,64,0.33236
6015270,0.09500,107.9375,112,64,0.32308
6015280,0.09500,107.9375,112,64,0.32308
6015290,0.07500,108.8125,112,64,0.31966
6015300,0.04000,109.9375,112,64,0.31038
6015310,0.00000,110.2500,112,64,0.30549
6015320,-0.03000,110.3750,112,64,0.30037
6015330,-0.05500,110.3750,112,64,0.29524
6015340,-0.08000,109.9375,112,64,0.28059
6015350,-0.08000,109.9375,112,64,0.28059
6015360,-0.08500,109.1250,112,64,0.27350
6015370,-0.08500,109.1250,112,64,0.27350
6015380,-0.08500,107.8750,112,64,0.27448
6015390,-0.08500,107.0625,112,64,0.27961
6015400,-0.08500,106.0625,112,64,0.28840
6015410,-0.08500,104.8750,112,64,0.30134
6015420,-0.08000,99.3750,112,64,0.36337
6015430,-0.08000,99.3750,112,64,0.36337
6015440,-0.08000,94.4375,112,64,0.41392
6015450,-0.07500,90.5000,112,64,0.46300
6015460,-0.07500,90.5000,112,64,0.46300
6015470,-0.07500,88.6875,112,64,0.50476
6015480,-0.07500,88.6875,112,64,0.50476
6015490,-0.07000,87.2500,112,64,0.55702
6015500,-0.06500,86.6250,112,64,0.57485
6015510,-0.06500,86.6250,112,64,0.57485
6015520,-0.06500,85.3125,112,64,0.60879
6015530,-0.06500,83.8750,112,64,0.64005
6015540,-0.06500,83.8750,112,64,0.64005
6015550,-0.06500,82.4375,112,64,0.66813
6015560,-0.06500,81.8125,112,64,0.68059
6015570,-0.06000,80.6875,112,64,0.70037
6015580,-0.05500,80.1875,112,64,0.70720
6015590,-0.05500,80.1875,112,64,0.70720
6015600,-0.04500,79.2500,112,64,0.72210
6015610,-0.04500,79.2500,112,64,0.72210
6015620,-0.00500,77.8125,112,64,0.73919
6015630,-0.00500,77.8125,112,64,0.73919
6015640,-0.00500,77.3125,112,64,0.74286
6015650,0.01000,76.0000,112,64,0.74505
6015660,0.01000,76.0000,112,64,0.74505
6015670,-0.01000,75.1250,112,64,0.73871
6015680,-0.02500,74.6875,112,64,0.73284
6015690,-0.02500,74.6875,112,64,0.73284
6015700,-0.07000,73.5000,112,64,0.70794
6015710,-0.08500,73.0625,112,64,0.69792
6015720,-0.08500,73.0625,112,64,0.69792
6015730,-0.08000,71.8750,112,64,0.66642
6015740,-0.08000,71.8750,112,64,0.66642
6015750,-0.10500,71.0625,112,64,0.64615
6015760,-0.10500,71.0625,112,64,0.64615
6015770,0.22500,69.8750,112,64,0.61880
6015780,0.22500,69.8750,112,64,0.61880
6015790,0.74500,69.5625,112,64,0.61099
6015800,0.94000,68.9375,112,64,0.59389
6015810,0.94000,68.9375,112,64,0.59389
6015820,0.02000,68.0000,112,64,0.56777
6015830,-0.10500,67.6875,112,64,0.55897
6015840,-0.10500,67.6875,112,64,0.55897
6015850,-0.18000,66.7500,112,64,0.53284
6015860,-0.18000,66.7500,112,64,0.53284
6015870,-0.19000,66.4375,112,64,0.52430
6015880,-0.19000,66.1250,112,64,0.51697
6015890,-0.19000,65.8750,112,64,0.50989
6015900,-0.19000,65.3125,112,64,0.49402
6015910,-0.19000,65.0000,112,64,0.48620
6015920,-0.18000,64.3125,112,64,0.47033
6015930,-0.17000,63.8125,112,64,0.45543
6015940,-0.17000,63.8125,112,64,0.45543
6015950,-0.16000,63.6250,112,64,0.44127
6015960,-0.16000,63.8125,112,64,0.43419
6015970,-0.15500,66.4375,112,64,0.42295
6015980,-0.15000,69.6250,112,64,0.41661
6015990,-0.15000,69.6250,112,64,0.41661
6016000,-0.13000,79.2500,112,64,0.40391
6016010,-0.13000,79.2500,112,64,0.40391
6016020,-0.11000,92.1250,112,64,0.38437
6016030,-0.09500,94.5000,112,64,0.37827
6016040,-0.09500,94.5000,112,64,0.37827
6016050,-0.06000,98.7500,112,64,0.35995
6016060,-0.03500,100.1875,112,64,0.35385
6016070,-0.01500,101.7500,112,64,0.34921
6016080,0.01000,103.4375,112,64,0.34530
6016090,0.01000,103.4375,112,64,0.34530
6016100,0.07000,108.1250,112,64,0.33089
6016110,0.09000,109.3125,112,64,0.32601
6016120,0.09000,109.3125,112,64,0.32601
6016130,0.05500,111.6250,112,64,0.31087
6016140,0.01500,112.0000,112,64,0.30598
6016150,0.01500,112.0000,112,64,0.30598
6016160,-0.04500,112.3125,112,64,0.29621
6016170,-0.04500,112.3125,112,64,0.29621
6016180,-0.06500,112.2500,112,64,0.29011
6016190,-0.08500,112.0625,112,64,0.28669
6016200,-0.09000,111.7500,112,64,0.28303
6016210,-0.09500,111.3750,112,64,0.28010
6016220,-0.09500,110.2500,112,64,0.27888
6016230,-0.10000,109.5625,112,64,0.28254
6016240,-0.10500,108.6875,112,64,0.29035
6016250,-0.10000,107.6875,112,64,0.30281
6016260,-0.10500,103.0000,112,64,0.36215
6016270,-0.10500,103.0000,112,64,0.36215
6016280,-0.10000,98.2500,112,64,0.40513
6016290,-0.10000,93.5000,112,64,0.45250
6016300,-0.10000,93.5000,112,64,0.45250
6016310,-0.10000,90.8125,112,64,0.49963
6016320,-0.10000,90.8125,112,64,0.49963
6016330,-0.09500,90.0625,112,64,0.52161
6016340,-0.09500,89.1250,112,64,0.56239
6016350,-0.09500,88.5625,112,64,0.58169
6016360,-0.09000,88.0000,112,64,0.60049
6016370,-0.09000,85.9375,112,64,0.64542
6016380,-0.09000,85.9375,112,64,0.64542
6016390,-0.09500,85.1875,112,64,0.65910
6016400,-0.08500,83.8750,112,64,0.68645
6016410,-0.08500,83.8750,112,64,0.68645
6016420,-0.08000,82.1250,112,64,0.72161
6016430,-0.08000,81.5625,112,64,0.73138
6016440,-0.08000,81.5625,112,64,0.73138
6016450,-0.06500,80.0625,112,64,0.75409
6016460,-0.06500,80.0625,112,64,0.75409
6016470,-0.02000,79.1250,112,64,0.76239
6016480,-0.01500,78.6250,112,64,0.76386
6016490,-0.01500,78.6250,112,64,0.76386
6016500,0.00000,77.2500,112,64,0.76508
6016510,-0.01000,76.8125,112,64,0.76313
6016520,-0.02500,76.3750,112,64,0.75946
6016530,-0.03500,75.5000,112,64,0.74725
6016540,-0.05000,75.0625,112,64,0.73895
6016550,-0.05000,75.0625,112,64,0.73895
6016560,-0.07500,74.6250,112,64,0.72943
6016570,-0.09000,73.3750,112,64,0.70061
6016580,-0.09000,73.3750,112,64,0.70061
6016590,-0.09000,73.0000,112,64,0.69109
6016600,-0.10500,72.1875,112,64,0.67204
6016610,-0.10500,72.1875,112,64,0.67204
6016620,-0.07500,71.5000,112,64,0.65348
6016630,0.69500,70.8125,112,64,0.63468
6016640,0.69500,70.8125,112,64,0.63468
6016650,1.06000,70.5000,112,64,0.62540
6016660,0.94000,69.8125,112,64,0.60659
6016670,0.42000,69.5000,112,64,0.59707
6016680,0.02500,69.1875,112,64,0.58852
6016690,-0.15500,68.3125,112,64,0.56386
6016700,-0.15500,68.3125,112,64,0.56386
6016710,-0.18000,68.0000,112,64,0.55580
6016720,-0.19500,67.3750,112,64,0.53919
6016730,-0.19500,67.3750,112,64,0.53919
6016740,-0.20000,66.8125,112,64,0.52234
6016750,-0.20000,66.3125,112,64,0.50623
6016760,-0.20000,66.3125,112,64,0.50623
6016770,-0.19500,66.0000,112,64,0.49841
6016780,-0.19000,65.4375,112,64,0.48523
6016790,-0.19000,65.1875,112,64,0.47863
6016800,-0.18000,65.0000,112,64,0.46398
6016810,-0.18000,65.0000,112,64,0.46398
6016820,-0.17500,66.1875,112,64,0.44933
6016830,-0.16000,71.4375,112,64,0.43077
6016840,-0.15000,76.0000,112,64,0.41636
6016850,-0.15000,76.0000,112,64,0.41636
6016860,-0.12500,90.8750,112,64,0.38901
6016870,-0.11000,94.2500,112,64,0.38291
6016880,-0.11000,94.2500,112,64,0.38291
6016890,-0.09500,96.7500,112,64,0.37802
6016900,-0.08000,99.9375,112,64,0.36728
6016910,-0.06000,101.3125,112,64,0.36190
6016920,-0.01000,104.5000,112,64,0.35018
6016930,0.01500,108.0000,112,64,0.33895
6016940,0.01500,108.0000,112,64,0.33895
6016950,0.07000,111.0625,112,64,0.32845
6016960,0.09000,112.3125,112,64,0.32332
6016970,0.09000,112.3125,112,64,0.32332
6016980,0.08000,114.1875,112,64,0.31624
6016990,0.05000,114.8125,112,64,0.31209
6017000,-0.03000,115.5625,111,64,0.30379
6017010,-0.05500,115.8125,111,64,0.29524
6017020,-0.05500,115.8125,111,64,0.29524
6017030,-0.07500,115.7500,111,64,0.29109
6017040,-0.08500,115.6250,111,64,0.28718
6017050,-0.09000,115.3125,111,64,0.28376
6017060,-0.09000,114.5000,111,64,0.28034
6017070,-0.09000,113.9375,111,64,0.28205
6017080,-0.09000,113.3125,111,64,0.28645
6017090,-0.09500,112.5625,111,64,0.29353
6017100,-0.09500,109.1250,111,64,0.33968
6017110,-0.09500,107.4375,111,64,0.36215
6017120,-0.09500,107.4375,111,64,0.36215
6017130,-0.08500,100.3750,111,64,0.43858
6017140,-0.08500,100.3750,111,64,0.43858
6017150,-0.08500,97.8750,111,64,0.46374
6017160,-0.08500,95.7500,111,64,0.48767
6017170,-0.08500,92.4375,111,64,0.54652
6017180,-0.08500,92.4375,111,64,0.54652
6017190,-0.08500,91.8750,111,64,0.56532
6017200,-0.07500,90.8125,111,64,0.60415
6017210,-0.07500,90.8125,111,64,0.60415
6017220,-0.07500,89.6250,111,64,0.64127
6017230,-0.07500,88.1875,111,64,0.67546
6017240,-0.07500,88.1875,111,64,0.67546
6017250,-0.06500,86.0000,111,64,0.71844
6017260,-0.06500,85.3750,111,64,0.73089
6017270,-0.06500,85.3750,111,64,0.73089
6017280,-0.06500,84.7500,111,64,0.73993
6017290,-0.06500,84.1875,111,64,0.74725
6017300,-0.06500,83.0625,111,64,0.76410
6017310,-0.06000,82.5625,111,64,0.77241
6017320,-0.04000,82.0625,111,64,0.77998
6017330,-0.02500,81.6250,111,64,0.78657
6017340,-0.01000,80.1875,111,64,0.79878
6017350,-0.01000,80.1875,111,64,0.79878
6017360,-0.00500,79.1875,111,64,0.79902
6017370,-0.02500,78.2500,111,64,0.79048
6017380,-0.02500,78.2500,111,64,0.79048
6017390,-0.03000,77.7500,111,64,0.78413
6017400,-0.04500,77.3125,111,64,0.77680
6017410,-0.07500,76.8750,111,64,0.76801
6017420,-0.08500,76.0625,111,64,0.74799
6017430,-0.08000,75.1875,111,64,0.72674
6017440,-0.08000,74.7500,111,64,0.71575
6017450,-0.08000,74.7500,111,64,0.71575
6017460,-0.05000,73.6250,111,64,0.68400
6017470,-0.05000,73.6250,111,64,0.68400
6017480,0.71000,72.9375,111,64,0.66471
6017490,1.05500,72.2500,111,64,0.64493
6017500,1.05500,72.2500,111,64,0.64493
6017510,0.87500,71.9375,111,64,0.63492
6017520,0.01000,71.2500,111,64,0.61563
6017530,0.01000,71.2500,111,64,0.61563
6017540,-0.11000,70.6250,111,64,0.59731
6017550,-0.18000,70.0000,111,64,0.57851
6017560,-0.18000,70.0000,111,64,0.57851
6017570,-0.18500,69.6250,111,64,0.56899
6017580,-0.18500,68.8125,111,64,0.54359
6017590,-0.18500,68.8125,111,64,0.54359
6017600,-0.18500,68.2500,111,64,0.52552
6017610,-0.18500,67.6875,111,64,0.50818
6017620,-0.18500,67.6875,111,64,0.50818
6017630,-0.18000,67.1250,111,64,0.49182
6017640,-0.18000,67.1250,111,64,0.49182
6017650,-0.18000,66.9375,111,64,0.48376
6017660,-0.17000,67.6875,111,64,0.45958
6017670,-0.17000,67.6875,111,64,0.45958
6017680,-0.15500,69.3125,111,64,0.45250
6017690,-0.14500,81.5000,111,64,0.43248
6017700,-0.14000,86.6250,111,64,0.42540
6017710,-0.14000,86.6250,111,64,0.42540
6017720,-0.11500,94.5625,111,64,0.41172
6017730,-0.10000,98.8125,111,64,0.39829
6017740,-0.10000,98.8125,111,64,0.39829
6017750,-0.05500,101.5000,111,64,0.38535
6017760,-0.03500,102.9375,111,64,0.37900
6017770,-0.01000,106.0625,111,64,0.36947
6017780,-0.01000,106.0625,111,64,0.36947
6017790,0.02000,107.6875,111,64,0.36410
6017800,0.08000,110.6875,111,64,0.35263
6017810,0.08000,110.6875,111,64,0.35263
6017820,0.10000,112.8750,111,64,0.34164
6017830,0.09000,113.6875,111,64,0.33651
6017840,0.03000,114.8125,111,64,0.32650
6017850,-0.00500,115.3125,111,64,0.31648
6017860,-0.00500,115.3125,111,64,0.31648
6017870,-0.02500,115.3750,111,64,0.31282
6017880,-0.05000,115.3125,111,64,0.30989
6017890,-0.06500,115.1250,111,64,0.30623
6017900,-0.07000,114.4375,111,64,0.29963
6017910,-0.07500,113.9375,111,64,0.29792
6017920,-0.08000,113.3750,111,64,0.29841
6017930,-0.08000,112.6875,111,64,0.30159
6017940,-0.08500,109.6875,111,64,0.33358
6017950,-0.08500,109.6875,111,64,0.33358
6017960,-0.08500,108.2500,111,64,0.35214
6017970,-0.08500,101.9375,111,64,0.41416
6017980,-0.08500,101.9375,111,64,0.41416
6017990,-0.08000,99.3750,111,64,0.43663
6018000,-0.07500,96.9375,111,64,0.45983
6018010,-0.07500,94.9375,111,64,0.48303
6018020,-0.06500,91.5000,111,64,0.54750
6018030,-0.06500,91.5000,111,64,0.54750
6018040,-0.06500,90.2500,111,64,0.58559
6018050,-0.06000,89.0000,111,64,0.62076
6018060,-0.06000,89.0000,111,64,0.62076
6018070,-0.05000,88.3125,111,64,0.63492
6018080,-0.05000,87.6250,111,64,0.64713
6018090,-0.04500,86.8125,111,64,0.66105
6018100,-0.04500,85.3125,111,64,0.69011
6018110,-0.04500,84.5625,111,64,0.70379
6018120,-0.04500,83.8750,111,64,0.71673
6018130,-0.03500,83.1875,111,64,0.72845
6018140,-0.03500,82.0625,111,64,0.74921
6018150,-0.03500,81.5000,111,64,0.75775
6018160,-0.00500,80.4375,111,64,0.77216
6018170,-0.00500,80.4375,111,64,0.77216
6018180,0.00500,79.3750,111,64,0.77778
6018190,0.02500,78.3750,111,64,0.78193
6018200,0.03000,77.8750,111,64,0.78217
6018210,0.03000,77.8750,111,64,0.78217
6018220,0.00000,76.3125,111,64,0.77167
6018230,-0.01000,75.8125,111,64,0.76484
6018240,-0.01000,75.8125,111,64,0.76484
6018250,-0.05500,74.4375,111,64,0.73504
6018260,-0.05500,74.4375,111,64,0.73504
6018270,-0.06500,73.9375,111,64,0.72381
6018280,-0.05500,73.0000,111,64,0.70012
6018290,-0.06000,72.1875,111,64,0.67595
6018300,-0.06000,72.1875,111,64,0.67595
6018310,0.02000,71.3750,111,64,0.65201
6018320,0.02000,71.3750,111,64,0.65201
6018330,0.90500,70.2500,111,64,0.61758
6018340,1.12500,69.8750,111,64,0.60611
6018350,1.12500,69.8750,111,64,0.60611
6018360,0.24500,69.1250,111,64,0.58339
6018370,0.24500,69.1250,111,64,0.58339
6018380,-0.09500,68.0625,111,64,0.55238
6018390,-0.09500,68.0625,111,64,0.55238
6018400,-0.13500,67.7500,111,64,0.54188
6018410,-0.16000,66.7500,111,64,0.51087
6018420,-0.16000,66.7500,111,64,0.51087
6018430,-0.15500,66.1250,111,64,0.48987
6018440,-0.15500,65.8125,111,64,0.47937
6018450,-0.15500,65.8125,111,64,0.47937
6018460,-0.15000,64.7500,111,64,0.45079
6018470,-0.15000,64.7500,111,64,0.45079
6018480,-0.14500,64.3750,111,64,0.44298
6018490,-0.14000,64.0625,111,64,0.43443
6018500,-0.13500,63.6250,111,64,0.41612
6018510,-0.12500,63.5625,111,64,0.40684
6018520,-0.11000,64.6875,111,64,0.38828
6018530,-0.10500,69.7500,111,64,0.37070
6018540,-0.10500,69.7500,111,64,0.37070
6018550,-0.08500,79.0625,111,64,0.35336
6018560,-0.08500,79.0625,111,64,0.35336
6018570,-0.06000,91.1250,111,64,0.33284
6018580,-0.06000,91.1250,111,64,0.33284
6018590,-0.04500,93.4375,111,64,0.32625
6018600,0.00000,96.2500,111,64,0.31136
6018610,0.00000,96.2500,111,64,0.31136
6018620,0.02000,98.6250,111,64,0.29646
6018630,0.04000,99.9375,111,64,0.28938
6018640,0.06500,101.3750,111,64,0.28230
6018650,0.09500,102.8125,111,64,0.27521
6018660,0.12000,105.3750,111,64,0.26178
6018670,0.13000,106.4375,111,64,0.25690
6018680,0.11000,107.2500,111,64,0.25275
6018690,0.03000,108.5000,111,64,0.23639
6018700,0.03000,108.5000,111,64,0.23639
6018710,-0.02500,108.5625,111,64,0.22515
6018720,-0.02500,108.5625,111,64,0.22515
6018730,-0.04500,108.4375,111,64,0.21978
6018740,-0.05500,107.3750,111,64,0.20488
6018750,-0.05500,107.3750,111,64,0.20488
6018760,-0.06000,106.8125,111,64,0.20073
6018770,-0.06500,104.5625,111,64,0.20220
6018780,-0.06500,104.5625,111,64,0.20220
6018790,-0.06000,101.8750,111,64,0.21905
6018800,-0.05500,100.0000,111,64,0.23370
6018810,-0.05500,100.0000,111,64,0.23370
6018820,-0.05000,93.0000,111,64,0.29890
6018830,-0.05500,90.9375,111,64,0.32405
6018840,-0.05000,89.3125,111,64,0.34921
6018850,-0.04500,87.5625,111,64,0.39683
6018860,-0.04500,87.5625,111,64,0.39683
6018870,-0.04000,86.6875,111,64,0.43370
6018880,-0.04000,86.6875,111,64,0.43370
6018890,-0.04500,86.1875,111,64,0.45324
6018900,-0.04500,85.0000,111,64,0.49011
6018910,-0.04500,84.3125,111,64,0.50623
6018920,-0.04500,83.6250,111,64,0.52112
6018930,-0.03500,81.5625,111,64,0.56044
6018940,-0.03500,80.9375,111,64,0.57216
6018950,-0.03500,80.9375,111,64,0.57216
6018960,-0.04000,80.3750,111,64,0.58339
6018970,-0.04000,78.8750,111,64,0.60879
6018980,-0.04000,78.8750,111,64,0.60879
6018990,-0.03500,78.4375,111,64,0.61587
6019000,-0.02500,77.9375,111,64,0.62271
6019010,0.00000,77.4375,111,64,0.62882
6019020,0.00500,76.5000,111,64,0.63858
6019030,0.01500,76.0625,111,64,0.64176
6019040,0.03500,75.2500,111,64,0.64396
6019050,0.03500,75.2500,111,64,0.64396
6019060,0.01000,74.3750,111,64,0.64005
6019070,-0.00500,73.9375,111,64,0.63614
6019080,-0.04500,73.0625,111,64,0.62466
6019090,-0.04500,73.0625,111,64,0.62466
6019100,-0.06500,72.1875,111,64,0.60855
6019110,-0.06500,71.4375,111,64,0.59145
6019120,-0.06500,71.4375,111,64,0.59145
6019130,-0.05500,71.0000,111,64,0.58266
6019140,-0.07500,70.2500,111,64,0.56606
6019150,0.10000,69.5625,111,64,0.54994
6019160,0.10000,69.5625,111,64,0.54994
6019170,1.04500,68.5625,111,64,0.52821
6019180,1.10000,68.1875,111,64,0.52137
6019190,1.10000,68.1875,111,64,0.52137
6019200,0.13500,67.5625,111,64,0.50647
6019210,-0.05500,66.8750,111,64,0.49158
6019220,-0.05500,66.8750,111,64,0.49158
6019230,-0.15500,66.2500,111,64,0.47766
6019240,-0.15500,66.2500,111,64,0.47766
6019250,-0.17000,65.3750,111,64,0.45788
6019260,-0.17000,65.0625,111,64,0.45250
6019270,-0.17000,65.0625,111,64,0.45250
6019280,-0.17000,64.5000,111,64,0.44151
6019290,-0.17500,63.8750,111,64,0.42906
6019300,-0.17000,63.5625,111,64,0.42295
6019310,-0.17000,63.5625,111,64,0.42295
6019320,-0.16500,63.3125,111,64,0.41661
6019330,-0.16000,63.0625,111,64,0.41001
6019340,-0.15500,62.6875,111,64,0.39683
6019350,-0.14500,62.6875,111,64,0.39048
6019360,-0.14500,63.1875,111,64,0.38437
6019370,-0.13500,64.4375,111,64,0.37851
6019380,-0.13000,70.6875,111,64,0.36996
6019390,-0.11000,80.6250,111,64,0.36020
6019400,-0.11000,80.6250,111,64,0.36020
6019410,-0.08000,91.6875,111,64,0.34432
6019420,-0.06500,93.5625,111,64,0.33919
6019430,-0.06500,93.5625,111,64,0.33919
6019440,-0.02500,96.0625,111,64,0.32918
6019450,-0.00500,98.5000,111,64,0.31990
6019460,0.02000,99.9375,111,64,0.31648
6019470,0.05000,101.3750,111,64,0.31380
6019480,0.05000,101.3750,111,64,0.31380
6019490,0.10500,105.1875,111,64,0.30305
6019500,0.11000,106.1250,111,64,0.29890
6019510,0.11000,106.1250,111,64,0.29890
6019520,0.05000,107.4375,111,64,0.29060
6019530,0.05000,107.4375,111,64,0.29060
6019540,0.01000,108.0000,111,64,0.28230
6019550,-0.02000,108.0625,111,64,0.27814
6019560,-0.05000,107.8125,111,64,0.27155
6019570,-0.05000,107.8125,111,64,0.27155
6019580,-0.06500,107.1250,111,64,0.26716
6019590,-0.07000,106.6875,111,64,0.26447
6019600,-0.07500,105.5000,111,64,0.26178
6019610,-0.07500,103.6250,111,64,0.26716
6019620,-0.07500,103.6250,111,64,0.26716
6019630,-0.07500,102.3750,111,64,0.27473
6019640,-0.07500,98.7500,111,64,0.30134
6019650,-0.07500,98.7500,111,64,0.30134
6019660,-0.07500,94.0000,111,64,0.34042
6019670,-0.07500,89.8125,111,64,0.37851
6019680,-0.07500,89.8125,111,64,0.37851
6019690,-0.07500,88.5000,111,64,0.39878
6019700,-0.07000,86.6875,111,64,0.45861
6019710,-0.07000,86.6875,111,64,0.45861
6019720,-0.06500,85.8125,111,64,0.49451
6019730,-0.06000,84.6250,111,64,0.52796
6019740,-0.06000,84.6250,111,64,0.52796
6019750,-0.05500,83.9375,111,64,0.54359
6019760,-0.05000,83.2500,111,64,0.55849
6019770,-0.04500,82.5625,111,64,0.57070
6019780,-0.05000,81.3125,111,64,0.59292
6019790,-0.04500,80.6875,111,64,0.60464
6019800,-0.04500,79.6875,111,64,0.62637
6019810,-0.04500,79.6875,111,64,0.62637
6019820,-0.04000,78.3750,111,64,0.65275
6019830,-0.02500,77.8750,111,64,0.66007
6019840,-0.00500,77.4375,111,64,0.66667
6019850,0.00000,76.5000,111,64,0.67619
6019860,0.00000,76.0625,111,64,0.67814
6019870,0.00000,76.0625,111,64,0.67814
6019880,0.01000,75.1875,111,64,0.67814
6019890,-0.00500,74.3125,111,64,0.67350
6019900,-0.00500,74.3125,111,64,0.67350
6019910,-0.02000,73.9375,111,64,0.66911
6019920,-0.05500,73.1250,111,64,0.65665
6019930,-0.05500,73.1250,111,64,0.65665
6019940,-0.07500,71.8750,111,64,0.63199
6019950,-0.07500,71.4375,111,64,0.62344
6019960,-0.07500,71.4375,111,64,0.62344
6019970,-0.08000,70.2500,111,64,0.60073
6019980,-0.08000,70.2500,111,64,0.60073
6019990,-0.09500,69.8750,111,64,0.59316
6020000,0.52500,69.1250,111,64,0.57827
6020010,1.02000,68.5000,111,64,0.56239
6020020,1.02000,68.5000,111,64,0.56239
6020030,1.13000,68.1875,111,64,0.55409
6020040,0.15000,67.6250,111,64,0.53797
6020050,0.15000,67.6250,111,64,0.53797
6020060,-0.04500,67.0000,111,64,0.52259
6020070,-0.15500,66.4375,111,64,0.50989
6020080,-0.15500,66.4375,111,64,0.50989
6020090,-0.17000,66.1250,111,64,0.50330
6020100,-0.18000,65.1875,111,64,0.48327
6020110,-0.18000,65.1875,111,64,0.48327
6020120,-0.18000,64.8750,111,64,0.47668
6020130,-0.18000,64.5625,111,64,0.47033
6020140,-0.17500,63.9375,111,64,0.45763
6020150,-0.17000,63.2500,111,64,0.44542
6020160,-0.17000,63.2500,111,64,0.44542
6020170,-0.16500,62.9375,111,64,0.44054
6020180,-0.16000,62.6875,111,64,0.43101
6020190,-0.15500,62.8125,111,64,0.42515
6020200,-0.14000,65.0625,111,64,0.41343
6020210,-0.13000,72.3125,111,64,0.40171
6020220,-0.13000,72.3125,111,64,0.40171
6020230,-0.11500,82.7500,111,64,0.38974
6020240,-0.11500,82.7500,111,64,0.38974
6020250,-0.10500,87.3125,111,64,0.38364
6020260,-0.07000,95.1250,111,64,0.36777
6020270,-0.07000,95.1250,111,64,0.36777
6020280,-0.03500,97.4375,111,64,0.35946
6020290,-0.01000,99.8750,111,64,0.34969
6020300,-0.01000,99.8750,111,64,0.34969
6020310,0.04000,102.8750,111,64,0.34017
6020320,0.04000,102.8750,111,64,0.34017
6020330,0.10000,107.0000,111,64,0.32625
6020340,0.11000,107.9375,111,64,0.32161
6020350,0.11000,107.9375,111,64,0.32161
6020360,0.04500,109.1875,111,64,0.31429
6020370,0.00000,109.7500,111,64,0.30916
6020380,-0.02500,109.8750,111,64,0.30598
6020390,-0.05500,109.8125,111,64,0.30281
6020400,-0.05500,109.8125,111,64,0.30281
6020410,-0.07000,109.6250,111,64,0.29939
6020420,-0.08000,108.6250,111,64,0.29011
6020430,-0.08500,108.1250,111,64,0.28791
6020440,-0.08500,107.5000,111,64,0.28742
6020450,-0.08500,105.7500,111,64,0.29499
6020460,-0.08500,105.7500,111,64,0.29499
6020470,-0.08500,103.0625,111,64,0.31331
6020480,-0.08500,101.2500,111,64,0.32796
6020490,-0.08500,96.6875,111,64,0.36606
6020500,-0.08000,94.1875,111,64,0.38779
6020510,-0.08000,94.1875,111,64,0.38779
6020520,-0.07500,90.4375,111,64,0.43248
6020530,-0.07500,90.4375,111,64,0.43248
6020540,-0.06000,88.0625,111,64,0.49475
6020550,-0.06000,88.0625,111,64,0.49475
6020560,-0.05500,87.0625,111,64,0.53016
6020570,-0.05500,87.0625,111,64,0.53016
6020580,-0.05500,85.1250,111,64,0.57607
6020590,-0.05500,84.4375,111,64,0.59194
6020600,-0.05500,83.6875,111,64,0.60708
6020610,-0.05500,83.6875,111,64,0.60708
6020620,-0.05000,82.3750,111,64,0.63516
6020630,-0.05500,81.7500,111,64,0.64786
6020640,-0.05500,81.1875,111,64,0.65958
6020650,-0.05500,80.6250,111,64,0.67033
6020660,-0.05500,79.6250,111,64,0.68938
6020670,-0.04500,79.1250,111,64,0.69597
6020680,-0.03500,78.6875,111,64,0.70085
6020690,-0.01000,78.1875,111,64,0.70647
6020700,0.00000,77.1875,111,64,0.71648
6020710,0.00500,76.6875,111,64,0.72039
6020720,0.01500,75.8125,111,64,0.72405
6020730,0.01500,75.8125,111,64,0.72405
6020740,-0.02000,74.5000,111,64,0.71746
6020750,-0.03500,74.0000,111,64,0.71209
6020760,-0.03500,74.0000,111,64,0.71209
6020770,-0.08000,72.7500,111,64,0.68962
6020780,-0.08500,72.3125,111,64,0.68059
6020790,-0.08500,72.3125,111,64,0.68059
6020800,-0.07500,71.4375,111,64,0.66252
6020810,-0.09000,70.6875,111,64,0.64469
6020820,-0.09000,70.6875,111,64,0.64469
6020830,0.08000,69.8750,111,64,0.62735
6020840,0.53000,69.5625,111,64,0.61880
6020850,0.53000,69.5625,111,64,0.61880
6020860,1.10500,68.5000,111,64,0.59292
6020870,0.64000,68.1875,111,64,0.58486
6020880,0.14000,67.8125,111,64,0.57631
6020890,0.14000,67.8125,111,64,0.57631
6020900,-0.06500,67.1875,111,64,0.55897
6020910,-0.17000,66.5000,111,64,0.54261
6020920,-0.18000,66.1875,111,64,0.53480
6020930,-0.18000,66.1875,111,64,0.53480
6020940,-0.18500,65.3125,111,64,0.51722
6020950,-0.18500,65.0000,111,64,0.50989
6020960,-0.18500,65.0000,111,64,0.50989
6020970,-0.18000,64.0000,111,64,0.48938
6020980,-0.17000,63.6875,111,64,0.48230
6020990,-0.17000,63.6875,111,64,0.48230
6021000,-0.16000,63.1250,112,64,0.46740
6021010,-0.16000,63.1250,112,64,0.46740
6021020,-0.16000,62.8750,112,64,0.45226
6021030,-0.15500,63.0625,112,64,0.44469
6021040,-0.14500,63.8750,112,64,0.43736
6021050,-0.13500,65.6875,112,64,0.43028
6021060,-0.13500,73.4375,112,64,0.41685
6021070,-0.12500,78.6875,112,64,0.41099
6021080,-0.11500,83.8125,112,64,0.40562
6021090,-0.10500,88.1250,112,64,0.39902
6021100,-0.07500,95.5000,112,64,0.37827
6021110,-0.07500,95.5000,112,64,0.37827
6021120,-0.05500,96.8125,112,64,0.37192
6021130,-0.00500,100.9375,112,64,0.35409
6021140,0.02000,102.5000,112,64,0.34847
6021150,0.02000,102.5000,112,64,0.34847
6021160,0.08000,105.6250,112,64,0.33919
6021170,0.08000,105.6250,112,64,0.33919
6021180,0.10000,108.1250,112,64,0.33065
6021190,0.07500,109.8125,112,64,0.32015
6021200,0.07500,109.8125,112,64,0.32015
6021210,0.03500,110.3125,112,64,0.31502
6021220,-0.03500,111.0625,112,64,0.30037
6021230,-0.03500,111.0625,112,64,0.30037
6021240,-0.07500,110.8750,112,64,0.29060
6021250,-0.08500,110.3125,112,64,0.28156
6021260,-0.08500,110.3125,112,64,0.28156
6021270,-0.09000,109.3125,112,64,0.27790
6021280,-0.09500,108.6250,112,64,0.27790
6021290,-0.09500,108.6250,112,64,0.27790
6021300,-0.09000,105.8125,112,64,0.29597
6021310,-0.09000,104.5000,112,64,0.31013
6021320,-0.09000,104.5000,112,64,0.31013
6021330,-0.08500,98.3125,112,64,0.37094
6021340,-0.08500,95.7500,112,64,0.39463
6021350,-0.08500,95.7500,112,64,0.39463
6021360,-0.08500,91.5625,112,64,0.44029
6021370,-0.08500,91.5625,112,64,0.44029
6021380,-0.08500,89.3750,112,64,0.47985
6021390,-0.08000,88.7500,112,64,0.50085
6021400,-0.07500,88.2500,112,64,0.52137
6021410,-0.06500,87.6875,112,64,0.54188
6021420,-0.07000,85.7500,112,64,0.59902
6021430,-0.07000,85.7500,112,64,0.59902
6021440,-0.07000,85.0000,112,64,0.61636
6021450,-0.07500,82.8125,112,64,0.66178
6021460,-0.07500,82.1875,112,64,0.67228
6021470,-0.07500,82.1875,112,64,0.67228
6021480,-0.07500,81.0625,112,64,0.69573
6021490,-0.07500,80.0625,112,64,0.71770
6021500,-0.07000,79.5625,112,64,0.72747
6021510,-0.07000,79.5625,112,64,0.72747
6021520,-0.05500,79.0625,112,64,0.73675
6021530,-0.03000,78.5625,112,64,0.74505
6021540,-0.02000,77.5625,112,64,0.75775
6021550,-0.00500,76.5625,112,64,0.76508
6021560,-0.00500,76.5625,112,64,0.76508
6021570,-0.02000,75.1250,112,64,0.76215
6021580,-0.03500,74.7500,112,64,0.75824
6021590,-0.03500,74.7500,112,64,0.75824
6021600,-0.06000,73.8750,112,64,0.74505
6021610,-0.08500,73.0000,112,64,0.72625
6021620,-0.09000,72.6250,112,64,0.71551
6021630,-0.08500,72.1875,112,64,0.70452
6021640,-0.08500,72.1875,112,64,0.70452
6021650,-0.09500,70.8750,112,64,0.67277
6021660,-0.09500,70.8750,112,64,0.67277
6021670,-0.11500,70.5000,112,64,0.66325
6021680,0.49500,69.8125,112,64,0.64322
6021690,0.49500,69.8125,112,64,0.64322
6021700,1.10500,68.8750,112,64,0.61270
6021710,0.65500,68.5625,112,64,0.60269
6021720,0.65500,68.5625,112,64,0.60269
6021730,-0.06500,67.5625,112,64,0.57338
6021740,-0.06500,67.5625,112,64,0.57338
6021750,-0.13500,67.2500,112,64,0.56386
6021760,-0.18000,66.5625,112,64,0.54603
6021770,-0.18000,66.5625,112,64,0.54603
6021780,-0.19000,66.0000,112,64,0.52943
6021790,-0.19500,65.6875,112,64,0.52039
6021800,-0.19500,65.3750,112,64,0.51136
6021810,-0.20000,64.5000,112,64,0.48547
6021820,-0.20000,64.1875,112,64,0.47717
6021830,-0.20000,64.1875,112,64,0.47717
6021840,-0.20000,63.9375,112,64,0.46886
6021850,-0.19000,63.5000,112,64,0.44591
6021860,-0.19000,63.5000,112,64,0.44591
6021870,-0.18500,64.6250,112,64,0.43272
6021880,-0.18500,64.6250,112,64,0.43272
6021890,-0.17000,74.5000,112,64,0.40977
6021900,-0.16000,79.7500,112,64,0.40171
6021910,-0.16000,79.7500,112,64,0.40171
6021920,-0.14500,89.0000,112,64,0.38681
6021930,-0.12500,94.6250,112,64,0.37363
6021940,-0.12500,94.6250,112,64,0.37363
6021950,-0.09000,97.6250,112,64,0.36117
6021960,-0.06500,98.9375,112,64,0.35629
6021970,-0.04500,101.9375,112,64,0.34676
6021980,-0.02000,103.5625,112,64,0.34090
6021990,-0.02000,103.5625,112,64,0.34090
6022000,0.04000,106.5625,111,64,0.32918
6022010,0.04000,106.5625,111,64,0.32918
6022020,0.06000,109.1250,111,64,0.31795
6022030,0.07000,110.0625,111,64,0.31258
6022040,0.00500,111.4375,111,64,0.30208
6022050,0.00500,111.4375,111,64,0.30208
6022060,-0.06000,112.1875,111,64,0.29084
6022070,-0.06000,112.1875,111,64,0.29084
6022080,-0.08000,112.1875,111,64,0.28718
6022090,-0.10000,111.5000,111,64,0.27521
6022100,-0.10000,111.5000,111,64,0.27521
6022110,-0.10500,111.0625,111,64,0.27228
6022120,-0.10500,110.5625,111,64,0.27057
6022130,-0.10500,110.0000,111,64,0.27057
6022140,-0.11000,108.3750,111,64,0.28034
6022150,-0.11500,107.2500,111,64,0.29084
6022160,-0.12000,105.9375,111,64,0.30549
6022170,-0.11500,100.0625,111,64,0.36044
6022180,-0.11500,100.0625,111,64,0.36044
6022190,-0.10500,95.1875,111,64,0.40952
6022200,-0.10000,93.1250,111,64,0.43468
6022210,-0.10000,93.1250,111,64,0.43468
6022220,-0.10000,90.6250,111,64,0.48254
6022230,-0.10500,89.9375,111,64,0.50501
6022240,-0.10000,89.3750,111,64,0.52650
6022250,-0.09500,87.6875,111,64,0.58437
6022260,-0.09000,87.0625,111,64,0.59951
6022270,-0.09000,87.0625,111,64,0.59951
6022280,-0.08500,85.6250,111,64,0.63297
6022290,-0.08500,85.6250,111,64,0.63297
6022300,-0.08500,84.3125,111,64,0.66593
6022310,-0.09000,83.0000,111,64,0.69573
6022320,-0.09000,83.0000,111,64,0.69573
6022330,-0.09500,82.4375,111,64,0.70891
6022340,-0.09500,80.8125,111,64,0.74383
6022350,-0.09500,80.8125,111,64,0.74383
6022360,-0.08500,80.3125,111,64,0.75360
6022370,-0.06500,79.7500,111,64,0.76044
6022380,-0.04500,78.3750,111,64,0.77460
6022390,-0.04500,78.3750,111,64,0.77460
6022400,-0.02500,77.3750,111,64,0.77998
6022410,-0.02500,76.5000,111,64,0.77851
6022420,-0.02500,76.5000,111,64,0.77851
6022430,-0.04500,76.0625,111,64,0.77509
6022440,-0.07500,75.1875,111,64,0.76313
6022450,-0.07500,75.1875,111,64,0.76313
6022460,-0.10000,74.3750,111,64,0.74628
6022470,-0.11000,73.5000,111,64,0.72650
6022480,-0.11000,73.5000,111,64,0.72650
6022490,-0.10000,73.0625,111,64,0.71551
6022500,-0.12500,71.8125,111,64,0.68278
6022510,-0.12500,71.8125,111,64,0.68278
6022520,0.23000,71.1250,111,64,0.66252
6022530,0.23000,71.1250,111,64,0.66252
6022540,0.73500,70.4375,111,64,0.64200
6022550,0.89000,69.8125,111,64,0.62149
6022560,0.89000,69.8125,111,64,0.62149
6022570,-0.01000,68.8125,111,64,0.59365
6022580,-0.12500,68.5000,111,64,0.58413
6022590,-0.12500,68.5000,111,64,0.58413
6022600,-0.17000,68.1875,111,64,0.57436
6022610,-0.19000,67.8750,111,64,0.56459
6022620,-0.20000,67.0000,111,64,0.53602
6022630,-0.20000,66.6875,111,64,0.52698
6022640,-0.20000,66.6875,111,64,0.52698
6022650,-0.20500,66.4375,111,64,0.51819
6022660,-0.21000,65.8750,111,64,0.50232
6022670,-0.21000,65.2500,111,64,0.48767
6022680,-0.21000,65.0000,111,64,0.47961
6022690,-0.21000,65.0000,111,64,0.47961
6022700,-0.19000,65.1875,111,64,0.45519
6022710,-0.18000,66.0625,111,64,0.44689
6022720,-0.18000,66.0625,111,64,0.44689
6022730,-0.17500,68.0625,111,64,0.43858
6022740,-0.16000,81.3125,111,64,0.41514
6022750,-0.16000,81.3125,111,64,0.41514
6022760,-0.15000,86.4375,111,64,0.40781
6022770,-0.12500,96.6250,111,64,0.39072
6022780,-0.12500,96.6250,111,64,0.39072
6022790,-0.08500,99.8750,111,64,0.37827
6022800,-0.06000,101.3125,111,64,0.37216
6022810,-0.06000,101.3125,111,64,0.37216
6022820,-0.01500,106.0625,111,64,0.35433
6022830,0.01000,107.6875,111,64,0.34823
6022840,0.01000,107.6875,111,64,0.34823
6022850,0.07000,111.8125,111,64,0.33211
6022860,0.08000,112.8125,111,64,0.32845
6022870,0.08000,112.8125,111,64,0.32845
6022880,0.07000,113.6250,111,64,0.32430
6022890,0.04000,114.2500,111,64,0.31990
6022900,-0.03500,115.2500,111,64,0.30720
6022910,-0.06000,115.2500,111,64,0.30305
6022920,-0.08000,115.1875,111,64,0.29890
6022930,-0.08000,115.1875,111,64,0.29890
6022940,-0.09500,114.4375,111,64,0.28767
6022950,-0.09500,113.9375,111,64,0.28571
6022960,-0.09500,113.9375,111,64,0.28571
6022970,-0.09500,111.9375,111,64,0.28987
6022980,-0.09500,111.9375,111,64,0.28987
6022990,-0.09500,111.0000,111,64,0.29182
6023000,-0.09500,108.4375,111,64,0.31673
6023010,-0.09500,108.4375,111,64,0.31673
6023020,-0.09000,102.1250,111,64,0.38266
6023030,-0.09000,102.1250,111,64,0.38266
6023040,-0.09000,99.5000,111,64,0.40733
6023050,-0.08500,93.3125,111,64,0.47570
6023060,-0.08500,93.3125,111,64,0.47570
6023070,-0.08500,92.3125,111,64,0.49353
6023080,-0.08500,91.1250,111,64,0.53284
6023090,-0.08500,91.1250,111,64,0.53284
6023100,-0.08500,90.0625,111,64,0.57192
6023110,-0.08500,88.7500,111,64,0.60904
6023120,-0.08500,88.7500,111,64,0.60904
6023130,-0.08000,88.0625,111,64,0.62662
6023140,-0.07500,86.6250,111,64,0.66032
6023150,-0.06500,85.1875,111,64,0.69060
6023160,-0.06500,85.1875,111,64,0.69060
6023170,-0.06500,84.5000,111,64,0.70183
6023180,-0.06500,82.6250,111,64,0.73236
6023190,-0.06500,82.0625,111,64,0.74212
6023200,-0.06500,82.0625,111,64,0.74212
6023210,-0.03000,80.5625,111,64,0.76581
6023220,-0.01500,80.0625,111,64,0.77167
6023230,-0.01500,79.6250,111,64,0.77607
6023240,-0.00500,79.1875,111,64,0.77900
6023250,-0.00500,79.1875,111,64,0.77900
6023260,0.00000,78.2500,111,64,0.77851
6023270,-0.00500,77.8125,111,64,0.77509
6023280,-0.03000,76.8750,111,64,0.76386
6023290,-0.05500,76.0000,111,64,0.74725
6023300,-0.05500,76.0000,111,64,0.74725
6023310,-0.09500,75.1250,111,64,0.72625
6023320,-0.09500,74.6875,111,64,0.71502
6023330,-0.09500,74.6875,111,64,0.71502
6023340,-0.09500,73.5625,111,64,0.68156
6023350,-0.10500,73.1250,111,64,0.67106
6023360,-0.10500,73.1250,111,64,0.67106
6023370,0.40000,72.1250,111,64,0.63980
6023380,0.40000,72.1250,111,64,0.63980
6023390,0.87500,71.7500,111,64,0.62906
6023400,0.68000,71.0625,111,64,0.60781
6023410,0.18000,70.4375,111,64,0.58681
6023420,0.18000,70.4375,111,64,0.58681
6023430,-0.13500,69.8125,111,64,0.56630
6023440,-0.17000,69.5000,111,64,0.55604
6023450,-0.18500,68.8125,111,64,0.53675
6023460,-0.18500,68.8125,111,64,0.53675
6023470,-0.19000,68.5000,111,64,0.52845
6023480,-0.19000,68.0000,111,64,0.51111
6023490,-0.19000,68.0000,111,64,0.51111
6023500,-0.19000,67.4375,111,64,0.49377
6023510,-0.18000,66.8750,111,64,0.47668
6023520,-0.18000,66.8750,111,64,0.47668
6023530,-0.18000,66.5625,111,64,0.46813
6023540,-0.17000,66.3125,111,64,0.45153
6023550,-0.16500,66.4375,111,64,0.44298
6023560,-0.16000,66.8750,111,64,0.43565
6023570,-0.15500,68.0625,111,64,0.42906
6023580,-0.14500,79.0000,111,64,0.40562
6023590,-0.13500,84.3125,111,64,0.39780
6023600,-0.13500,84.3125,111,64,0.39780
6023610,-0.12500,89.2500,111,64,0.38999
6023620,-0.11000,98.7500,111,64,0.36801
6023630,-0.11000,98.7500,111,64,0.36801
6023640,-0.09500,100.5000,111,64,0.36093
6023650,-0.07500,101.9375,111,64,0.35409
6023660,-0.05500,104.8125,111,64,0.34237
6023670,-0.03500,106.3750,111,64,0.33797
6023680,-0.00500,107.9375,111,64,0.33309
6023690,0.02000,109.4375,111,64,0.32772
6023700,0.05000,112.0625,111,64,0.31673
6023710,0.07000,113.1250,111,64,0.31111
6023720,0.08500,113.9375,111,64,0.30549
6023730,0.04000,115.4375,111,64,0.29035
6023740,0.00000,115.6250,111,64,0.28571
6023750,-0.03000,115.6875,111,64,0.28278
6023760,-0.03000,115.6875,111,64,0.28278
6023770,-0.07500,115.3125,111,64,0.27302
6023780,-0.07500,115.3125,111,64,0.27302
6023790,-0.08500,114.9375,111,64,0.26960
6023800,-0.09000,114.0000,111,64,0.26520
6023810,-0.09000,114.0000,111,64,0.26520
6023820,-0.08500,112.5000,111,64,0.26911
6023830,-0.09000,111.5625,111,64,0.27595
6023840,-0.09000,110.5000,111,64,0.28645
6023850,-0.09000,109.1875,111,64,0.30085
6023860,-0.09500,103.3750,111,64,0.35653
6023870,-0.09000,100.7500,111,64,0.37851
6023880,-0.09000,100.7500,111,64,0.37851
6023890,-0.08500,98.1875,111,64,0.44786
6023900,-0.07500,92.7500,111,64,0.47009
6023910,-0.07500,92.7500,111,64,0.47009
6023920,-0.07000,91.8125,111,64,0.49158
6023930,-0.07000,91.0625,111,64,0.51233
6023940,-0.07000,89.8750,111,64,0.55189
6023950,-0.06500,89.3125,111,64,0.57045
6023960,-0.06500,88.0000,111,64,0.59927
6023970,-0.06500,88.0000,111,64,0.59927
6023980,-0.06500,85.7500,111,64,0.64444
6023990,-0.06000,85.0625,111,64,0.65861
6024000,-0.06000,85.0625,111,64,0.65861
6024010,-0.05500,83.0000,111,64,0.69597
6024020,-0.05500,83.0000,111,64,0.69597
6024030,-0.05500,82.3750,111,64,0.70623
6024040,-0.04500,81.2500,111,64,0.72405
6024050,-0.04500,81.2500,111,64,0.72405
6024060,-0.02500,80.2500,111,64,0.73602
6024070,-0.01500,79.6875,111,64,0.73895
6024080,-0.00500,79.1875,111,64,0.74188
6024090,0.00000,78.6250,111,64,0.74408
6024100,0.01000,77.1250,111,64,0.74286
6024110,-0.01000,76.6250,111,64,0.73871
6024120,-0.01000,76.6250,111,64,0.73871
6024130,-0.03500,75.2500,111,64,0.71600
6024140,-0.03500,75.2500,111,64,0.71600
6024150,-0.05500,74.8125,111,64,0.70549
6024160,-0.06500,74.3750,111,64,0.69451
6024170,-0.05500,73.0625,111,64,0.65983
6024180,-0.05500,73.0625,111,64,0.65983
6024190,-0.07500,72.1875,111,64,0.63565
6024200,-0.07500,72.1875,111,64,0.63565
6024210,-0.02500,71.7500,111,64,0.62393
6024220,0.26500,71.0000,111,64,0.60122
6024230,0.77000,70.6250,111,64,0.58974
6024240,1.12000,70.2500,111,64,0.57875
6024250,0.92000,69.8750,111,64,0.56777
6024260,0.39000,69.1875,111,64,0.54701
6024270,0.03500,68.8125,111,64,0.53773
6024280,-0.12500,68.0000,111,64,0.51770
6024290,-0.14500,67.3125,111,64,0.49670
6024300,-0.14500,67.3125,111,64,0.49670
6024310,-0.15500,66.5625,111,64,0.47643
6024320,-0.15500,66.5625,111,64,0.47643
6024330,-0.15500,66.1875,111,64,0.46667
6024340,-0.15500,65.1250,111,64,0.43785
6024350,-0.15500,65.1250,111,64,0.43785
6024360,-0.15500,64.3750,111,64,0.42198
6024370,-0.15500,64.3750,111,64,0.42198
6024380,-0.15000,63.5625,111,64,0.39683
6024390,-0.15000,63.5625,111,64,0.39683
6024400,-0.14500,63.5000,111,64,0.38828
6024410,-0.13000,65.9375,111,64,0.36264
6024420,-0.13000,65.9375,111,64,0.36264
6024430,-0.11500,73.0000,111,64,0.34652
6024440,-0.10000,77.8750,111,64,0.33871
6024450,-0.10000,77.8750,111,64,0.33871
6024460,-0.07500,90.4375,111,64,0.31966
6024470,-0.07500,90.4375,111,64,0.31966
6024480,-0.04500,94.7500,111,64,0.30647
6024490,-0.02500,97.5000,111,64,0.29231
6024500,-0.02500,97.5000,111,64,0.29231
6024510,-0.01000,98.8125,111,64,0.28523
6024520,0.04000,101.7500,111,64,0.27179
6024530,0.04000,101.7500,111,64,0.27179
6024540,0.10000,105.6250,111,64,0.25299
6024550,0.11000,106.6250,111,64,0.24835
6024560,0.11000,106.6250,111,64,0.24835
6024570,0.07500,108.6250,111,64,0.23346
6024580,0.03000,109.0000,111,64,0.22759
6024590,0.03000,109.0000,111,64,0.22759
6024600,0.00000,109.1875,111,64,0.22198
6024610,-0.04500,109.1250,111,64,0.20513
6024620,-0.04500,109.1250,111,64,0.20513
6024630,-0.06500,108.8750,111,64,0.20000
6024640,-0.07500,108.5000,111,64,0.19512
6024650,-0.08000,108.0625,111,64,0.19072
6024660,-0.08500,106.6875,111,64,0.18755
6024670,-0.09000,105.8750,111,64,0.18926
6024680,-0.09000,104.8125,111,64,0.19316
6024690,-0.08500,103.5000,111,64,0.20024
6024700,-0.08500,97.5000,111,64,0.24469
6024710,-0.08500,97.5000,111,64,0.24469
6024720,-0.08500,94.9375,111,64,0.26569
6024730,-0.08500,92.5625,111,64,0.28816
6024740,-0.08000,89.1875,111,64,0.33504
6024750,-0.08000,87.5625,111,64,0.37753
6024760,-0.07500,87.0625,111,64,0.39512
6024770,-0.07500,87.0625,111,64,0.39512
6024780,-0.06500,85.5625,111,64,0.44982
6024790,-0.06500,85.5625,111,64,0.44982
6024800,-0.06500,84.3125,111,64,0.48352
6024810,-0.06000,82.9375,111,64,0.51526
6024820,-0.06000,82.9375,111,64,0.51526
6024830,-0.05500,81.6250,111,64,0.54457
6024840,-0.05500,81.6250,111,64,0.54457
6024850,-0.05500,79.9375,111,64,0.58046
6024860,-0.05500,79.4375,111,64,0.58852
6024870,-0.05500,79.4375,111,64,0.58852
6024880,-0.04500,78.4375,111,64,0.60513
6024890,-0.04500,78.4375,111,64,0.60513
6024900,-0.01500,77.5000,111,64,0.61929
6024910,-0.00500,77.0000,111,64,0.62466
6024920,-0.00500,76.5625,111,64,0.62906
6024930,0.01500,75.1875,111,64,0.63468
6024940,0.01500,75.1875,111,64,0.63468
6024950,0.00000,74.7500,111,64,0.63297
6024960,-0.03500,73.8125,111,64,0.62466
6024970,-0.03500,73.8125,111,64,0.62466
6024980,-0.07500,72.5000,111,64,0.60195
6024990,-0.08000,72.0625,111,64,0.59219
6025000,-0.08000,72.0625,111,64,0.59219
6025010,-0.06500,70.8750,111,64,0.56264
6025020,-0.06500,70.8750,111,64,0.56264
6025030,-0.07500,70.4375,111,64,0.55482
6025040,-0.00500,69.6875,111,64,0.54139
6025050,-0.00500,69.6875,111,64,0.54139
6025060,0.38000,69.0000,111,64,0.52845
6025070,1.12500,68.3750,111,64,0.51404
6025080,1.12500,68.3750,111,64,0.51404
6025090,0.76500,68.1250,111,64,0.50647
6025100,0.23500,67.4375,111,64,0.49133
6025110,-0.03500,67.1250,111,64,0.48400
6025120,-0.15500,66.5000,111,64,0.47009
6025130,-0.15500,66.5000,111,64,0.47009
6025140,-0.17000,65.8750,111,64,0.45641
6025150,-0.18000,65.5625,111,64,0.44957
6025160,-0.18500,65.1875,111,64,0.44396
6025170,-0.18000,64.8750,111,64,0.43883
6025180,-0.18000,63.8125,111,64,0.42027
6025190,-0.18000,63.8125,111,64,0.42027
6025200,-0.17500,63.1875,111,64,0.40781
6025210,-0.17000,62.6250,111,64,0.39609
6025220,-0.16500,62.5000,111,64,0.39048
6025230,-0.16000,62.5000,111,64,0.38510
6025240,-0.16000,62.5000,111,64,0.38510
6025250,-0.15000,65.5000,111,64,0.37143
6025260,-0.14500,68.6875,111,64,0.36703
6025270,-0.14500,68.6875,111,64,0.36703
6025280,-0.13000,73.0625,111,64,0.36239
6025290,-0.10500,86.9375,111,64,0.34652
6025300,-0.09500,90.0625,111,64,0.34139
6025310,-0.09500,90.0625,111,64,0.34139
6025320,-0.05500,93.8125,111,64,0.33138
6025330,-0.05500,93.8125,111,64,0.33138
6025340,-0.01500,97.4375,111,64,0.31746
6025350,-0.01500,97.4375,111,64,0.31746
6025360,0.01000,98.7500,111,64,0.31429
6025370,0.07000,103.0000,111,64,0.30501
6025380,0.07000,103.0000,111,64,0.30501
6025390,0.09500,104.2500,111,64,0.30134
6025400,0.09000,106.0625,111,64,0.29402
6025410,0.09000,106.0625,111,64,0.29402
6025420,0.05500,107.0625,111,64,0.28645
6025430,0.01500,107.2500,111,64,0.28230
6025440,-0.01500,107.3750,111,64,0.27814
6025450,-0.05500,107.0625,111,64,0.26960
6025460,-0.05500,107.0625,111,64,0.26960
6025470,-0.07500,106.6875,111,64,0.26667
6025480,-0.08000,106.3125,111,64,0.26374
6025490,-0.08500,105.7500,111,64,0.26129
6025500,-0.08500,104.3125,111,64,0.25910
6025510,-0.08500,103.3750,111,64,0.26081
6025520,-0.09000,100.6875,111,64,0.27277
6025530,-0.09000,100.6875,111,64,0.27277
6025540,-0.08500,96.5000,111,64,0.29792
6025550,-0.08500,94.0625,111,64,0.31477
6025560,-0.08500,91.6875,111,64,0.33162
6025570,-0.08000,89.7500,111,64,0.34823
6025580,-0.08000,86.7500,111,64,0.40610
6025590,-0.08000,86.7500,111,64,0.40610
6025600,-0.07500,86.3125,111,64,0.42491
6025610,-0.07000,85.8750,111,64,0.44274
6025620,-0.06500,84.3125,111,64,0.49109
6025630,-0.06500,83.6875,111,64,0.50574
6025640,-0.06500,83.6875,111,64,0.50574
6025650,-0.05500,81.5625,111,64,0.54115
6025660,-0.05500,80.9375,111,64,0.55238
6025670,-0.05500,80.9375,111,64,0.55238
6025680,-0.06500,79.8750,111,64,0.57485
6025690,-0.06500,79.8750,111,64,0.57485
6025700,-0.06000,78.4375,111,64,0.60391
6025710,-0.06000,78.4375,111,64,0.60391
6025720,-0.05500,78.0000,111,64,0.61172
6025730,-0.04500,77.5625,111,64,0.61856
6025740,-0.01500,76.1250,111,64,0.63443
6025750,-0.01500,76.1250,111,64,0.63443
6025760,0.00000,75.2500,111,64,0.63761
6025770,0.01000,74.4375,111,64,0.63712
6025780,0.01000,74.4375,111,64,0.63712
6025790,-0.02000,73.5625,111,64,0.63199
6025800,-0.02000,73.5625,111,64,0.63199
6025810,-0.03500,73.1875,111,64,0.62735
6025820,-0.08500,71.9375,111,64,0.60659
6025830,-0.09000,71.5625,111,64,0.59878
6025840,-0.08500,71.1250,111,64,0.59072
6025850,-0.07500,70.3125,111,64,0.57656
6025860,-0.07500,70.3125,111,64,0.57656
6025870,-0.11000,69.5000,111,64,0.56190
6025880,-0.11000,69.5000,111,64,0.56190
6025890,0.00000,69.1250,111,64,0.55458
6025900,0.40000,68.4375,111,64,0.53919
6025910,0.92000,68.1250,111,64,0.53162
6025920,0.75500,67.5000,111,64,0.51673
6025930,0.75500,67.5000,111,64,0.51673
6025940,0.21500,66.8125,111,64,0.50232
6025950,-0.11500,66.1875,111,64,0.48962
6025960,-0.11500,66.1875,111,64,0.48962
6025970,-0.17000,65.3125,111,64,0.47326
6025980,-0.17000,65.0000,111,64,0.46716
6025990,-0.17000,65.0000,111,64,0.46716
6026000,-0.17000,64.3750,112,64,0.45470
6026010,-0.17000,63.7500,112,64,0.44200
6026020,-0.17000,63.7500,112,64,0.44200
6026030,-0.16500,63.0625,112,64,0.42930
6026040,-0.16500,62.7500,112,64,0.42320
6026050,-0.16500,62.7500,112,64,0.42320
6026060,-0.15500,62.2500,112,64,0.40904
6026070,-0.15500,62.2500,112,64,0.40904
6026080,-0.14500,62.3125,112,64,0.40391
6026090,-0.13500,66.5625,112,64,0.38852
6026100,-0.13500,66.5625,112,64,0.38852
6026110,-0.12500,70.5000,112,64,0.38315
6026120,-0.12000,75.4375,112,64,0.37778
6026130,-0.11500,80.6875,112,64,0.37241
6026140,-0.10500,89.3125,112,64,0.36190
6026150,-0.09000,92.1875,112,64,0.35702
6026160,-0.07500,94.1875,112,64,0.35311
6026170,-0.04000,97.9375,112,64,0.34212
6026180,-0.04000,97.9375,112,64,0.34212
6026190,0.00500,100.7500,112,64,0.33407
6026200,0.00500,100.7500,112,64,0.33407
6026210,0.03000,102.3125,112,64,0.32991
6026220,0.08500,106.3125,112,64,0.31795
6026230,0.08500,106.3125,112,64,0.31795
6026240,0.07500,108.0000,112,64,0.31013
6026250,0.07500,108.0000,112,64,0.31013
6026260,0.04000,108.8125,112,64,0.30549
6026270,-0.03500,109.1250,112,64,0.29988
6026280,-0.03500,109.1250,112,64,0.29988
6026290,-0.06000,109.1250,112,64,0.29670
6026300,-0.09000,108.5000,112,64,0.28742
6026310,-0.09000,108.5000,112,64,0.28742
6026320,-0.09000,108.1250,112,64,0.28449
6026330,-0.09500,106.2500,112,64,0.28132
6026340,-0.09500,106.2500,112,64,0.28132
6026350,-0.09000,105.3125,112,64,0.28474
6026360,-0.09500,102.9375,112,64,0.29890
6026370,-0.09500,102.9375,112,64,0.29890
6026380,-0.09500,99.1250,112,64,0.32576
6026390,-0.09000,96.7500,112,64,0.34335
6026400,-0.08500,94.3125,112,64,0.36264
6026410,-0.08500,92.1250,112,64,0.38291
6026420,-0.08500,88.5625,112,64,0.44274
6026430,-0.07500,88.1250,112,64,0.46105
6026440,-0.07500,87.6875,112,64,0.47839
6026450,-0.07000,86.7500,112,64,0.50574
6026460,-0.06500,86.1250,112,64,0.51966
6026470,-0.06500,86.1250,112,64,0.51966
6026480,-0.06500,84.6875,112,64,0.54774
6026490,-0.06500,84.6875,112,64,0.54774
6026500,-0.07000,82.5625,112,64,0.58755
6026510,-0.07000,81.8750,112,64,0.59976
6026520,-0.07000,81.8750,112,64,0.59976
6026530,-0.07500,80.2500,112,64,0.63126
6026540,-0.07500,79.7500,112,64,0.63980
6026550,-0.07500,79.7500,112,64,0.63980
6026560,-0.06000,78.7500,112,64,0.65079
6026570,-0.06000,78.7500,112,64,0.65079
6026580,-0.04000,77.8125,112,64,0.66105
6026590,-0.02500,77.3125,112,64,0.66593
6026600,-0.02000,76.8750,112,64,0.67009
6026610,0.00500,75.5000,112,64,0.67546
6026620,0.00500,75.5000,112,64,0.67546
6026630,-0.00500,75.0625,112,64,0.67424
6026640,-0.02500,74.5625,112,64,0.67155
6026650,-0.03000,74.1250,112,64,0.66716
6026660,-0.04500,73.3125,112,64,0.65543
6026670,-0.08000,72.8750,112,64,0.64811
6026680,-0.08500,72.0000,112,64,0.63175
6026690,-0.08500,72.0000,112,64,0.63175
6026700,-0.07500,71.1875,112,64,0.61490
6026710,-0.11500,70.4375,112,64,0.59853
6026720,-0.11500,70.4375,112,64,0.59853
6026730,-0.02500,70.0625,112,64,0.59048
6026740,0.85500,69.0000,112,64,0.56752
6026750,0.85500,69.0000,112,64,0.56752
6026760,1.13500,68.6875,112,64,0.56044
6026770,0.28500,67.7500,112,64,0.53871
6026780,-0.02500,67.4375,112,64,0.53089
6026790,-0.12000,67.1250,112,64,0.52332
6026800,-0.16000,66.8125,112,64,0.51600
6026810,-0.16000,66.8125,112,64,0.51600
6026820,-0.18000,66.1875,112,64,0.50183
6026830,-0.18500,65.7708,112,64,0.49276
6026840,-0.19000,65.5625,112,64,0.48840
6026850,-0.19000,65.5625,112,64,0.48840
6026860,-0.19000,64.9375,112,64,0.47619
6026870,-0.18000,64.2500,112,64,0.46520
6026880,-0.18000,64.2500,112,64,0.46520
6026890,-0.18000,63.9375,112,64,0.45934
6026900,-0.16000,63.1250,112,64,0.44029
6026910,-0.16000,63.1250,112,64,0.44029
6026920,-0.15500,63.1250,112,64,0.42759
6026930,-0.15500,65.0000,112,64,0.41563
6026940,-0.15500,65.0000,112,64,0.41563
6026950,-0.14000,71.6250,112,64,0.40537
6026960,-0.14000,71.6250,112,64,0.40537
6026970,-0.12000,86.6875,112,64,0.39145
6026980,-0.10500,90.4375,112,64,0.38632
6026990,-0.10500,90.4375,112,64,0.38632
6027000,-0.07500,95.1875,112,64,0.37582
6027010,-0.05500,97.7500,112,64,0.36532
6027020,-0.05500,97.7500,112,64,0.36532
6027030,-0.01000,100.3750,112,64,0.35556
6027040,-0.01000,100.3750,112,64,0.35556
6027050,0.02000,101.9375,112,64,0.35116
6027060,0.04500,105.1250,112,64,0.34383
6027070,0.09500,107.8125,112,64,0.33773
6027080,0.09500,107.8125,112,64,0.33773
6027090,0.08000,108.8750,112,64,0.33553
6027100,0.00000,110.6875,112,64,0.32625
6027110,-0.03500,111.0000,112,64,0.32186
6027120,-0.06500,111.0625,112,64,0.31722
6027130,-0.06500,111.0625,112,64,0.31722
6027140,-0.08500,110.9375,112,64,0.30842
6027150,-0.10000,110.5625,112,64,0.30183
6027160,-0.10000,110.5625,112,64,0.30183
6027170,-0.10000,109.1250,112,64,0.29597
6027180,-0.09000,108.3750,112,64,0.29597
6027190,-0.09000,108.3750,112,64,0.29597
6027200,-0.09000,106.4375,112,64,0.30549
6027210,-0.09000,103.5625,112,64,0.33065
6027220,-0.09000,103.5625,112,64,0.33065
6027230,-0.08500,99.3125,112,64,0.37070
6027240,-0.08500,99.3125,112,64,0.37070
6027250,-0.08000,96.7500,112,64,0.39414
6027260,-0.07000,90.6875,112,64,0.45958
6027270,-0.06500,89.7500,112,64,0.48059
6027280,-0.06500,89.7500,112,64,0.48059
6027290,-0.06000,88.1875,112,64,0.54212
6027300,-0.06000,88.1875,112,64,0.54212
6027310,-0.06000,87.6875,112,64,0.56166
6027320,-0.06000,86.4375,112,64,0.59829
6027330,-0.06000,86.4375,112,64,0.59829
6027340,-0.05500,85.0000,112,64,0.63223
6027350,-0.05000,83.5000,112,64,0.66056
6027360,-0.05000,83.5000,112,64,0.66056
6027370,-0.04500,81.6250,112,64,0.69597
6027380,-0.04500,81.0625,112,64,0.70745
6027390,-0.04000,80.5625,112,64,0.71819
6027400,-0.03500,80.0625,112,64,0.72821
6027410,-0.03500,80.0625,112,64,0.72821
6027420,-0.00500,78.5625,112,64,0.75189
6027430,-0.00500,78.5625,112,64,0.75189
6027440,0.01000,77.6250,112,64,0.76239
6027450,0.01500,76.6875,112,64,0.76654
6027460,0.01000,76.1875,112,64,0.76581
6027470,-0.01000,75.7500,112,64,0.76435
6027480,-0.02000,75.3125,112,64,0.76166
6027490,-0.02000,75.3125,112,64,0.76166
6027500,-0.06500,74.0000,112,64,0.74310
6027510,-0.07500,73.5625,112,64,0.73431
6027520,-0.07500,73.5625,112,64,0.73431
6027530,-0.07000,72.2500,112,64,0.70354
6027540,-0.07000,71.8750,112,64,0.69280
6027550,-0.07000,71.8750,112,64,0.69280
6027560,-0.06500,71.0625,112,64,0.67326
6027570,0.24500,70.3750,112,64,0.65421
6027580,0.24500,70.3750,112,64,0.65421
6027590,0.77000,70.0625,112,64,0.64493
6027600,0.94000,69.3750,112,64,0.62589
6027610,0.94000,69.3750,112,64,0.62589
6027620,0.40000,68.7500,112,64,0.60659
6027630,-0.10000,68.0625,112,64,0.58730
6027640,-0.10000,68.0625,112,64,0.58730
6027650,-0.14500,67.7500,112,64,0.57778
6027660,-0.18000,66.9375,112,64,0.55311
6027670,-0.18000,66.9375,112,64,0.55311
6027680,-0.18000,66.6250,112,64,0.54530
6027690,-0.18500,65.6875,112,64,0.51990
6027700,-0.18500,65.6875,112,64,0.51990
6027710,-0.18500,65.3750,112,64,0.51160
6027720,-0.18000,65.0625,112,64,0.50330
6027730,-0.18000,64.8125,112,64,0.49499
6027740,-0.17500,64.2500,112,64,0.47863
6027750,-0.16500,64.0000,112,64,0.46374
6027760,-0.16000,64.1250,112,64,0.45763
6027770,-0.16000,64.1250,112,64,0.45763
6027780,-0.14500,68.8750,112,64,0.43736
6027790,-0.14500,68.8750,112,64,0.43736
6027800,-0.13000,78.0625,112,64,0.42393
6027810,-0.12000,87.8750,112,64,0.41099
6027820,-0.12000,87.8750,112,64,0.41099
6027830,-0.10500,91.5000,112,64,0.40464
6027840,-0.07500,96.0625,112,64,0.39170
6027850,-0.07500,96.0625,112,64,0.39170
6027860,-0.05500,98.6875,112,64,0.38095
6027870,-0.00500,101.5000,112,64,0.37265
6027880,-0.00500,101.5000,112,64,0.37265
6027890,0.02000,103.0625,112,64,0.36801
6027900,0.07500,107.6875,112,64,0.35311
6027910,0.07500,107.6875,112,64,0.35311
6027920,0.09000,109.0000,112,64,0.34823
6027930,0.04500,111.5000,112,64,0.33333
6027940,0.04500,111.5000,112,64,0.33333
6027950,0.01000,111.9375,112,64,0.32821
6027960,-0.05500,112.3125,112,64,0.32210
6027970,-0.05500,112.3125,112,64,0.32210
6027980,-0.07500,112.2500,112,64,0.31502
6027990,-0.08500,111.8125,112,64,0.30842
6028000,-0.08500,111.4375,112,64,0.30549
6028010,-0.08500,111.4375,112,64,0.30549
6028020,-0.09000,110.3750,112,64,0.30134
6028030,-0.09500,108.8125,112,64,0.30574
6028040,-0.09500,107.8125,112,64,0.31306
6028050,-0.09500,107.8125,112,64,0.31306
6028060,-0.10000,105.0000,112,64,0.33700
6028070,-0.10000,103.1250,112,64,0.35238
6028080,-0.09500,98.3750,112,64,0.39365
6028090,-0.08500,93.7500,112,64,0.44103
6028100,-0.08500,93.7500,112,64,0.44103
6028110,-0.08000,91.0625,112,64,0.48718
6028120,-0.07500,90.3750,112,64,0.50916
6028130,-0.07500,90.3750,112,64,0.50916
6028140,-0.07000,88.8125,112,64,0.57094
6028150,-0.07000,88.8125,112,64,0.57094
6028160,-0.06500,87.5625,112,64,0.60220
6028170,-0.06500,86.1875,112,64,0.63443
6028180,-0.06500,86.1875,112,64,0.63443
6028190,-0.07000,84.8125,112,64,0.66642
6028200,-0.07000,84.1875,112,64,0.68156
6028210,-0.07000,84.1875,112,64,0.68156
6028220,-0.07000,82.4375,112,64,0.72088
6028230,-0.07000,82.4375,112,64,0.72088
6028240,-0.06000,81.4375,112,64,0.74164
6028250,-0.04500,80.4375,112,64,0.75629
6028260,-0.04500,80.4375,112,64,0.75629
6028270,-0.01500,79.4375,112,64,0.76459
6028280,-0.00500,78.9375,112,64,0.76850
6028290,-0.00500,78.9375,112,64,0.76850
6028300,0.00000,78.0000,112,64,0.77411
6028310,0.00000,77.5000,112,64,0.77509
6028320,-0.02000,77.0625,112,64,0.77460
6028330,-0.04500,75.7500,112,64,0.76239
6028340,-0.04500,75.7500,112,64,0.76239
6028350,-0.09000,74.8750,112,64,0.74628
6028360,-0.09000,74.8750,112,64,0.74628
6028370,-0.08000,73.5625,112,64,0.71770
6028380,-0.07000,73.1250,112,64,0.70745
6028390,-0.07000,73.1250,112,64,0.70745
6028400,-0.09500,72.6875,112,64,0.69744
6028410,0.13000,71.5625,112,64,0.66838
6028420,0.13000,71.5625,112,64,0.66838
6028430,0.60000,71.2500,112,64,0.65861
6028440,1.02500,70.6250,112,64,0.63858
6028450,1.02500,70.6250,112,64,0.63858
6028460,0.52500,70.0000,112,64,0.61978
6028470,-0.09000,69.3750,112,64,0.60220
6028480,-0.09000,69.3750,112,64,0.60220
6028490,-0.15500,69.0625,112,64,0.59316
6028500,-0.19000,68.1250,112,64,0.56581
6028510,-0.19000,68.1250,112,64,0.56581
6028520,-0.19500,67.8750,112,64,0.55727
6028530,-0.19000,67.6250,112,64,0.54872
6028540,-0.19000,67.0625,112,64,0.53138
6028550,-0.19000,66.7500,112,64,0.52283
6028560,-0.19000,66.5000,112,64,0.51526
6028570,-0.18500,66.1875,112,64,0.50867
6028580,-0.18500,65.6250,112,64,0.49475
6028590,-0.18000,65.4375,112,64,0.48742
6028600,-0.17000,65.5000,112,64,0.47326
6028610,-0.16000,67.5000,112,64,0.45958
6028620,-0.15500,70.3125,112,64,0.45275
6028630,-0.15000,74.5000,112,64,0.44567
6028640,-0.15000,74.5000,112,64,0.44567
6028650,-0.13500,79.6250,112,64,0.43883
6028660,-0.12000,93.3750,112,64,0.42247
6028670,-0.12000,93.3750,112,64,0.42247
6028680,-0.09000,98.1250,112,64,0.41001
6028690,-0.09000,98.1250,112,64,0.41001
6028700,-0.06500,100.9375,112,64,0.39829
6028710,-0.02500,103.9375,112,64,0.38730
6028720,-0.02500,103.9375,112,64,0.38730
6028730,0.00000,105.6875,112,64,0.38193
6028740,0.06000,110.5000,112,64,0.36703
6028750,0.06000,110.5000,112,64,0.36703
6028760,0.08000,111.7500,112,64,0.36337
6028770,0.05500,114.2500,112,64,0.35238
6028780,0.05500,114.2500,112,64,0.35238
6028790,0.02000,114.7500,112,64,0.34799
6028800,-0.04500,115.3125,112,64,0.33968
6028810,-0.04500,115.3125,112,64,0.33968
6028820,-0.08000,115.3125,112,64,0.32821
6028830,-0.08000,115.3125,112,64,0.32821
6028840,-0.08500,115.0625,112,64,0.32479
6028850,-0.08500,114.7500,112,64,0.32161
6028860,-0.08500,113.2500,112,64,0.32088
6028870,-0.08500,113.2500,112,64,0.32088
6028880,-0.08500,111.6250,112,64,0.33040
6028890,-0.08500,111.6250,112,64,0.33040
6028900,-0.08500,109.1875,112,64,0.35385
6028910,-0.08000,105.4375,112,64,0.39170
6028920,-0.08000,105.4375,112,64,0.39170
6028930,-0.08500,103.0000,112,64,0.41441
6028940,-0.08000,95.6875,112,64,0.48694
6028950,-0.08000,95.6875,112,64,0.48694
6028960,-0.08000,94.1875,112,64,0.50720
6028970,-0.07500,91.8750,112,64,0.56606
6028980,-0.07500,91.3125,112,64,0.58632
6028990,-0.07500,91.3125,112,64,0.58632
6029000,-0.07000,90.1875,111,64,0.62564
6029010,-0.07000,90.1875,111,64,0.62564
6029020,-0.06500,88.8750,111,64,0.66203
6029030,-0.06500,87.5000,111,64,0.69499
6029040,-0.07000,86.7500,111,64,0.71013
6029050,-0.07000,86.7500,111,64,0.71013
6029060,-0.06500,84.8750,111,64,0.74261
6029070,-0.06500,84.3125,111,64,0.75360
6029080,-0.06500,84.3125,111,64,0.75360
6029090,-0.05500,82.7500,111,64,0.78291
6029100,-0.03500,82.2500,111,64,0.79072
6029110,-0.03500,82.2500,111,64,0.79072
6029120,-0.02500,81.2500,111,64,0.80269
6029130,-0.02500,81.2500,111,64,0.80269
6029140,-0.00500,79.7500,111,64,0.76313
6029150,-0.00500,79.7500,111,64,0.76313
6029160,-0.02500,78.8750,111,64,0.75140
6029170,-0.02500,78.8750,111,64,0.75140
6029180,-0.03500,77.9375,111,64,0.74115
6029190,-0.08000,77.0625,111,64,0.72650
6029200,-0.08000,77.0625,111,64,0.72650
6029210,-0.09000,76.6250,111,64,0.71722
6029220,-0.07500,75.3125,111,64,0.68596
6029230,-0.07500,74.9375,111,64,0.67546
6029240,-0.07500,74.9375,111,64,0.67546
6029250,-0.02500,73.7500,111,64,0.64591
6029260,0.29500,73.4375,111,64,0.63614
6029270,0.79000,73.0625,111,64,0.62637
6029280,1.07500,72.7500,111,64,0.61661
6029290,1.07500,72.7500,111,64,0.61661
6029300,0.80500,72.1250,111,64,0.59731
6029310,0.28500,71.7500,111,64,0.58730
6029320,-0.02000,71.4375,111,64,0.57729
6029330,-0.16000,70.3750,111,64,0.54823
6029340,-0.18500,70.0625,111,64,0.53895
6029350,-0.19000,69.7500,111,64,0.53065
6029360,-0.19000,69.7500,111,64,0.53065
6029370,-0.19000,69.7500,111,64,0.53065
6029380,-0.19000,69.7500,111,64,0.53065
6029390,-0.19000,68.3750,111,64,0.48938
6029400,-0.18500,68.3750,111,64,0.48938
6029410,-0.18000,68.0625,111,64,0.48083
6029420,-0.18000,67.3125,111,64,0.45665
6029430,-0.17000,67.1875,111,64,0.44908
6029440,-0.17000,67.1875,111,64,0.44908
6029450,-0.16000,68.4375,111,64,0.42930
6029460,-0.16000,68.4375,111,64,0.42930
6029470,-0.16000,70.4375,111,64,0.42295
6029480,-0.14500,78.5000,111,64,0.40952
6029490,-0.14500,78.5000,111,64,0.40952
6029500,-0.14500,88.8750,111,64,0.39536
6029510,-0.11500,96.4375,111,64,0.38169
6029520,-0.11500,96.4375,111,64,0.38169
6029530,-0.10000,98.8125,111,64,0.37509
6029540,-0.08000,102.0000,111,64,0.36264
6029550,-0.06000,103.3750,111,64,0.35678
6029560,-0.04000,104.9375,111,64,0.35214
6029570,-0.01500,106.6250,111,64,0.34847
6029580,0.01000,110.0625,111,64,0.33919
6029590,0.04000,111.6250,111,64,0.33431
6029600,0.07000,113.0625,111,64,0.32943
6029610,0.07000,115.9375,111,64,0.31648
6029620,0.07000,115.9375,111,64,0.31648
6029630,0.00500,117.0000,111,64,0.30867
6029640,-0.02500,117.3750,111,64,0.30452
6029650,-0.02500,117.3750,111,64,0.30452
6029660,-0.07500,117.5625,111,64,0.29621
6029670,-0.07500,117.5625,111,64,0.29621
6029680,-0.09000,117.3125,111,64,0.29255
6029690,-0.10500,115.9375,111,64,0.28327
6029700,-0.10500,115.9375,111,64,0.28327
6029710,-0.10500,115.3125,111,64,0.28254
6029720,-0.10500,114.5625,111,64,0.28400
6029730,-0.10500,113.6875,111,64,0.28864
6029740,-0.10000,111.3750,111,64,0.30867
6029750,-0.10000,108.0000,111,64,0.34017
6029760,-0.10000,108.0000,111,64,0.34017
6029770,-0.10500,105.7500,111,64,0.35702
6029780,-0.10000,98.0000,111,64,0.42027
6029790,-0.09500,96.0000,111,64,0.44176
6029800,-0.09500,96.0000,111,64,0.44176
6029810,-0.09500,92.8125,111,64,0.50403
6029820,-0.08500,92.2500,111,64,0.52357
6029830,-0.08500,92.2500,111,64,0.52357
6029840,-0.08500,91.6250,111,64,0.54261
6029850,-0.07500,91.0625,111,64,0.56093
6029860,-0.07500,89.6875,111,64,0.58950
6029870,-0.06500,88.9375,111,64,0.60440
6029880,-0.06500,87.3750,111,64,0.63419
6029890,-0.06500,87.3750,111,64,0.63419
6029900,-0.06000,85.8750,111,64,0.66227
6029910,-0.05500,84.5000,111,64,0.68694
6029920,-0.05500,84.5000,111,64,0.68694
6029930,-0.05500,83.9375,111,64,0.69792
6029940,-0.04500,82.1875,111,64,0.72381
6029950,-0.04500,82.1875,111,64,0.72381
6029960,-0.02500,81.6250,111,64,0.72869
6029970,-0.00500,80.0000,111,64,0.73846
6029980,-0.00500,80.0000,111,64,0.73846
6029990,0.01000,79.5000,111,64,0.74042
6030000,0.00500,78.4375,111,64,0.74042
6030010,0.00500,78.4375,111,64,0.74042
6030020,-0.00500,77.4375,111,64,0.73358
6030030,-0.01500,76.9375,111,64,0.72723
6030040,-0.04000,76.5000,111,64,0.71941
6030050,-0.06500,76.0000,111,64,0.71013
6030060,-0.07500,75.0625,111,64,0.69035
6030070,-0.06500,74.0625,111,64,0.66838
6030080,-0.06500,74.0625,111,64,0.66838
6030090,-0.07500,73.6250,111,64,0.65690
6030100,-0.09500,72.7500,111,64,0.63394
6030110,0.01000,72.3750,111,64,0.62247
6030120,0.39000,72.0000,111,64,0.61123
6030130,0.89000,71.6250,111,64,0.60000
6030140,1.07500,70.9375,111,64,0.57802
6030150,0.73500,70.5625,111,64,0.56752
6030160,0.23000,70.1875,111,64,0.55800
6030170,-0.02500,69.8125,111,64,0.54896
6030180,-0.14500,68.7500,111,64,0.51941
6030190,-0.16500,68.3750,111,64,0.50940
6030200,-0.16500,68.3750,111,64,0.50940
6030210,-0.17000,67.4375,111,64,0.48010
6030220,-0.17000,67.1250,111,64,0.47057
6030230,-0.17000,67.1250,111,64,0.47057
6030240,-0.17000,66.8125,111,64,0.46129
6030250,-0.17000,65.8125,111,64,0.43663
6030260,-0.17000,65.8125,111,64,0.43663
6030270,-0.16000,65.1250,111,64,0.41978
6030280,-0.16000,64.8750,111,64,0.41148
6030290,-0.16000,64.8750,111,64,0.41148
6030300,-0.14500,65.0625,111,64,0.38657
6030310,-0.13500,66.0625,111,64,0.37851
6030320,-0.13500,66.0625,111,64,0.37851
6030330,-0.12000,76.2500,111,64,0.35482
6030340,-0.11500,81.3125,111,64,0.34725
6030350,-0.11500,81.3125,111,64,0.34725
6030360,-0.10000,86.1250,111,64,0.34115
6030370,-0.06500,95.5625,111,64,0.32357
6030380,-0.06500,95.5625,111,64,0.32357
6030390,-0.04500,97.2500,111,64,0.31697
6030400,-0.00500,99.8125,111,64,0.30403
6030410,-0.00500,99.8125,111,64,0.30403
6030420,0.02000,102.6250,111,64,0.29133
6030430,0.07500,105.6250,111,64,0.27912
6030440,0.07500,105.6250,111,64,0.27912
6030450,0.10000,107.0000,111,64,0.27326
6030460,0.11000,109.3125,111,64,0.26545
6030470,0.09500,110.1875,111,64,0.26081
6030480,0.02000,111.3125,111,64,0.25055
6030490,0.02000,111.3125,111,64,0.25055
6030500,-0.01500,111.7500,111,64,0.24029
6030510,-0.03500,111.8125,111,64,0.23516
6030520,-0.05500,111.7500,111,64,0.23028
6030530,-0.07500,110.9375,111,64,0.21709
6030540,-0.07500,110.5000,111,64,0.21490
6030550,-0.07500,110.5000,111,64,0.21490
6030560,-0.07500,109.8750,111,64,0.21416
6030570,-0.07500,109.1875,111,64,0.21368
6030580,-0.07500,107.3125,111,64,0.21880
6030590,-0.07500,104.3750,111,64,0.23663
6030600,-0.07500,104.3750,111,64,0.23663
6030610,-0.07500,102.3750,111,64,0.25104
6030620,-0.07500,97.5000,111,64,0.28864
6030630,-0.07500,95.0000,111,64,0.31013
6030640,-0.07500,92.9375,111,64,0.33236
6030650,-0.07000,89.7500,111,64,0.39170
6030660,-0.07000,89.2500,111,64,0.41026
6030670,-0.07000,88.6875,111,64,0.42882
6030680,-0.06500,88.1250,111,64,0.44664
6030690,-0.06500,88.1250,111,64,0.44664
6030700,-0.06000,86.0625,111,64,0.49646
6030710,-0.06000,86.0625,111,64,0.49646
6030720,-0.06000,85.3750,111,64,0.51209
6030730,-0.06500,83.1875,111,64,0.55556
6030740,-0.06500,83.1875,111,64,0.55556
6030750,-0.06000,82.5625,111,64,0.56679
6030760,-0.06000,81.4375,111,64,0.58657
6030770,-0.06000,81.4375,111,64,0.58657
6030780,-0.05500,80.3750,111,64,0.60586
6030790,-0.01500,79.4375,111,64,0.62198
6030800,-0.01500,79.4375,111,64,0.62198
6030810,-0.01500,78.9375,111,64,0.62857
6030820,-0.01000,77.9375,111,64,0.63858
6030830,-0.00500,77.0000,111,64,0.64371
6030840,-0.00500,77.0000,111,64,0.64371
6030850,-0.02500,76.5000,111,64,0.64396
6030860,-0.04500,75.0625,111,64,0.63565
6030870,-0.04500,75.0625,111,64,0.63565
6030880,-0.08500,74.1250,111,64,0.62271
6030890,-0.08500,74.1250,111,64,0.62271
6030900,-0.08000,73.2500,111,64,0.60513
6030910,-0.07000,72.8125,111,64,0.59536
6030920,-0.07000,72.3750,111,64,0.58510
6030930,-0.10000,71.9375,111,64,0.57485
6030940,-0.07500,71.1875,111,64,0.55433
6030950,0.19500,70.8125,111,64,0.54530
6030960,0.72000,70.5000,111,64,0.53700
6030970,1.10000,70.1875,111,64,0.52821
6030980,0.93000,69.5000,111,64,0.50989
6030990,0.40000,69.1875,111,64,0.50061
6031000,-0.09500,68.5000,111,64,0.48205
6031010,-0.09500,68.5000,111,64,0.48205
6031020,-0.16500,67.5000,111,64,0.45519
6031030,-0.18000,67.1875,111,64,0.44689
6031040,-0.18000,67.1875,111,64,0.44689
6031050,-0.18000,66.8750,111,64,0.43883
6031060,-0.18000,66.3125,111,64,0.42589
6031070,-0.18000,66.0000,111,64,0.41880
6031080,-0.17000,65.3125,111,64,0.40464
6031090,-0.17000,64.5625,111,64,0.39048
6031100,-0.17000,64.5625,111,64,0.39048
6031110,-0.16500,64.3125,111,64,0.38315
6031120,-0.15000,63.8750,111,64,0.36874
6031130,-0.14500,63.8750,111,64,0.35482
6031140,-0.14000,64.5000,111,64,0.34945
6031150,-0.14000,64.5000,111,64,0.34945
6031160,-0.12500,68.5000,111,64,0.33871
6031170,-0.12500,68.5000,111,64,0.33871
6031180,-0.11500,77.1875,111,64,0.33382
6031190,-0.09000,86.6250,111,64,0.33871
6031200,-0.09000,86.6250,111,64,0.33871
6031210,-0.07500,90.1875,111,64,0.33578
6031220,-0.04000,96.2500,111,64,0.32186
6031230,-0.04000,96.2500,111,64,0.32186
6031240,-0.02000,97.4375,111,64,0.31722
6031250,0.02000,101.4375,111,64,0.30696
6031260,0.02000,101.4375,111,64,0.30696
6031270,0.05000,102.8750,111,64,0.30354
6031280,0.10000,105.5000,111,64,0.29573
6031290,0.10000,105.5000,111,64,0.29573
6031300,0.07000,108.1875,111,64,0.28376
6031310,0.07000,108.1875,111,64,0.28376
6031320,0.03000,108.7500,111,64,0.27985
6031330,-0.00500,109.0625,111,64,0.27619
6031340,-0.05500,109.2500,111,64,0.26618
6031350,-0.05500,109.2500,111,64,0.26618
6031360,-0.07500,109.0625,111,64,0.26447
6031370,-0.08500,108.8125,111,64,0.26178
6031380,-0.08500,107.3125,111,64,0.25299
6031390,-0.08500,107.3125,111,64,0.25299
6031400,-0.09000,105.6875,111,64,0.25177
6031410,-0.09000,105.6875,111,64,0.25177
6031420,-0.09500,101.4375,111,64,0.26789
6031430,-0.09500,101.4375,111,64,0.26789
6031440,-0.08500,99.3125,111,64,0.27985
6031450,-0.08500,96.9375,111,64,0.29499
6031460,-0.08500,92.1875,111,64,0.32698
6031470,-0.08500,90.4375,111,64,0.34603
6031480,-0.08000,89.2500,111,64,0.36630
6031490,-0.07500,88.5000,111,64,0.38657
6031500,-0.07000,87.0000,111,64,0.44420
6031510,-0.07000,87.0000,111,64,0.44420
6031520,-0.06500,85.8750,111,64,0.47863
6031530,-0.06500,84.5000,111,64,0.51062
6031540,-0.06500,84.5000,111,64,0.51062
6031550,-0.07000,83.0625,111,64,0.53504
6031560,-0.06500,82.4375,111,64,0.54750
6031570,-0.06500,82.4375,111,64,0.54750
6031580,-0.07000,80.6875,111,64,0.58315
6031590,-0.07000,80.1250,111,64,0.59365
6031600,-0.07000,80.1250,111,64,0.59365
6031610,-0.06500,78.6875,111,64,0.62051
6031620,-0.06500,78.6875,111,64,0.62051
6031630,-0.05000,78.2500,111,64,0.62759
6031640,-0.02000,77.2500,111,64,0.63883
6031650,-0.02000,77.2500,111,64,0.63883
6031660,-0.01000,76.3125,111,64,0.64420
6031670,0.00500,75.3750,111,64,0.64713
6031680,0.00500,75.3750,111,64,0.64713
6031690,-0.01000,74.9375,111,64,0.64664
6031700,-0.03500,73.6875,111,64,0.63614
6031710,-0.03500,73.6875,111,64,0.63614
6031720,-0.06000,73.2500,111,64,0.62979
6031730,-0.08000,72.8750,111,64,0.62222
6031740,-0.08000,72.0625,111,64,0.60537
6031750,-0.07000,71.1875,111,64,0.58974
6031760,-0.07000,71.1875,111,64,0.58974
6031770,-0.09500,70.8125,111,64,0.58144
6031780,0.14000,69.7500,111,64,0.55678
6031790,0.14000,69.7500,111,64,0.55678
6031800,0.62500,69.4375,111,64,0.54896
6031810,1.02500,68.5625,111,64,0.52503
6031820,1.02500,68.5625,111,64,0.52503
6031830,0.51000,68.2500,111,64,0.51746
6031840,-0.08500,67.6250,111,64,0.50256
6031850,-0.14500,67.0000,111,64,0.48987
6031860,-0.14500,67.0000,111,64,0.48987
6031870,-0.18500,66.3750,111,64,0.47643
6031880,-0.18500,66.3750,111,64,0.47643
6031890,-0.19000,66.0625,111,64,0.46960
6031900,-0.18000,65.1875,111,64,0.44884
6031910,-0.18000,65.1875,111,64,0.44884
6031920,-0.18000,64.5625,111,64,0.43541
6031930,-0.17500,63.9375,111,64,0.42247
6031940,-0.17500,63.9375,111,64,0.42247
6031950,-0.17000,63.4375,111,64,0.41245
6031960,-0.17000,63.3125,111,64,0.40708
6031970,-0.17000,63.3125,111,64,0.40708
6031980,-0.15500,64.3750,111,64,0.39023
6031990,-0.15000,66.2500,111,64,0.38486
6032000,-0.15000,66.2500,112,64,0.38486
6032010,-0.13500,79.1875,112,64,0.36899
6032020,-0.13500,79.1875,112,64,0.36899
6032030,-0.11500,88.3750,112,64,0.35873
6032040,-0.09500,91.6875,112,64,0.35360
6032050,-0.09500,91.6875,112,64,0.35360
6032060,-0.06000,97.0625,112,64,0.34237
6032070,-0.03500,98.1875,112,64,0.33797
6032080,-0.03500,98.1875,112,64,0.33797
6032090,0.01000,102.3750,112,64,0.32552
6032100,0.01000,102.3750,112,64,0.32552
6032110,0.04500,103.8750,112,64,0.32137
6032120,0.09000,106.6250,112,64,0.31355
6032130,0.09000,106.6250,112,64,0.31355
6032140,0.05500,109.2500,112,64,0.30330
6032150,0.02000,109.6875,112,64,0.30134
6032160,0.02000,109.6875,112,64,0.30134
6032170,-0.02000,110.0000,112,64,0.29866
6032180,-0.07500,110.1875,112,64,0.28840
6032190,-0.07500,110.1875,112,64,0.28840
6032200,-0.08500,109.6875,112,64,0.28181
6032210,-0.08500,109.6875,112,64,0.28181
6032220,-0.08500,108.9375,112,64,0.27595
6032230,-0.08500,108.3750,112,64,0.27375
6032240,-0.08500,107.6875,112,64,0.27302
6032250,-0.09000,104.5625,112,64,0.28376
6032260,-0.09000,104.5625,112,64,0.28376
6032270,-0.09500,100.9375,112,64,0.30598
6032280,-0.09000,98.6250,112,64,0.32186
6032290,-0.09000,98.6250,112,64,0.32186
6032300,-0.08500,91.6875,112,64,0.38193
6032310,-0.08000,90.2500,112,64,0.40342
6032320,-0.08000,90.2500,112,64,0.40342
6032330,-0.07500,88.1875,112,64,0.46349
6032340,-0.07500,88.1875,112,64,0.46349
6032350,-0.06500,87.7500,112,64,0.47961
6032360,-0.06500,87.2500,112,64,0.49402
6032370,-0.06500,86.6875,112,64,0.50940
6032380,-0.06000,85.3125,112,64,0.54042
6032390,-0.06000,84.6250,112,64,0.55531
6032400,-0.05500,83.9375,112,64,0.56947
6032410,-0.05500,83.2500,112,64,0.58291
6032420,-0.05500,81.4375,112,64,0.61905
6032430,-0.05500,80.9375,112,64,0.62930
6032440,-0.05500,80.9375,112,64,0.62930
6032450,-0.05000,79.5000,112,64,0.65104
6032460,-0.05000,79.5000,112,64,0.65104
6032470,-0.03500,79.0000,112,64,0.65812
6032480,-0.01000,78.0625,112,64,0.67009
6032490,0.00000,77.1875,112,64,0.67814
6032500,0.00000,77.1875,112,64,0.67814
6032510,0.01000,76.3125,112,64,0.68107
6032520,0.01000,76.3125,112,64,0.68107
6032530,-0.02500,74.9375,112,64,0.67448
6032540,-0.02500,74.9375,112,64,0.66984
6032550,-0.03500,74.5625,112,64,0.66984
6032560,-0.08000,73.6875,112,64,0.65690
6032570,-0.08000,73.6875,112,64,0.65690
6032580,-0.08000,72.8125,112,64,0.64029
6032590,-0.06500,72.0625,112,64,0.62247
6032600,-0.06500,72.0625,112,64,0.62247
6032610,-0.09000,71.6250,112,64,0.61368
6032620,-0.09500,70.8750,112,64,0.59658
6032630,0.12000,70.5000,112,64,0.58803
6032640,0.59000,70.1875,112,64,0.57973
6032650,1.06000,69.2500,112,64,0.55727
6032660,1.06000,69.2500,112,64,0.55727
6032670,0.57000,68.9375,112,64,0.54969
6032680,0.09500,68.6250,112,64,0.54212
6032690,-0.07500,68.3125,112,64,0.53431
6032700,-0.13500,67.6250,112,64,0.51868
6032710,-0.16500,67.3125,112,64,0.51111
6032720,-0.18000,67.0000,112,64,0.50379
6032730,-0.18500,66.0625,112,64,0.48230
6032740,-0.19000,65.7500,112,64,0.47619
6032750,-0.19000,65.7500,112,64,0.47619
6032760,-0.18500,65.3750,112,64,0.47057
6032770,-0.18000,65.0625,112,64,0.46422
6032780,-0.17500,64.3750,112,64,0.45153
6032790,-0.17000,63.8750,112,64,0.43907
6032800,-0.17000,63.8750,112,64,0.43907
6032810,-0.16500,63.6875,112,64,0.43297
6032820,-0.15500,64.8125,112,64,0.41490
6032830,-0.14500,66.7500,112,64,0.40879
6032840,-0.13500,70.0625,112,64,0.40415
6032850,-0.12000,79.9375,112,64,0.39487
6032860,-0.11000,85.0000,112,64,0.38950
6032870,-0.09500,89.2500,112,64,0.38388
6032880,-0.08500,92.5000,112,64,0.37851
6032890,-0.08500,92.5000,112,64,0.37851
6032900,-0.05500,97.8125,112,64,0.36313
6032910,-0.03000,99.0625,112,64,0.35800
6032920,-0.03000,99.0625,112,64,0.35800
6032930,-0.01000,100.4375,112,64,0.35311
6032940,0.04500,105.1250,112,64,0.34017
6032950,0.04500,105.1250,112,64,0.34017
6032960,0.07500,106.5625,112,64,0.33748
6032970,0.09500,109.8125,112,64,0.32576
6032980,0.09500,109.8125,112,64,0.32576
6032990,0.03000,110.9375,112,64,0.31746
6033000,-0.00500,111.2500,112,65,0.31355
6033010,-0.00500,111.2500,112,65,0.31355
6033020,-0.05500,111.4375,112,65,0.30232
6033030,-0.07500,111.2500,112,65,0.29890
6033040,-0.07500,111.2500,112,65,0.29890
6033050,-0.09000,110.2500,112,65,0.29255
6033060,-0.09000,110.2500,112,65,0.29255
6033070,-0.10000,109.1250,112,65,0.28889
6033080,-0.10000,109.1250,112,65,0.28889
6033090,-0.10000,108.3750,112,65,0.28913
6033100,-0.10000,106.2500,112,65,0.29866
6033110,-0.10000,104.7500,112,65,0.30867
6033120,-0.10000,102.8750,112,65,0.32210
6033130,-0.09500,100.6875,112,65,0.33871
6033140,-0.09500,95.6875,112,65,0.37875
6033150,-0.09500,93.4375,112,65,0.39756
6033160,-0.08500,91.7500,112,65,0.41514
6033170,-0.08500,90.6250,112,65,0.43419
6033180,-0.07500,89.4375,112,65,0.47228
6033190,-0.06500,88.4375,112,65,0.50842
6033200,-0.06500,88.4375,112,65,0.50842
6033210,-0.06000,86.6250,112,65,0.55800
6033220,-0.06500,85.8750,112,65,0.58657
6033230,-0.06500,85.8750,112,65,0.58657
6033240,-0.06000,85.1875,112,65,0.62173
6033250,-0.05500,83.1875,112,65,0.67668
6033260,-0.05500,82.6250,112,65,0.69060
6033270,-0.05000,82.0625,112,65,0.70354
6033280,-0.05000,81.5000,112,65,0.71526
6033290,-0.05000,81.5000,112,65,0.71526
6033300,-0.03000,80.0625,112,65,0.74481
6033310,-0.00500,79.5625,112,65,0.75238
6033320,-0.00500,79.5625,112,65,0.75238
6033330,0.00000,79.1250,112,65,0.75897
6033340,0.02000,77.6250,112,65,0.77021
6033350,0.02500,77.1250,112,65,0.77021
6033360,0.02500,77.1250,112,65,0.77021
6033370,-0.00500,75.7500,112,65,0.76386
6033380,-0.00500,75.7500,112,65,0.76386
6033390,-0.03500,74.8750,112,65,0.75165
6033400,-0.06000,74.4375,112,65,0.74359
6033410,-0.06000,74.4375,112,65,0.74359
6033420,-0.05500,73.0625,112,65,0.71477
6033430,-0.05500,73.0625,112,65,0.71477
6033440,-0.06500,72.1875,112,65,0.69475
6033450,-0.07500,71.4375,112,65,0.67521
6033460,-0.07500,71.4375,112,65,0.67521
6033470,0.50500,70.6250,112,65,0.65519
6033480,0.50500,70.6250,112,65,0.65519
6033490,1.14000,69.5625,112,65,0.62540
6033500,0.70500,69.2500,112,65,0.61563
6033510,0.70500,69.2500,112,65,0.61563
6033520,0.19000,68.8750,112,65,0.60611
6033530,-0.03500,68.1875,112,65,0.59658
6033540,-0.10500,67.8125,112,65,0.57778
6033550,-0.15500,67.1875,112,65,0.56166
6033560,-0.16000,66.8750,112,65,0.55360
6033570,-0.16000,66.2500,112,65,0.53724
6033580,-0.16500,65.9375,112,65,0.52918
6033590,-0.16500,65.9375,112,65,0.52918
6033600,-0.16000,65.3750,112,65,0.51258
6033610,-0.15500,64.6875,112,65,0.49621
6033620,-0.15500,64.6875,112,65,0.49621
6033630,-0.14500,64.2500,112,65,0.47961
6033640,-0.14000,64.0625,112,65,0.47253
6033650,-0.13000,64.1875,112,65,0.45934
6033660,-0.13000,64.1875,112,65,0.45934
6033670,-0.12000,64.9375,112,65,0.45201
6033680,-0.11000,66.7500,112,65,0.44469
6033690,-0.10500,70.0000,112,65,0.43736
6033700,-0.09500,79.8750,112,65,0.42320
6033710,-0.08500,85.0000,112,65,0.41612
6033720,-0.07500,89.3125,112,65,0.40928
6033730,-0.06500,92.6250,112,65,0.40269
6033740,-0.05000,96.8125,112,65,0.38974
6033750,-0.03500,98.1250,112,65,0.38486
6033760,-0.01000,99.3750,112,65,0.38071
6033770,0.01000,100.7500,112,65,0.37582
6033780,0.04000,103.8125,112,65,0.36532
6033790,0.06500,105.4375,112,65,0.35995
6033800,0.09500,106.8750,112,65,0.35482
6033810,0.12500,110.3125,112,65,0.33993
6033820,0.12500,110.3125,112,65,0.33993
6033830,0.10000,111.0625,112,65,0.33529
6033840,0.02000,112.0000,112,65,0.32796
6033850,-0.01500,112.3125,112,65,0.32234
6033860,-0.01500,112.3125,112,65,0.32234
6033870,-0.04500,112.3125,112,65,0.31844
6033880,-0.07000,111.9375,112,65,0.31038
6033890,-0.07000,111.9375,112,65,0.31038
6033900,-0.07500,111.1875,112,65,0.30281
6033910,-0.08000,110.1250,112,65,0.29792
