RelativeTimeMilliseconds;ECG;ART;ART (Sys);ART (Dia);PPG
6600000;-0.09000;96.0000;104;61;0.29280
6600010;-0.09000;90.5000;104;61;0.34261
6600020;-0.09000;90.5000;104;61;0.34261
6600030;-0.08500;88.3750;104;61;0.36728
6600040;-0.08000;85.0625;104;61;0.42344
6600050;-0.08000;85.0625;104;61;0.42344
6600060;-0.07500;82.9375;104;61;0.50012
6600070;-0.07000;82.5625;104;61;0.52381
6600080;-0.07000;82.5625;104;61;0.52381
6600090;-0.06500;81.1875;104;61;0.59243
6600100;-0.06500;80.6250;104;61;0.61343
6600110;-0.06500;80.6250;104;61;0.61343
6600120;-0.06500;79.3750;104;61;0.65348
6600130;-0.06500;79.3750;104;61;0.65348
6600140;-0.07000;77.5625;104;61;0.70672
6600150;-0.07000;77.0000;104;61;0.72259
6600160;-0.07000;77.0000;104;61;0.72259
6600170;-0.07000;75.6250;104;61;0.75604
6600180;-0.07000;75.6250;104;61;0.75604
6600190;-0.07000;75.1875;104;61;0.76703
6600200;-0.06500;74.3750;104;61;0.78730
6600210;-0.06500;74.3750;104;61;0.78730
6600220;-0.06500;73.5000;104;61;0.80440
6600230;-0.06500;72.6875;104;61;0.81661
6600240;-0.06500;72.6875;104;61;0.81661
6600250;-0.06500;72.3125;104;61;0.82076
6600260;-0.04000;71.1250;104;61;0.82125
6600270;-0.04000;71.1250;104;61;0.82125
6600280;-0.02500;70.8125;104;61;0.81856
6600290;-0.01500;70.4375;104;61;0.81465
6600300;-0.02000;69.6875;104;61;0.80220
6600310;-0.03500;69.3125;104;61;0.79316
6600320;-0.04000;68.9375;104;61;0.78315
6600330;-0.06500;67.8125;104;61;0.75043
6600340;-0.06500;67.8125;104;61;0.75043
6600350;-0.07500;67.1250;104;61;0.72918
6600360;-0.07000;66.7500;104;61;0.71966
6600370;-0.09000;66.1250;104;61;0.70037
6600380;-0.07500;65.8125;104;61;0.69060
6600390;-0.07500;65.8125;104;61;0.69060
6600400;0.15000;65.5000;104;61;0.68107
6600410;0.57000;65.1875;104;61;0.67155
6600420;0.79500;64.3750;104;61;0.64249
6600430;0.79500;64.3750;104;61;0.64249
6600440;0.37500;64.1250;104;61;0.63321
6600450;-0.07500;63.3750;104;61;0.60708
6600460;-0.12500;63.1250;104;61;0.59902
6600470;-0.12500;63.1250;104;61;0.59902
6600480;-0.15500;62.6250;104;61;0.56923
6600490;-0.15500;62.1250;104;61;0.52381
6600500;-0.15500;62.1250;104;61;0.52381
6600510;-0.15500;61.6875;104;61;0.50012
6600520;-0.15500;61.4375;104;61;0.49084
6600530;-0.15500;61.4375;104;61;0.49084
6600540;-0.15500;60.7500;104;61;0.46740
6600550;-0.15500;60.5000;104;61;0.46105
6600560;-0.15500;60.5000;104;61;0.46105
6600570;-0.14500;60.1250;104;61;0.44322
6600580;-0.13500;60.3125;104;61;0.43663
6600590;-0.13500;60.3125;104;61;0.43663
6600600;-0.12500;62.5625;104;61;0.42320
6600610;-0.12500;62.5625;104;61;0.42320
6600620;-0.11000;74.7500;104;61;0.40440
6600630;-0.10500;79.6250;104;61;0.39829
6600640;-0.10500;79.6250;104;61;0.39829
6600650;-0.08500;89.3750;104;61;0.38144
6600660;-0.07000;91.0000;104;61;0.37705
6600670;-0.07000;91.0000;104;61;0.37705
6600680;-0.03500;93.1875;104;61;0.36630
6600690;-0.03500;93.1875;104;61;0.36630
6600700;-0.02000;95.6250;104;61;0.35531
6600710;0.02000;98.5000;104;61;0.34408
6600720;0.02000;98.5000;104;61;0.34408
6600730;0.05000;99.9375;104;61;0.33871
6600740;0.08500;103.3125;104;61;0.32405
6600750;0.07000;104.1250;104;61;0.32088
6600760;0.07000;104.1250;104;61;0.32088
6600770;-0.00500;105.5625;104;61;0.31136
6600780;-0.04000;105.7500;104;61;0.30769
6600790;-0.04000;105.7500;104;61;0.30769
6600800;-0.07500;105.8750;104;61;0.30037
6600810;-0.08500;105.5000;104;61;0.29328
6600820;-0.08500;105.5000;104;61;0.29328
6600830;-0.09500;104.8125;104;61;0.28694
6600840;-0.09500;104.8125;104;61;0.28694
6600850;-0.09500;103.1250;104;61;0.28352
6600860;-0.09500;103.1250;104;61;0.28352
6600870;-0.09000;101.3750;104;61;0.29011
6600880;-0.09000;101.3750;104;61;0.29011
6600890;-0.09000;100.1875;104;61;0.29817
6600900;-0.08500;97.0000;104;61;0.32650
6600910;-0.08500;94.9375;104;61;0.34676
6600920;-0.09000;90.7500;104;61;0.39560
6600930;-0.09000;90.7500;104;61;0.39560
6600940;-0.08500;86.9375;104;61;0.47326
6600950;-0.08500;86.9375;104;61;0.47326
6600960;-0.08500;86.3125;104;61;0.49451
6600970;-0.08500;84.8125;104;61;0.55311
6600980;-0.08500;84.8125;104;61;0.55311
6600990;-0.08000;83.7500;104;61;0.59243
6601000;-0.08000;83.7500;103;60;0.59243
6601010;-0.08000;83.1875;103;60;0.61123
6601020;-0.08000;81.1875;103;60;0.66325
6601030;-0.08000;81.1875;103;60;0.66325
6601040;-0.07500;80.5625;103;60;0.67937
6601050;-0.07500;79.0000;103;60;0.71990
6601060;-0.07500;79.0000;103;60;0.71990
6601070;-0.07500;78.5000;103;60;0.72869
6601080;-0.07500;78.0625;103;60;0.73846
6601090;-0.07500;76.8125;103;60;0.76581
6601100;-0.07500;76.8125;103;60;0.76581
6601110;-0.07500;76.3750;103;60;0.77338
6601120;-0.06500;75.5000;103;60;0.78510
6601130;-0.06500;75.5000;103;60;0.78510
6601140;-0.06500;74.6250;103;60;0.79194
6601150;-0.03500;73.7500;103;60;0.79219
6601160;-0.03500;73.7500;103;60;0.79219
6601170;-0.02500;73.3750;103;60;0.78950
6601180;-0.01500;72.5625;103;60;0.78217
6601190;-0.02000;72.1875;103;60;0.77631
6601200;-0.04000;71.3750;103;60;0.76093
6601210;-0.04000;71.3750;103;60;0.76093
6601220;-0.04500;70.6250;103;60;0.74212
6601230;-0.08500;69.9375;103;60;0.72161
6601240;-0.08500;69.9375;103;60;0.72161
6601250;-0.07500;69.5000;103;60;0.71087
6601260;-0.07000;68.7500;103;60;0.69035
6601270;-0.04500;68.1250;103;60;0.67131
6601280;-0.04500;68.1250;103;60;0.67131
6601290;0.19500;67.8125;103;60;0.66203
6601300;0.88000;66.8750;103;60;0.63419
6601310;0.88000;66.8750;103;60;0.63419
6601320;0.73500;66.6250;103;60;0.62491
6601330;0.02500;65.8750;103;60;0.59707
6601340;0.02500;65.8750;103;60;0.59707
6601350;-0.08000;65.6250;103;60;0.58755
6601360;-0.14000;65.0625;103;60;0.57045
6601370;-0.15000;64.5000;103;60;0.55311
6601380;-0.15000;64.5000;103;60;0.55311
6601390;-0.15500;64.0000;103;60;0.53626
6601400;-0.15500;63.7500;103;60;0.52821
6601410;-0.15500;63.7500;103;60;0.52821
6601420;-0.14500;63.1250;103;60;0.50476
6601430;-0.14500;63.1250;103;60;0.50476
6601440;-0.14500;62.8750;103;60;0.49695
6601450;-0.13500;62.2500;103;60;0.47424
6601460;-0.13500;62.2500;103;60;0.47424
6601470;-0.12500;62.5000;103;60;0.46056
6601480;-0.12500;62.5000;103;60;0.46056
6601490;-0.11500;67.7500;103;60;0.43858
6601500;-0.11000;71.8750;103;60;0.43150
6601510;-0.11000;71.8750;103;60;0.43150
6601520;-0.09500;81.5000;103;60;0.41758
6601530;-0.08500;88.6875;103;60;0.40464
6601540;-0.08500;88.6875;103;60;0.40464
6601550;-0.06500;92.3750;103;60;0.39316
6601560;-0.06500;92.3750;103;60;0.39316
6601570;-0.04500;93.4375;103;60;0.38877
6601580;-0.03000;95.3750;103;60;0.37827
6601590;-0.01000;96.5625;103;60;0.37314
6601600;0.01500;97.9375;103;60;0.36777
6601610;0.04500;99.3750;103;60;0.36239
6601620;0.10000;103.1875;103;60;0.34701
6601630;0.11500;104.0625;103;60;0.34237
6601640;0.11500;104.0625;103;60;0.34237
6601650;0.07000;105.7500;103;60;0.33040
6601660;0.07000;105.7500;103;60;0.33040
6601670;0.02500;106.0625;103;60;0.32772
6601680;-0.01000;106.1875;103;60;0.32454
6601690;-0.04000;106.2500;103;60;0.32112
6601700;-0.05500;106.0000;103;60;0.31477
6601710;-0.07500;105.3750;103;60;0.30794
6601720;-0.07500;105.3750;103;60;0.30794
6601730;-0.07500;103.7500;103;60;0.30061
6601740;-0.07500;103.0000;103;60;0.30037
6601750;-0.07500;103.0000;103;60;0.30037
6601760;-0.07500;101.1250;103;60;0.30623
6601770;-0.07000;98.3750;103;60;0.32479
6601780;-0.07000;98.3750;103;60;0.32479
6601790;-0.07000;94.5000;103;60;0.35946
6601800;-0.06500;92.3750;103;60;0.38169
6601810;-0.06500;92.3750;103;60;0.38169
6601820;-0.06000;88.6250;103;60;0.43053
6601830;-0.05500;86.4375;103;60;0.47961
6601840;-0.05500;86.4375;103;60;0.47961
6601850;-0.05500;85.7500;103;60;0.50330
6601860;-0.05500;84.6250;103;60;0.54481
6601870;-0.05000;84.1250;103;60;0.56142
6601880;-0.05000;83.5625;103;60;0.57949
6601890;-0.05500;81.5625;103;60;0.63297
6601900;-0.05500;81.5625;103;60;0.63297
6601910;-0.05500;80.8750;103;60;0.64957
6601920;-0.05500;79.5625;103;60;0.68034
6601930;-0.05500;79.5625;103;60;0.68034
6601940;-0.05000;77.7500;103;60;0.71917
6601950;-0.05000;77.2500;103;60;0.72747
6601960;-0.05000;77.2500;103;60;0.72747
6601970;-0.05000;75.8750;103;60;0.74872
6601980;-0.05500;75.4375;103;60;0.75580
6601990;-0.05500;75.4375;103;60;0.75580
6602000;-0.05500;74.5000;103;60;0.76752
6602010;-0.04500;73.5625;103;60;0.77509
6602020;-0.04500;73.5625;103;60;0.77509
6602030;-0.03000;72.6250;103;60;0.77705
6602040;-0.01500;72.1875;103;60;0.77534
6602050;-0.01500;72.1875;103;60;0.77534
6602060;-0.00500;71.3125;103;60;0.76630
6602070;-0.00500;70.3750;103;60;0.75238
6602080;-0.00500;70.3750;103;60;0.75238
6602090;-0.02500;69.9375;103;60;0.74359
6602100;-0.03500;68.7500;103;60;0.71136
6602110;-0.03500;68.7500;103;60;0.71136
6602120;-0.06500;67.9375;103;60;0.68694
6602130;-0.06500;67.9375;103;60;0.68694
6602140;-0.05500;67.1875;103;60;0.66227
6602150;-0.05500;66.8125;103;60;0.65031
6602160;-0.02500;66.0000;103;60;0.62906
6602170;0.24500;65.3125;103;60;0.60659
6602180;0.24500;65.3125;103;60;0.60659
6602190;0.94000;64.6875;103;60;0.58388
6602200;0.73500;64.3750;103;60;0.57241
6602210;0.73500;64.3750;103;60;0.57241
6602220;0.02000;63.5000;103;60;0.53919
6602230;0.02000;63.5000;103;60;0.53919
6602240;-0.06500;63.2500;103;60;0.52869
6602250;-0.12500;62.3125;103;60;0.50037
6602260;-0.12500;62.3125;103;60;0.50037
6602270;-0.13500;62.0000;103;60;0.49109
6602280;-0.13000;61.4375;103;60;0.47204
6602290;-0.13500;60.8750;103;60;0.45324
6602300;-0.13500;60.8750;103;60;0.45324
6602310;-0.12500;60.3125;103;60;0.43443
6602320;-0.12500;60.0000;103;60;0.42491
6602330;-0.12000;59.3750;103;60;0.40562
6602340;-0.12000;59.3750;103;60;0.40562
6602350;-0.11500;59.0000;103;60;0.38828
6602360;-0.11500;59.0000;103;60;0.38828
6602370;-0.11000;59.5000;103;60;0.36630
6602380;-0.11000;59.5000;103;60;0.36630
6602390;-0.10500;60.7500;103;60;0.35824
6602400;-0.09500;63.1250;103;60;0.35018
6602410;-0.06500;75.8125;103;60;0.32723
6602420;-0.05000;80.0000;103;60;0.31941
6602430;-0.05000;80.0000;103;60;0.31941
6602440;-0.02000;85.7500;103;60;0.30427
6602450;-0.00500;88.4375;103;60;0.29353
6602460;-0.00500;88.4375;103;60;0.29353
6602470;0.01000;89.1875;103;60;0.28767
6602480;0.02500;89.9375;103;60;0.28132
6602490;0.04500;90.8750;103;60;0.27473
6602500;0.07000;93.0625;103;60;0.26203
6602510;0.12000;95.3125;103;60;0.25006
6602520;0.12000;95.3125;103;60;0.25006
6602530;0.12000;96.3125;103;60;0.24444
6602540;0.07000;98.3125;103;60;0.24054
6602550;0.07000;98.3125;103;60;0.24054
6602560;0.03500;98.6875;103;60;0.23858
6602570;-0.02500;98.8750;103;60;0.22979
6602580;-0.02500;98.8750;103;60;0.22979
6602590;-0.04500;98.7500;103;60;0.22589
6602600;-0.07000;98.1250;103;60;0.21783
6602610;-0.07000;98.1250;103;60;0.21783
6602620;-0.07000;97.0625;103;60;0.21026
6602630;-0.06500;95.6250;103;60;0.20440
6602640;-0.06500;95.6250;103;60;0.20440
6602650;-0.06500;94.6875;103;60;0.20244
6602660;-0.07000;90.2500;103;60;0.21099
6602670;-0.07000;90.2500;103;60;0.21099
6602680;-0.06500;88.2500;103;60;0.21929
6602690;-0.06500;83.1875;103;60;0.26667
6602700;-0.06500;83.1875;103;60;0.26667
6602710;-0.05500;82.2500;103;60;0.28791
6602720;-0.05500;81.1875;103;60;0.33309
6602730;-0.05500;81.1875;103;60;0.33309
6602740;-0.05500;79.9375;103;60;0.39658
6602750;-0.05500;79.9375;103;60;0.39658
6602760;-0.05500;79.4375;103;60;0.41319
6602770;-0.05500;78.8750;103;60;0.42784
6602780;-0.05500;77.6250;103;60;0.45885
6602790;-0.05500;76.3125;103;60;0.48840
6602800;-0.05500;76.3125;103;60;0.48840
6602810;-0.05500;74.7500;103;60;0.52821
6602820;-0.05500;74.7500;103;60;0.52821
6602830;-0.05500;73.8125;103;60;0.55116
6602840;-0.05500;73.8125;103;60;0.55116
6602850;-0.06000;73.3750;103;60;0.56142
6602860;-0.05500;72.5625;103;60;0.57558
6602870;-0.05500;72.1875;103;60;0.58217
6602880;-0.05500;71.7500;103;60;0.58828
6602890;-0.05500;71.3125;103;60;0.59389
6602900;-0.05000;70.0625;103;60;0.60415
6602910;-0.05000;70.0625;103;60;0.60415
6602920;-0.03500;69.6875;103;60;0.60464
6602930;-0.01500;69.3125;103;60;0.60464
6602940;0.00000;68.5625;103;60;0.59927
6602950;0.00000;67.7500;103;60;0.58877
6602960;0.00000;67.7500;103;60;0.58877
6602970;-0.02000;66.6875;103;60;0.56679
6602980;-0.03500;66.3125;103;60;0.55800
6602990;-0.03500;66.3125;103;60;0.55800
6603000;-0.06500;65.6250;103;60;0.53993
6603010;-0.05500;64.8750;103;60;0.52210
6603020;-0.05500;64.8750;103;60;0.52210
6603030;-0.06000;64.5625;103;60;0.51380
6603040;-0.04500;63.9375;103;60;0.49719
6603050;-0.04500;63.9375;103;60;0.49719
6603060;0.22500;63.3125;103;60;0.48303
6603070;0.94000;62.7500;103;60;0.46789
6603080;0.94000;62.7500;103;60;0.46789
6603090;0.30500;61.9375;103;60;0.44444
6603100;0.02000;61.6875;103;60;0.43663
6603110;0.02000;61.6875;103;60;0.43663
6603120;-0.11500;61.1250;103;60;0.42125
6603130;-0.13500;60.6250;103;60;0.40659
6603140;-0.13500;60.6250;103;60;0.40659
6603150;-0.15000;60.1250;103;60;0.39365
6603160;-0.15000;60.1250;103;60;0.39365
6603170;-0.15000;59.9375;103;60;0.38852
6603180;-0.14500;59.1875;103;60;0.36972
6603190;-0.14500;58.9375;103;60;0.36337
6603200;-0.14500;58.9375;103;60;0.36337
6603210;-0.15000;58.6875;103;60;0.35726
6603220;-0.14500;58.1250;103;60;0.34554
6603230;-0.14000;57.8125;103;60;0.33407
6603240;-0.13500;57.7500;103;60;0.32869
6603250;-0.13500;57.7500;103;60;0.32869
6603260;-0.12500;59.8750;103;60;0.31697
6603270;-0.12500;59.8750;103;60;0.31697
6603280;-0.11500;62.4375;103;60;0.31233
6603290;-0.11000;66.2500;103;60;0.30745
6603300;-0.10000;75.5000;103;60;0.29695
6603310;-0.09000;79.6250;103;60;0.29206
6603320;-0.08000;82.8750;103;60;0.28718
6603330;-0.07500;85.1875;103;60;0.28254
6603340;-0.03500;88.5625;103;60;0.26960
6603350;-0.03500;88.5625;103;60;0.26960
6603360;-0.01000;89.3750;103;60;0.26667
6603370;0.04000;92.6250;103;60;0.25714
6603380;0.04000;92.6250;103;60;0.25714
6603390;0.09000;94.8750;103;60;0.25006
6603400;0.09000;94.8750;103;60;0.25006
6603410;0.08000;97.3125;103;60;0.23980
6603420;0.08000;97.3125;103;60;0.23980
6603430;0.04000;97.6875;103;60;0.23639
6603440;0.00500;97.9375;103;60;0.23297
6603450;-0.03000;98.0625;103;60;0.22979
6603460;-0.05500;98.0000;103;60;0.22662
6603470;-0.07500;97.8125;103;60;0.22442
6603480;-0.09500;97.2500;103;60;0.21905
6603490;-0.09500;97.2500;103;60;0.21905
6603500;-0.10500;95.6875;103;60;0.21148
6603510;-0.10500;94.9375;103;60;0.21001
6603520;-0.10500;94.9375;103;60;0.21001
6603530;-0.10000;91.3750;103;60;0.21587
6603540;-0.10000;91.3750;103;60;0.21587
6603550;-0.09500;89.5625;103;60;0.22369
6603560;-0.09500;87.5625;103;60;0.23394
6603570;-0.09500;85.5625;103;60;0.24689
6603580;-0.08500;82.3750;103;60;0.28498
6603590;-0.08000;80.8750;103;60;0.33211
6603600;-0.08000;80.8750;103;60;0.33211
6603610;-0.07500;80.4375;103;60;0.35678
6603620;-0.07000;79.3125;103;60;0.42491
6603630;-0.07000;79.3125;103;60;0.42491
6603640;-0.07500;78.8125;103;60;0.46276
6603650;-0.07000;77.0625;103;60;0.49133
6603660;-0.07500;76.4375;103;60;0.50549
6603670;-0.07500;75.8750;103;60;0.52015
6603680;-0.07500;75.8750;103;60;0.52015
6603690;-0.07500;74.3750;103;60;0.56166
6603700;-0.07500;74.3750;103;60;0.56166
6603710;-0.07000;73.9375;103;60;0.57436
6603720;-0.07500;73.5000;103;60;0.58608
6603730;-0.07000;72.3125;103;60;0.61538
6603740;-0.07000;71.9375;103;60;0.62271
6603750;-0.07000;71.9375;103;60;0.62271
6603760;-0.07000;71.1250;103;60;0.63126
6603770;-0.07000;71.1250;103;60;0.63126
6603780;-0.06500;70.3125;103;60;0.63785
6603790;-0.05500;69.6250;103;60;0.64176
6603800;-0.05500;69.6250;103;60;0.64176
6603810;-0.04500;69.2500;103;60;0.64200
6603820;-0.02500;68.5000;103;60;0.63736
6603830;-0.02000;68.1250;103;60;0.63272
6603840;-0.02500;67.4375;103;60;0.61905
6603850;-0.02500;67.4375;103;60;0.61905
6603860;-0.04500;66.6875;103;60;0.60342
6603870;-0.06500;66.0000;103;60;0.58681
6603880;-0.06500;66.0000;103;60;0.58681
6603890;-0.08500;65.6875;103;60;0.57827
6603900;-0.08500;65.0000;103;60;0.56117
6603910;-0.08000;64.6875;103;60;0.55287
6603920;-0.10500;64.0625;103;60;0.53724
6603930;-0.10500;64.0625;103;60;0.53724
6603940;0.40500;63.1875;103;60;0.51502
6603950;0.40500;63.1875;103;60;0.51502
6603960;0.86500;62.8750;103;60;0.50842
6603970;0.54500;62.1250;103;60;0.48645
6603980;0.54500;62.1250;103;60;0.48645
6603990;0.13000;61.8750;103;60;0.47937
6604000;-0.11500;61.3750;103;60;0.46520
6604010;-0.11500;61.3750;103;60;0.46520
6604020;-0.16000;60.6250;103;60;0.44347
6604030;-0.16000;60.4375;103;60;0.43663
6604040;-0.16000;60.4375;103;60;0.43663
6604050;-0.16000;59.6875;103;60;0.41929
6604060;-0.15500;59.4375;103;60;0.41343
6604070;-0.15500;59.4375;103;60;0.41343
6604080;-0.15000;58.8750;103;60;0.40122
6604090;-0.14500;58.3125;103;60;0.38877
6604100;-0.14500;58.3125;103;60;0.38877
6604110;-0.14500;57.9375;103;60;0.37680
6604120;-0.14500;57.9375;103;60;0.37680
6604130;-0.14000;57.8125;103;60;0.37094
6604140;-0.13500;58.2500;103;60;0.35995
6604150;-0.13000;59.3125;103;60;0.35580
6604160;-0.12500;61.5000;103;60;0.35214
6604170;-0.11500;65.0000;103;60;0.34774
6604180;-0.10500;74.3750;103;60;0.33773
6604190;-0.10000;78.8125;103;60;0.33236
6604200;-0.06500;85.0000;103;60;0.32186
6604210;-0.06500;85.0000;103;60;0.32186
6604220;-0.05000;87.8750;103;60;0.31184
6604230;-0.01500;89.5625;103;60;0.30256
6604240;-0.01500;89.5625;103;60;0.30256
6604250;0.03000;92.8750;103;60;0.29182
6604260;0.05500;94.1250;103;60;0.28840
6604270;0.05500;94.1250;103;60;0.28840
6604280;0.10000;96.3750;103;60;0.28083
6604290;0.10000;96.3750;103;60;0.28083
6604300;0.07000;98.6250;103;60;0.26960
6604310;0.03500;99.0000;103;60;0.26593
6604320;0.00000;99.2500;103;60;0.26252
6604330;-0.03000;99.3125;103;60;0.25617
6604340;-0.03000;99.3125;103;60;0.25617
6604350;-0.05500;99.1875;103;60;0.25397
6604360;-0.07500;99.0000;103;60;0.25250
6604370;-0.08500;98.7500;103;60;0.25006
6604380;-0.08500;98.0000;103;60;0.24347
6604390;-0.08500;97.4375;103;60;0.24029
6604400;-0.09000;96.8125;103;60;0.23761
6604410;-0.09000;93.9375;103;60;0.23761
6604420;-0.09000;93.9375;103;60;0.23761
6604430;-0.08500;92.5000;103;60;0.24347
6604440;-0.08500;90.7500;103;60;0.25324
6604450;-0.08500;88.7500;103;60;0.26740
6604460;-0.08000;84.8125;103;60;0.30037
6604470;-0.07500;82.3125;103;60;0.34530
6604480;-0.07000;81.6875;103;60;0.36996
6604490;-0.07000;81.6875;103;60;0.36996
6604500;-0.06500;80.5000;103;60;0.44005
6604510;-0.06500;80.0625;103;60;0.46105
6604520;-0.06500;80.0625;103;60;0.46105
6604530;-0.06500;79.5625;103;60;0.48083
6604540;-0.06500;78.4375;103;60;0.51673
6604550;-0.06500;77.8125;103;60;0.53089
6604560;-0.06500;76.6250;103;60;0.55678
6604570;-0.06500;75.5625;103;60;0.60977
6604580;-0.06500;75.5625;103;60;0.60977
6604590;-0.06500;75.0625;103;60;0.66105
6604600;-0.06000;74.5625;103;60;0.69353
6604610;-0.05500;74.1250;103;60;0.71600
6604620;-0.05500;72.8750;103;60;0.75726
6604630;-0.05500;72.4375;103;60;0.76654
6604640;-0.05500;72.4375;103;60;0.76654
6604650;-0.05500;71.1875;103;60;0.78266
6604660;-0.05500;70.7500;103;60;0.78584
6604670;-0.05500;70.7500;103;60;0.78584
6604680;-0.03000;70.0000;103;60;0.79023
6604690;-0.01500;69.2500;103;60;0.78950
6604700;0.00000;68.8750;103;60;0.78681
6604710;0.00000;68.8750;103;60;0.78681
6604720;0.01000;68.5000;103;60;0.78217
6604730;-0.02500;67.3125;103;60;0.75873
6604740;-0.03500;67.0000;103;60;0.74969
6604750;-0.03500;67.0000;103;60;0.74969
6604760;-0.06500;66.3125;103;60;0.73040
6604770;-0.06500;66.3125;103;60;0.73040
6604780;-0.06500;65.1875;103;60;0.70085
6604790;-0.06500;65.1875;103;60;0.70085
6604800;-0.08000;64.5000;103;60;0.68156
6604810;-0.03500;63.8125;103;60;0.66300
6604820;0.25000;63.5000;103;60;0.65372
6604830;0.25000;63.5000;103;60;0.65372
6604840;0.92500;62.8750;103;60;0.63516
6604850;0.74500;62.3125;103;60;0.61856
6604860;0.74500;62.3125;103;60;0.61856
6604870;0.00500;61.8125;103;60;0.60147
6604880;0.00500;61.8125;103;60;0.60147
6604890;-0.08500;61.5000;103;60;0.59292
6604900;-0.14500;60.6875;103;60;0.56777
6604910;-0.14500;60.6875;103;60;0.56777
6604920;-0.15000;60.3125;103;60;0.55140
6604930;-0.15500;59.8750;103;60;0.53602
6604940;-0.15500;59.6250;103;60;0.52918
6604950;-0.15500;59.3125;103;60;0.52308
6604960;-0.15500;59.3125;103;60;0.52308
6604970;-0.15000;59.0625;103;60;0.51624
6604980;-0.15000;59.0625;103;60;0.51624
6604990;-0.15000;59.0625;103;60;0.51624
6605000;-0.13500;57.9375;103;60;0.47985
6605010;-0.12500;58.1875;103;60;0.46520
6605020;-0.12500;59.0000;103;60;0.45763
6605030;-0.12500;59.0000;103;60;0.45763
6605040;-0.11500;63.8750;103;60;0.44274
6605050;-0.10500;73.0000;103;60;0.43126
6605060;-0.10500;73.0000;103;60;0.43126
6605070;-0.09500;77.6250;103;60;0.42515
6605080;-0.08500;81.5000;103;60;0.41880
6605090;-0.07000;84.4375;103;60;0.41245
6605100;-0.05500;87.8750;103;60;0.40024
6605110;-0.01500;89.7500;103;60;0.38852
6605120;-0.01500;89.7500;103;60;0.38852
6605130;0.00000;90.6875;103;60;0.38266
6605140;0.02000;93.1250;103;60;0.37143
6605150;0.04000;94.4375;103;60;0.36728
6605160;0.07000;95.7500;103;60;0.36386
6605170;0.08500;96.8750;103;60;0.35971
6605180;0.06000;99.4375;103;60;0.34603
6605190;0.06000;99.4375;103;60;0.34603
6605200;-0.00500;100.3125;103;60;0.33724
6605210;-0.03500;100.5000;103;60;0.32796
6605220;-0.03500;100.5000;103;60;0.32796
6605230;-0.08500;100.2500;103;60;0.31966
6605240;-0.09500;100.0000;103;60;0.31575
6605250;-0.09500;100.0000;103;60;0.31575
6605260;-0.09500;98.7500;103;60;0.30916
6605270;-0.09500;98.7500;103;60;0.30916
6605280;-0.09500;98.1875;103;60;0.30623
6605290;-0.09500;95.7500;103;60;0.30452
6605300;-0.09500;95.7500;103;60;0.30452
6605310;-0.09000;93.0625;103;60;0.31844
6605320;-0.09000;91.3125;103;60;0.33187
6605330;-0.08500;87.1875;103;60;0.37192
6605340;-0.08500;87.1875;103;60;0.37192
6605350;-0.09000;83.9375;103;60;0.41612
6605360;-0.09000;83.9375;103;60;0.41612
6605370;-0.08500;81.8750;103;60;0.49524
6605380;-0.08500;81.5000;103;60;0.52137
6605390;-0.08500;81.5000;103;60;0.52137
6605400;-0.08000;81.1250;103;60;0.54628
6605410;-0.07500;80.6875;103;60;0.56972
6605420;-0.07500;79.0000;103;60;0.63297
6605430;-0.07000;78.3750;103;60;0.65177
6605440;-0.07000;78.3750;103;60;0.65177
6605450;-0.07000;77.7500;103;60;0.66984
6605460;-0.06500;75.8750;103;60;0.71087
6605470;-0.06500;75.8750;103;60;0.71087
6605480;-0.06500;75.3750;103;60;0.72503
6605490;-0.06500;74.8750;103;60;0.73871
6605500;-0.06500;74.0000;103;60;0.76337
6605510;-0.06500;73.5625;103;60;0.77460
6605520;-0.06000;73.1250;103;60;0.78462
6605530;-0.05500;71.9375;103;60;0.80757
6605540;-0.05500;71.9375;103;60;0.80757
6605550;-0.04500;71.0625;103;60;0.81319
6605560;-0.04500;71.0625;103;60;0.81319
6605570;-0.04000;70.6875;103;60;0.81538
6605580;-0.02500;69.8750;103;60;0.81685
6605590;-0.01000;69.5000;103;60;0.81538
6605600;0.00000;69.1250;103;60;0.81221
6605610;0.00000;68.7500;103;60;0.80733
6605620;-0.02500;67.6875;103;60;0.78388
6605630;-0.03500;67.3125;103;60;0.77411
6605640;-0.03500;67.3125;103;60;0.77411
6605650;-0.05500;66.9375;103;60;0.76386
6605660;-0.07500;66.2500;103;60;0.74335
6605670;-0.07500;65.8750;103;60;0.73284
6605680;-0.07000;65.5625;103;60;0.72210
6605690;-0.08500;64.5625;103;60;0.69158
6605700;-0.08500;64.5625;103;60;0.69158
6605710;0.49500;64.0000;103;60;0.67106
6605720;0.49500;64.0000;103;60;0.67106
6605730;0.87500;63.1250;103;60;0.64029
6605740;0.47500;62.8125;103;60;0.63101
6605750;0.47500;62.8125;103;60;0.63101
6605760;0.09500;62.5625;103;60;0.62247
6605770;-0.05000;62.3125;103;60;0.61392
6605780;-0.10000;61.8125;103;60;0.59634
6605790;-0.14000;61.3125;103;60;0.57875
6605800;-0.14000;61.3125;103;60;0.57875
6605810;-0.14500;61.0625;103;60;0.57021
6605820;-0.14500;60.6250;103;60;0.55287
6605830;-0.15000;60.1875;103;60;0.53578
6605840;-0.15500;59.9375;103;60;0.52845
6605850;-0.15500;59.9375;103;60;0.52845
6605860;-0.15000;59.4375;103;60;0.51502
6605870;-0.14500;58.9375;103;60;0.50061
6605880;-0.14500;58.9375;103;60;0.50061
6605890;-0.12500;58.8750;103;60;0.47814
6605900;-0.11850;59.4375;103;60;0.47057
6605910;-0.11900;59.4375;103;60;0.47057
6605920;-0.12000;60.8750;103;60;0.46300
6605930;-0.11500;63.4375;103;60;0.45543
6605940;-0.11000;72.0000;103;60;0.44029
6605950;-0.09500;76.8125;103;60;0.43443
6605960;-0.07000;84.3125;103;60;0.42369
6605970;-0.06000;88.4375;103;60;0.41197
6605980;-0.06000;88.4375;103;60;0.41197
6605990;-0.03000;90.5625;103;60;0.40024
6606000;-0.03000;90.5625;103;60;0.40024
6606010;-0.00500;92.6250;103;60;0.38852
6606020;0.03500;95.2500;103;60;0.37729
6606030;0.03500;95.2500;103;60;0.37729
6606040;0.08500;97.8125;103;60;0.36825
6606050;0.10000;99.8125;103;60;0.36117
6606060;0.10000;99.8125;103;60;0.36117
6606070;0.07000;101.0625;103;60;0.35287
6606080;0.07000;101.0625;103;60;0.35287
6606090;-0.01000;101.8750;103;60;0.33968
6606100;-0.04000;101.8125;103;60;0.33553
6606110;-0.04000;101.8125;103;60;0.33553
6606120;-0.07500;101.5000;103;60;0.32723
6606130;-0.08500;100.9375;103;60;0.31966
6606140;-0.08500;100.9375;103;60;0.31966
6606150;-0.09000;100.0000;103;60;0.31575
6606160;-0.08500;99.3750;103;60;0.31355
6606170;-0.08500;97.8750;103;60;0.31282
6606180;-0.08500;97.8750;103;60;0.31282
6606190;-0.08500;95.6250;103;60;0.32308
6606200;-0.08500;94.0625;103;60;0.33480
6606210;-0.08500;94.0625;103;60;0.33480
6606220;-0.08000;88.1875;103;60;0.39609
6606230;-0.08000;86.4375;103;60;0.42271
6606240;-0.08000;86.4375;103;60;0.42271
6606250;0.77500;64.5625;103;60;0.66300
6606260;0.77500;64.5625;103;60;0.66300
6606270;0.77500;64.5625;103;60;0.66300
6606280;0.77500;64.5625;103;60;0.66300
6606290;0.77500;64.5625;103;60;0.66300
6606300;0.77500;64.5625;103;60;0.66300
6606310;0.77500;64.5625;103;60;0.66300
6606320;0.77500;64.5625;103;60;0.66300
6606330;0.77500;64.5625;103;60;0.66300
6606340;0.77500;64.5625;103;60;0.66300
6606350;0.77500;64.5625;103;60;0.66300
6606360;-0.14000;62.5000;103;60;0.51868
6606370;-0.14000;62.5000;103;60;0.51868
6606380;-0.14000;62.5000;103;60;0.51868
6606390;-0.14000;62.5000;103;60;0.51868
6606400;-0.14000;62.5000;103;60;0.51868
6606410;-0.14000;62.5000;103;60;0.51868
6606420;-0.14000;62.5000;103;60;0.51868
6606430;-0.14000;62.5000;103;60;0.51868
6606440;-0.14000;62.5000;103;60;0.51868
6606450;-0.14000;62.5000;103;60;0.51868
6606460;-0.14000;62.5000;103;60;0.51868
6606470;-0.14000;62.5000;103;60;0.51868
6606480;-0.14000;62.5000;103;60;0.51868
6606490;-0.14000;62.5000;103;60;0.51868
6606500;-0.14000;62.5000;103;60;0.51868
6606510;-0.14000;62.5000;103;60;0.51868
6606520;-0.14000;62.5000;103;60;0.51868
6606530;-0.14000;62.5000;103;60;0.51868
6606540;-0.14000;62.5000;103;60;0.51868
6606550;-0.14000;62.5000;103;60;0.51868
6606560;-0.14000;62.5000;103;60;0.51868
6606570;-0.14000;62.5000;103;60;0.51868
6606580;-0.14000;62.5000;103;60;0.51868
6606590;-0.14000;62.5000;103;60;0.51868
6606600;-0.14000;62.5000;103;60;0.51868
6606610;-0.14000;62.5000;103;60;0.51868
6606620;-0.14000;62.5000;103;60;0.51868
6606630;-0.14000;62.5000;103;60;0.51868
6606640;-0.14000;62.5000;103;60;0.51868
6606650;-0.14000;62.5000;103;60;0.51868
6606660;-0.14000;62.5000;103;60;0.51868
6606670;-0.14000;62.5000;103;60;0.51868
6606680;-0.14000;62.5000;103;60;0.51868
6606690;-0.14000;62.5000;103;60;0.51868
6606700;-0.14500;61.8125;103;60;0.49255
6606710;-0.14500;61.8125;103;60;0.49255
6606720;-0.14500;61.5625;103;60;0.48425
6606730;-0.14000;61.3750;103;60;0.47643
6606740;-0.14000;60.9375;103;60;0.46178
6606750;-0.13500;60.6875;103;60;0.45592
6606760;-0.13500;60.4375;103;60;0.45055
6606770;-0.13500;60.1875;103;60;0.44444
6606780;-0.13500;60.0000;103;60;0.43175
6606790;-0.13500;60.1875;103;60;0.42540
6606800;-0.13000;60.8750;103;60;0.41880
6606810;-0.12500;69.4375;103;60;0.39805
6606820;-0.11500;74.3750;103;60;0.39121
6606830;-0.11500;74.3750;103;60;0.39121
6606840;-0.10000;83.5625;103;60;0.37924
6606850;-0.10000;83.5625;103;60;0.37924
6606860;-0.09000;89.1875;103;60;0.36996
6606870;-0.07500;90.8125;103;60;0.36459
6606880;-0.06000;92.0000;103;60;0.35922
6606890;-0.04500;92.9375;103;60;0.35385
6606900;-0.02500;95.1875;103;60;0.34310
6606910;-0.00500;96.5625;103;60;0.33797
6606920;0.01500;98.0000;103;60;0.33284
6606930;0.04000;99.3750;103;60;0.32796
6606940;0.06500;101.8125;103;60;0.31917
6606950;0.09000;102.7500;103;60;0.31600
6606960;0.08500;103.5625;103;60;0.31355
6606970;0.02500;105.0000;103;60;0.30232
6606980;0.02500;105.0000;103;60;0.30232
6606990;-0.04500;105.3125;103;60;0.29499
6607000;-0.04500;105.3125;102;60;0.29499
6607010;-0.07000;105.3125;102;60;0.29133
6607020;-0.08500;105.0625;102;60;0.28449
6607030;-0.09000;104.8125;102;60;0.28156
6607040;-0.09500;104.3750;102;60;0.27863
6607050;-0.10000;103.9375;102;60;0.27692
6607060;-0.10000;102.7500;102;60;0.27595
6607070;-0.10000;101.0625;102;60;0.28034
6607080;-0.10000;101.0625;102;60;0.28034
6607090;-0.09500;96.8750;102;60;0.31355
6607100;-0.09000;94.8750;102;60;0.33309
6607110;-0.09000;94.8750;102;60;0.33309
6607120;-0.08500;92.7500;102;60;0.35580
6607130;-0.08500;87.5625;102;60;0.43223
6607140;-0.08500;87.5625;102;60;0.43223
6607150;-0.08500;86.6250;102;60;0.45446
6607160;-0.08500;86.0000;102;60;0.47473
6607170;-0.08500;84.5625;102;60;0.53895
6607180;-0.08500;84.0625;102;60;0.55946
6607190;-0.08500;84.0625;102;60;0.55946
6607200;-0.07500;83.0000;102;60;0.59829
6607210;-0.07000;81.7500;102;60;0.63419
6607220;-0.07000;81.7500;102;60;0.63419
6607230;-0.07000;80.5000;102;60;0.66716
6607240;-0.07000;79.9375;102;60;0.67961
6607250;-0.07000;79.9375;102;60;0.67961
6607260;-0.06500;78.3750;102;60;0.71380
6607270;-0.06500;78.3750;102;60;0.71380
6607280;-0.06500;77.5000;102;60;0.73602
6607290;-0.06500;76.6250;102;60;0.75531
6607300;-0.06500;76.6250;102;60;0.75531
6607310;-0.07000;75.7500;102;60;0.76972
6607320;-0.07000;75.7500;102;60;0.76972
6607330;-0.06500;74.5000;102;60;0.78266
6607340;-0.06000;74.0625;102;60;0.78315
6607350;-0.06000;74.0625;102;60;0.78315
6607360;-0.03000;73.2500;102;60;0.78022
6607370;-0.02000;72.5000;102;60;0.77314
6607380;-0.02000;72.5000;102;60;0.77314
6607390;-0.02500;71.6875;102;60;0.76044
6607400;-0.03500;71.3125;102;60;0.75214
6607410;-0.04500;70.5625;102;60;0.72845
6607420;-0.04500;70.5625;102;60;0.72845
6607430;-0.05500;70.2500;102;60;0.71966
6607440;-0.08500;69.5000;102;60;0.69988
6607450;-0.08500;69.5000;102;60;0.69988
6607460;-0.08000;68.8125;102;60;0.67985
6607470;-0.09000;68.1875;102;60;0.65934
6607480;-0.09000;68.1875;102;60;0.65934
6607490;0.24500;67.1875;102;60;0.62930
6607500;0.24500;67.1875;102;60;0.62930
6607510;0.65500;66.9375;102;60;0.61905
6607520;0.68000;66.3750;102;60;0.59927
6607530;0.68000;66.3750;102;60;0.59927
6607540;-0.00500;65.5625;102;60;0.57289
6607550;-0.00500;65.5625;102;60;0.57289
6607560;-0.09500;65.2500;102;60;0.56410
6607570;-0.13000;65.0000;102;60;0.55507
6607580;-0.14500;64.3125;102;60;0.53724
6607590;-0.15500;63.9375;102;60;0.52845
6607600;-0.16000;63.3125;102;60;0.51209
6607610;-0.16000;63.3125;102;60;0.51209
6607620;-0.15500;62.4375;102;60;0.48889
6607630;-0.15500;62.4375;102;60;0.48889
6607640;-0.15500;62.1875;102;60;0.48132
6607650;-0.15000;61.2500;102;60;0.46154
6607660;-0.15000;61.2500;102;60;0.46154
6607670;-0.14500;61.0625;102;60;0.45470
6607680;-0.14000;61.0000;102;60;0.44762
6607690;-0.13500;61.1875;102;60;0.44078
6607700;-0.12500;66.9375;102;60;0.42125
6607710;-0.12500;66.9375;102;60;0.42125
6607720;-0.11500;76.0625;102;60;0.40855
6607730;-0.10500;84.6250;102;60;0.39683
6607740;-0.10500;84.6250;102;60;0.39683
6607750;-0.07500;89.7500;102;60;0.38681
6607760;-0.07500;89.7500;102;60;0.38681
6607770;-0.05500;91.1875;102;60;0.38120
6607780;-0.03500;93.3125;102;60;0.37070
6607790;-0.01500;94.3750;102;60;0.36581
6607800;0.00500;95.6875;102;60;0.36093
6607810;0.02500;97.0000;102;60;0.35629
6607820;0.08000;100.9375;102;60;0.34188
6607830;0.10500;102.0000;102;60;0.33700
6607840;0.11500;102.8125;102;60;0.33309
6607850;0.11500;102.8125;102;60;0.33309
6607860;0.09500;104.0625;102;60;0.32576
6607870;0.01500;104.7500;102;60;0.31722
6607880;0.01500;104.7500;102;60;0.31722
6607890;-0.01500;104.8750;102;60;0.31306
6607900;-0.04000;104.9375;102;60;0.30427
6607910;-0.05500;104.8125;102;60;0.30012
6607920;-0.07500;104.2500;102;60;0.29206
6607930;-0.07500;104.2500;102;60;0.29206
6607940;-0.07500;103.3125;102;60;0.28620
6607950;-0.07500;102.0000;102;60;0.28425
6607960;-0.07500;102.0000;102;60;0.28425
6607970;-0.08000;98.8125;102;60;0.29402
6607980;-0.08000;97.2500;102;60;0.30427
6607990;-0.08000;97.2500;102;60;0.30427
6608000;-0.07500;95.3750;102;60;0.31844
6608010;-0.07500;89.0625;102;60;0.38120
6608020;-0.07500;89.0625;102;60;0.38120
6608030;-0.07500;87.4375;102;60;0.40562
6608040;-0.07000;86.1875;102;60;0.43004
6608050;-0.07000;85.3750;102;60;0.45104
6608060;-0.07000;84.1875;102;60;0.49011
6608070;-0.06500;83.7500;102;60;0.51038
6608080;-0.06500;83.2500;102;60;0.53016
6608090;-0.06500;82.6875;102;60;0.54921
6608100;-0.06000;81.4375;102;60;0.58510
6608110;-0.06000;80.8125;102;60;0.60220
6608120;-0.05500;79.4375;102;60;0.63468
6608130;-0.05500;79.4375;102;60;0.63468
6608140;-0.05500;78.2500;102;60;0.66056
6608150;-0.05500;77.1875;102;60;0.68059
6608160;-0.05500;76.6875;102;60;0.69109
6608170;-0.05500;75.7500;102;60;0.71013
6608180;-0.05500;75.7500;102;60;0.71013
6608190;-0.05000;74.8750;102;60;0.72527
6608200;-0.05000;74.8750;102;60;0.72527
6608210;-0.04500;74.4375;102;60;0.73138
6608220;-0.04500;73.0625;102;60;0.74261
6608230;-0.03500;72.5625;102;60;0.74383
6608240;-0.03500;72.5625;102;60;0.74383
6608250;-0.01500;72.1250;102;60;0.74261
6608260;0.00500;70.8125;102;60;0.73187
6608270;0.00500;70.8125;102;60;0.73187
6608280;0.00500;70.3750;102;60;0.72576
6608290;-0.02000;69.1250;102;60;0.69890
6608300;-0.02000;69.1250;102;60;0.69890
6608310;-0.02500;68.7500;102;60;0.68767
6608320;-0.06500;68.0000;102;60;0.66349
6608330;-0.06500;68.0000;102;60;0.66349
6608340;-0.05500;66.8125;102;60;0.62930
6608350;-0.05500;66.8125;102;60;0.62930
6608360;-0.08500;66.0000;102;60;0.60659
6608370;-0.08500;66.0000;102;60;0.60659
6608380;0.46500;65.0000;102;60;0.57241
6608390;0.84500;64.6875;102;60;0.56166
6608400;0.84500;64.6875;102;60;0.56166
6608410;0.49500;63.8125;102;60;0.52943
6608420;0.49500;63.8125;102;60;0.52943
6608430;0.10500;63.5625;102;60;0.51893
6608440;-0.09500;63.0000;102;60;0.49768
6608450;-0.09500;63.0000;102;60;0.49768
6608460;-0.12000;62.4375;102;60;0.48181
6608470;-0.13500;62.1250;102;60;0.47277
6608480;-0.14000;61.8750;102;60;0.46374
6608490;-0.14000;61.6250;102;60;0.45470
6608500;-0.14000;61.0625;102;60;0.43687
6608510;-0.14000;60.7500;102;60;0.42808
6608520;-0.13500;60.1250;102;60;0.41026
6608530;-0.13500;60.1250;102;60;0.41026
6608540;-0.13500;59.5625;102;60;0.39414
6608550;-0.12500;59.1250;102;60;0.38022
6608560;-0.12500;59.1250;102;60;0.38022
6608570;-0.11500;59.0000;102;60;0.37265
6608580;-0.11000;59.1250;102;60;0.35702
6608590;-0.10500;59.8750;102;60;0.34921
6608600;-0.10000;61.5000;102;60;0.34139
6608610;-0.09500;64.3125;102;60;0.33358
6608620;-0.07500;77.2500;102;60;0.31160
6608630;-0.06500;81.0000;102;60;0.30476
6608640;-0.06500;81.0000;102;60;0.30476
6608650;-0.03500;87.3125;102;60;0.28962
6608660;-0.01500;88.1875;102;60;0.28400
6608670;-0.01500;88.1875;102;60;0.28400
6608680;0.02000;89.7500;102;60;0.25739
6608690;0.04500;91.8125;102;60;0.23956
6608700;0.04500;91.8125;102;60;0.23956
6608710;0.07000;92.8750;102;60;0.23321
6608720;0.09500;93.9375;102;60;0.22735
6608730;0.10500;96.4375;102;60;0.21368
6608740;0.07500;96.9375;102;60;0.21123
6608750;0.07500;96.9375;102;60;0.21123
6608760;-0.00500;97.4375;102;60;0.20366
6608770;-0.00500;97.4375;102;60;0.20366
6608780;-0.03500;97.4375;102;60;0.19463
6608790;-0.05500;97.2500;102;60;0.19048
6608800;-0.07000;97.0625;102;60;0.18632
6608810;-0.08000;96.6875;102;60;0.18242
6608820;-0.08500;95.8125;102;60;0.17534
6608830;-0.09000;94.4375;102;60;0.16899
6608840;-0.09000;93.5625;102;60;0.16777
6608850;-0.09000;93.5625;102;60;0.16777
6608860;-0.08500;89.3125;102;60;0.17192
6608870;-0.08500;87.3750;102;60;0.17802
6608880;-0.08500;87.3750;102;60;0.17802
6608890;-0.07500;82.1875;102;60;0.21978
6608900;-0.07500;82.1875;102;60;0.21978
6608910;-0.07500;81.2500;102;60;0.24054
6608920;-0.06500;80.1250;102;60;0.28767
6608930;-0.06500;80.1250;102;60;0.28767
6608940;-0.06500;79.4375;102;60;0.33309
6608950;-0.06500;78.5625;102;60;0.37265
6608960;-0.06500;78.5625;102;60;0.37265
6608970;-0.06500;78.0000;102;60;0.39292
6608980;-0.06500;76.2500;102;60;0.44786
6608990;-0.06500;76.2500;102;60;0.44786
6609000;-0.06500;75.6250;102;60;0.46447
6609010;-0.05500;74.0000;102;60;0.51013
6609020;-0.05500;74.0000;102;60;0.51013
6609030;-0.06000;73.5625;102;60;0.52332
6609040;-0.06500;72.7500;102;60;0.54554
6609050;-0.06500;72.7500;102;60;0.54554
6609060;-0.06000;72.0000;102;60;0.56215
6609070;-0.06000;71.6250;102;60;0.57045
6609080;-0.06000;71.1875;102;60;0.57778
6609090;-0.06000;70.8125;102;60;0.58413
6609100;-0.06000;70.0625;102;60;0.59414
6609110;-0.06000;69.6875;102;60;0.59756
6609120;-0.04500;68.9375;102;60;0.60073
6609130;-0.04500;68.9375;102;60;0.60073
6609140;-0.03000;68.1875;102;60;0.59756
6609150;-0.00500;67.4375;102;60;0.58852
6609160;-0.00500;67.4375;102;60;0.58852
6609170;-0.01000;66.3750;102;60;0.56557
6609180;-0.03500;66.0000;102;60;0.55653
6609190;-0.04500;65.6250;102;60;0.54725
6609200;-0.04500;65.6250;102;60;0.54725
6609210;-0.07500;64.6250;102;60;0.52063
6609220;-0.07500;64.6250;102;60;0.52063
6609230;-0.07500;63.9375;102;60;0.50305
6609240;-0.10000;63.6250;102;60;0.49524
6609250;-0.10000;63.6250;102;60;0.49524
6609260;0.17000;62.6875;102;60;0.47131
6609270;0.61000;62.3750;102;60;0.46300
6609280;0.61000;62.3750;102;60;0.46300
6609290;0.76000;61.6250;102;60;0.43932
6609300;0.76000;61.6250;102;60;0.43175
6609310;0.33000;61.4375;102;60;0.43175
6609320;0.02000;61.1875;102;60;0.42418
6609330;-0.12000;60.3750;102;60;0.40366
6609340;-0.14000;60.1250;102;60;0.39805
6609350;-0.14000;60.1250;102;60;0.39805
6609360;-0.14500;59.6250;102;60;0.38510
6609370;-0.14500;59.1250;102;60;0.37216
6609380;-0.14500;59.1250;102;60;0.37216
6609390;-0.14500;58.6250;102;60;0.35946
6609400;-0.14500;58.6250;102;60;0.35946
6609410;-0.14500;58.4375;102;60;0.35287
6609420;-0.14000;57.8750;102;60;0.33993
6609430;-0.14000;57.3750;102;60;0.32894
6609440;-0.13500;57.2500;102;60;0.32479
6609450;-0.13500;57.2500;102;60;0.32479
6609460;-0.13000;57.3750;102;60;0.31306
6609470;-0.11500;57.9375;102;60;0.30696
6609480;-0.10500;61.8125;102;60;0.29719
6609490;-0.10500;61.8125;102;60;0.29719
6609500;-0.09000;74.9375;102;60;0.27985
6609510;-0.09000;74.9375;102;60;0.27985
6609520;-0.05500;82.3125;102;60;0.26984
6609530;-0.05500;82.3125;102;60;0.26984
6609540;-0.02500;87.1250;102;60;0.25836
6609550;-0.01000;87.9375;102;60;0.25446
6609560;0.00500;88.7500;102;60;0.25031
6609570;0.02000;90.8125;102;60;0.24200
6609580;0.04500;92.0000;102;60;0.23810
6609590;0.04500;92.0000;102;60;0.23810
6609600;0.07000;93.2500;102;60;0.23394
6609610;0.10000;94.3750;102;60;0.22979
6609620;0.11000;96.1875;102;60;0.22222
6609630;0.09000;96.8125;102;60;0.21856
6609640;0.01000;97.5625;102;60;0.21416
6609650;0.01000;97.5625;102;60;0.21416
6609660;-0.04500;97.6875;102;60;0.20513
6609670;-0.06500;97.5625;102;60;0.20195
6609680;-0.08500;97.3125;102;60;0.19878
6609690;-0.08500;97.3125;102;60;0.19878
6609700;-0.09000;96.6250;102;60;0.19316
6609710;-0.09000;96.1250;102;60;0.19048
6609720;-0.09500;94.8125;102;60;0.18559
6609730;-0.09500;92.8125;102;60;0.18535
6609740;-0.09500;92.8125;102;60;0.18535
6609750;-0.09500;91.4375;102;60;0.18877
6609760;-0.09500;87.8750;102;60;0.20366
6609770;-0.09500;87.8750;102;60;0.20366
6609780;-0.09500;84.0625;102;60;0.23468
6609790;-0.09000;81.5000;102;60;0.27937
6609800;-0.09000;81.5000;102;60;0.27937
6609810;-0.08500;80.8125;102;60;0.30476
6609820;-0.08500;79.6875;102;60;0.38071
6609830;-0.08500;79.6875;102;60;0.38071
6609840;-0.08500;79.2500;102;60;0.40147
6609850;-0.07500;77.6250;102;60;0.45836
6609860;-0.07500;77.6250;102;60;0.45836
6609870;-0.07500;77.0000;102;60;0.47692
6609880;-0.07500;75.8125;102;60;0.51160
6609890;-0.07500;75.8125;102;60;0.51160
6609900;-0.07500;74.7500;102;60;0.54310
6609910;-0.07500;73.8750;102;60;0.57094
6609920;-0.07500;73.8750;102;60;0.57094
6609930;-0.07000;72.6250;102;60;0.60659
6609940;-0.07000;72.6250;102;60;0.60659
6609950;-0.07000;72.1875;102;60;0.61490
6609960;-0.06500;71.4375;102;60;0.62735
6609970;-0.06500;71.4375;102;60;0.62735
6609980;-0.06000;70.1875;102;60;0.64347
6609990;-0.06000;70.1875;102;60;0.64347
6610000;-0.06000;69.8125;102;60;0.64713
6610010;-0.04500;68.7500;102;60;0.65031
6610020;-0.04500;68.7500;102;60;0.65031
6610030;-0.02500;68.3750;102;60;0.64835
6610040;0.00000;67.6250;102;60;0.63932
6610050;0.00000;67.6250;102;60;0.63932
6610060;-0.00500;66.9375;102;60;0.62491
6610070;-0.04000;66.1875;102;60;0.60733
6610080;-0.04000;66.1875;102;60;0.60733
6610090;-0.04500;65.8125;102;60;0.59780
6610100;-0.08000;64.7500;102;60;0.56874
6610110;-0.08000;64.7500;102;60;0.56874
6610120;-0.07500;64.3750;102;60;0.55946
6610130;-0.09500;63.4375;102;60;0.53284
6610140;-0.09500;63.4375;102;60;0.53284
6610150;-0.06500;63.1250;102;60;0.52503
6610160;0.62000;62.5000;102;60;0.50842
6610170;0.62000;62.5000;102;60;0.50842
6610180;0.77000;61.6875;102;60;0.48352
6610190;0.33000;61.4375;102;60;0.47497
6610200;0.33000;61.4375;102;60;0.47497
6610210;-0.08500;60.6875;102;60;0.45104
6610220;-0.08500;60.6875;102;60;0.45104
6610230;-0.12500;60.4375;102;60;0.44347
6610240;-0.15500;60.0000;102;60;0.43101
6610250;-0.15500;60.0000;102;60;0.43101
6610260;-0.15500;59.4375;102;60;0.41807
6610270;-0.15500;59.1875;102;60;0.41123
6610280;-0.15500;59.0000;102;60;0.40415
6610290;-0.15500;58.1875;102;60;0.38291
6610300;-0.15500;58.1875;102;60;0.38291
6610310;-0.15500;57.6875;102;60;0.36996
6610320;-0.14500;57.4375;102;60;0.36361
6610330;-0.14500;57.4375;102;60;0.36361
6610340;-0.13500;57.2500;102;60;0.35263
6610350;-0.13000;57.4375;102;60;0.34799
6610360;-0.12500;58.0625;102;60;0.34237
6610370;-0.11500;66.4375;102;60;0.32454
6610380;-0.10500;71.2500;102;60;0.31868
6610390;-0.10500;71.2500;102;60;0.31868
6610400;-0.10000;76.0000;102;60;0.31282
6610410;-0.08500;80.1875;102;60;0.30720
6610420;-0.07500;85.6250;102;60;0.29597
6610430;-0.06000;87.1875;102;60;0.29060
6610440;-0.04500;88.1875;102;60;0.28645
6610450;-0.00500;91.0000;102;60;0.27179
6610460;-0.00500;91.0000;102;60;0.27179
6610470;0.03000;93.5000;102;60;0.26374
6610480;0.03000;93.5000;102;60;0.26374
6610490;0.06000;94.8125;102;60;0.25836
6610500;0.08000;97.0625;102;60;0.25031
6610510;0.07083;98.6250;102;60;0.24176
6610520;0.05500;99.1875;102;60;0.23712
6610530;0.05500;99.1875;102;60;0.23712
6610540;0.02000;99.7500;102;60;0.23126
6610550;-0.01500;99.8125;102;60;0.22955
6610560;-0.04500;99.8125;102;60;0.22686
6610570;-0.06500;99.6875;102;60;0.22369
6610580;-0.07500;99.1875;102;60;0.21734
6610590;-0.08500;98.8125;102;60;0.21416
6610600;-0.09000;98.3125;102;60;0.21099
6610610;-0.09000;97.7500;102;60;0.20830
6610620;-0.09000;96.3750;102;60;0.20440
6610630;-0.09000;95.4375;102;60;0.20464
6610640;-0.09000;94.2500;102;60;0.20757
6610650;-0.09000;89.0625;102;60;0.23590
6610660;-0.09000;89.0625;102;60;0.23590
6610670;-0.08500;87.0000;102;60;0.25348
6610680;-0.08000;83.6250;102;60;0.29817
6610690;-0.07500;81.9375;102;60;0.35043
6610700;-0.07500;81.4375;102;60;0.37680
6610710;-0.07500;81.4375;102;60;0.37680
6610720;-0.07500;80.6250;102;60;0.44908
6610730;-0.07500;80.6250;102;60;0.44908
6610740;-0.07000;79.1875;102;60;0.56703
6610750;-0.07000;79.1875;102;60;0.56703
6610760;-0.06500;78.5625;102;60;0.58901
6610770;-0.06500;76.6250;102;60;0.64396
6610780;-0.06500;76.0625;102;60;0.66032
6610790;-0.06500;76.0625;102;60;0.66032
6610800;-0.06500;75.5625;102;60;0.67570
6610810;-0.07000;75.0625;102;60;0.69353
6610820;-0.06500;74.1875;102;60;0.71966
6610830;-0.06500;73.7500;102;60;0.73065
6610840;-0.06500;72.9375;102;60;0.74481
6610850;-0.06500;72.9375;102;60;0.74481
6610860;-0.06500;72.1250;102;60;0.75800
6610870;-0.06000;71.3125;102;60;0.76899
6610880;-0.06000;71.3125;102;60;0.76899
6610890;-0.05500;70.8750;102;60;0.77314
6610900;-0.04500;69.6875;102;60;0.77924
6610910;-0.04500;69.6875;102;60;0.77924
6610920;-0.01500;68.8750;102;60;0.77363
6610930;0.00000;68.1875;102;60;0.76361
6610940;0.00000;68.1875;102;60;0.76361
6610950;-0.01500;67.4375;102;60;0.74628
6610960;-0.02500;67.0625;102;60;0.73333
6610970;-0.03500;66.3750;102;60;0.70989
6610980;-0.05500;66.0000;102;60;0.69890
6610990;-0.05500;66.0000;102;60;0.69890
6611000;-0.07500;65.2500;102;60;0.68010
6611010;-0.07000;64.5000;102;60;0.65958
6611020;-0.07000;64.5000;102;60;0.65958
6611030;-0.08500;63.8750;102;60;0.64103
6611040;-0.08500;63.8750;102;60;0.64103
6611050;0.13000;63.5625;102;60;0.63175
6611060;0.55000;62.9375;102;60;0.61514
6611070;0.83000;62.4375;102;60;0.59609
6611080;0.41000;62.1875;102;60;0.58657
6611090;0.41000;62.1875;102;60;0.58657
6611100;-0.06500;61.3750;102;60;0.56313
6611110;-0.06500;61.3750;102;60;0.56313
6611120;-0.14500;60.8750;102;60;0.54628
6611130;-0.14500;60.8750;102;60;0.54628
6611140;-0.15500;60.3125;102;60;0.53236
6611150;-0.15500;59.8750;102;60;0.51746
6611160;-0.15500;59.8750;102;60;0.51746
6611170;-0.15000;59.6875;102;60;0.50965
6611180;-0.14500;58.8750;102;60;0.48669
6611190;-0.14500;58.8750;102;60;0.48669
6611200;-0.13500;58.3125;102;60;0.47155
6611210;-0.13500;57.8750;102;60;0.45714
6611220;-0.13500;57.8750;102;60;0.45714
6611230;-0.13000;57.9375;102;60;0.44615
6611240;-0.12500;58.5625;102;60;0.44005
6611250;-0.12500;58.5625;102;60;0.44005
6611260;-0.11000;66.6250;102;60;0.42100
6611270;-0.11000;66.6250;102;60;0.42100
6611280;-0.10000;71.4375;102;60;0.41490
6611290;-0.09500;76.3750;102;60;0.40879
6611300;-0.06500;86.2500;102;60;0.39145
6611310;-0.06500;86.2500;102;60;0.39145
6611320;-0.03000;88.8750;102;60;0.38144
6611330;-0.03000;88.8750;102;60;0.38144
6611340;-0.01500;90.7500;102;60;0.37289
6611350;0.00000;91.8125;102;60;0.36777
6611360;0.02000;93.1250;102;60;0.36239
6611370;0.07000;97.0000;102;60;0.34701
6611380;0.09000;98.0625;102;60;0.34261
6611390;0.09000;98.0625;102;60;0.34261
6611400;0.09000;99.6875;102;60;0.33382
6611410;0.06000;100.6250;102;60;0.32576
6611420;0.06000;100.6250;102;60;0.32576
6611430;0.02000;100.9375;102;60;0.32283
6611440;-0.05000;101.0625;102;60;0.31746
6611450;-0.05000;101.0625;102;60;0.31746
6611460;-0.07000;100.8125;102;60;0.31038
6611470;-0.09000;100.1250;102;60;0.30354
6611480;-0.09000;99.6875;102;60;0.30037
6611490;-0.09000;99.6875;102;60;0.30037
6611500;-0.09000;97.8750;102;60;0.29646
6611510;-0.08500;97.0000;102;60;0.29915
6611520;-0.08500;97.0000;102;60;0.29915
6611530;-0.08500;93.0625;102;60;0.32601
6611540;-0.08500;93.0625;102;60;0.32601
6611550;-0.08500;91.1875;102;60;0.34286
6611560;-0.08500;87.0625;102;60;0.38755
6611570;-0.07500;83.9375;102;60;0.44005
6611580;-0.07500;83.9375;102;60;0.44005
6611590;-0.07500;82.4375;102;60;0.49206
6611600;-0.07500;82.4375;102;60;0.49206
6611610;-0.07500;82.0000;102;60;0.51673
6611620;-0.07000;81.1875;102;60;0.56215
6611630;-0.07000;80.6875;102;60;0.58046
6611640;-0.06500;80.1875;102;60;0.59609
6611650;-0.06500;79.6250;102;60;0.61319
6611660;-0.06500;78.3750;102;60;0.64664
6611670;-0.06500;77.1875;102;60;0.67814
6611680;-0.06500;77.1875;102;60;0.67814
6611690;-0.06500;76.6250;102;60;0.69280
6611700;-0.06500;75.6250;102;60;0.71966
6611710;-0.06500;75.1875;102;60;0.73187
6611720;-0.06500;74.7500;102;60;0.74286
6611730;-0.06000;73.5000;102;60;0.76361
6611740;-0.06000;73.5000;102;60;0.76361
6611750;-0.06000;73.0625;102;60;0.77021
6611760;-0.05500;72.2500;102;60;0.78095
6611770;-0.05500;72.2500;102;60;0.78095
6611780;-0.05500;71.0625;102;60;0.78828
6611790;-0.05500;71.0625;102;60;0.78828
6611800;-0.04500;70.6875;102;60;0.78779
6611810;-0.02500;70.3125;102;60;0.78559
6611820;-0.01500;69.5625;102;60;0.77631
6611830;-0.01500;68.8125;102;60;0.76117
6611840;-0.03000;68.4375;102;60;0.75214
6611850;-0.03500;67.6875;102;60;0.73211
6611860;-0.04000;67.3125;102;60;0.72186
6611870;-0.04000;67.3125;102;60;0.72186
6611880;-0.08000;66.6250;102;60;0.70061
6611890;-0.07500;65.9375;102;60;0.67985
6611900;-0.07500;65.9375;102;60;0.67985
6611910;-0.08500;65.2500;102;60;0.65983
6611920;-0.07500;64.9375;102;60;0.65055
6611930;-0.07500;64.9375;102;60;0.65055
6611940;0.56500;64.0000;102;60;0.62369
6611950;0.89000;63.7500;102;60;0.61441
6611960;0.89000;63.7500;102;60;0.61441
6611970;0.80500;63.5000;102;60;0.60513
6611980;0.05000;62.7500;102;60;0.57802
6611990;0.05000;62.7500;102;60;0.57802
6612000;-0.07500;62.5000;102;60;0.56947
6612010;-0.14500;61.7500;102;60;0.54505
6612020;-0.14500;61.7500;102;60;0.54505
6612030;-0.15500;61.3125;102;60;0.53187
6612040;-0.16000;61.0625;102;60;0.52503
6612050;-0.16000;61.0625;102;60;0.52503
6612060;-0.16000;60.6250;102;60;0.51062
6612070;-0.16000;60.1875;102;60;0.49548
6612080;-0.15500;59.9375;102;60;0.48791
6612090;-0.15500;59.4375;102;60;0.47350
6612100;-0.15500;59.4375;102;60;0.47350
6612110;-0.14500;59.1875;102;60;0.46007
6612120;-0.14500;59.1875;102;60;0.46007
6612130;-0.13500;61.5000;102;60;0.44322
6612140;-0.12500;64.3750;102;60;0.43687
6612150;-0.12500;64.3750;102;60;0.43687
6612160;-0.11500;73.3750;102;60;0.42418
6612170;-0.11500;73.3750;102;60;0.42418
6612180;-0.09500;85.6875;102;60;0.40586
6612190;-0.09500;85.6875;102;60;0.40586
6612200;-0.08500;88.0625;102;60;0.40024
6612210;-0.07000;89.6250;102;60;0.39463
6612220;-0.05500;91.8125;102;60;0.38364
6612230;-0.02500;94.1250;102;60;0.37656
6612240;-0.00500;95.5000;102;60;0.37265
6612250;0.02000;98.3125;102;60;0.36459
6612260;0.05000;99.5625;102;60;0.36044
6612270;0.08000;100.6875;102;60;0.35629
6612280;0.08000;100.6875;102;60;0.35629
6612290;0.09500;101.6250;102;60;0.35214
6612300;0.08000;102.9375;102;60;0.34408
6612310;0.00500;103.6250;102;60;0.33578
6612320;0.00500;103.6250;102;60;0.33578
6612330;-0.05500;103.8125;102;60;0.32894
6612340;-0.07500;103.6250;102;60;0.32625
6612350;-0.07500;103.6250;102;60;0.32625
6612360;-0.09500;103.1250;102;60;0.32039
6612370;-0.09500;103.1250;102;60;0.32039
6612380;-0.10000;102.2500;102;60;0.31477
6612390;-0.10000;101.6875;102;60;0.31355
6612400;-0.09500;101.0625;102;60;0.31404
6612410;-0.09500;98.1250;102;60;0.33382
6612420;-0.09500;96.6875;102;60;0.34628
6612430;-0.09000;94.9375;102;60;0.36142
6612440;-0.09000;94.9375;102;60;0.36142
6612450;-0.09000;88.8750;102;60;0.43053
6612460;-0.09000;88.8750;102;60;0.43053
6612470;-0.08500;86.0625;102;60;0.48327
6612480;-0.08000;85.3125;102;60;0.50891
6612490;-0.08000;85.3125;102;60;0.50891
6612500;-0.07500;83.8750;102;60;0.57851
6612510;-0.06500;83.3750;102;60;0.59927
6612520;-0.06500;82.8750;102;60;0.61636
6612530;-0.07000;81.6875;102;60;0.64811
6612540;-0.07000;81.6875;102;60;0.64811
6612550;-0.07000;80.4375;102;60;0.68230
6612560;-0.07000;80.4375;102;60;0.68230
6612570;-0.06500;78.6875;102;60;0.72918
6612580;-0.06000;78.1875;102;60;0.74310
6612590;-0.06000;78.1875;102;60;0.74310
6612600;-0.05500;77.2500;102;60;0.76752
6612610;-0.06000;76.3750;102;60;0.78730
6612620;-0.06000;76.3750;102;60;0.78730
6612630;-0.06000;75.5625;102;60;0.79829
6612640;-0.06000;75.1250;102;60;0.80366
6612650;-0.06000;75.1250;102;60;0.80366
6612660;-0.06000;73.8750;102;60;0.81661
6612670;-0.06000;73.8750;102;60;0.81661
6612680;-0.05000;73.0625;102;60;0.81978
6612690;-0.03500;72.2500;102;60;0.81709
6612700;-0.02000;71.8750;102;60;0.81343
6612710;-0.01000;71.5000;102;60;0.80781
6612720;-0.01000;71.5000;102;60;0.80781
6612730;-0.02000;70.3750;102;60;0.78315
6612740;-0.03500;70.0000;102;60;0.77338
6612750;-0.03500;70.0000;102;60;0.77338
6612760;-0.05500;69.3125;102;60;0.73529
6612770;-0.05500;69.3125;102;60;0.73529
6612780;-0.07500;68.2500;102;60;0.66007
6612790;-0.06500;67.8750;102;60;0.64713
6612800;-0.06500;67.8750;102;60;0.64713
6612810;-0.07500;67.5625;102;60;0.63590
6612820;0.04000;66.5625;102;60;0.60757
6612830;0.04000;66.5625;102;60;0.60757
6612840;0.39000;66.2500;102;60;0.59927
6612850;0.89000;65.4375;102;60;0.57216
6612860;0.89000;65.4375;102;60;0.57216
6612870;0.55500;65.1875;102;60;0.56313
6612880;0.14500;64.9375;102;60;0.55409
6612890;-0.10000;64.1250;102;60;0.52845
6612900;-0.10000;64.1250;102;60;0.52845
6612910;-0.15500;63.6250;102;60;0.51282
6612920;-0.15500;63.4375;102;60;0.50623
6612930;-0.15500;63.4375;102;60;0.50623
6612940;-0.16000;62.7500;102;60;0.48669
6612950;-0.15500;62.5625;102;60;0.47937
6612960;-0.15500;62.5625;102;60;0.47937
6612970;-0.15500;61.8125;102;60;0.45836
6612980;-0.15500;61.5625;102;60;0.45177
6612990;-0.14500;61.3750;102;60;0.44542
6613000;-0.14500;61.3750;101;60;0.44542
6613010;-0.14500;61.3125;101;60;0.43907
6613020;-0.13500;61.8125;101;60;0.42759
6613030;-0.12500;65.2500;101;60;0.41734
6613040;-0.12500;65.2500;101;60;0.41734
6613050;-0.11500;78.7500;101;60;0.39927
6613060;-0.10500;83.3750;101;60;0.39341
6613070;-0.10500;83.3750;101;60;0.39341
6613080;-0.09500;87.1250;101;60;0.38779
6613090;-0.08500;89.8125;101;60;0.38217
6613100;-0.07000;93.1250;101;60;0.37094
6613110;-0.05500;94.2500;101;60;0.36581
6613120;-0.03500;95.3125;101;60;0.36093
6613130;-0.02000;96.5625;101;60;0.35726
6613140;0.02000;100.8125;101;60;0.34652
6613150;0.02000;100.8125;101;60;0.34652
6613160;0.04500;102.1250;101;60;0.34261
6613170;0.09000;105.2500;101;60;0.33065
6613180;0.08500;105.9375;101;60;0.32698
6613190;0.08500;105.9375;101;60;0.32698
6613200;0.06500;106.5000;101;60;0.32332
6613210;-0.01000;107.3125;101;60;0.31429
6613220;-0.01000;107.3125;101;60;0.31429
6613230;-0.04500;107.3750;101;60;0.31282
6613240;-0.08000;107.1875;101;60;0.30769
6613250;-0.08000;107.1875;101;60;0.30769
6613260;-0.09000;106.5625;101;60;0.30208
6613270;-0.10000;105.6875;101;60;0.29841
6613280;-0.10000;105.6875;101;60;0.29841
6613290;-0.10000;103.5625;101;60;0.30452
6613300;-0.09500;102.5000;101;60;0.31258
6613310;-0.09500;102.5000;101;60;0.31258
6613320;-0.09500;101.3125;101;60;0.32479
6613330;-0.09500;95.9375;101;60;0.37338
6613340;-0.09500;95.9375;101;60;0.37338
6613350;-0.09500;91.6250;101;60;0.41905
6613360;-0.09500;89.8750;101;60;0.44322
6613370;-0.09500;89.8750;101;60;0.44322
6613380;-0.09500;87.1875;101;60;0.51258
6613390;-0.08500;86.7500;101;60;0.53407
6613400;-0.08500;86.7500;101;60;0.53407
6613410;-0.07500;85.3125;101;60;0.59023
6613420;-0.07500;85.3125;101;60;0.59023
6613430;-0.07500;84.1875;101;60;0.61929
6613440;-0.07000;83.5625;101;60;0.63492
6613450;-0.07000;83.5625;101;60;0.63492
6613460;-0.07000;81.7500;101;60;0.67985
6613470;-0.07000;81.7500;101;60;0.67985
6613480;-0.07000;81.1250;101;60;0.69377
6613490;-0.07500;79.6250;101;60;0.73089
6613500;-0.07500;79.6250;101;60;0.73089
6613510;-0.08000;79.1875;101;60;0.74090
6613520;-0.07500;78.2500;101;60;0.75580
6613530;-0.07500;78.2500;101;60;0.76459
6613540;-0.06500;77.4375;101;60;0.76459
6613550;-0.06500;77.0000;101;60;0.76923
6613560;-0.06500;76.5000;101;60;0.77314
6613570;-0.05500;75.1250;101;60;0.77753
6613580;-0.05500;75.1250;101;60;0.77753
6613590;-0.04500;74.6250;101;60;0.77656
6613600;-0.02000;73.5625;101;60;0.76972
6613610;-0.02000;73.5625;101;60;0.76972
6613620;-0.00500;72.6250;101;60;0.75678
6613630;-0.02000;71.7500;101;60;0.73919
6613640;-0.02000;71.7500;101;60;0.73919
6613650;-0.02500;71.3125;101;60;0.72918
6613660;-0.02500;70.4375;101;60;0.70818
6613670;-0.06500;69.5625;101;60;0.68742
6613680;-0.06500;69.1250;101;60;0.67692
6613690;-0.06500;69.1250;101;60;0.67692
6613700;-0.05500;68.1875;101;60;0.65617
6613710;-0.07500;67.8125;101;60;0.64615
6613720;-0.04000;67.3750;101;60;0.63614
6613730;0.61500;66.3125;101;60;0.60855
6613740;0.61500;66.3125;101;60;0.60855
6613750;0.89000;66.0000;101;60;0.59927
6613760;0.35000;65.3750;101;60;0.58120
6613770;0.35000;65.3750;101;60;0.58120
6613780;0.03500;64.7500;101;60;0.56361
6613790;-0.10500;64.0625;101;60;0.54628
6613800;-0.10500;64.0625;101;60;0.54628
6613810;-0.13000;63.7500;101;60;0.53773
6613820;-0.13500;63.0625;101;60;0.52234
6613830;-0.13500;62.8125;101;60;0.51575
6613840;-0.13500;62.5625;101;60;0.50891
6613850;-0.13500;61.8125;101;60;0.48718
6613860;-0.13000;61.5000;101;60;0.47961
6613870;-0.13000;61.5000;101;60;0.47961
6613880;-0.12500;60.8750;101;60;0.46520
6613890;-0.12500;60.8750;101;60;0.46520
6613900;-0.11500;60.4375;101;60;0.44322
6613910;-0.10500;60.7500;101;60;0.43590
6613920;-0.10500;60.7500;101;60;0.43590
6613930;-0.09500;66.6250;101;60;0.41758
6613940;-0.09000;71.0000;101;60;0.41074
6613950;-0.09000;71.0000;101;60;0.41074
6613960;-0.07500;80.5625;101;60;0.39707
6613970;-0.06000;87.4375;101;60;0.38364
6613980;-0.06000;87.4375;101;60;0.38364
6613990;-0.04500;89.5625;101;60;0.37705
6614000;-0.03500;91.0000;101;59;0.37070
6614010;0.00500;94.4375;101;59;0.35263
6614020;0.00500;94.4375;101;59;0.35263
6614030;0.02500;95.6875;101;59;0.34847
6614040;0.07000;98.5000;101;59;0.33871
6614050;0.07000;98.5000;101;59;0.33871
6614060;0.09500;101.0000;101;59;0.32821
6614070;0.13000;102.9375;101;59;0.31795
6614080;0.13000;102.9375;101;59;0.31795
6614090;0.07500;104.5625;101;59;0.30256
6614100;0.03000;104.7500;101;59;0.29768
6614110;0.03000;104.7500;101;59;0.29768
6614120;-0.03500;104.8750;101;59;0.28938
6614130;-0.03500;104.8750;101;59;0.28938
6614140;-0.05000;104.6250;101;59;0.28303
6614150;-0.06500;104.3750;101;59;0.27863
6614160;-0.07500;103.5625;101;59;0.26984
6614170;-0.07500;103.5625;101;59;0.26984
6614180;-0.07500;101.6875;101;59;0.26276
6614190;-0.07000;100.8125;101;59;0.26447
6614200;-0.07500;99.7500;101;59;0.26984
6614210;-0.07500;99.7500;101;59;0.26984
6614220;-0.07000;96.8125;101;59;0.29060
6614230;-0.06500;92.7500;101;59;0.32234
6614240;-0.06500;90.6250;101;59;0.34286
6614250;-0.06500;90.6250;101;59;0.34286
6614260;-0.05500;86.0000;101;59;0.41197
6614270;-0.05000;85.2500;101;59;0.43516
6614280;-0.05000;85.2500;101;59;0.43516
6614290;-0.04500;83.6875;101;59;0.49890
6614300;-0.04500;83.6875;101;59;0.49890
6614310;-0.04000;82.6250;101;59;0.53651
6614320;-0.04000;82.6250;101;59;0.53651
6614330;-0.04000;80.6875;101;59;0.57924
6614340;-0.04500;80.0625;101;59;0.59389
6614350;-0.04500;80.0625;101;59;0.59389
6614360;-0.04000;79.4375;101;59;0.60830
6614370;-0.04000;78.8125;101;59;0.62198
6614380;-0.03500;77.1875;101;59;0.65836
6614390;-0.03500;77.1875;101;59;0.65836
6614400;-0.03500;76.7500;101;59;0.66862
6614410;-0.03500;76.3125;101;59;0.67766
6614420;-0.03500;74.9375;101;59;0.69475
6614430;-0.03500;74.5000;101;59;0.69866
6614440;-0.03500;74.0000;101;59;0.70232
6614450;-0.03500;73.1250;101;59;0.70745
6614460;-0.03500;73.1250;101;59;0.70745
6614470;-0.02500;72.6875;101;59;0.70818
6614480;0.00500;71.8125;101;59;0.70574
6614490;0.00500;71.8125;101;59;0.70574
6614500;0.02000;70.9375;101;59;0.69695
6614510;0.02500;70.5625;101;59;0.69011
6614520;0.01000;70.1250;101;59;0.68181
6614530;0.00000;69.7500;101;59;0.67302
6614540;-0.00500;68.9375;101;59;0.65324
6614550;-0.04500;68.1875;101;59;0.63101
6614560;-0.04500;68.1875;101;59;0.63101
6614570;-0.04500;67.0625;101;59;0.59731
6614580;-0.05000;66.6875;101;59;0.58657
6614590;-0.05000;66.6875;101;59;0.58657
6614600;0.00500;65.9375;101;59;0.56581
6614610;0.00500;65.9375;101;59;0.56581
6614620;0.75000;65.0000;101;59;0.53724
6614630;0.93000;64.6875;101;59;0.52772
6614640;0.64000;64.4375;101;59;0.51819
6614650;0.21000;63.8750;101;59;0.49963
6614660;0.21000;63.8750;101;59;0.49963
6614670;-0.08500;63.3125;101;59;0.48181
6614680;-0.08500;63.3125;101;59;0.48181
6614690;-0.13500;62.3750;101;59;0.45690
6614700;-0.13500;62.3750;101;59;0.45690
6614710;-0.14500;62.1250;101;59;0.44835
6614720;-0.15000;61.8750;101;59;0.44005
6614730;-0.15500;61.6250;101;59;0.43297
6614740;-0.14500;60.7500;101;59;0.41294
6614750;-0.13500;60.4375;101;59;0.40537
6614760;-0.13500;60.4375;101;59;0.40537
6614770;-0.13000;59.5625;101;59;0.38291
6614780;-0.12500;59.3750;101;59;0.37558
6614790;-0.12500;59.3125;101;59;0.36850
6614800;-0.12500;59.3125;101;59;0.36850
6614810;-0.12000;59.3125;101;59;0.36142
6614820;-0.10500;62.2500;101;59;0.33407
6614830;-0.10000;65.3750;101;59;0.32747
6614840;-0.10000;65.3750;101;59;0.32747
6614850;-0.09000;69.5625;101;59;0.32112
6614860;-0.08000;78.5625;101;59;0.30891
6614870;-0.07000;80.9063;101;59;0.30676
6614880;-0.06000;82.2500;101;59;0.30281
6614890;-0.03000;88.2500;101;59;0.28523
6614900;-0.03000;88.2500;101;59;0.28523
6614910;-0.01000;89.1875;101;59;0.27985
6614920;0.01000;90.0000;101;59;0.27497
6614930;0.03000;90.9375;101;59;0.27155
6614940;0.06000;93.1250;101;59;0.26520
6614950;0.10500;95.3125;101;59;0.25665
6614960;0.10500;95.3125;101;59;0.25665
6614970;0.11500;96.3125;101;59;0.25226
6614980;0.10000;97.7500;101;59;0.24347
6614990;0.07000;98.1875;101;59;0.23932
6615000;-0.01500;98.6875;101;59;0.23126
6615010;-0.01500;98.6875;101;59;0.23126
6615020;-0.06500;98.4375;101;59;0.22173
6615030;-0.08000;98.2500;101;59;0.22027
6615040;-0.08000;98.2500;101;59;0.22027
6615050;-0.09000;97.0625;101;59;0.21270
6615060;-0.09000;97.0625;101;59;0.21270
6615070;-0.08500;95.8125;101;59;0.20830
6615080;-0.08500;94.9375;101;59;0.20733
6615090;-0.08500;94.9375;101;59;0.20733
6615100;-0.08000;90.8750;101;59;0.21661
6615110;-0.08000;90.8750;101;59;0.21661
6615120;-0.07500;89.0000;101;59;0.22613
6615130;-0.07500;83.3750;101;59;0.26935
6615140;-0.07500;82.1250;101;59;0.28987
6615150;-0.07500;82.1250;101;59;0.28987
6615160;-0.07000;80.8750;101;59;0.33553
6615170;-0.07000;80.8750;101;59;0.33553
6615180;-0.07000;79.8125;101;59;0.40317
6615190;-0.07500;79.3750;101;59;0.42369
6615200;-0.07500;79.3750;101;59;0.42369
6615210;-0.07000;78.8125;101;59;0.44298
6615220;-0.06500;77.0000;101;59;0.49280
6615230;-0.06500;77.0000;101;59;0.49280
6615240;-0.06000;75.8750;101;59;0.51844
6615250;-0.06000;75.8750;101;59;0.51844
6615260;-0.06500;74.8750;101;59;0.54505
6615270;-0.06500;74.0000;101;59;0.56996
6615280;-0.06500;73.6250;101;59;0.58120
6615290;-0.06500;73.6250;101;59;0.58120
6615300;-0.06500;72.3125;101;59;0.60879
6615310;-0.06500;72.3125;101;59;0.60879
6615320;-0.06500;71.5000;101;59;0.62076
6615330;-0.06500;70.6875;101;59;0.62686
6615340;-0.06500;70.6875;101;59;0.62686
6615350;-0.05500;69.9375;101;59;0.63077
6615360;-0.04000;69.5625;101;59;0.63101
6615370;-0.04000;69.5625;101;59;0.63101
6615380;-0.02000;68.8125;101;59;0.62711
6615390;-0.00500;68.0625;101;59;0.61685
6615400;-0.00500;67.6875;101;59;0.60952
6615410;-0.02500;67.0000;101;59;0.59267
6615420;-0.03500;66.6250;101;59;0.58413
6615430;-0.03500;66.6250;101;59;0.58413
6615440;-0.04500;66.2500;101;59;0.57582
6615450;-0.07500;65.1250;101;59;0.54872
6615460;-0.07500;65.1250;101;59;0.54872
6615470;-0.07000;64.8125;101;59;0.53993
6615480;-0.09500;64.1250;101;59;0.52283
6615490;-0.06500;63.5000;101;59;0.50672
6615500;-0.06500;63.5000;101;59;0.50672
6615510;0.17500;63.2500;101;59;0.49866
6615520;0.61000;62.9375;101;59;0.49060
6615530;0.90500;62.6875;101;59;0.48352
6615540;0.76000;62.1875;101;59;0.46984
6615550;0.33000;61.9375;101;59;0.46252
6615560;-0.08500;61.4375;101;59;0.44786
6615570;-0.12500;60.9375;101;59;0.43419
6615580;-0.14500;60.6875;101;59;0.42759
6615590;-0.14500;60.6875;101;59;0.42759
6615600;-0.15000;60.4375;101;59;0.42100
6615610;-0.15000;59.8125;101;59;0.40147
6615620;-0.15000;59.8125;101;59;0.40147
6615630;-0.15000;59.5625;101;59;0.39634
6615640;-0.14500;59.0000;101;59;0.38632
6615650;-0.14500;59.0000;101;59;0.38632
6615660;-0.14500;58.4375;101;59;0.37411
6615670;-0.14000;58.0000;101;59;0.36190
6615680;-0.14000;58.0000;101;59;0.36190
6615690;-0.13000;57.8750;101;59;0.34481
6615700;-0.13000;57.8750;101;59;0.34481
6615710;-0.12000;58.2500;101;59;0.33919
6615720;-0.12000;59.3750;101;59;0.33358
6615730;-0.11500;61.5625;101;59;0.32918
6615740;-0.11500;69.5625;101;59;0.32063
6615750;-0.10000;74.4375;101;59;0.31575
6615760;-0.08500;78.8750;101;59;0.31062
6615770;-0.07000;82.4375;101;59;0.30549
6615780;-0.05500;86.8750;101;59;0.29573
6615790;-0.04000;88.0625;101;59;0.29084
6615800;-0.00500;89.7500;101;59;0.28156
6615810;0.02000;91.8125;101;59;0.27326
6615820;0.02000;91.8125;101;59;0.27326
6615830;0.04000;93.0625;101;59;0.27057
6615840;0.09000;95.4375;101;59;0.26593
6615850;0.09000;97.3750;101;59;0.25958
6615860;0.08000;98.1250;101;59;0.25641
6615870;0.08000;98.1250;101;59;0.25641
6615880;0.00500;99.0625;101;59;0.24957
6615890;0.00500;99.0625;101;59;0.24957
6615900;-0.02500;99.4375;101;59;0.24298
6615910;-0.05500;99.4375;101;59;0.23980
6615920;-0.09000;99.1250;101;59;0.23492
6615930;-0.09000;99.1250;101;59;0.23492
6615940;-0.09500;98.5000;101;59;0.23175
6615950;-0.10000;97.5000;101;59;0.22711
6615960;-0.10000;97.5000;101;59;0.22711
6615970;-0.09500;96.8750;101;59;0.22540
6615980;-0.09500;94.0625;101;59;0.22930
6615990;-0.09500;94.0625;101;59;0.22930
6616000;-0.09500;90.9375;101;59;0.24713
6616010;-0.09500;90.9375;101;59;0.24713
6616020;-0.09000;85.0000;101;59;0.29963
6616030;-0.09000;85.0000;101;59;0.29963
6616040;-0.08500;83.5000;101;59;0.31917
6616050;-0.07500;82.5000;101;59;0.34212
6616060;-0.07000;81.0000;101;59;0.41441
6616070;-0.07000;81.0000;101;59;0.41441
6616080;-0.07000;80.6250;101;59;0.43663
6616090;-0.07000;80.1875;101;59;0.45788
6616100;-0.07000;79.0625;101;59;0.49695
6616110;-0.06500;78.5000;101;59;0.51526
6616120;-0.06500;77.8750;101;59;0.53284
6616130;-0.06000;77.2500;101;59;0.54725
6616140;-0.06000;75.5625;101;59;0.58681
6616150;-0.06000;75.5625;101;59;0.58681
6616160;-0.05500;74.6250;101;59;0.61270
6616170;-0.05500;74.6250;101;59;0.61270
6616180;-0.05500;73.3750;101;59;0.64469
6616190;-0.05500;73.0000;101;59;0.65324
6616200;-0.05500;73.0000;101;59;0.65324
6616210;-0.05500;71.7500;101;59;0.67375
6616220;-0.05500;71.7500;101;59;0.67375
6616230;-0.05500;71.3125;101;59;0.67741
6616240;-0.05000;70.5000;101;59;0.68107
6616250;-0.05000;70.5000;101;59;0.68107
6616260;-0.03500;69.6875;101;59;0.68230
6616270;-0.01000;69.0000;101;59;0.67717
6616280;0.00000;68.5625;101;59;0.67228
6616290;0.00000;68.5625;101;59;0.67228
6616300;-0.00500;67.8125;101;59;0.65836
6616310;-0.03500;67.1250;101;59;0.64078
6616320;-0.03500;67.1250;101;59;0.64078
6616330;-0.03500;66.7500;101;59;0.63199
6616340;-0.05500;66.0000;101;59;0.61441
6616350;-0.07000;65.2500;101;59;0.59560
6616360;-0.07000;65.2500;101;59;0.59560
6616370;-0.09500;64.1875;101;59;0.56850
6616380;-0.09500;63.8750;101;59;0.55995
6616390;-0.09500;63.8750;101;59;0.55995
6616400;0.54000;63.3125;101;59;0.54286
6616410;0.54000;63.3125;101;59;0.54286
6616420;0.87000;62.6875;101;59;0.52527
6616430;0.82000;62.4375;101;59;0.51722
6616440;0.04000;61.8750;101;59;0.50183
6616450;0.04000;61.8750;101;59;0.50183
6616460;-0.12500;61.1250;101;59;0.47814
6616470;-0.14500;60.8125;101;59;0.47057
6616480;-0.14500;60.8125;101;59;0.47057
6616490;-0.15500;60.0625;101;59;0.44908
6616500;-0.15000;59.8125;101;59;0.44176
6616510;-0.15000;59.8125;101;59;0.44176
6616520;-0.14500;59.3750;101;59;0.42833
6616530;-0.14500;59.3750;101;59;0.42833
6616540;-0.13500;58.5625;101;59;0.41050
6616550;-0.13500;58.5625;101;59;0.41050
6616560;-0.13500;58.2500;101;59;0.40415
6616570;-0.13500;58.0000;101;59;0.39780
6616580;-0.13000;57.6875;101;59;0.38510
6616590;-0.12500;57.6875;101;59;0.37900
6616600;-0.11500;58.9375;101;59;0.36679
6616610;-0.11500;58.9375;101;59;0.36679
6616620;-0.10000;68.5625;101;59;0.35165
6616630;-0.10000;68.5625;101;59;0.35165
6616640;-0.09500;73.5000;101;59;0.34676
6616650;-0.06500;84.8125;101;59;0.32991
6616660;-0.06500;84.8125;101;59;0.32991
6616670;-0.05500;86.7500;101;59;0.32405
6616680;-0.02000;88.8750;101;59;0.31282
6616690;-0.02000;88.8750;101;59;0.31282
6616700;0.00000;90.6250;101;59;0.30232
6616710;0.03500;93.0000;101;59;0.29231
6616720;0.03500;93.0000;101;59;0.29231
6616730;0.06500;94.3750;101;59;0.28913
6616740;0.10500;97.9375;101;59;0.27937
6616750;0.10500;97.9375;101;59;0.27937
6616760;0.09000;98.7500;101;59;0.27570
6616770;0.01500;100.0625;101;59;0.26496
6616780;-0.01500;100.1875;101;59;0.26154
6616790;-0.04500;100.1875;101;59;0.25812
6616800;-0.04500;100.1875;101;59;0.25812
6616810;-0.06500;100.1875;101;59;0.25495
6616820;-0.08000;99.8750;101;59;0.24982
6616830;-0.08500;99.5625;101;59;0.24835
6616840;-0.08500;98.7500;101;59;0.24322
6616850;-0.08500;98.7500;101;59;0.24322
6616860;-0.09000;97.5625;101;59;0.23907
6616870;-0.08500;95.8125;101;59;0.26984
6616880;-0.08500;95.8125;101;59;0.26984
6616890;-0.08000;94.5625;101;59;0.28400
6616900;-0.07500;91.2500;101;59;0.31355
6616910;-0.07500;89.1875;101;59;0.33284
6616920;-0.08000;87.0625;101;59;0.35531
6616930;-0.07500;82.5000;101;59;0.42271
6616940;-0.07500;82.5000;101;59;0.42271
6616950;-0.07000;81.4375;101;59;0.47253
6616960;-0.07000;81.1250;101;59;0.49621
6616970;-0.07000;81.1250;101;59;0.49621
6616980;-0.06500;79.8125;101;59;0.56068
6616990;-0.06500;79.2500;101;59;0.58022
6617000;-0.06500;79.2500;102;60;0.58022
6617010;-0.06000;77.3125;102;60;0.63053
6617020;-0.06000;76.6875;102;60;0.64298
6617030;-0.06000;76.6875;102;60;0.64298
6617040;-0.06000;75.6250;102;60;0.67082
6617050;-0.06000;75.6250;102;60;0.67082
6617060;-0.05500;74.6250;102;60;0.69744
6617070;-0.05500;74.1875;102;60;0.70965
6617080;-0.05500;73.8125;102;60;0.72112
6617090;-0.05500;73.3750;102;60;0.73138
6617100;-0.05500;72.5000;102;60;0.74847
6617110;-0.05500;72.0625;102;60;0.75507
6617120;-0.04500;71.1875;102;60;0.76386
6617130;-0.04500;70.3750;102;60;0.76728
6617140;-0.04500;70.3750;102;60;0.76728
6617150;-0.01500;69.5625;102;60;0.76801
6617160;0.00000;69.1875;102;60;0.76581
6617170;0.00000;69.1875;102;60;0.76581
6617180;0.00500;68.0000;102;60;0.74847
6617190;-0.01000;67.6250;102;60;0.73968
6617200;-0.01000;67.6250;102;60;0.73968
6617210;-0.02500;66.5625;102;60;0.70989
6617220;-0.02500;66.5625;102;60;0.70989
6617230;-0.04500;66.1875;102;60;0.69988
6617240;-0.06000;65.4375;102;60;0.67888
6617250;-0.06000;65.4375;102;60;0.67888
6617260;-0.05500;64.7500;102;60;0.65836
6617270;-0.06500;64.3750;102;60;0.64860
6617280;-0.07500;64.0000;102;60;0.63883
6617290;0.09000;63.6875;102;60;0.62930
6617300;0.87500;62.7500;102;60;0.60024
6617310;0.87500;62.7500;102;60;0.60024
6617320;0.87500;62.4375;102;60;0.59048
6617330;0.10500;61.7500;102;60;0.56484
6617340;0.10500;61.7500;102;60;0.56484
6617350;-0.04500;61.5000;102;60;0.55580
6617360;-0.13000;60.9375;102;60;0.53822
6617370;-0.13000;60.9375;102;60;0.53822
6617380;-0.14500;60.4375;102;60;0.52088
6617390;-0.14500;59.8750;102;60;0.50403
6617400;-0.14500;59.8750;102;60;0.50403
6617410;-0.14500;59.1250;102;60;0.48205
6617420;-0.14500;58.8750;102;60;0.47619
6617430;-0.14500;58.8750;102;60;0.47619
6617440;-0.14000;58.3125;102;60;0.46300
6617450;-0.14000;58.3125;102;60;0.46300
6617460;-0.14000;57.8125;102;60;0.44860
6617470;-0.13000;57.6250;102;60;0.43419
6617480;-0.12500;57.8125;102;60;0.42686
6617490;-0.12500;60.0625;102;60;0.41245
6617500;-0.11500;62.8750;102;60;0.40562
6617510;-0.11500;62.8750;102;60;0.40562
6617520;-0.09500;71.7500;102;60;0.39341
6617530;-0.08500;80.6875;102;60;0.38339
6617540;-0.08500;80.6875;102;60;0.38339
6617550;-0.06500;86.1875;102;60;0.37241
6617560;-0.05000;87.7500;102;60;0.36679
6617570;-0.05000;87.7500;102;60;0.36679
6617580;-0.03500;89.7500;102;60;0.35531
6617590;0.01000;91.8750;102;60;0.34457
6617600;0.01000;91.8750;102;60;0.34457
6617610;0.04000;93.1250;102;60;0.33944
6617620;0.09000;96.9375;102;60;0.32845
6617630;0.10500;98.0000;102;60;0.32479
6617640;0.10500;98.0000;102;60;0.32479
6617650;0.06000;100.0625;102;60;0.31282
6617660;0.02000;100.4375;102;60;0.30891
6617670;0.02000;100.4375;102;60;0.30891
6617680;-0.04500;100.7500;102;60;0.30134
6617690;-0.06500;100.7500;102;60;0.29402
6617700;-0.06500;100.7500;102;60;0.29402
6617710;-0.07500;100.6250;102;60;0.29035
6617720;-0.08000;100.1250;102;60;0.28498
6617730;-0.08500;99.2500;102;60;0.28181
6617740;-0.08500;99.2500;102;60;0.28181
6617750;-0.08500;97.9375;102;60;0.27912
6617760;-0.09000;97.0625;102;60;0.28010
6617770;-0.09000;97.0625;102;60;0.28010
6617780;-0.08500;93.1875;102;60;0.30305
6617790;-0.08500;93.1875;102;60;0.30305
6617800;-0.08500;91.3125;102;60;0.31941
6617810;-0.08500;89.1875;102;60;0.33993
6617820;-0.08500;85.3125;102;60;0.38584
6617830;-0.09000;83.0625;102;60;0.43199
6617840;-0.09000;82.5000;102;60;0.45714
6617850;-0.09000;82.5000;102;60;0.45714
6617860;-0.08500;81.2500;102;60;0.52845
6617870;-0.08000;80.8125;102;60;0.55018
6617880;-0.08000;80.8125;102;60;0.55018
6617890;-0.07500;79.0625;102;60;0.61001
6617900;-0.07500;78.4375;102;60;0.62833
6617910;-0.07500;78.4375;102;60;0.62833
6617920;-0.07500;77.1875;102;60;0.65983
6617930;-0.07500;76.1250;102;60;0.68449
6617940;-0.07500;76.1250;102;60;0.68449
6617950;-0.07500;75.6250;102;60;0.69744
6617960;-0.06500;74.7500;102;60;0.72137
6617970;-0.06500;74.7500;102;60;0.72137
6617980;-0.06500;73.9375;102;60;0.74164
6617990;-0.06500;73.1250;102;60;0.75726
6618000;-0.06500;73.1250;102;60;0.75726
6618010;-0.06500;71.8750;102;60;0.77143
6618020;-0.06500;71.8750;102;60;0.77143
6618030;-0.05500;71.4375;102;60;0.77241
6618040;-0.03500;70.6250;102;60;0.77387
6618050;-0.03500;70.6250;102;60;0.77387
6618060;-0.02500;69.8750;102;60;0.77045
6618070;-0.00500;69.1250;102;60;0.76093
6618080;-0.02000;68.7500;102;60;0.75385
6618090;-0.02000;68.7500;102;60;0.75385
6618100;-0.04000;67.6250;102;60;0.72625
6618110;-0.05500;67.3125;102;60;0.71600
6618120;-0.05500;67.3125;102;60;0.71600
6618130;-0.07500;66.2500;102;60;0.68645
6618140;-0.07500;66.2500;102;60;0.68645
6618150;-0.06500;65.8750;102;60;0.67619
6618160;-0.09000;65.1875;102;60;0.65543
6618170;-0.09000;65.1875;102;60;0.65543
6618180;0.03000;64.5000;102;60;0.63468
6618190;0.38500;64.2500;102;60;0.62466
6618200;0.78500;63.9375;102;60;0.61465
6618210;0.91000;63.6875;102;60;0.60513
6618220;0.58500;63.1875;102;60;0.58657
6618230;0.16000;62.8750;102;60;0.57875
6618240;-0.10500;62.3750;102;60;0.56166
6618250;-0.10500;62.3750;102;60;0.56166
6618260;-0.13500;61.8750;102;60;0.54457
6618270;-0.14500;61.6250;102;60;0.53626
6618280;-0.15500;61.3750;102;60;0.52821
6618290;-0.15500;61.1875;102;60;0.52063
6618300;-0.16000;60.6875;102;60;0.50574
6618310;-0.16000;60.5000;102;60;0.49866
6618320;-0.16000;60.3125;102;60;0.49133
6618330;-0.15500;59.5625;102;60;0.47277
6618340;-0.15500;59.5625;102;60;0.47277
6618350;-0.15000;59.3125;102;60;0.46569
6618360;-0.14500;59.1250;102;60;0.45104
6618370;-0.14500;59.1250;102;60;0.45104
6618380;-0.14000;59.8750;102;60;0.43687
6618390;-0.13500;61.3750;102;60;0.42979
6618400;-0.11500;67.9375;102;60;0.41661
6618410;-0.11500;67.9375;102;60;0.41661
6618420;-0.11000;77.6250;102;60;0.40537
6618430;-0.10000;81.9375;102;60;0.40122
6618440;-0.09000;85.3125;102;60;0.39609
6618450;-0.07500;87.8125;102;60;0.39096
6618460;-0.05500;90.7500;102;60;0.38046
6618470;-0.04000;91.7500;102;60;0.37534
6618480;0.00000;93.9375;102;60;0.36508
6618490;0.00000;93.9375;102;60;0.36508
6618500;0.02000;96.6875;102;60;0.35482
6618510;0.07000;99.3125;102;60;0.34676
6618520;0.09000;100.4375;102;60;0.34408
6618530;0.09000;100.4375;102;60;0.34408
6618540;0.09000;102.1875;102;60;0.33700
6618550;0.02500;103.3125;102;60;0.32967
6618560;0.02500;103.3125;102;60;0.32967
6618570;-0.04500;103.9375;102;60;0.31917
6618580;-0.04500;103.9375;102;60;0.31917
6618590;-0.07000;104.0000;102;60;0.31624
6618600;-0.09500;103.6875;102;60;0.31062
6618610;-0.09500;103.6875;102;60;0.31062
6618620;-0.09500;103.0625;102;60;0.30574
6618630;-0.09500;102.6250;102;60;0.30476
6618640;-0.10000;102.1250;102;60;0.30330
6618650;-0.10000;101.5000;102;60;0.30281
6618660;-0.10000;99.8125;102;60;0.30794
6618670;-0.09500;97.3750;102;60;0.32674
6618680;-0.09500;95.7500;102;60;0.34237
6618690;-0.09500;95.7500;102;60;0.34237
6618700;-0.09000;89.6875;102;60;0.40952
6618710;-0.09000;88.0000;102;60;0.43248
6618720;-0.09000;88.0000;102;60;0.43248
6618730;-0.08500;85.2500;102;60;0.50232
6618740;-0.08500;84.6875;102;60;0.52625
6618750;-0.08500;84.6875;102;60;0.52625
6618760;-0.08000;83.8125;102;60;0.57118
6618770;-0.08000;83.8125;102;60;0.57118
6618780;-0.07500;82.2500;102;60;0.63272
6618790;-0.07000;81.6250;102;60;0.65177
6618800;-0.07000;81.6250;102;60;0.65177
6618810;-0.07000;79.6875;102;60;0.70134
6618820;-0.07000;79.6875;102;60;0.70134
6618830;-0.06500;79.1250;102;60;0.71306
6618840;-0.07000;78.5625;102;60;0.72576
6618850;-0.07000;77.1250;102;60;0.76215
6618860;-0.07000;77.1250;102;60;0.76215
6618870;-0.06500;76.6875;102;60;0.77289
6618880;-0.06500;75.8125;102;60;0.79194
6618890;-0.06500;75.8125;102;60;0.79194
6618900;-0.06500;74.8750;102;60;0.80659
6618910;-0.06500;74.4375;102;60;0.81245
6618920;-0.06000;74.0625;102;60;0.79805
6618930;-0.04500;72.8125;102;60;0.75458
6618940;-0.03500;72.4375;102;60;0.75043
6618950;-0.03500;72.4375;102;60;0.75043
6618960;-0.01500;71.6250;102;60;0.74115
6618970;-0.01500;70.8750;102;60;0.72772
6618980;-0.01500;70.8750;102;60;0.72772
6618990;-0.03500;70.1250;102;60;0.70989
6619000;-0.03500;70.1250;102;60;0.70989
6619010;-0.04000;69.7500;102;60;0.70037
6619020;-0.06000;68.9375;102;60;0.68132
6619030;-0.07500;68.6250;102;60;0.67228
6619040;-0.07500;68.2500;102;60;0.66300
6619050;-0.07000;67.9375;102;60;0.65348
6619060;-0.08500;66.9375;102;60;0.62418
6619070;-0.07500;66.9375;102;60;0.62418
6619080;0.50500;66.3125;102;60;0.60513
6619090;0.50500;66.3125;102;60;0.60513
6619100;0.84000;65.7500;102;60;0.58681
6619110;0.83500;65.4375;102;60;0.57778
6619120;0.07000;65.0000;102;60;0.56166
6619130;0.07000;65.0000;102;60;0.56166
6619140;-0.12000;64.1875;102;60;0.53700
6619150;-0.12000;64.1875;102;60;0.53700
6619160;-0.15500;63.6875;102;60;0.52088
6619170;-0.15500;63.2500;102;60;0.50476
6619180;-0.15500;63.0000;102;60;0.49695
6619190;-0.15500;62.7500;102;60;0.48938
6619200;-0.15500;62.7500;102;60;0.48938
6619210;-0.15500;62.0625;102;60;0.46862
6619220;-0.15500;62.0625;102;60;0.46862
6619230;-0.16000;61.8125;102;60;0.46300
6619240;-0.16000;61.5625;102;60;0.45665
6619250;-0.15500;61.1875;102;60;0.43712
6619260;-0.15500;61.1875;102;60;0.43712
6619270;-0.14500;61.4375;102;60;0.43053
6619280;-0.13500;63.6250;102;60;0.41783
6619290;-0.13500;63.6250;102;60;0.41783
6619300;-0.12000;75.3750;102;60;0.40000
6619310;-0.11000;80.3125;102;60;0.39536
6619320;-0.10000;84.5625;102;60;0.39096
6619330;-0.09000;90.3125;102;60;0.38046
6619340;-0.09000;90.3125;102;60;0.38046
6619350;-0.05500;93.2500;102;60;0.37021
6619360;-0.04000;94.2500;102;60;0.36532
6619370;-0.04000;94.2500;102;60;0.36532
6619380;0.00000;97.8750;102;60;0.35043
6619390;0.02000;99.2500;102;60;0.34554
6619400;0.02000;99.2500;102;60;0.34554
6619410;0.07500;103.0625;102;60;0.33358
6619420;0.09000;104.0625;102;60;0.33114
6619430;0.09000;104.0625;102;60;0.33114
6619440;0.06500;105.5625;102;60;0.32479
6619450;0.06500;105.5625;102;60;0.32479
6619460;0.03000;106.3750;102;60;0.31844
6619470;-0.00500;106.5625;102;60;0.31551
6619480;-0.05500;106.7500;102;60;0.30916
6619490;-0.05500;106.7500;102;60;0.30916
6619500;-0.07500;106.2500;102;60;0.30037
6619510;-0.07500;105.8750;102;60;0.29866
6619520;-0.07500;105.8750;102;60;0.29866
6619530;-0.08000;105.4375;102;60;0.29768
6619540;-0.08000;104.3125;102;60;0.29621
6619550;-0.08500;103.5625;102;60;0.29768
6619560;-0.08500;102.6250;102;60;0.30134
6619570;-0.09000;101.5625;102;60;0.30794
6619580;-0.09000;98.5000;102;60;0.33260
6619590;-0.08500;94.3750;102;60;0.37070
6619600;-0.08500;94.3750;102;60;0.37070
6619610;-0.08000;92.1875;102;60;0.39316
6619620;-0.07500;88.6250;102;60;0.43712
6619630;-0.07500;87.5000;102;60;0.45617
6619640;-0.07500;86.6875;102;60;0.47692
6619650;-0.07500;86.0625;102;60;0.49768
6619660;-0.07500;85.0625;102;60;0.53773
6619670;-0.07000;83.9375;102;60;0.57509
6619680;-0.07000;83.9375;102;60;0.57509
6619690;-0.07000;81.8750;102;60;0.62564
6619700;-0.07500;81.1875;102;60;0.64103
6619710;-0.07500;81.1875;102;60;0.64103
6619720;-0.07000;79.8750;102;60;0.66349
6619730;-0.06500;78.6875;102;60;0.68645
6619740;-0.06500;78.6875;102;60;0.68645
6619750;-0.06000;77.5625;102;60;0.70794
6619760;-0.05500;77.0625;102;60;0.71746
6619770;-0.05500;77.0625;102;60;0.71746
6619780;-0.05500;75.5625;102;60;0.74066
6619790;-0.05500;75.0625;102;60;0.74628
6619800;-0.06000;74.5625;102;60;0.75092
6619810;-0.05500;73.5625;102;60;0.75629
6619820;-0.05000;73.0625;102;60;0.75604
6619830;-0.03500;72.6250;102;60;0.75556
6619840;-0.01500;72.1250;102;60;0.75409
6619850;-0.01500;72.1250;102;60;0.75409
6619860;0.00000;70.8125;102;60;0.74188
6619870;0.00000;70.8125;102;60;0.74188
6619880;0.00000;70.4375;102;60;0.73504
6619890;-0.01500;70.0000;102;60;0.72698
6619900;-0.02500;69.1250;102;60;0.70769
6619910;-0.03000;68.6875;102;60;0.69719
6619920;-0.06000;67.8750;102;60;0.67692
6619930;-0.05500;67.1250;102;60;0.65592
6619940;-0.05500;67.1250;102;60;0.65592
6619950;-0.07000;66.3750;102;60;0.63443
6619960;-0.07000;66.3750;102;60;0.63443
6619970;-0.06000;66.0000;102;60;0.62369
6619980;0.55500;64.9375;102;60;0.59170
6619990;0.55500;64.9375;102;60;0.59170
6620000;0.82500;64.3125;101;59;0.57070
6620010;0.82500;64.3125;101;59;0.57070
6620020;0.42000;63.7500;101;59;0.55092
6620030;0.07500;63.4375;101;59;0.54212
6620040;-0.05500;63.1250;101;59;0.53284
6620050;-0.10000;62.8125;101;59;0.52357
6620060;-0.12500;62.1875;101;59;0.50476
6620070;-0.14000;61.9375;101;59;0.49524
6620080;-0.14000;61.3750;101;59;0.47668
6620090;-0.14000;61.3750;101;59;0.47668
6620100;-0.13500;60.5625;101;59;0.45104
6620110;-0.13500;60.3125;101;59;0.44396
6620120;-0.13500;60.3125;101;59;0.44396
6620130;-0.13500;60.0625;101;59;0.43712
6620140;-0.12500;59.1250;101;59;0.41392
6620150;-0.12500;59.1250;101;59;0.41392
6620160;-0.11500;58.9375;101;59;0.40610
6620170;-0.10500;58.8125;101;59;0.39853
6620180;-0.10500;60.9375;101;59;0.37680
6620190;-0.16000;63.5625;101;59;0.36972
6620200;-0.16000;63.5625;101;59;0.36972
6620210;-0.31500;76.8125;101;59;0.34994
6620220;-0.21000;80.9375;101;59;0.34481
6620230;-0.21000;80.9375;101;59;0.34481
6620240;-0.20500;86.5000;101;59;0.33211
6620250;-0.16500;89.2500;101;59;0.31917
6620260;-0.16500;89.2500;101;59;0.31917
6620270;-0.12000;90.1875;101;59;0.31282
6620280;-0.04500;92.2500;101;59;0.30061
6620290;-0.04500;92.2500;101;59;0.30061
6620300;0.02500;95.9375;101;59;0.28352
6620310;0.02500;95.9375;101;59;0.28352
6620320;0.06500;97.0625;101;59;0.27961
6620330;0.09000;99.6250;101;59;0.26838
6620340;0.07000;100.1250;101;59;0.26398
6620350;0.07000;100.1250;101;59;0.26398
6620360;-0.00500;100.7500;101;59;0.25543
6620370;-0.03500;100.8750;101;59;0.24664
6620380;-0.03500;100.8750;101;59;0.24664
6620390;-0.06000;100.5625;101;59;0.23834
6620400;-0.06500;100.3125;101;59;0.23419
6620410;-0.06500;100.3125;101;59;0.23419
6620420;-0.07000;99.0000;101;59;0.22662
6620430;-0.07000;99.0000;101;59;0.22662
6620440;-0.05500;98.3125;101;59;0.22320
6620450;-0.06000;95.4375;101;59;0.22125
6620460;-0.06000;95.4375;101;59;0.22125
6620470;-0.05000;94.0625;101;59;0.22613
6620480;-0.02000;92.3750;101;59;0.23492
6620490;-0.00500;90.4375;101;59;0.24786
6620500;0.00000;86.3125;101;59;0.28425
6620510;-0.00500;84.6875;101;59;0.30647
6620520;-0.00500;82.6875;101;59;0.34676
6620530;-0.00500;82.6875;101;59;0.34676
6620540;-0.00500;81.2500;101;59;0.41172
6620550;-0.00500;80.8750;101;59;0.43223
6620560;-0.00500;80.8750;101;59;0.43223
6620570;-0.00500;79.1875;101;59;0.48864
6620580;-0.00500;79.1875;101;59;0.48864
6620590;-0.00500;78.5625;101;59;0.50549
6620600;-0.00500;77.3125;101;59;0.53675
6620610;-0.00500;77.3125;101;59;0.53675
6620620;-0.01000;75.6250;101;59;0.57118
6620630;-0.01500;75.1250;101;59;0.58266
6620640;-0.01500;75.1250;101;59;0.58266
6620650;-0.01500;73.8125;101;59;0.61392
6620660;-0.02000;73.3750;101;59;0.62247
6620670;-0.02000;73.3750;101;59;0.62247
6620680;-0.01500;72.9375;101;59;0.63004
6620690;-0.01500;72.5000;101;59;0.63663
6620700;-0.01500;71.6875;101;59;0.64664
6620710;-0.01500;71.2500;101;59;0.65006
6620720;0.00000;70.3750;101;59;0.65177
6620730;0.00000;70.3750;101;59;0.65177
6620740;0.02000;69.5000;101;59;0.65031
6620750;0.03500;68.6875;101;59;0.64396
6620760;0.03500;68.6875;101;59;0.64396
6620770;0.03000;68.3125;101;59;0.63858
6620780;0.00000;67.1875;101;59;0.61465
6620790;0.00000;67.1875;101;59;0.61465
6620800;-0.02500;66.4375;101;59;0.59487
6620810;-0.02500;66.4375;101;59;0.59487
6620820;-0.03500;65.6875;101;59;0.57680
6620830;-0.03500;65.3125;101;59;0.56752
6620840;-0.03000;64.9375;101;59;0.55800
6620850;-0.00500;63.9375;101;59;0.52991
6620860;-0.00500;63.9375;101;59;0.52991
6620870;0.72500;63.3125;101;59;0.51136
6620880;0.72500;63.3125;101;59;0.51136
6620890;0.73000;62.4375;101;59;0.48523
6620900;0.28500;62.1875;101;59;0.47692
6620910;0.28500;62.1875;101;59;0.47692
6620920;-0.06000;61.6875;101;59;0.46349
6620930;-0.06000;61.6875;101;59;0.46349
6620940;-0.09500;61.1250;101;59;0.44884
6620950;-0.13000;60.5000;101;59;0.43321
6620960;-0.13500;60.2500;101;59;0.42979
6620970;-0.13500;59.7500;101;59;0.42466
6620980;-0.13500;59.7500;101;59;0.42466
6620990;-0.12500;59.1875;101;59;0.41343
6621000;-0.12500;58.9375;101;59;0.40733
6621010;-0.12500;58.9375;101;59;0.40733
6621020;-0.12500;58.0625;101;59;0.39219
6621030;-0.11500;57.8125;101;59;0.38681
6621040;-0.11500;57.8125;101;59;0.38681
6621050;-0.10500;57.6250;101;59;0.37045
6621060;-0.10500;57.6250;101;59;0.37045
6621070;-0.09500;59.1250;101;59;0.35971
6621080;-0.09500;59.1250;101;59;0.35971
6621090;-0.09000;64.6875;101;59;0.35433
6621100;-0.07500;73.6875;101;59;0.33822
6621110;-0.07500;73.6875;101;59;0.33822
6621120;-0.05500;81.4375;101;59;0.33065
6621130;-0.04000;85.7500;101;59;0.32210
6621140;-0.04000;85.7500;101;59;0.32210
6621150;-0.00500;87.6875;101;59;0.31306
6621160;0.01000;88.4375;101;59;0.30867
6621170;0.01000;88.4375;101;59;0.30867
6621180;0.05000;91.4375;101;59;0.29597
6621190;0.08000;92.5625;101;59;0.29206
6621200;0.08000;92.5625;101;59;0.29206
6621210;0.11000;95.4375;101;59;0.28425
6621220;0.11000;95.4375;101;59;0.28425
6621230;0.09000;96.0625;101;59;0.28156
6621240;0.05500;96.5625;101;59;0.27839
6621250;0.02000;96.8750;101;59;0.27521
6621260;-0.04000;97.0625;101;59;0.26569
6621270;-0.04000;97.0625;101;59;0.26569
6621280;-0.06500;96.6875;101;59;0.25958
6621290;-0.07500;96.0625;101;59;0.25324
6621300;-0.07500;96.0625;101;59;0.25324
6621310;-0.07500;95.0000;101;59;0.24884
6621320;-0.07500;95.0000;101;59;0.24884
6621330;-0.07500;94.3750;101;59;0.24811
6621340;-0.08000;91.2500;101;59;0.24884
6621350;-0.08000;91.2500;101;59;0.24884
6621360;-0.13500;89.6250;101;59;0.25348
6621370;-0.14500;83.8750;101;59;0.28767
6621380;-0.14500;83.8750;101;59;0.28767
6621390;-0.12000;82.3750;101;59;0.30574
6621400;-0.13500;80.5000;101;59;0.34774
6621410;-0.13500;80.5000;101;59;0.34774
6621420;-0.15500;79.6875;101;59;0.38584
6621430;-0.13500;79.0000;101;59;0.42540
6621440;-0.13500;79.0000;101;59;0.42540
6621450;-0.09000;77.5000;101;59;0.48010
6621460;-0.09000;77.5000;101;59;0.48010
6621470;-0.09500;76.8125;101;59;0.49670
6621480;-0.09000;75.6250;101;59;0.52698
6621490;-0.09000;75.6250;101;59;0.52698
6621500;-0.09000;74.5000;101;59;0.55409
6621510;-0.08000;73.5000;101;59;0.57656
6621520;-0.08000;73.5000;101;59;0.57656
6621530;-0.07500;73.0625;101;59;0.58510
6621540;-0.05500;72.1875;101;59;0.60366
6621550;-0.04500;71.8125;101;59;0.61245
6621560;-0.05500;71.0000;101;59;0.62759
6621570;-0.06500;71.0000;101;59;0.62759
6621580;-0.06500;70.1250;101;59;0.63980
6621590;-0.06500;69.3125;101;59;0.64762
6621600;-0.06500;69.3125;101;59;0.64762
6621610;-0.04500;68.1875;101;59;0.64982
6621620;-0.04500;68.1875;101;59;0.64982
6621630;-0.02500;67.8125;101;59;0.64811
6621640;-0.01000;67.4375;101;59;0.64518
6621650;0.00000;67.0625;101;59;0.64078
6621660;0.00500;66.3750;101;59;0.62808
6621670;-0.02500;65.6250;101;59;0.61221
6621680;-0.02500;65.6250;101;59;0.61221
6621690;-0.04500;64.5625;101;59;0.58730
6621700;-0.06500;64.1875;101;59;0.57900
6621710;-0.06500;64.1875;101;59;0.57900
6621720;-0.06000;63.5625;101;59;0.56435
6621730;-0.07500;62.9375;101;59;0.54896
6621740;-0.07500;62.6250;101;59;0.54115
6621750;-0.07500;62.6250;101;59;0.54115
6621760;0.51000;61.9375;101;59;0.52552
6621770;0.51000;61.9375;101;59;0.52552
6621780;0.88500;61.3750;101;59;0.51062
6621790;0.46500;60.8750;101;59;0.49621
6621800;0.46500;60.8750;101;59;0.49621
6621810;0.09000;60.6875;101;59;0.48913
6621820;-0.06500;60.1875;101;59;0.47741
6621830;-0.13000;59.6875;101;59;0.46496
6621840;-0.13000;59.6875;101;59;0.46496
6621850;-0.14500;59.4375;101;59;0.45861
6621860;-0.14500;58.7500;101;59;0.43956
6621870;-0.14500;58.7500;101;59;0.43956
6621880;-0.14500;58.5000;101;59;0.43346
6621890;-0.14000;58.3125;101;59;0.42735
6621900;-0.13500;57.8125;101;59;0.41538
6621910;-0.13500;57.5625;101;59;0.40952
6621920;-0.12500;57.0625;101;59;0.40049
6621930;-0.12500;57.0625;101;59;0.40049
6621940;-0.11500;56.8125;101;59;0.38413
6621950;-0.11500;56.8125;101;59;0.38413
6621960;-0.11000;57.1250;101;59;0.37851
6621970;-0.09500;63.0000;101;59;0.36288
6621980;-0.09500;63.0000;101;59;0.36288
6621990;-0.09000;67.2500;101;59;0.35800
6622000;-0.07500;76.6250;102;59;0.34799
6622010;-0.07500;76.6250;102;59;0.34799
6622020;-0.06500;83.3750;102;59;0.34090
6622030;-0.03000;86.8125;102;59;0.33260
6622040;-0.03000;86.8125;102;59;0.33260
6622050;0.00500;89.5000;102;59;0.32039
6622060;0.02000;90.5625;102;59;0.31648
6622070;0.04500;91.7500;102;59;0.31258
6622080;0.07000;92.9375;102;59;0.30891
6622090;0.07000;92.9375;102;59;0.30891
6622100;0.11000;96.1250;102;59;0.29988
6622110;0.11000;96.8750;102;59;0.29817
6622120;0.11000;96.8750;102;59;0.29817
6622130;0.07500;97.8750;102;59;0.29573
6622140;-0.00500;98.3750;102;59;0.28694
6622150;-0.00500;98.3750;102;59;0.28694
6622160;-0.05500;98.3750;102;59;0.28156
6622170;-0.07500;98.0625;102;59;0.27619
6622180;-0.07500;98.0625;102;59;0.27619
6622190;-0.07500;97.3125;102;59;0.27106
6622200;-0.08000;96.8750;102;59;0.26862
6622210;-0.08000;96.8750;102;59;0.26862
6622220;-0.08500;94.7500;102;59;0.26764
6622230;-0.08500;93.6875;102;59;0.26911
6622240;-0.08500;93.6875;102;59;0.26911
6622250;-0.08000;89.0000;102;59;0.28840
6622260;-0.07500;86.9375;102;59;0.30159
6622270;-0.07500;86.9375;102;59;0.30159
6622280;-0.07500;83.3125;102;59;0.33822
6622290;-0.07500;83.3125;102;59;0.33822
6622300;-0.07500;81.3125;102;59;0.38291
6622310;-0.07000;80.7500;102;59;0.40342
6622320;-0.07000;80.3750;102;59;0.42222
6622330;-0.07500;80.0000;102;59;0.44225
6622340;-0.07000;78.6875;102;59;0.50085
6622350;-0.06500;78.0625;102;59;0.51868
6622360;-0.06500;77.5000;102;59;0.53553
6622370;-0.06500;76.2500;102;59;0.56728
6622380;-0.06000;75.6250;102;59;0.58193
6622390;-0.06000;75.6250;102;59;0.58193
6622400;-0.06000;75.1250;102;59;0.59560
6622410;-0.06000;73.6875;102;59;0.62759
6622420;-0.06000;73.6875;102;59;0.62759
6622430;-0.05500;73.3125;102;59;0.63712
6622440;-0.05000;72.5625;102;59;0.65543
6622450;-0.05000;72.5625;102;59;0.65543
6622460;-0.05500;71.3750;102;59;0.67643
6622470;-0.05500;71.0000;102;59;0.68156
6622480;-0.05500;71.0000;102;59;0.68156
6622490;-0.05000;69.8125;102;59;0.69011
6622500;-0.04000;69.4375;102;59;0.69011
6622510;-0.04000;69.4375;102;59;0.69011
6622520;-0.02500;69.0000;102;59;0.68864
6622530;-0.01000;68.6250;102;59;0.68694
6622540;-0.00500;67.5625;102;59;0.67448
6622550;-0.00500;67.5625;102;59;0.67448
6622560;-0.02000;67.1875;102;59;0.66789
6622570;-0.03500;66.8125;102;59;0.66007
6622580;-0.04000;66.1250;102;59;0.64298
6622590;-0.07500;65.3750;102;59;0.62491
6622600;-0.07500;65.3750;102;59;0.62491
6622610;-0.07500;65.0000;102;59;0.61612
6622620;-0.07500;64.0000;102;59;0.59243
6622630;-0.07500;64.0000;102;59;0.59243
6622640;-0.08500;63.7500;102;59;0.58462
6622650;0.08000;63.4375;102;59;0.57680
6622660;0.48000;62.8750;102;59;0.56068
6622670;0.86000;62.5625;102;59;0.55263
6622680;0.88500;62.3125;102;59;0.54432
6622690;0.48500;62.1250;102;59;0.53651
6622700;0.09000;61.6250;102;59;0.52161
6622710;-0.06000;61.3750;102;59;0.51502
6622720;-0.11500;61.1250;102;59;0.50891
6622730;-0.14500;60.8750;102;59;0.50232
6622740;-0.15500;60.1250;102;59;0.48230
6622750;-0.15500;60.1250;102;59;0.48230
6622760;-0.15500;59.8750;102;59;0.47546
6622770;-0.15500;59.1250;102;59;0.45617
6622780;-0.15500;59.1250;102;59;0.45617
6622790;-0.15500;58.5625;102;59;0.44420
6622800;-0.15000;58.2500;102;59;0.43858
6622810;-0.15000;58.2500;102;59;0.43858
6622820;-0.14500;57.8125;102;59;0.42930
6622830;-0.12500;57.6250;102;59;0.41856
6622840;-0.12500;57.8125;102;59;0.41294
6622850;-0.12500;57.8125;102;59;0.41294
6622860;-0.10500;62.8125;102;59;0.39634
6622870;-0.09500;66.8125;102;59;0.39072
6622880;-0.09500;66.8125;102;59;0.39072
6622890;-0.07500;80.3750;102;59;0.37387
6622900;-0.07500;80.3750;102;59;0.37387
6622910;-0.06500;83.5000;102;59;0.36947
6622920;-0.05500;85.8125;102;59;0.36581
6622930;-0.04000;87.3125;102;59;0.36166
6622940;-0.02000;89.0625;102;59;0.35336
6622950;-0.00500;89.9375;102;59;0.34921
6622960;0.01000;91.0000;102;59;0.34505
6622970;0.03000;92.1875;102;59;0.34115
6622980;0.08000;95.8125;102;59;0.33016
6622990;0.08000;95.8125;102;59;0.33016
6623000;0.09500;96.8125;102;60;0.32674
6623010;0.09000;97.6250;102;60;0.32332
6623020;0.02500;99.1250;102;60;0.32552
6623030;-0.00500;99.3125;102;60;0.32332
6623040;-0.00500;99.3125;102;60;0.32332
6623050;-0.06000;99.3125;102;60;0.31380
6623060;-0.07500;99.1250;102;60;0.31062
6623070;-0.07500;99.1250;102;60;0.31062
6623080;-0.08000;98.5000;102;60;0.30403
6623090;-0.08000;98.5000;102;60;0.30403
6623100;-0.08000;97.5000;102;60;0.29768
6623110;-0.08000;96.0625;102;60;0.29646
6623120;-0.08000;96.0625;102;60;0.29646
6623130;-0.08000;95.1250;102;60;0.29695
6623140;-0.07500;92.5000;102;60;0.30501
6623150;-0.07500;90.8125;102;60;0.31404
6623160;-0.07500;88.8125;102;60;0.32723
6623170;-0.07500;86.7500;102;60;0.34457
6623180;-0.07500;83.4375;102;60;0.38779
6623190;-0.07000;81.7500;102;60;0.43687
6623200;-0.07000;81.7500;102;60;0.43687
6623210;-0.06500;80.6250;102;60;0.50110
6623220;-0.06500;80.6250;102;60;0.50110
6623230;-0.06500;80.1875;102;60;0.52112
6623240;-0.06500;79.1875;102;60;0.56044
6623250;-0.06500;79.1875;102;60;0.56044
6623260;-0.06500;78.0000;102;60;0.59683
6623270;-0.06000;77.3750;102;60;0.61368
6623280;-0.05500;76.7500;102;60;0.62955
6623290;-0.05500;76.1875;102;60;0.64469
6623300;-0.05500;74.6250;102;60;0.68230
6623310;-0.05500;74.1875;102;60;0.69084
6623320;-0.05500;74.1875;102;60;0.69084
6623330;-0.05500;72.9375;102;60;0.71819
6623340;-0.05500;72.9375;102;60;0.71819
6623350;-0.05500;72.5000;102;60;0.72674
6623360;-0.05500;71.6875;102;60;0.74042
6623370;-0.05500;70.8750;102;60;0.75018
6623380;-0.05500;70.8750;102;60;0.75018
6623390;-0.04000;70.1250;102;60;0.75458
6623400;-0.04000;70.1250;102;60;0.75458
6623410;-0.02500;69.6875;102;60;0.75458
6623420;-0.00500;68.9375;102;60;0.74847
6623430;0.00500;68.5625;102;60;0.74359
6623440;-0.00500;67.8125;102;60;0.73016
6623450;-0.00500;67.8125;102;60;0.73016
6623460;-0.02500;67.0000;102;60;0.71233
6623470;-0.03500;66.2500;102;60;0.69231
6623480;-0.03500;66.2500;102;60;0.69231
6623490;-0.05500;65.8750;102;60;0.68205
6623500;-0.07000;64.7500;102;60;0.65348
6623510;-0.07000;64.3750;102;60;0.64518
6623520;-0.07000;64.3750;102;60;0.64518
6623530;-0.08500;64.0625;102;60;0.63663
6623540;0.34000;63.0625;102;60;0.61050
6623550;0.77500;62.7500;102;60;0.60171
6623560;0.77500;62.7500;102;60;0.60171
6623570;0.62000;62.0625;102;60;0.57607
6623580;0.19500;61.8125;102;60;0.56801
6623590;0.19500;61.8125;102;60;0.56801
6623600;-0.09500;61.2500;102;60;0.55189
6623610;-0.09500;61.2500;102;60;0.55189
6623620;-0.14500;60.3750;102;60;0.53040
6623630;-0.14500;60.3750;102;60;0.53040
6623640;-0.15500;60.0000;102;60;0.51453
6623650;-0.15500;59.5625;102;60;0.49915
6623660;-0.15500;59.5625;102;60;0.49915
6623670;-0.15500;59.1250;102;60;0.48400
6623680;-0.15500;58.8750;102;60;0.47668
6623690;-0.15500;58.8750;102;60;0.47668
6623700;-0.13500;58.1875;102;60;0.45641
6623710;-0.13500;58.1875;102;60;0.45641
6623720;-0.13000;58.0625;102;60;0.45128
6623730;-0.12500;58.0000;102;60;0.44518
6623740;-0.10000;59.6250;102;60;0.42589
6623750;-0.09000;61.8750;102;60;0.41954
6623760;-0.08500;65.4375;102;60;0.41294
6623770;-0.07500;75.0625;102;60;0.40024
6623780;-0.07500;75.0625;102;60;0.40024
6623790;-0.06500;83.0625;102;60;0.38730
6623800;-0.05500;85.6250;102;60;0.38144
6623810;-0.05500;85.6250;102;60;0.38144
6623820;-0.03500;88.5000;102;60;0.37314
6623830;-0.02500;89.3125;102;60;0.36850
6623840;0.00500;91.0625;102;60;0.35800
6623850;0.00500;91.0625;102;60;0.35800
6623860;0.05000;94.8750;102;60;0.34286
6623870;0.07500;96.1250;102;60;0.33797
6623880;0.07500;96.1250;102;60;0.33797
6623890;0.11000;99.0000;102;60;0.32454
6623900;0.09500;99.5625;102;60;0.32161
6623910;0.09500;99.5625;102;60;0.32161
6623920;0.06000;100.0625;102;60;0.31917
6623930;-0.01500;100.5000;102;60;0.30867
6623940;-0.04000;100.4375;102;60;0.30501
6623950;-0.04000;100.4375;102;60;0.30501
6623960;-0.06500;100.0625;102;60;0.29792
6623970;-0.07500;99.4375;102;60;0.29280
6623980;-0.07500;99.4375;102;60;0.29280
6623990;-0.07500;98.4375;102;60;0.28962
6624000;-0.07500;97.7500;102;60;0.28987
6624010;-0.07500;97.7500;102;60;0.28987
6624020;-0.07500;94.8125;102;60;0.29866
6624030;-0.07500;94.8125;102;60;0.29866
6624040;-0.07500;93.3750;102;60;0.30623
6624050;-0.07500;87.6250;102;60;0.35214
6624060;-0.07500;87.6250;102;60;0.35214
6624070;-0.07500;85.7500;102;60;0.37411
6624080;-0.07500;84.3125;102;60;0.39780
6624090;-0.06500;83.2500;102;60;0.42247
6624100;-0.06500;82.1875;102;60;0.47106
6624110;-0.06500;81.4375;102;60;0.50891
6624120;-0.06500;81.0000;102;60;0.52796
6624130;-0.06500;81.0000;102;60;0.52796
6624140;-0.06500;80.0000;102;60;0.56557
6624150;-0.06500;78.8125;102;60;0.60073
6624160;-0.06500;78.8125;102;60;0.60073
6624170;-0.06500;78.2500;102;60;0.61709
6624180;-0.06000;76.5625;102;60;0.66203
6624190;-0.06000;76.5625;102;60;0.66203
6624200;-0.05500;76.0625;102;60;0.67546
6624210;-0.06000;75.1875;102;60;0.69475
6624220;-0.06000;74.7500;102;60;0.70427
6624230;-0.06000;74.3125;102;60;0.71380
6624240;-0.06500;73.9375;102;60;0.72234
6624250;-0.06500;73.5000;102;60;0.73016
6624260;-0.06500;72.6250;102;60;0.74261
6624270;-0.06500;72.2500;102;60;0.74750
6624280;-0.06500;71.8125;102;60;0.75140
6624290;-0.05500;71.4375;102;60;0.75385
6624300;-0.04500;70.6250;102;60;0.75507
6624310;-0.02500;70.2500;102;60;0.75336
6624320;-0.00500;69.5625;102;60;0.74554
6624330;-0.00500;68.8750;102;60;0.73284
6624340;-0.00500;68.8750;102;60;0.73284
6624350;-0.02500;68.5000;102;60;0.72479
6624360;-0.03500;68.1250;102;60;0.71551
6624370;-0.06500;67.0000;102;60;0.68620
6624380;-0.08000;66.6250;102;60;0.67692
6624390;-0.08000;66.6250;102;60;0.67692
6624400;-0.07000;66.0000;102;60;0.65910
6624410;-0.07000;66.0000;102;60;0.65910
6624420;-0.08500;65.3125;102;60;0.64200
6624430;-0.08500;65.0000;102;60;0.63321
6624440;0.10000;64.6875;102;60;0.62418
6624450;0.85500;63.8750;102;60;0.59707
6624460;0.85500;63.8750;102;60;0.59707
6624470;0.43500;63.3750;102;60;0.57949
6624480;0.07000;63.1250;102;60;0.57094
6624490;-0.06500;62.6250;102;60;0.55458
6624500;-0.12000;62.3750;102;60;0.54750
6624510;-0.12000;62.3750;102;60;0.54750
6624520;-0.15000;61.8750;102;60;0.53407
6624530;-0.15000;61.8750;102;60;0.53407
6624540;-0.15000;61.4375;102;60;0.51966
6624550;-0.15000;61.0000;102;60;0.50549
6624560;-0.14500;60.8125;102;60;0.49841
6624570;-0.14500;60.8125;102;60;0.49841
6624580;-0.14500;60.3125;102;60;0.48376
6624590;-0.14500;60.0625;102;60;0.47668
6624600;-0.14500;59.8750;102;60;0.46984
6624610;-0.13500;59.6875;102;60;0.46422
6624620;-0.13000;59.8750;102;60;0.44762
6624630;-0.12500;60.8125;102;60;0.44176
6624640;-0.12500;60.8125;102;60;0.44176
6624650;-0.11500;70.3750;102;60;0.42344
6624660;-0.11000;75.3750;102;60;0.41734
6624670;-0.11000;75.3750;102;60;0.41734
6624680;-0.09000;84.0625;102;60;0.40586
6624690;-0.07500;89.1875;102;60;0.39487
6624700;-0.07500;89.1875;102;60;0.39487
6624710;-0.05000;91.6250;102;60;0.38730
6624720;-0.05000;91.6250;102;60;0.38730
6624730;-0.03000;92.5000;102;60;0.38315
6624740;-0.01000;94.8125;102;60;0.37436
6624750;0.01000;96.1875;102;60;0.36996
6624760;0.03000;97.6875;102;60;0.36557
6624770;0.05500;99.0625;102;60;0.36117
6624780;0.08000;101.4375;102;60;0.35287
6624790;0.09500;102.3125;102;60;0.34896
6624800;0.09000;103.0625;102;60;0.34505
6624810;0.06500;103.5625;102;60;0.34261
6624820;0.02000;104.2500;102;60;0.33822
6624830;-0.03500;104.4375;102;60;0.33211
6624840;-0.05500;104.4375;102;60;0.32894
6624850;-0.05500;104.4375;102;60;0.32894
6624860;-0.08000;103.8750;102;60;0.31990
6624870;-0.08000;103.8750;102;60;0.31990
6624880;-0.08500;103.5000;102;60;0.31722
6624890;-0.09500;101.8125;102;60;0.31282
6624900;-0.09500;101.8125;102;60;0.31282
6624910;-0.09500;101.0000;102;60;0.31453
6624920;-0.09000;98.8750;102;60;0.32552
6624930;-0.09000;98.8750;102;60;0.32552
6624940;-0.08500;93.6875;102;60;0.36825
6624950;-0.08500;93.6875;102;60;0.36825
6624960;-0.08500;91.5625;102;60;0.38901
6624970;-0.08000;86.8125;102;60;0.46056
6624980;-0.07500;86.0000;102;60;0.48449
6624990;-0.07500;86.0000;102;60;0.48449
6625000;-0.07500;84.8750;101;59;0.52723
6625010;-0.07500;84.8750;101;59;0.52723
6625020;-0.07500;84.0000;101;59;0.56313
6625030;-0.07500;83.0000;101;59;0.60000
6625040;-0.07500;82.4375;101;59;0.61807
6625050;-0.07500;81.2500;101;59;0.64957
6625060;-0.07500;80.6250;101;59;0.66129
6625070;-0.07500;80.0625;101;59;0.67497
6625080;-0.07500;80.0625;101;59;0.67497
6625090;-0.07000;78.4375;101;59;0.71624
6625100;-0.07500;78.0000;101;59;0.72601
6625110;-0.07000;77.5000;101;59;0.73407
6625120;-0.07000;77.5000;101;59;0.73407
6625130;-0.06500;77.0625;101;59;0.74310
6625140;-0.07000;76.1875;101;59;0.76020
6625150;-0.07000;75.3750;101;59;0.77387
6625160;-0.06500;74.9375;101;59;0.77900
6625170;-0.06500;74.9375;101;59;0.77900
6625180;-0.06500;73.6875;101;59;0.78706
6625190;-0.06000;73.2500;101;59;0.78681
6625200;-0.06000;73.2500;101;59;0.78681
6625210;-0.04500;72.8750;101;59;0.78462
6625220;-0.02000;71.7500;101;59;0.76972
6625230;-0.02500;71.3750;101;59;0.76190
6625240;-0.02500;71.3750;101;59;0.76190
6625250;-0.14500;70.1875;101;59;0.73211
6625260;-0.16000;69.8125;101;59;0.72088
6625270;-0.16000;69.8125;101;59;0.72088
6625280;-0.16000;69.5000;101;59;0.70965
6625290;-0.13500;68.4375;101;59;0.67668
6625300;-0.13500;68.4375;101;59;0.67668
6625310;-0.12000;68.0625;101;59;0.66642
6625320;-0.08500;67.4375;101;59;0.64664
6625330;-0.08500;67.4375;101;59;0.64664
6625340;0.58000;66.5000;101;59;0.61685
6625350;0.58000;66.5000;101;59;0.61685
6625360;0.73000;65.9375;101;59;0.59707
6625370;0.31000;65.4375;101;59;0.57729
6625380;0.31000;65.4375;101;59;0.57729
6625390;-0.09500;64.9375;101;59;0.55800
6625400;-0.13500;64.6875;101;59;0.54945
6625410;-0.13500;64.6875;101;59;0.54945
6625420;-0.16000;63.9375;101;59;0.52454
6625430;-0.16000;63.9375;101;59;0.52454
6625440;-0.16000;63.4375;101;59;0.50794
6625450;-0.16000;63.0000;101;59;0.49158
6625460;-0.16000;63.0000;101;59;0.49158
6625470;-0.16000;62.8125;101;59;0.48376
6625480;-0.15500;62.3125;101;59;0.46862
6625490;-0.15500;62.3125;101;59;0.46862
6625500;-0.15500;61.8750;101;59;0.45421
6625510;-0.14500;61.8125;101;59;0.44225
6625520;-0.14500;61.8125;101;59;0.44225
6625530;-0.14500;62.1250;101;59;0.43614
6625540;-0.13500;67.8750;101;59;0.41587
6625550;-0.13500;67.8750;101;59;0.41587
6625560;-0.12500;72.2500;101;59;0.40928
6625570;-0.11500;77.2500;101;59;0.40269
6625580;-0.10500;86.0000;101;59;0.39023
6625590;-0.09000;89.0000;101;59;0.38437
6625600;-0.07500;91.1250;101;59;0.37851
6625610;-0.05500;92.5000;101;59;0.37411
6625620;-0.03500;94.3125;101;59;0.36557
6625630;0.00000;96.4375;101;59;0.35604
6625640;0.02000;97.7500;101;59;0.35140
6625650;0.02000;97.7500;101;59;0.35140
6625660;0.04500;100.3125;101;59;0.34212
6625670;0.09500;102.5000;101;59;0.33382
6625680;0.11000;103.3125;101;59;0.32967
6625690;0.11000;103.3125;101;59;0.32967
6625700;0.08500;104.8750;101;59;0.32186
6625710;0.05000;105.0625;101;59;0.31966
6625720;0.05000;105.0625;101;59;0.31966
6625730;-0.01500;105.1875;101;59;0.31160
6625740;-0.03500;105.0625;101;59;0.30916
6625750;-0.03500;105.0625;101;59;0.30916
6625760;-0.04500;104.8125;101;59;0.30696
6625770;-0.05000;104.5000;101;59;0.30452
6625780;-0.05500;103.5625;101;59;0.30012
6625790;-0.05500;102.8750;101;59;0.29890
6625800;-0.05500;101.3750;101;59;0.30085
6625810;-0.05500;101.3750;101;59;0.30085
6625820;-0.05000;97.6875;101;59;0.32308
6625830;-0.05500;95.9375;101;59;0.33773
6625840;-0.05500;93.9375;101;59;0.35580
6625850;-0.05500;89.7500;101;59;0.40049
6625860;-0.05500;88.0000;101;59;0.42515
6625870;-0.05500;88.0000;101;59;0.42515
6625880;-0.04500;85.7500;101;59;0.47448
6625890;-0.04500;85.7500;101;59;0.47448
6625900;-0.04500;84.5000;101;59;0.51795
6625910;-0.04000;83.5625;101;59;0.55409
6625920;-0.04000;83.5625;101;59;0.55409
6625930;-0.04000;83.0625;101;59;0.57338
6625940;-0.03500;81.2500;101;59;0.62857
6625950;-0.03500;81.2500;101;59;0.62857
6625960;-0.03500;80.5625;101;59;0.64567
6625970;-0.03500;78.6250;101;59;0.69182
6625980;-0.03500;78.6250;101;59;0.69182
6625990;-0.03000;77.5000;101;59;0.71844
6626000;-0.03000;77.5000;101;59;0.71844
6626010;-0.02500;77.0000;101;59;0.72772
6626020;-0.02500;75.5000;101;59;0.75092
6626030;-0.02500;75.0625;101;59;0.75824
6626040;-0.02500;75.0625;101;59;0.75824
6626050;-0.02500;73.5625;101;59;0.77460
6626060;-0.02500;73.5625;101;59;0.77460
6626070;-0.02500;73.1250;101;59;0.77802
6626080;-0.00500;72.1875;101;59;0.78071
6626090;0.01000;71.3125;101;59;0.77753
6626100;0.01000;71.3125;101;59;0.77753
6626110;0.02500;70.4375;101;59;0.76752
6626120;0.02000;70.0000;101;59;0.76068
6626130;0.02000;70.0000;101;59;0.76068
6626140;-0.00500;68.7500;101;59;0.73187
6626150;-0.00500;68.7500;101;59;0.73187
6626160;-0.03000;68.0000;101;59;0.70842
6626170;-0.03000;68.0000;101;59;0.70842
6626180;-0.04500;67.2500;101;59;0.68400
6626190;-0.04000;66.5000;101;59;0.65983
6626200;-0.04000;66.5000;101;59;0.65983
6626210;-0.05500;66.1250;101;59;0.64908
6626220;-0.06000;65.0625;101;59;0.61709
6626230;0.52000;64.7500;101;59;0.60586
6626240;0.52000;64.7500;101;59;0.60586
6626250;0.87000;63.8125;101;59;0.57265
6626260;0.87000;63.8125;101;59;0.57265
6626270;0.48000;63.5625;101;59;0.56166
6626280;-0.03000;62.9375;101;59;0.54017
6626290;-0.03000;62.9375;101;59;0.54017
6626300;-0.08500;62.3750;101;59;0.51990
6626310;-0.12000;61.7500;101;59;0.50183
6626320;-0.12500;61.5000;101;59;0.49206
6626330;-0.12500;61.5000;101;59;0.49206
6626340;-0.12500;60.7500;101;59;0.46325
6626350;-0.12500;60.7500;101;59;0.46325
6626360;-0.13000;60.1875;101;59;0.44444
6626370;-0.13000;60.1875;101;59;0.44444
6626380;-0.13000;59.5625;101;59;0.42662
6626390;-0.12500;59.2500;101;59;0.41783
6626400;-0.11500;58.8125;101;59;0.40147
6626410;-0.11500;58.8125;101;59;0.40147
6626420;-0.11000;58.6875;101;59;0.38730
6626430;-0.10000;59.6250;101;59;0.37167
6626440;-0.09500;61.3125;101;59;0.36386
6626450;-0.09000;68.3125;101;59;0.34896
6626460;-0.08000;73.0000;101;59;0.34164
6626470;-0.08000;73.0000;101;59;0.34164
6626480;-0.05500;81.1875;101;59;0.32674
6626490;-0.05500;81.1875;101;59;0.32674
6626500;-0.04500;86.0625;101;59;0.31355
6626510;-0.01500;88.3125;101;59;0.30330
6626520;0.00500;89.0625;101;59;0.29744
6626530;0.00500;89.0625;101;59;0.29744
6626540;0.05000;92.0000;101;59;0.27912
6626550;0.08000;93.1250;101;59;0.27326
6626560;0.08000;93.1250;101;59;0.27326
6626570;0.10500;94.1875;101;59;0.26764
6626580;0.11500;96.1250;101;59;0.25739
6626590;-0.01000;97.3750;101;59;0.24786
6626600;-0.01000;97.3750;101;59;0.24786
6626610;-0.07500;98.0625;101;59;0.23858
6626620;-0.08500;98.0625;101;59;0.23443
6626630;-0.08500;98.0625;101;59;0.23443
6626640;-0.08000;97.6875;101;59;0.22564
6626650;-0.07500;97.0000;101;59;0.21734
6626660;-0.07500;97.0000;101;59;0.21734
6626670;-0.07500;96.5625;101;59;0.21319
6626680;-0.08500;95.4375;101;59;0.20586
6626690;-0.08500;93.6250;101;59;0.20317
6626700;-0.08500;93.6250;101;59;0.20317
6626710;-0.08500;90.8750;101;59;0.20806
6626720;-0.07500;89.0625;101;59;0.21392
6626730;-0.07500;89.0625;101;59;0.21392
6626740;-0.07500;85.1875;101;59;0.23614
6626750;-0.07500;82.2500;101;59;0.27302
6626760;-0.07500;82.2500;101;59;0.27302
6626770;-0.09500;80.3750;101;59;0.34530
6626780;-0.09500;80.3750;101;59;0.34530
6626790;-0.12500;79.6250;101;59;0.39414
6626800;-0.12500;79.6250;101;59;0.39414
6626810;-0.10500;79.1875;101;59;0.41441
6626820;-0.09500;78.1250;101;59;0.45055
6626830;-0.08500;76.9375;101;59;0.48645
6626840;-0.08500;76.9375;101;59;0.48645
6626850;-0.07500;76.3125;101;59;0.50354
6626860;-0.06500;74.6250;101;59;0.55140
6626870;-0.06500;74.6250;101;59;0.55140
6626880;-0.06500;74.1875;101;59;0.56557
6626890;-0.06000;72.8750;101;59;0.60000
6626900;-0.06000;72.8750;101;59;0.60000
6626910;-0.05500;72.0625;101;59;0.61587
6626920;-0.05500;71.6250;101;59;0.62369
6626930;-0.05500;70.8125;101;59;0.63712
6626940;-0.05500;70.8125;101;59;0.63712
6626950;-0.05500;70.0000;101;59;0.64737
6626960;-0.05000;69.6250;101;59;0.65079
6626970;-0.05000;69.6250;101;59;0.65079
6626980;-0.03500;68.8750;101;59;0.65397
6626990;-0.01500;68.5000;101;59;0.65324
6627000;-0.00500;68.1250;101;59;0.65104
6627010;0.00000;67.7500;101;59;0.64713
6627020;-0.02000;66.6875;101;59;0.62735
6627030;-0.02000;66.6875;101;59;0.62735
6627040;-0.03000;66.3125;101;59;0.61832
6627050;-0.04000;65.9375;101;59;0.60855
6627060;-0.06500;65.1875;101;59;0.58926
6627070;-0.07500;64.8125;101;59;0.58022
6627080;-0.07000;64.5000;101;59;0.57143
6627090;-0.06500;64.1250;101;59;0.56264
6627100;-0.06500;63.1250;101;59;0.53895
6627110;-0.06500;63.1250;101;59;0.53895
6627120;0.18000;62.8750;101;59;0.53138
6627130;0.61500;62.5625;101;59;0.52405
6627140;0.90000;62.0625;101;59;0.50965
6627150;0.78500;61.7500;101;59;0.50232
6627160;0.35000;61.5000;101;59;0.49499
6627170;0.02500;61.1875;101;59;0.48791
6627180;-0.08500;60.6875;101;59;0.47448
6627190;-0.13500;60.4375;101;59;0.46813
6627200;-0.15500;60.1875;101;59;0.46178
6627210;-0.16500;59.4375;101;59;0.44615
6627220;-0.16500;59.4375;101;59;0.44615
6627230;-0.16000;59.1875;101;59;0.44054
6627240;-0.16000;58.6875;101;59;0.42930
6627250;-0.16000;58.1875;101;59;0.41807
6627260;-0.15500;57.9375;101;59;0.41245
6627270;-0.15500;57.9375;101;59;0.41245
6627280;-0.15000;57.6250;101;59;0.40708
6627290;-0.14500;57.1250;101;59;0.39145
6627300;-0.14500;57.1250;101;59;0.39145
6627310;-0.13500;57.4375;101;59;0.38291
6627320;-0.13500;57.4375;101;59;0.38291
6627330;-0.12000;63.5000;101;59;0.36777
6627340;-0.11000;67.8125;101;59;0.36288
6627350;-0.11000;67.8125;101;59;0.36288
6627360;-0.10500;72.5625;101;59;0.35800
6627370;-0.08500;83.3750;101;59;0.34359
6627380;-0.08500;83.3750;101;59;0.34359
6627390;-0.07000;85.1875;101;59;0.33895
6627400;-0.03000;87.1250;101;59;0.33065
6627410;-0.03000;87.1250;101;59;0.33065
6627420;-0.01500;88.6250;101;59;0.32454
6627430;0.03000;90.8125;101;59;0.31697
6627440;0.06000;91.9375;101;59;0.31331
6627450;0.06000;91.9375;101;59;0.31331
6627460;0.08000;94.0000;101;59;0.30623
6627470;0.09500;94.8125;101;59;0.30281
6627480;0.08000;95.5000;101;59;0.29939
6627490;0.05000;96.0000;101;59;0.29597
6627500;0.01000;96.5625;101;59;0.29011
6627510;-0.02500;96.6875;101;59;0.28840
6627520;-0.07500;96.6250;101;59;0.28376
6627530;-0.07500;96.6250;101;59;0.28376
6627540;-0.08500;96.1250;101;59;0.27814
6627550;-0.09500;95.7500;101;59;0.27546
6627560;-0.10000;95.3125;101;59;0.27277
6627570;-0.10500;93.3750;101;59;0.26667
6627580;-0.10500;92.3750;101;59;0.26593
6627590;-0.10500;92.3750;101;59;0.26593
6627600;-0.10000;89.6250;101;59;0.27082
6627610;-0.10000;85.9375;101;59;0.28523
6627620;-0.10000;85.9375;101;59;0.28523
6627630;-0.10000;84.0000;101;59;0.29768
6627640;-0.09500;82.3750;101;59;0.31355
6627650;-0.09500;81.1875;101;59;0.33211
6627660;-0.08500;79.5000;101;59;0.39634
6627670;-0.08500;79.5000;101;59;0.39634
6627680;-0.08500;79.1875;101;59;0.41758
6627690;-0.08000;78.8125;101;59;0.43785
6627700;-0.08500;77.8750;101;59;0.47277
6627710;-0.08000;77.2500;101;59;0.48669
6627720;-0.07500;76.6875;101;59;0.50134
6627730;-0.07500;74.9375;101;59;0.54408
6627740;-0.07500;74.3750;101;59;0.55775
6627750;-0.07000;73.9375;101;59;0.57070
6627760;-0.07000;73.4375;101;59;0.58315
6627770;-0.07000;73.4375;101;59;0.58315
6627780;-0.07000;72.1250;101;59;0.61538
6627790;-0.07000;72.1250;101;59;0.61538
6627800;-0.06500;71.7500;101;59;0.62295
6627810;-0.06500;70.5625;101;59;0.64127
6627820;-0.06500;70.5625;101;59;0.64127
6627830;-0.06500;70.1250;101;59;0.64689
6627840;-0.06500;69.3125;101;59;0.65568
6627850;-0.06500;68.5625;101;59;0.66007
6627860;-0.06500;68.5625;101;59;0.66007
6627870;-0.03000;67.8125;101;59;0.65983
6627880;-0.01500;67.4375;101;59;0.65788
6627890;-0.01500;67.4375;101;59;0.65788
6627900;-0.00500;66.3750;101;59;0.64420
6627910;-0.02500;66.0000;101;59;0.63761
6627920;-0.02500;66.0000;101;59;0.63761
6627930;-0.04000;64.8750;101;59;0.61538
6627940;-0.04000;64.8750;101;59;0.61538
6627950;-0.06000;64.5000;101;59;0.60781
6627960;-0.06500;63.8750;101;59;0.59267
6627970;-0.06500;63.8750;101;59;0.59267
6627980;-0.06000;63.1875;101;59;0.57753
6627990;-0.07500;62.5000;101;59;0.56288
6628000;-0.07500;62.5000;101;59;0.56288
6628010;0.12000;62.1875;101;59;0.55629
6628020;0.53500;61.6250;101;59;0.54237
6628030;0.89000;61.3750;101;59;0.53504
6628040;0.85500;61.1875;101;59;0.52747
6628050;0.45500;60.9375;101;59;0.52015
6628060;-0.04500;60.3125;101;59;0.49963
6628070;-0.04500;60.3125;101;59;0.49963
6628080;-0.12500;59.8125;101;59;0.48669
6628090;-0.14000;59.3125;101;59;0.47473
6628100;-0.14000;59.3125;101;59;0.47473
6628110;-0.14500;59.0625;101;59;0.46960
6628120;-0.14000;58.5625;101;59;0.45812
6628130;-0.14000;58.5625;101;59;0.45812
6628140;-0.13500;57.8125;101;59;0.44103
6628150;-0.13500;57.8125;101;59;0.44103
6628160;-0.13000;57.2500;101;59;0.42882
6628170;-0.13000;56.8125;101;59;0.41709
6628180;-0.13000;56.8125;101;59;0.41709
6628190;-0.12500;56.6875;101;59;0.40684
6628200;-0.12500;57.0000;101;59;0.40293
6628210;-0.12500;57.0000;101;59;0.40293
6628220;-0.10500;62.8125;101;59;0.38828
6628230;-0.10500;62.8125;101;59;0.38828
6628240;-0.10000;67.1875;101;59;0.38315
6628250;-0.10000;72.1250;101;59;0.37802
6628260;-0.07500;83.6250;101;59;0.36361
6628270;-0.07500;83.6250;101;59;0.36361
6628280;-0.06500;85.6250;101;59;0.35922
6628290;-0.05000;86.9375;101;59;0.35482
6628300;-0.03500;88.5625;101;59;0.34750
6628310;-0.01500;89.4375;101;59;0.34481
6628320;0.01000;90.5000;101;59;0.34188
6628330;0.03000;94.2500;101;59;0.33089
6628340;0.06000;94.2500;101;59;0.33089
6628350;0.10500;96.2500;101;59;0.32357
6628360;0.10500;96.2500;101;59;0.32357
6628370;0.08000;98.0625;101;59;0.31209
6628380;0.08000;98.0625;101;59;0.31209
6628390;0.04000;98.3125;101;59;0.30794
6628400;0.00000;98.4375;101;59;0.30525
6628410;-0.05500;98.3125;101;59;0.29866
6628420;-0.05500;98.3125;101;59;0.29866
6628430;-0.07500;98.1250;101;59;0.29597
6628440;-0.08500;97.8125;101;59;0.29328
6628450;-0.09500;96.3750;101;59;0.28571
6628460;-0.09500;96.3750;101;59;0.28571
6628470;-0.09500;95.6875;101;59;0.28376
6628480;-0.09500;94.8750;101;59;0.28278
6628490;-0.09000;91.0625;101;59;0.29182
6628500;-0.09000;91.0625;101;59;0.29182
6628510;-0.08500;89.2500;101;59;0.29963
6628520;-0.08500;85.2500;101;59;0.32625
6628530;-0.08500;85.2500;101;59;0.32625
6628540;-0.08000;82.1875;101;59;0.36557
6628550;-0.07500;80.8125;101;59;0.41074
6628560;-0.08000;80.4375;101;59;0.43321
6628570;-0.07500;79.7500;101;59;0.47448
6628580;-0.07500;79.2500;101;59;0.49328
6628590;-0.07500;79.2500;101;59;0.49328
6628600;-0.07500;78.1875;101;59;0.52259
6628610;-0.07500;77.0000;101;59;0.55165
6628620;-0.07500;77.0000;101;59;0.55165
6628630;-0.07500;75.7500;101;59;0.57998
6628640;-0.07500;75.1875;101;59;0.59365
6628650;-0.07500;75.1875;101;59;0.59365
6628660;-0.07000;73.8125;101;59;0.63077
6628670;-0.07000;73.8125;101;59;0.63077
6628680;-0.06500;72.9375;101;59;0.65104
6628690;-0.06500;72.1250;101;59;0.66642
6628700;-0.06500;72.1250;101;59;0.66642
6628710;-0.06500;71.3125;101;59;0.67668
6628720;-0.06500;70.8750;101;59;0.68181
6628730;-0.06500;70.8750;101;59;0.68181
6628740;-0.05500;69.6250;101;59;0.69255
6628750;-0.04500;69.2500;101;59;0.69426
6628760;-0.04500;69.2500;101;59;0.69426
6628770;-0.03000;68.8750;101;59;0.69475
6628780;-0.01500;68.1250;101;59;0.69133
6628790;-0.00500;67.7500;101;59;0.68767
6628800;0.00000;67.3750;101;59;0.68278
6628810;-0.02500;66.3125;101;59;0.66325
6628820;-0.02500;66.3125;101;59;0.66325
6628830;-0.03500;65.9375;101;59;0.65543
6628840;-0.06500;65.1875;101;59;0.63907
6628850;-0.06500;65.1875;101;59;0.63907
6628860;-0.07000;64.5000;101;59;0.62271
6628870;-0.07000;63.8125;101;59;0.60659
6628880;-0.07000;63.8125;101;59;0.60659
6628890;-0.09500;63.4375;101;59;0.59878
6628900;0.29000;62.5000;101;59;0.57631
6628910;0.29000;62.5000;101;59;0.57631
6628920;0.73000;62.2500;101;59;0.56899
6628930;0.68000;61.4375;101;59;0.54676
6628940;0.68000;61.4375;101;59;0.54676
6628950;0.24500;61.1875;101;59;0.53968
6628960;-0.09000;60.6875;101;59;0.52601
6628970;-0.09000;60.6875;101;59;0.52601
6628980;-0.12500;60.1875;101;59;0.51209
6628990;-0.14500;59.8750;101;59;0.50525
6629000;-0.15000;59.4375;102;59;0.49377
6629010;-0.15000;59.4375;102;59;0.49377
6629020;-0.15500;58.6875;102;59;0.47521
6629030;-0.15000;58.4375;102;59;0.46886
6629040;-0.15000;58.4375;102;59;0.46886
6629050;-0.14500;57.6250;102;59;0.45031
6629060;-0.14500;57.6250;102;59;0.45031
6629070;-0.14000;57.2500;102;59;0.43810
6629080;-0.14000;57.2500;102;59;0.43810
6629090;-0.13500;57.1875;102;59;0.43223
6629100;-0.13000;57.8125;102;59;0.42198
6629110;-0.12500;59.1250;102;59;0.41783
6629120;-0.11500;61.5625;102;59;0.41294
6629130;-0.11000;65.3750;102;59;0.40781
6629140;-0.08500;79.2500;102;59;0.39121
6629150;-0.08500;79.2500;102;59;0.39121
6629160;-0.07500;82.6875;102;59;0.38632
6629170;-0.04500;87.8125;102;59;0.37241
6629180;-0.04500;87.8125;102;59;0.37241
6629190;-0.01500;89.5000;102;59;0.36386
6629200;0.00000;90.5000;102;59;0.36068
6629210;0.00000;90.5000;102;59;0.36068
6629220;0.02500;92.9375;102;59;0.35214
6629230;0.07000;95.3750;102;59;0.34335
6629240;0.09000;96.4375;102;59;0.33895
6629250;0.09500;98.1875;102;59;0.33040
6629260;0.07500;98.7500;102;59;0.32601
6629270;0.07500;98.7500;102;59;0.32601
6629280;0.00500;99.4375;102;59;0.31746
6629290;0.00500;99.4375;102;59;0.31746
6629300;-0.02500;99.6250;102;59;0.31038
6629310;-0.05500;99.5000;102;59;0.30818
6629320;-0.07500;99.3125;102;59;0.30525
6629330;-0.09500;98.3125;102;59;0.29524
6629340;-0.10500;97.7500;102;59;0.29182
6629350;-0.10500;97.7500;102;59;0.29182
6629360;-0.11000;96.4375;102;59;0.28645
6629370;-0.11000;96.4375;102;59;0.28645
6629380;-0.11000;94.5000;102;59;0.28694
6629390;-0.10500;91.6250;102;59;0.29817
6629400;-0.10500;89.8125;102;59;0.30867
6629410;-0.10500;85.7500;102;59;0.34286
6629420;-0.10500;85.7500;102;59;0.34286
6629430;-0.09500;82.8125;102;59;0.39048
6629440;-0.09000;81.9375;102;59;0.41636
6629450;-0.09000;81.9375;102;59;0.41636
6629460;-0.08500;80.6250;102;59;0.49084
6629470;-0.08500;80.6250;102;59;0.49084
6629480;-0.08500;80.2500;102;59;0.51331
6629490;-0.07500;78.6250;102;59;0.56728
6629500;-0.07500;78.6250;102;59;0.56728
6629510;-0.07000;77.4375;102;59;0.60000
6629520;-0.07000;77.4375;102;59;0.60000
6629530;-0.07500;76.7500;102;59;0.61612
6629540;-0.08000;75.0625;102;59;0.66178
6629550;-0.08000;75.0625;102;59;0.66178
6629560;-0.08000;74.5625;102;59;0.67546
6629570;-0.06500;73.3125;102;59;0.71184
6629580;-0.06500;72.8750;102;59;0.72210
6629590;-0.06500;72.5000;102;59;0.72943
6629600;-0.06500;72.5000;102;59;0.72943
6629610;-0.06000;71.1875;102;59;0.74652
6629620;-0.06000;71.1875;102;59;0.74652
6629630;-0.05500;70.7500;102;59;0.75140
6629640;-0.05500;70.3125;102;59;0.75531
6629650;-0.03500;69.1875;102;59;0.76044
6629660;-0.03500;69.1875;102;59;0.76044
6629670;-0.00500;68.4375;102;59;0.75678
6629680;0.00000;68.1250;102;59;0.75238
6629690;0.00000;68.1250;102;59;0.75238
6629700;-0.02500;67.0000;102;59;0.73138
6629710;-0.02500;67.0000;102;59;0.73138
6629720;-0.03000;66.6250;102;59;0.72234
6629730;-0.06000;65.5625;102;59;0.69328
6629740;-0.06500;65.1875;102;59;0.68352
6629750;-0.06500;65.1875;102;59;0.68352
6629760;-0.06500;64.8125;102;59;0.67399
6629770;-0.08500;63.8750;102;59;0.64567
6629780;-0.08500;63.8750;102;59;0.64567
6629790;0.24000;63.2500;102;59;0.62735
6629800;0.67500;62.9375;102;59;0.61880
6629810;0.67500;62.9375;102;59;0.61880
6629820;0.93000;62.4375;102;59;0.60098
6629830;0.30000;61.9375;102;59;0.58315
6629840;0.01000;61.6875;102;59;0.57436
6629850;0.01000;61.6875;102;59;0.57436
6629860;-0.08000;61.1875;102;59;0.55678
6629870;-0.12500;60.9375;102;59;0.54823
6629880;-0.14500;60.4375;102;59;0.53187
6629890;-0.15000;60.0000;102;59;0.51795
6629900;-0.15000;60.0000;102;59;0.51795
6629910;-0.14500;59.7500;102;59;0.51087
6629920;-0.15000;59.3125;102;59;0.49621
6629930;-0.15000;59.3125;102;59;0.49621
6629940;-0.15000;58.8125;102;59;0.48132
6629950;-0.14500;58.3125;102;59;0.46691
6629960;-0.14500;58.3125;102;59;0.46691
6629970;-0.13500;58.0625;102;59;0.44591
6629980;-0.13500;58.5000;102;59;0.43907
6629990;-0.13500;58.5000;102;59;0.43907
6630000;-0.12000;61.8125;101;59;0.42808
6630010;-0.11000;69.8125;101;59;0.41636
6630020;-0.11000;69.8125;101;59;0.41636
6630030;-0.09500;79.1875;101;59;0.40464
6630040;-0.09500;79.1875;101;59;0.40464
6630050;-0.08500;82.8125;101;59;0.39878
