RelativeTimeMilliseconds,ECG,ART,ART (Sys),ART (Dia),PPG
7200000,-0.02500,88.5000,101,59,0.35897
7200010,0.01500,91.3750,101,59,0.34896
7200020,0.01500,91.3750,101,59,0.34896
7200030,0.04000,92.6875,101,59,0.34579
7200040,0.09500,95.1250,101,59,0.33944
7200050,0.09500,95.1250,101,59,0.33944
7200060,0.10500,97.0625,101,59,0.33382
7200070,0.05000,98.2500,101,59,0.33089
7200080,0.05000,98.2500,101,59,0.33089
7200090,-0.03000,98.9375,101,59,0.32430
7200100,-0.03000,98.9375,101,59,0.32430
7200110,-0.07000,98.8125,101,59,0.31990
7200120,-0.07000,98.8125,101,59,0.31990
7200130,-0.08500,98.5625,101,59,0.31746
7200140,-0.09500,97.4375,101,59,0.31038
7200150,-0.09500,97.4375,101,59,0.31038
7200160,-0.09500,96.9375,101,59,0.30940
7200170,-0.09500,96.2500,101,59,0.31013
7200180,-0.09500,94.4375,101,59,0.31795
7200190,-0.09500,93.0625,101,59,0.32601
7200200,-0.08500,91.4375,101,59,0.33724
7200210,-0.09000,89.5000,101,59,0.35165
7200220,-0.09000,83.8750,101,59,0.40879
7200230,-0.09000,83.8750,101,59,0.40879
7200240,-0.08500,82.7500,101,59,0.42979
7200250,-0.08500,82.0625,101,59,0.45055
7200260,-0.08000,81.3125,101,59,0.48938
7200270,-0.07500,81.0000,101,59,0.50501
7200280,-0.07500,80.6250,101,59,0.51868
7200290,-0.07500,80.1875,101,59,0.53309
7200300,-0.07000,79.1250,101,59,0.56215
7200310,-0.06500,78.5000,101,59,0.57607
7200320,-0.06500,77.1875,101,59,0.60269
7200330,-0.06500,76.0000,101,59,0.62784
7200340,-0.06500,76.0000,101,59,0.62784
7200350,-0.06500,75.0625,101,59,0.64982
7200360,-0.06500,74.6250,101,59,0.65934
7200370,-0.06500,74.6250,101,59,0.65934
7200380,-0.06500,73.7500,101,59,0.67155
7200390,-0.07000,73.3750,101,59,0.67741
7200400,-0.07500,72.9375,101,59,0.68327
7200410,-0.07500,71.7500,101,59,0.69621
7200420,-0.07500,71.3750,101,59,0.69866
7200430,-0.07500,71.3750,101,59,0.69866
7200440,-0.06500,70.5625,101,59,0.70012
7200450,-0.06500,70.5625,101,59,0.70012
7200460,-0.10500,69.3750,101,59,0.69109
7200470,-0.11500,69.0000,101,59,0.69621
7200480,-0.11500,69.0000,101,59,0.69621
7200490,-0.06000,67.8750,101,59,0.70085
7200500,-0.06000,67.8750,101,59,0.70085
7200510,-0.07000,67.5000,101,59,0.69328
7200520,-0.06500,66.8125,101,59,0.67521
7200530,-0.06500,66.8125,101,59,0.67521
7200540,-0.08500,65.8125,101,59,0.64713
7200550,-0.07500,65.4375,101,59,0.63761
7200560,-0.07500,65.4375,101,59,0.63761
7200570,-0.08500,64.4375,101,59,0.61001
7200580,-0.08500,64.4375,101,59,0.61001
7200590,0.13000,63.8125,101,59,0.59096
7200600,0.54500,63.5000,101,59,0.58144
7200610,0.54500,63.5000,101,59,0.58144
7200620,0.87500,62.8750,101,59,0.56264
7200630,0.40000,62.3125,101,59,0.54530
7200640,0.08000,62.0625,101,59,0.53700
7200650,0.08000,62.0625,101,59,0.53700
7200660,-0.08500,61.3125,101,59,0.51404
7200670,-0.08500,61.3125,101,59,0.51404
7200680,-0.11500,60.8125,101,59,0.50037
7200690,-0.11500,60.3125,101,59,0.48547
7200700,-0.11500,60.3125,101,59,0.48547
7200710,-0.11500,60.0625,101,59,0.47814
7200720,-0.11500,59.8750,101,59,0.47082
7200730,-0.11500,59.6250,101,59,0.46374
7200740,-0.11500,59.1250,101,59,0.44933
7200750,-0.11500,58.8125,101,59,0.44225
7200760,-0.10500,58.4375,101,59,0.42833
7200770,-0.10500,58.4375,101,59,0.42833
7200780,-0.10000,58.4375,101,59,0.41783
7200790,-0.09500,58.6250,101,59,0.41221
7200800,-0.09500,59.3750,101,59,0.40635
7200810,-0.09500,61.0000,101,59,0.40049
7200820,-0.07500,72.6875,101,59,0.38315
7200830,-0.06500,77.3125,101,59,0.37729
7200840,-0.06500,77.3125,101,59,0.37729
7200850,-0.05500,86.3750,101,59,0.35995
7200860,-0.04000,87.6250,101,59,0.35556
7200870,-0.04000,87.6250,101,59,0.35556
7200880,-0.00500,89.0000,101,59,0.34725
7200890,0.01000,90.7500,101,59,0.33773
7200900,0.01000,90.7500,101,59,0.33773
7200910,0.05500,93.3750,101,59,0.32821
7200920,0.05500,93.3750,101,59,0.32821
7200930,0.07500,94.7500,101,59,0.32381
7200940,0.11000,97.9375,101,59,0.31184
7200950,0.11000,97.9375,101,59,0.31184
7200960,0.09000,98.6875,101,59,0.30818
7200970,0.01000,99.9375,101,59,0.30208
7200980,0.01000,99.9375,101,59,0.30208
7200990,-0.02500,100.0625,101,59,0.29939
7201000,-0.07500,100.0000,101,59,0.29402
7201010,-0.07500,100.0000,101,59,0.29402
7201020,-0.09500,99.3750,101,59,0.28547
7201030,-0.09500,99.0000,101,59,0.28327
7201040,-0.09500,99.0000,101,59,0.28327
7201050,-0.10500,97.2500,101,59,0.28669
7201060,-0.10500,96.2500,101,59,0.29280
7201070,-0.10500,96.2500,101,59,0.29280
7201080,-0.10500,93.5000,101,59,0.31477
7201090,-0.10500,93.5000,101,59,0.31477
7201100,-0.10000,87.5000,101,59,0.37411
7201110,-0.10000,87.5000,101,59,0.37411
7201120,-0.10000,84.2500,101,59,0.42247
7201130,-0.10000,84.2500,101,59,0.42247
7201140,-0.09500,82.7500,101,59,0.46984
7201150,-0.09500,82.0625,101,59,0.51355
7201160,-0.09500,82.0625,101,59,0.51355
7201170,-0.09500,80.8125,101,59,0.56459
7201180,-0.09500,80.3125,101,59,0.58217
7201190,-0.09500,80.3125,101,59,0.58217
7201200,-0.09000,79.6875,101,59,0.59951
7201210,-0.09000,79.0625,101,59,0.61636
7201220,-0.09000,77.8125,101,59,0.64811
7201230,-0.09500,77.2500,101,59,0.66276
7201240,-0.09500,76.7500,101,59,0.67643
7201250,-0.09000,76.2500,101,59,0.68913
7201260,-0.08500,75.3750,101,59,0.71209
7201270,-0.08500,74.9375,101,59,0.72015
7201280,-0.08000,74.0625,101,59,0.73260
7201290,-0.08000,74.0625,101,59,0.73260
7201300,-0.08500,73.2500,101,59,0.74481
7201310,-0.08000,72.3750,101,59,0.75311
7201320,-0.08000,72.3750,101,59,0.75311
7201330,-0.07500,71.9375,101,59,0.75531
7201340,-0.05500,70.8125,101,59,0.75165
7201350,-0.05500,70.8125,101,59,0.75165
7201360,-0.03500,70.3750,101,59,0.74701
7201370,-0.01500,69.1875,101,59,0.72601
7201380,-0.01500,69.1875,101,59,0.72601
7201390,-0.03000,68.8125,101,59,0.71697
7201400,-0.04500,68.3750,101,59,0.70745
7201410,-0.05500,67.3125,101,59,0.67741
7201420,-0.08000,66.8750,101,59,0.66740
7201430,-0.08500,66.5000,101,59,0.65739
7201440,-0.08500,66.5000,101,59,0.65739
7201450,-0.07000,65.4375,101,59,0.62735
7201460,-0.09000,65.1250,101,59,0.61807
7201470,-0.05000,64.8125,101,59,0.60952
7201480,-0.05000,64.8125,101,59,0.60952
7201490,0.21500,64.5000,101,59,0.60049
7201500,0.64500,63.9375,101,59,0.58217
7201510,0.88500,63.6250,101,59,0.57314
7201520,0.28500,63.0625,101,59,0.55507
7201530,0.01000,62.5625,101,59,0.53773
7201540,0.01000,62.5625,101,59,0.53773
7201550,-0.11500,62.0000,101,59,0.52063
7201560,-0.11500,62.0000,101,59,0.52063
7201570,-0.13500,61.7500,101,59,0.51306
7201580,-0.13500,61.2500,101,59,0.49939
7201590,-0.14000,60.8125,101,59,0.48449
7201600,-0.14000,60.8125,101,59,0.48449
7201610,-0.14500,60.0625,101,59,0.46227
7201620,-0.14500,60.0625,101,59,0.46227
7201630,-0.14500,59.8750,101,59,0.45495
7201640,-0.13500,59.3125,101,59,0.44054
7201650,-0.13500,59.3125,101,59,0.44054
7201660,-0.13500,59.0625,101,59,0.42686
7201670,-0.13000,59.0625,101,59,0.42125
7201680,-0.12500,59.3750,101,59,0.41636
7201690,-0.11500,60.2500,101,59,0.41050
7201700,-0.10500,65.1875,101,59,0.39805
7201710,-0.09500,69.5000,101,59,0.39170
7201720,-0.08000,78.9375,101,59,0.37924
7201730,-0.08000,78.9375,101,59,0.37924
7201740,-0.07000,85.5625,101,59,0.36703
7201750,-0.04500,88.6875,101,59,0.35629
7201760,-0.04500,88.6875,101,59,0.35629
7201770,-0.02500,89.5625,101,59,0.34554
7201780,0.01000,92.1250,101,59,0.34164
7201790,0.03000,93.3750,101,59,0.33748
7201800,0.03000,93.3750,101,59,0.33748
7201810,0.06000,94.6875,101,59,0.33358
7201820,0.09000,97.2500,101,59,0.32625
7201830,0.11000,98.3750,101,59,0.32259
7201840,0.10000,100.0000,101,59,0.31477
7201850,0.06500,100.9375,101,59,0.30672
7201860,0.06500,100.9375,101,59,0.30672
7201870,-0.01000,101.3750,101,59,0.30208
7201880,-0.04000,101.5000,101,59,0.29963
7201890,-0.04000,101.5000,101,59,0.29963
7201900,-0.07000,101.1875,101,59,0.29182
7201910,-0.07500,100.8750,101,59,0.28938
7201920,-0.07500,100.5000,101,59,0.28742
7201930,-0.07500,100.5000,101,59,0.28742
7201940,-0.08000,99.3750,101,59,0.28767
7201950,-0.07500,98.6875,101,59,0.29133
7201960,-0.07500,96.6875,101,59,0.30794
7201970,-0.07500,96.6875,101,59,0.30794
7201980,-0.07500,91.4375,101,59,0.35629
7201990,-0.07500,91.4375,101,59,0.35629
7202000,-0.07500,89.2500,101,60,0.37851
7202010,-0.07500,84.6875,101,60,0.45104
7202020,-0.07500,84.6875,101,60,0.45104
7202030,-0.07000,84.0625,101,60,0.47448
7202040,-0.06500,83.6875,101,60,0.49719
7202050,-0.06000,83.0625,101,60,0.53944
7202060,-0.05500,82.1875,101,60,0.57460
7202070,-0.05500,81.6875,101,60,0.58877
7202080,-0.05500,81.1250,101,60,0.60415
7202090,-0.06000,79.8125,101,60,0.63590
7202100,-0.06000,79.8125,101,60,0.63590
7202110,-0.06000,79.1875,101,60,0.65128
7202120,-0.05500,78.0000,101,60,0.68010
7202130,-0.05500,78.0000,101,60,0.68010
7202140,-0.05500,77.0625,101,60,0.70647
7202150,-0.05500,76.6250,101,60,0.71795
7202160,-0.05500,76.1875,101,60,0.72821
7202170,-0.05500,75.8125,101,60,0.73553
7202180,-0.05500,74.9375,101,60,0.74628
7202190,-0.05500,74.5000,101,60,0.75165
7202200,-0.05500,73.6875,101,60,0.76044
7202210,-0.05000,72.8750,101,60,0.76435
7202220,-0.04500,72.4375,101,60,0.76410
7202230,-0.03500,72.0625,101,60,0.76215
7202240,-0.03500,72.0625,101,60,0.76215
7202250,-0.01500,71.6875,101,60,0.75824
7202260,-0.00500,70.8750,101,60,0.74505
7202270,0.00500,70.5000,101,60,0.73675
7202280,0.00000,70.1250,101,60,0.72772
7202290,-0.01000,69.7500,101,60,0.71795
7202300,-0.01500,69.0000,101,60,0.69744
7202310,-0.02500,68.5625,101,60,0.68718
7202320,-0.05000,68.2500,101,60,0.67717
7202330,-0.06500,67.8750,101,60,0.66740
7202340,-0.06000,66.8125,101,60,0.63932
7202350,-0.06000,66.8125,101,60,0.63932
7202360,-0.06500,66.1250,101,60,0.62100
7202370,0.10500,65.4375,101,60,0.60391
7202380,0.10500,65.4375,101,60,0.60391
7202390,0.50000,65.1875,101,60,0.59463
7202400,0.80500,64.6250,101,60,0.57582
7202410,0.43000,64.1250,101,60,0.55849
7202420,0.43000,64.1250,101,60,0.55849
7202430,-0.06000,63.5625,101,60,0.54164
7202440,-0.11000,63.2500,101,60,0.53358
7202450,-0.11000,63.2500,101,60,0.53358
7202460,-0.14500,62.5625,101,60,0.51087
7202470,-0.14500,62.3125,101,60,0.50452
7202480,-0.14500,62.3125,101,60,0.50452
7202490,-0.15000,61.6875,101,60,0.48303
7202500,-0.15000,61.6875,101,60,0.48303
7202510,-0.15000,61.4375,101,60,0.47570
7202520,-0.14500,61.0000,101,60,0.45519
7202530,-0.14500,61.0000,101,60,0.45519
7202540,-0.13500,60.5000,101,60,0.41832
7202550,-0.13000,60.5000,101,60,0.41050
7202560,-0.13000,60.5000,101,60,0.41050
7202570,-0.11500,63.3125,101,60,0.39316
7202580,-0.11500,66.3125,101,60,0.38706
7202590,-0.11500,66.3125,101,60,0.38706
7202600,-0.10000,75.3125,101,60,0.37460
7202610,-0.09000,84.0625,101,60,0.36190
7202620,-0.08000,87.1250,101,60,0.35580
7202630,-0.06500,89.3125,101,60,0.35018
7202640,-0.06500,89.3125,101,60,0.35018
7202650,-0.03500,92.6250,101,60,0.33480
7202660,-0.01500,93.5625,101,60,0.33114
7202670,-0.01500,93.5625,101,60,0.33114
7202680,0.02500,96.1250,101,60,0.32430
7202690,0.05000,99.0000,101,60,0.31600
7202700,0.05000,99.0000,101,60,0.31600
7202710,0.10000,101.5000,101,60,0.30842
7202720,0.10000,101.5000,101,60,0.30842
7202730,0.11000,102.5625,101,60,0.30476
7202740,0.07000,104.6250,101,60,0.29548
7202750,0.07000,104.6250,101,60,0.29548
7202760,0.03000,104.9375,101,60,0.29231
7202770,-0.01000,105.1875,101,60,0.29035
7202780,-0.03500,105.3125,101,60,0.28669
7202790,-0.05500,105.3125,101,60,0.28449
7202800,-0.06500,105.1875,101,60,0.28205
7202810,-0.07500,105.0000,101,60,0.27985
7202820,-0.07500,103.8750,101,60,0.27839
7202830,-0.07500,103.1875,101,60,0.28230
7202840,-0.07500,103.1875,101,60,0.28230
7202850,-0.08000,102.3750,101,60,0.28913
7202860,-0.07500,98.8125,101,60,0.32601
7202870,-0.07500,97.0000,101,60,0.34481
7202880,-0.07500,95.0000,101,60,0.36679
7202890,-0.06500,90.8750,101,60,0.41587
7202900,-0.06500,90.8750,101,60,0.41587
7202910,-0.06500,89.7188,101,60,0.43280
7202920,-0.06500,88.1250,101,60,0.46520
7202930,-0.06500,86.8125,101,60,0.51160
7202940,-0.06500,86.8125,101,60,0.51160
7202950,-0.05500,86.0000,101,60,0.55482
7202960,-0.05500,85.5625,101,60,0.57509
7202970,-0.05500,85.5625,101,60,0.57509
7202980,-0.05000,84.0000,101,60,0.62247
7202990,-0.05000,84.0000,101,60,0.62247
7203000,-0.04500,82.7500,101,60,0.65495
7203010,-0.04500,82.7500,101,60,0.65495
7203020,-0.04500,81.5000,101,60,0.68547
7203030,-0.04500,80.3750,101,60,0.71233
7203040,-0.04500,80.3750,101,60,0.71233
7203050,-0.04500,79.0000,101,60,0.74579
7203060,-0.04500,79.0000,101,60,0.74579
7203070,-0.04500,78.5625,101,60,0.75287
7203080,-0.04500,78.1250,101,60,0.75800
7203090,-0.04500,78.1250,101,60,0.75800
7203100,-0.04500,78.1250,101,60,0.75800
7203110,-0.04000,76.3125,101,60,0.77802
7203120,-0.02500,75.4375,101,60,0.78193
7203130,-0.01500,74.5625,101,60,0.77949
7203140,-0.01500,74.5625,101,60,0.77949
7203150,0.00000,74.1250,101,60,0.77582
7203160,0.01500,73.3125,101,60,0.76337
7203170,0.00500,72.5625,101,60,0.74603
7203180,-0.00500,72.1875,101,60,0.73626
7203190,-0.01000,71.8125,101,60,0.72601
7203200,-0.01000,71.8125,101,60,0.72601
7203210,-0.04500,70.6875,101,60,0.69499
7203220,-0.05500,70.3125,101,60,0.68449
7203230,-0.04500,69.8750,101,60,0.67399
7203240,-0.04500,69.8750,101,60,0.67399
7203250,-0.04500,69.5000,101,60,0.66349
7203260,-0.06000,68.6250,101,60,0.64249
7203270,0.29000,67.7500,101,60,0.62344
7203280,0.29000,67.7500,101,60,0.62344
7203290,0.70500,67.3750,101,60,0.61368
7203300,0.71000,66.3750,101,60,0.58388
7203310,0.71000,66.3750,101,60,0.58388
7203320,0.29500,66.0625,101,60,0.57436
7203330,0.03500,65.7500,101,60,0.56508
7203340,-0.05000,65.0625,101,60,0.54701
7203350,-0.09500,64.6875,101,60,0.53797
7203360,-0.11500,64.3125,101,60,0.52918
7203370,-0.12500,63.9375,101,60,0.52088
7203380,-0.12500,63.3125,101,60,0.50696
7203390,-0.12000,63.0625,101,60,0.49988
7203400,-0.11500,62.5000,101,60,0.48523
7203410,-0.11500,62.5000,101,60,0.48523
7203420,-0.11500,61.8750,101,60,0.47106
7203430,-0.11500,61.2500,101,60,0.45714
7203440,-0.11500,61.2500,101,60,0.45714
7203450,-0.10500,61.0000,101,60,0.45031
7203460,-0.10500,60.7500,101,60,0.43712
7203470,-0.10000,60.9375,101,60,0.43150
7203480,-0.09500,61.6875,101,60,0.42637
7203490,-0.09500,63.3125,101,60,0.42076
7203500,-0.08000,74.9375,101,60,0.40244
7203510,-0.08000,74.9375,101,60,0.40244
7203520,-0.05500,83.6875,101,60,0.38974
7203530,-0.04500,88.8750,101,60,0.37778
7203540,-0.04500,88.8750,101,60,0.37778
7203550,-0.00500,91.3125,101,60,0.36654
7203560,0.01500,92.1875,101,60,0.36093
7203570,0.01500,92.1875,101,60,0.36093
7203580,0.03500,94.3125,101,60,0.35263
7203590,0.05500,95.6250,101,60,0.34799
7203600,0.10500,98.3750,101,60,0.33748
7203610,0.10500,98.3750,101,60,0.33748
7203620,0.12500,100.7500,101,60,0.32698
7203630,0.13000,101.7500,101,60,0.32161
7203640,0.06500,103.2500,101,60,0.31184
7203650,0.06500,103.2500,101,60,0.31184
7203660,-0.00500,104.2500,101,60,0.29866
7203670,-0.00500,104.2500,101,60,0.29866
7203680,-0.03500,104.3125,101,60,0.29597
7203690,-0.05500,104.3750,101,60,0.29231
7203700,-0.06500,104.1250,101,60,0.28400
7203710,-0.06500,103.4375,101,60,0.27692
7203720,-0.06500,102.9375,101,60,0.27448
7203730,-0.06500,102.9375,101,60,0.27448
7203740,-0.06500,100.8125,101,60,0.28010
7203750,-0.06000,99.8125,101,60,0.28864
7203760,-0.06000,99.8125,101,60,0.28864
7203770,-0.04500,94.8750,101,60,0.33040
7203780,-0.04500,94.8750,101,60,0.33040
7203790,-0.04500,90.6250,101,60,0.37192
7203800,-0.04500,88.6875,101,60,0.39512
7203810,-0.04500,88.6875,101,60,0.39512
7203820,-0.04500,85.4375,101,60,0.46374
7203830,-0.04500,84.9375,101,60,0.48498
7203840,-0.04500,84.9375,101,60,0.48498
7203850,-0.03500,83.6250,101,60,0.54335
7203860,-0.03500,83.0625,101,60,0.55897
7203870,-0.03500,82.5000,101,60,0.57265
7203880,-0.03500,81.8750,101,60,0.58779
7203890,-0.03500,81.8750,101,60,0.58779
7203900,-0.03500,79.8750,101,60,0.63272
7203910,-0.03500,79.2500,101,60,0.64640
7203920,-0.03500,79.2500,101,60,0.64640
7203930,-0.03500,77.6250,101,60,0.68132
7203940,-0.03500,77.1250,101,60,0.69109
7203950,-0.03500,77.1250,101,60,0.69109
7203960,-0.03500,76.6250,101,60,0.69988
7203970,-0.03500,76.1875,101,60,0.70745
7203980,-0.03500,75.3125,101,60,0.71575
7203990,-0.02500,74.3750,101,60,0.72234
7204000,-0.02500,74.3750,101,60,0.72234
7204010,-0.00500,73.0000,101,60,0.72430
7204020,0.01000,72.5625,101,60,0.72186
7204030,0.02000,72.1250,101,60,0.71770
7204040,0.03000,71.6875,101,60,0.71160
7204050,0.02000,70.7500,101,60,0.69499
7204060,0.01000,70.3125,101,60,0.68547
7204070,0.00000,69.8750,101,60,0.67546
7204080,-0.00500,69.5000,101,60,0.66447
7204090,-0.00500,69.5000,101,60,0.66447
7204100,-0.03500,68.3750,101,60,0.63004
7204110,-0.03000,67.9375,101,60,0.61856
7204120,-0.03000,67.9375,101,60,0.61856
7204130,-0.04500,66.8125,101,60,0.58437
7204140,-0.03000,66.5000,101,60,0.57314
7204150,-0.03000,66.5000,101,60,0.57314
7204160,0.64000,65.8125,101,60,0.55067
7204170,0.64000,65.8125,101,60,0.55067
7204180,0.94500,65.1250,101,60,0.53138
7204190,0.83000,64.8750,101,60,0.52161
7204200,0.07000,64.2500,101,60,0.50159
7204210,0.07000,64.2500,101,60,0.50159
7204220,-0.07500,63.3750,101,60,0.47228
7204230,-0.10000,63.1250,101,60,0.46300
7204240,-0.10000,63.1250,101,60,0.46300
7204250,-0.12000,62.2500,101,60,0.43492
7204260,-0.11500,61.9375,101,60,0.42711
7204270,-0.11500,61.6875,101,60,0.42027
7204280,-0.11500,61.3750,101,60,0.41270
7204290,-0.11500,61.3750,101,60,0.41270
7204300,-0.10500,60.5000,101,60,0.38950
7204310,-0.10500,60.5000,101,60,0.38950
7204320,-0.10000,59.9375,101,60,0.37485
7204330,-0.09500,59.5000,101,60,0.36044
7204340,-0.09500,59.5000,101,60,0.36044
7204350,-0.08500,59.3750,101,60,0.34579
7204360,-0.08500,59.3750,101,60,0.34579
7204370,-0.07500,59.6875,101,60,0.33846
7204380,-0.07500,62.3125,101,60,0.32796
7204390,-0.06000,69.1250,101,60,0.31648
7204400,-0.06000,69.1250,101,60,0.31648
7204410,-0.04500,73.5000,101,60,0.31038
7204420,-0.01500,83.8125,101,60,0.29280
7204430,-0.01500,83.8125,101,60,0.29280
7204440,0.00000,85.6250,101,60,0.28694
7204450,0.02000,86.6875,101,60,0.28132
7204460,0.04000,87.9375,101,60,0.27082
7204470,0.08500,89.3750,101,60,0.26471
7204480,0.11000,90.3750,101,60,0.26105
7204490,0.11000,90.3750,101,60,0.26105
7204500,0.13500,93.5000,101,60,0.24884
7204510,0.11500,94.3125,101,60,0.24469
7204520,0.11500,94.3125,101,60,0.24469
7204530,0.04000,95.8750,101,60,0.23272
7204540,0.00500,96.0625,101,60,0.22857
7204550,0.00500,96.0625,101,60,0.22857
7204560,-0.04500,96.0625,101,60,0.22271
7204570,-0.04500,96.0625,101,60,0.22271
7204580,-0.06500,95.3750,101,60,0.23663
7204590,-0.06500,95.0000,101,60,0.24029
7204600,-0.07000,94.5000,101,60,0.24127
7204610,-0.07500,93.0000,101,60,0.24078
7204620,-0.07500,93.0000,101,60,0.24078
7204630,-0.07500,91.9375,101,60,0.24151
7204640,-0.06500,89.0000,101,60,0.24982
7204650,-0.06500,89.0000,101,60,0.24982
7204660,-0.06500,83.4375,101,60,0.28327
7204670,-0.06500,83.4375,101,60,0.28327
7204680,-0.06500,82.0000,101,60,0.29792
7204690,-0.05500,81.0625,101,60,0.31600
7204700,-0.05500,79.9375,101,60,0.35702
7204710,-0.05000,79.6250,101,60,0.37827
7204720,-0.04500,79.3750,101,60,0.39927
7204730,-0.05000,79.0000,101,60,0.41954
7204740,-0.05000,78.0625,101,60,0.45617
7204750,-0.04500,76.9375,101,60,0.48840
7204760,-0.04500,76.3125,101,60,0.50134
7204770,-0.04500,76.3125,101,60,0.50134
7204780,-0.04500,74.6250,101,60,0.53797
7204790,-0.04500,74.1250,101,60,0.55043
7204800,-0.04500,74.1250,101,60,0.55043
7204810,-0.04500,73.6875,101,60,0.56239
7204820,-0.05500,72.5000,101,60,0.59341
7204830,-0.05000,72.1250,101,60,0.60195
7204840,-0.05000,72.1250,101,60,0.60195
7204850,-0.04500,70.8750,101,60,0.62149
7204860,-0.04000,70.5000,101,60,0.62515
7204870,-0.04000,70.5000,101,60,0.62515
7204880,-0.03500,69.7500,101,60,0.62930
7204890,-0.03500,69.7500,101,60,0.62930
7204900,-0.03500,68.9375,101,60,0.63004
7204910,0.00000,68.1875,101,60,0.62515
7204920,0.00000,68.1875,101,60,0.62515
7204930,0.01000,67.8750,101,60,0.62051
7204940,0.01000,67.1250,101,60,0.60733
7204950,-0.01500,66.4375,101,60,0.59145
7204960,-0.01500,66.4375,101,60,0.59145
7204970,-0.02000,66.0625,101,60,0.58388
7204980,-0.04000,65.3750,101,60,0.56899
7204990,-0.06500,65.0625,101,60,0.56142
7205000,-0.05500,64.3750,100,59,0.54628
7205010,-0.05000,63.6875,100,59,0.53089
7205020,-0.05000,63.6875,100,59,0.53089
7205030,0.00500,63.0000,100,59,0.51551
7205040,0.31500,62.6875,100,59,0.50769
7205050,0.31500,62.6875,100,59,0.50769
7205060,0.93000,61.9375,100,59,0.48571
7205070,0.93000,61.9375,100,59,0.48571
7205080,0.23500,61.4375,100,59,0.47350
7205090,0.01000,61.0000,100,59,0.46007
7205100,0.01000,61.0000,100,59,0.46007
7205110,-0.06500,60.7500,100,59,0.45348
7205120,-0.12500,60.1875,100,59,0.44054
7205130,-0.12500,60.1875,100,59,0.44054
7205140,-0.13500,59.5000,100,59,0.42076
7205150,-0.13500,59.5000,100,59,0.42076
7205160,-0.13500,59.3125,100,59,0.41441
7205170,-0.13000,58.5625,100,59,0.39976
7205180,-0.13000,58.5625,100,59,0.39976
7205190,-0.12500,58.2500,100,59,0.39438
7205200,-0.11500,57.6875,100,59,0.38364
7205210,-0.11500,57.2500,100,59,0.37338
7205220,-0.11500,57.2500,100,59,0.37338
7205230,-0.11000,57.1875,100,59,0.36313
7205240,-0.10500,57.5000,100,59,0.35824
7205250,-0.10500,57.5000,100,59,0.35824
7205260,-0.10000,59.9375,100,59,0.34823
7205270,-0.08500,66.8125,100,59,0.34115
7205280,-0.07000,71.4375,100,59,0.33724
7205290,-0.07000,71.4375,100,59,0.33724
7205300,-0.04500,82.5000,100,59,0.32430
7205310,-0.04500,82.5000,100,59,0.32430
7205320,-0.02500,84.4375,100,59,0.31966
7205330,0.01000,87.0000,100,59,0.30623
7205340,0.03000,87.6875,100,59,0.30183
7205350,0.05000,88.6250,100,59,0.29792
7205360,0.08000,89.7500,100,59,0.29573
7205370,0.08000,89.7500,100,59,0.29573
7205380,0.13000,93.2500,100,59,0.28864
7205390,0.13000,93.2500,100,59,0.28864
7205400,0.10500,95.1250,100,59,0.28278
7205410,0.06500,96.3125,100,59,0.27692
7205420,0.06500,96.3125,100,59,0.27692
7205430,-0.00500,96.8125,100,59,0.27082
7205440,-0.03500,96.8125,100,59,0.26789
7205450,-0.03500,96.8125,100,59,0.26789
7205460,-0.05000,96.5625,100,59,0.26227
7205470,-0.06500,96.0625,100,59,0.25934
7205480,-0.06500,96.0625,100,59,0.25934
7205490,-0.06500,95.6875,100,59,0.25763
7205500,-0.06500,93.8750,100,59,0.25397
7205510,-0.07000,92.9375,100,59,0.25592
7205520,-0.07000,91.7500,100,59,0.26056
7205530,-0.07000,91.7500,100,59,0.26056
7205540,-0.07500,88.5625,100,59,0.28010
7205550,-0.07500,86.6250,100,59,0.29548
7205560,-0.06500,83.0625,100,59,0.33309
7205570,-0.06500,80.9375,100,59,0.37338
7205580,-0.06500,80.9375,100,59,0.37338
7205590,-0.06500,80.1250,100,59,0.41807
7205600,-0.06500,80.1250,100,59,0.41807
7205610,-0.05500,79.8125,100,59,0.43956
7205620,-0.05500,78.6250,100,59,0.49670
7205630,-0.05500,78.6250,100,59,0.49670
7205640,-0.06000,78.1250,100,59,0.51380
7205650,-0.06000,77.5625,100,59,0.53016
7205660,-0.05500,76.3125,100,59,0.56093
7205670,-0.05500,75.7500,100,59,0.57314
7205680,-0.05500,74.6875,100,59,0.59560
7205690,-0.05500,74.6875,100,59,0.59560
7205700,-0.06000,73.8125,100,59,0.61856
7205710,-0.06000,73.4375,100,59,0.62930
7205720,-0.06000,73.0000,100,59,0.63932
7205730,-0.06500,72.5625,100,59,0.64860
7205740,-0.06500,71.7500,100,59,0.66374
7205750,-0.06500,71.3125,100,59,0.66960
7205760,-0.06000,70.5625,100,59,0.67717
7205770,-0.06000,70.5625,100,59,0.67717
7205780,-0.06000,69.7500,100,59,0.67863
7205790,-0.05500,69.3750,100,59,0.67814
7205800,-0.04500,69.0000,100,59,0.67668
7205810,-0.02500,68.6250,100,59,0.67375
7205820,-0.01500,67.8750,100,59,0.66398
7205830,-0.01000,67.5000,100,59,0.65714
7205840,-0.01500,67.1875,100,59,0.64933
7205850,-0.03500,66.8750,100,59,0.64127
7205860,-0.05500,65.8125,100,59,0.61587
7205870,-0.05500,65.8125,100,59,0.61587
7205880,-0.07500,65.4375,100,59,0.60806
7205890,-0.07500,64.3750,100,59,0.58315
7205900,-0.07500,64.3750,100,59,0.58315
7205910,-0.07500,64.0625,100,59,0.57485
7205920,-0.10000,63.7500,100,59,0.56654
7205930,-0.05000,63.4375,100,59,0.55824
7205940,0.22000,62.8125,100,59,0.54115
7205950,0.88000,62.2500,100,59,0.52479
7205960,0.88000,62.2500,100,59,0.52479
7205970,0.70000,62.0625,100,59,0.51722
7205980,-0.00500,61.2500,100,59,0.49597
7205990,-0.00500,61.2500,100,59,0.49597
7206000,-0.09500,61.0000,100,59,0.48889
7206010,-0.13500,60.6875,100,59,0.48181
7206020,-0.15500,60.1875,100,59,0.46764
7206030,-0.16000,59.9375,100,59,0.46081
7206040,-0.16000,59.7500,100,59,0.45397
7206050,-0.16000,59.5000,100,59,0.44737
7206060,-0.16000,58.7500,100,59,0.42882
7206070,-0.16000,58.4375,100,59,0.42393
7206080,-0.15500,58.1875,100,59,0.41832
7206090,-0.15500,57.5625,100,59,0.40635
7206100,-0.15500,57.5625,100,59,0.40635
7206110,-0.15000,57.3750,100,59,0.40049
7206120,-0.14500,57.3125,100,59,0.38877
7206130,-0.14500,57.3125,100,59,0.38877
7206140,-0.14500,58.1875,100,59,0.37778
7206150,-0.13500,62.5000,100,59,0.36703
7206160,-0.12500,66.5000,100,59,0.36288
7206170,-0.11500,75.9375,100,59,0.35458
7206180,-0.11500,75.9375,100,59,0.35458
7206190,-0.08500,83.0000,100,59,0.34481
7206200,-0.08500,83.0000,100,59,0.34481
7206210,-0.06500,86.4375,100,59,0.33529
7206220,-0.03500,87.8750,100,59,0.32625
7206230,-0.01500,88.6250,100,59,0.32210
7206240,-0.01500,88.6250,100,59,0.32210
7206250,0.03000,92.0625,100,59,0.31038
7206260,0.05500,93.3750,100,59,0.30769
7206270,0.05500,93.3750,100,59,0.30769
7206280,0.08000,95.6875,100,59,0.30256
7206290,0.06000,97.3750,100,59,0.29597
7206300,0.02500,97.9375,100,59,0.29280
7206310,-0.01500,98.3750,100,59,0.28962
7206320,-0.01500,98.3750,100,59,0.28962
7206330,-0.08000,98.6250,100,59,0.28107
7206340,-0.09500,98.6250,100,59,0.27839
7206350,-0.10500,98.4375,100,59,0.27570
7206360,-0.11500,98.2500,100,59,0.27399
7206370,-0.11500,98.2500,100,59,0.27399
7206380,-0.12000,97.0625,100,59,0.26984
7206390,-0.12000,97.0625,100,59,0.26984
7206400,-0.12000,96.4375,100,59,0.26911
7206410,-0.11500,93.5000,100,59,0.28132
7206420,-0.11500,93.5000,100,59,0.28132
7206430,-0.11500,91.9375,100,59,0.29231
7206440,-0.11500,90.1250,100,59,0.30720
7206450,-0.11500,88.0000,100,59,0.32527
7206460,-0.10500,83.0000,100,59,0.38486
7206470,-0.10500,83.0000,100,59,0.38486
7206480,-0.10500,82.1875,100,59,0.40610
7206490,-0.09500,81.6875,100,59,0.42808
7206500,-0.09500,81.0000,100,59,0.47009
7206510,-0.09500,80.6250,100,59,0.48962
7206520,-0.09500,80.1875,100,59,0.50818
7206530,-0.09500,79.6250,100,59,0.52576
7206540,-0.09500,77.8125,100,59,0.57485
7206550,-0.09500,77.8125,100,59,0.57485
7206560,-0.09500,77.1875,100,59,0.58974
7206570,-0.09500,75.5625,100,59,0.62369
7206580,-0.09500,75.5625,100,59,0.62369
7206590,-0.09000,74.6250,100,59,0.64591
7206600,-0.08500,74.1875,100,59,0.65617
7206610,-0.08500,74.1875,100,59,0.65617
7206620,-0.08000,72.9375,100,59,0.69768
7206630,-0.08000,72.9375,100,59,0.69768
7206640,-0.08500,72.5625,100,59,0.72845
7206650,-0.08500,71.3125,100,59,0.76288
7206660,-0.08000,70.8750,100,59,0.76532
7206670,-0.08000,70.8750,100,59,0.76532
7206680,-0.06000,70.0625,100,59,0.76654
7206690,-0.06000,70.0625,100,59,0.76654
7206700,-0.04000,69.3125,100,59,0.76117
7206710,-0.02500,68.9375,100,59,0.75604
7206720,-0.02000,68.5625,100,59,0.74945
7206730,-0.04500,67.4375,100,59,0.72332
7206740,-0.04500,67.4375,100,59,0.72332
7206750,-0.06500,66.7500,100,59,0.70305
7206760,-0.08000,66.3125,100,59,0.69304
7206770,-0.08000,66.3125,100,59,0.69304
7206780,-0.07500,65.1250,100,59,0.66374
7206790,-0.07500,65.1250,100,59,0.66374
7206800,-0.08000,64.8125,100,59,0.65348
7206810,-0.04000,63.8750,100,59,0.62344
7206820,0.24000,63.5625,100,59,0.61392
7206830,0.24000,63.5625,100,59,0.61392
7206840,0.66000,63.2500,100,59,0.60415
7206850,0.89500,62.9375,100,59,0.59463
7206860,0.68000,62.3750,100,59,0.57680
7206870,0.25500,62.1250,100,59,0.56874
7206880,-0.00500,61.8750,100,59,0.56020
7206890,-0.13000,61.1250,100,59,0.53431
7206900,-0.14500,60.8750,100,59,0.52576
7206910,-0.14500,60.8750,100,59,0.52576
7206920,-0.15500,60.3125,100,59,0.50940
7206930,-0.15500,60.3125,100,59,0.50940
7206940,-0.15000,59.6250,100,59,0.48645
7206950,-0.15000,59.3750,100,59,0.47888
7206960,-0.15000,59.3750,100,59,0.47888
7206970,-0.14500,58.5625,100,59,0.46007
7206980,-0.14000,58.2500,100,59,0.45299
7206990,-0.14000,58.2500,100,59,0.45299
7207000,-0.13000,57.9375,101,60,0.43932
7207010,-0.13000,58.0625,101,60,0.42564
7207020,-0.12500,58.6875,101,60,0.41856
7207030,-0.12000,60.0625,101,60,0.41172
7207040,-0.12000,60.0625,101,60,0.41172
7207050,-0.10500,71.3125,101,60,0.39316
7207060,-0.09500,76.0000,101,60,0.38877
7207070,-0.09500,76.0000,101,60,0.38877
7207080,-0.07500,83.2500,101,60,0.37778
7207090,-0.06500,86.8750,101,60,0.36630
7207100,-0.06500,86.8750,101,60,0.36630
7207110,-0.03000,88.5000,101,60,0.35531
7207120,-0.03000,88.5000,101,60,0.35531
7207130,-0.01000,89.3125,101,60,0.35018
7207140,0.04000,92.8750,101,60,0.33553
7207150,0.04000,92.8750,101,60,0.33553
7207160,0.06500,94.1875,101,60,0.33089
7207170,0.09000,97.5625,101,60,0.32161
7207180,0.07000,98.3125,101,60,0.31795
7207190,0.07000,98.3125,101,60,0.31795
7207200,-0.00500,99.3125,101,60,0.31038
7207210,-0.04500,99.6875,101,60,0.30403
7207220,-0.04500,99.6875,101,60,0.30403
7207230,-0.07500,99.7500,101,60,0.30061
7207240,-0.10500,99.5625,101,60,0.29402
7207250,-0.10500,99.5625,101,60,0.29402
7207260,-0.11500,98.7500,101,60,0.28767
7207270,-0.11500,98.2500,101,60,0.28596
7207280,-0.11000,97.6875,101,60,0.28498
7207290,-0.11500,96.0000,101,60,0.28987
7207300,-0.11500,96.0000,101,60,0.28987
7207310,-0.11500,93.4375,101,60,0.30842
7207320,-0.11500,93.4375,101,60,0.30842
7207330,-0.10500,87.6250,101,60,0.36459
7207340,-0.11000,85.7500,101,60,0.38901
7207350,-0.11000,85.7500,101,60,0.38901
7207360,-0.10500,83.1875,101,60,0.43736
7207370,-0.10500,82.1875,101,60,0.48083
7207380,-0.10500,82.1875,101,60,0.48083
7207390,-0.10000,81.8750,101,60,0.50330
7207400,-0.09500,81.5000,101,60,0.52527
7207410,-0.09500,81.1250,101,60,0.54628
7207420,-0.09500,79.5625,101,60,0.60415
7207430,-0.09500,78.9375,101,60,0.62198
7207440,-0.09500,78.9375,101,60,0.62198
7207450,-0.09500,77.0625,101,60,0.63883
7207460,-0.09500,77.0625,101,60,0.66789
7207470,-0.09500,76.5625,101,60,0.67912
7207480,-0.09000,76.0000,101,60,0.69158
7207490,-0.08500,75.5625,101,60,0.70427
7207500,-0.08000,74.6875,101,60,0.72723
7207510,-0.07500,74.3125,101,60,0.73700
7207520,-0.07500,73.8750,101,60,0.74579
7207530,-0.07500,72.6875,101,60,0.76557
7207540,-0.07500,72.2500,101,60,0.76996
7207550,-0.07500,72.2500,101,60,0.76996
7207560,-0.06500,71.4375,101,60,0.77363
7207570,-0.06500,71.4375,101,60,0.77363
7207580,-0.05000,70.6250,101,60,0.77045
7207590,-0.02500,69.8750,101,60,0.76239
7207600,-0.02500,69.8750,101,60,0.76239
7207610,-0.01500,69.5000,101,60,0.75604
7207620,-0.03500,68.4375,101,60,0.73016
7207630,-0.03500,68.4375,101,60,0.73016
7207640,-0.05500,67.6875,101,60,0.70989
7207650,-0.07500,66.9375,101,60,0.68962
7207660,-0.08500,66.5625,101,60,0.68010
7207670,-0.08000,66.1875,101,60,0.67033
7207680,-0.08000,66.1875,101,60,0.67033
7207690,-0.09000,65.2500,101,60,0.64127
7207700,-0.07500,64.9375,101,60,0.63150
7207710,-0.07500,64.9375,101,60,0.63150
7207720,0.53000,64.3750,101,60,0.61197
7207730,0.53000,64.3750,101,60,0.61197
7207740,0.85500,63.8125,101,60,0.59267
7207750,0.39000,63.3125,101,60,0.57387
7207760,0.39000,63.3125,101,60,0.57387
7207770,0.05500,63.0625,101,60,0.56581
7207780,-0.12000,62.3125,101,60,0.54286
7207790,-0.12000,62.3125,101,60,0.54286
7207800,-0.14500,62.0625,101,60,0.53480
7207810,-0.15500,61.7500,101,60,0.52674
7207820,-0.15500,61.0625,101,60,0.50330
7207830,-0.15500,61.0625,101,60,0.50330
7207840,-0.15500,60.6250,101,60,0.48840
7207850,-0.15500,60.6250,101,60,0.48840
7207860,-0.15500,60.1250,101,60,0.47497
7207870,-0.15500,59.8750,101,60,0.46960
7207880,-0.14500,59.4375,101,60,0.45665
7207890,-0.14500,59.4375,101,60,0.45665
7207900,-0.14500,59.1875,101,60,0.44298
7207910,-0.14500,59.3750,101,60,0.43614
7207920,-0.13500,61.3125,101,60,0.42320
7207930,-0.13500,61.3125,101,60,0.42320
7207940,-0.11500,72.5000,101,60,0.40488
7207950,-0.11500,72.5000,101,60,0.40488
7207960,-0.10500,81.4375,101,60,0.39438
7207970,-0.09500,87.0000,101,60,0.38584
7207980,-0.08000,88.5000,101,60,0.38095
7207990,-0.08000,88.5000,101,60,0.38095
7208000,-0.06500,89.5000,101,60,0.37607
7208010,-0.02000,92.1875,101,60,0.36142
7208020,-0.02000,92.1875,101,60,0.36142
7208030,0.00000,93.5000,101,60,0.35678
7208040,0.04500,96.3125,101,60,0.34823
7208050,0.04500,96.3125,101,60,0.34823
7208060,0.07000,98.8750,101,60,0.34139
7208070,0.06500,100.6875,101,60,0.33675
7208080,0.06500,100.6875,101,60,0.33675
7208090,0.03000,101.3125,101,60,0.33358
7208100,-0.00500,102.1250,101,60,0.32698
7208110,-0.05000,102.3750,101,60,0.32381
7208120,-0.09500,102.5625,101,60,0.31770
7208130,-0.09500,102.5625,101,60,0.31770
7208140,-0.10500,102.3750,101,60,0.31160
7208150,-0.11500,102.1250,101,60,0.30891
7208160,-0.11500,101.8125,101,60,0.30672
7208170,-0.12000,100.2500,101,60,0.30867
7208180,-0.12500,99.4375,101,60,0.31282
7208190,-0.12500,98.4375,101,60,0.32015
7208200,-0.12500,97.2500,101,60,0.33138
7208210,-0.12500,97.2500,101,60,0.33138
7208220,-0.12500,93.8750,101,60,0.36532
7208230,-0.11500,89.5625,101,60,0.41123
7208240,-0.11500,87.5625,101,60,0.43614
7208250,-0.11500,87.5625,101,60,0.43614
7208260,-0.11000,84.2500,101,60,0.50305
7208270,-0.10500,83.8125,101,60,0.52405
7208280,-0.10500,83.8125,101,60,0.52405
7208290,-0.10500,83.5000,101,60,0.54554
7208300,-0.10500,82.4375,101,60,0.60562
7208310,-0.10500,82.4375,101,60,0.60562
7208320,-0.10000,81.3750,101,60,0.64274
7208330,-0.10000,81.3750,101,60,0.64274
7208340,-0.09500,79.5000,101,60,0.69426
7208350,-0.09500,79.5000,101,60,0.69426
7208360,-0.09000,78.3750,101,60,0.71893
7208370,-0.09000,77.3750,101,60,0.74310
7208380,-0.09000,77.3750,101,60,0.74310
7208390,-0.08500,76.9375,101,60,0.75433
7208400,-0.08500,76.5000,101,60,0.76459
7208410,-0.08500,75.2500,101,60,0.78901
7208420,-0.08500,75.2500,101,60,0.78901
7208430,-0.07500,74.3750,101,60,0.80024
7208440,-0.07500,74.0000,101,60,0.80415
7208450,-0.07500,74.0000,101,60,0.80415
7208460,-0.07500,73.1875,101,60,0.80635
7208470,-0.06500,72.8125,101,60,0.80415
7208480,-0.05500,72.3750,101,60,0.80122
7208490,-0.04000,72.0000,101,60,0.79707
7208500,-0.03000,71.1875,101,60,0.78486
7208510,-0.02500,70.8125,101,60,0.77656
7208520,-0.03500,70.4375,101,60,0.76728
7208530,-0.04500,70.0625,101,60,0.75726
7208540,-0.05000,69.3750,101,60,0.73578
7208550,-0.08500,68.6875,101,60,0.71477
7208560,-0.08500,68.6875,101,60,0.71477
7208570,-0.09000,68.3750,101,60,0.70525
7208580,-0.08500,67.6250,101,60,0.68498
7208590,-0.08500,67.3125,101,60,0.67497
7208600,-0.09500,67.0000,101,60,0.66496
7208610,0.32000,66.0625,101,60,0.63516
7208620,0.32000,66.0625,101,60,0.63516
7208630,0.71000,65.7500,101,60,0.62540
7208640,0.86500,65.5000,101,60,0.61563
7208650,0.56500,65.2500,101,60,0.60586
7208660,0.16500,64.7500,101,60,0.58779
7208670,-0.10000,64.2500,101,60,0.56044
7208680,-0.10000,64.2500,101,60,0.56044
7208690,-0.13500,64.0000,101,60,0.53480
7208700,-0.14500,63.5000,101,60,0.50598
7208710,-0.15500,63.0000,101,60,0.48694
7208720,-0.15000,62.7500,101,60,0.47863
7208730,-0.15000,62.7500,101,60,0.47863
7208740,-0.14500,62.1250,101,60,0.45641
7208750,-0.14500,62.1250,101,60,0.45641
7208760,-0.14500,61.8750,101,60,0.45055
7208770,-0.14500,61.6250,101,60,0.44493
7208780,-0.14000,61.1875,101,60,0.43248
7208790,-0.14000,61.1250,101,60,0.42613
7208800,-0.13500,61.1875,101,60,0.41978
7208810,-0.12500,64.5000,101,60,0.40171
7208820,-0.12500,64.5000,101,60,0.40171
7208830,-0.12500,67.8125,101,60,0.39585
7208840,-0.11500,72.2500,101,60,0.38999
7208850,-0.10500,85.5625,101,60,0.37460
7208860,-0.10500,85.5625,101,60,0.37460
7208870,-0.09500,88.3750,101,60,0.37094
7208880,-0.05500,91.6875,101,60,0.36239
7208890,-0.05500,91.6875,101,60,0.36239
7208900,-0.04000,93.5000,101,60,0.35385
7208910,-0.02500,94.5625,101,60,0.34969
7208920,-0.00500,95.8125,101,60,0.34530
7208930,0.04500,100.0000,101,60,0.33358
7208940,0.04500,100.0000,101,60,0.33358
7208950,0.07000,101.3125,101,60,0.32991
7208960,0.08500,103.4375,101,60,0.32552
7208970,0.08500,103.4375,101,60,0.32552
7208980,0.06000,104.8125,101,60,0.32015
7208990,-0.01500,105.6250,101,60,0.31429
7209000,-0.01500,105.6250,101,60,0.31429
7209010,-0.04500,105.8750,101,60,0.31136
7209020,-0.08500,106.0625,101,60,0.30427
7209030,-0.09500,105.8750,101,60,0.30183
7209040,-0.09500,105.8750,101,60,0.30183
7209050,-0.09500,104.8125,101,60,0.29768
7209060,-0.09500,104.2500,101,60,0.29866
7209070,-0.09500,104.2500,101,60,0.29866
7209080,-0.09500,103.6250,101,60,0.30085
7209090,-0.10000,102.8125,101,60,0.30574
7209100,-0.10500,100.5625,101,60,0.32601
7209110,-0.10000,99.0000,101,60,0.34139
7209120,-0.10000,97.1250,101,60,0.36020
7209130,-0.09500,90.9375,101,60,0.42784
7209140,-0.09500,90.9375,101,60,0.42784
7209150,-0.09500,89.3750,101,60,0.45104
7209160,-0.08500,88.2500,101,60,0.47106
7209170,-0.08500,87.5000,101,60,0.48913
7209180,-0.08500,86.5625,101,60,0.52796
7209190,-0.08500,86.1875,101,60,0.54725
7209200,-0.08000,85.8125,101,60,0.56630
7209210,-0.07000,84.1250,101,60,0.61978
7209220,-0.07000,83.4375,101,60,0.63663
7209230,-0.07000,83.4375,101,60,0.63663
7209240,-0.07000,82.1250,101,60,0.66764
7209250,-0.06500,80.7500,101,60,0.69255
7209260,-0.06500,80.7500,101,60,0.69255
7209270,-0.07000,79.5625,101,60,0.71087
7209280,-0.07000,79.5625,101,60,0.71087
7209290,-0.06500,78.0000,101,60,0.73846
7209300,-0.06500,77.4375,101,60,0.74603
7209310,-0.06500,77.4375,101,60,0.74603
7209320,-0.05500,76.4375,101,60,0.75800
7209330,-0.05500,76.4375,101,60,0.75800
7209340,-0.05500,75.5000,101,60,0.76532
7209350,-0.04500,74.4375,101,60,0.76654
7209360,-0.04500,74.4375,101,60,0.76654
7209370,-0.03500,73.9375,101,60,0.76435
7209380,-0.00500,72.5000,101,60,0.75263
7209390,0.00500,72.0000,101,60,0.74579
7209400,0.00000,71.5625,101,60,0.73748
7209410,0.00000,71.5625,101,60,0.73748
7209420,-0.01500,70.2500,101,60,0.70769
7209430,-0.01500,70.2500,101,60,0.70769
7209440,-0.02500,69.8750,101,60,0.69695
7209450,-0.05500,68.6250,101,60,0.66569
7209460,-0.05500,68.6250,101,60,0.66569
7209470,-0.04500,67.8125,101,60,0.64689
7209480,-0.06000,67.4375,101,60,0.63712
7209490,-0.05500,66.6875,101,60,0.61758
7209500,0.12000,66.3125,101,60,0.60757
7209510,0.12000,66.3125,101,60,0.60757
7209520,0.85500,65.6875,101,60,0.58730
7209530,0.85500,65.6875,101,60,0.58730
7209540,0.45500,64.7500,101,60,0.55775
7209550,0.10000,64.4375,101,60,0.54921
7209560,0.10000,64.4375,101,60,0.54921
7209570,-0.08000,63.5625,101,60,0.52161
7209580,-0.08000,63.5625,101,60,0.52161
7209590,-0.11500,62.9375,101,60,0.50720
7209600,-0.12000,62.6875,101,60,0.49915
7209610,-0.12000,62.6875,101,60,0.49915
7209620,-0.12000,61.8125,101,60,0.47473
7209630,-0.12000,61.5625,101,60,0.46691
7209640,-0.12000,61.5625,101,60,0.46691
7209650,-0.11500,60.6875,101,60,0.44444
7209660,-0.11500,60.3750,101,60,0.43834
7209670,-0.11500,60.3750,101,60,0.43834
7209680,-0.10500,59.9375,101,60,0.42418
7209690,-0.10500,59.8750,101,60,0.40855
7209700,-0.10500,59.8750,101,60,0.40855
7209710,-0.09000,61.3750,101,60,0.39341
7209720,-0.09000,61.3750,101,60,0.39341
7209730,-0.08500,63.5625,101,60,0.38608
7209740,-0.07500,76.3750,101,60,0.36557
7209750,-0.07500,76.3750,101,60,0.36557
7209760,-0.06500,80.6875,101,60,0.36044
7209770,-0.05000,84.0625,101,60,0.35604
7209780,-0.03500,88.3750,101,60,0.34505
7209790,-0.02500,89.5625,101,60,0.33895
7209800,-0.00500,90.5000,101,60,0.33284
7209810,0.01000,91.3750,101,60,0.32674
7209820,0.06500,94.9375,101,60,0.30940
7209830,0.09500,96.2500,101,60,0.30403
7209840,0.09500,96.2500,101,60,0.30403
7209850,0.12000,98.7500,101,60,0.29866
7209860,0.12000,100.5625,101,60,0.28694
7209870,0.12000,100.5625,101,60,0.28694
7209880,0.04000,101.6875,101,60,0.27888
7209890,0.00000,102.2500,101,60,0.27009
7209900,0.00000,102.2500,101,60,0.27009
7209910,-0.02500,102.3750,101,60,0.26593
7209920,-0.06000,102.3125,101,60,0.25788
7209930,-0.06000,102.3125,101,60,0.25788
7209940,-0.06500,101.8750,101,60,0.25006
7209950,-0.07500,101.5000,101,60,0.24640
7209960,-0.07500,100.5625,101,60,0.24396
7209970,-0.07500,99.0625,101,60,0.24567
7209980,-0.07500,99.0625,101,60,0.24567
7209990,-0.07500,96.6250,101,60,0.25788
7210000,-0.07500,96.6250,100,59,0.25788
7210010,-0.07500,95.0000,100,59,0.26935
7210020,-0.08000,90.9375,100,59,0.30183
7210030,-0.07500,88.8750,100,59,0.32234
7210040,-0.07500,87.0000,100,59,0.34457
7210050,-0.07000,84.0625,100,59,0.40684
7210060,-0.07000,84.0625,100,59,0.40684
7210070,-0.06500,83.5625,100,59,0.42711
7210080,-0.06500,82.8125,100,59,0.46667
7210090,-0.06500,82.8125,100,59,0.46667
7210100,-0.06500,81.1875,100,59,0.52186
7210110,-0.06000,80.5625,100,59,0.53871
7210120,-0.06000,80.5625,100,59,0.53871
7210130,-0.05500,79.8750,100,59,0.55458
7210140,-0.05500,78.6250,100,59,0.58413
7210150,-0.05500,78.0625,100,59,0.59780
7210160,-0.05500,77.5625,100,59,0.60879
7210170,-0.05000,76.0625,100,59,0.63810
7210180,-0.05000,76.0625,100,59,0.63810
7210190,-0.04500,75.1875,100,59,0.65641
7210200,-0.04500,74.7500,100,59,0.66422
7210210,-0.04500,74.7500,100,59,0.66422
7210220,-0.05000,73.4375,100,59,0.68107
7210230,-0.04500,73.0000,100,59,0.68400
7210240,-0.04500,73.0000,100,59,0.68400
7210250,-0.03500,72.5000,100,59,0.68571
7210260,-0.02000,71.6250,100,59,0.68376
7210270,-0.00500,71.1875,100,59,0.68107
7210280,0.00500,70.3125,100,59,0.67155
7210290,0.00500,70.3125,100,59,0.67155
7210300,-0.02000,69.1875,100,59,0.64786
7210310,-0.02500,68.8125,100,59,0.63810
7210320,-0.02500,68.8125,100,59,0.63810
7210330,-0.06500,67.6250,100,59,0.60733
7210340,-0.06500,67.2500,100,59,0.59707
7210350,-0.06500,67.2500,100,59,0.59707
7210360,-0.06500,66.5000,100,59,0.57851
7210370,-0.06500,66.5000,100,59,0.57851
7210380,-0.08000,65.8125,100,59,0.55946
7210390,0.41000,65.1875,100,59,0.54066
7210400,0.41000,65.1875,100,59,0.54066
7210410,0.85500,64.5625,100,59,0.52186
7210420,0.52500,64.0000,100,59,0.50330
7210430,0.52500,64.0000,100,59,0.50330
7210440,0.13500,63.6875,100,59,0.49402
7210450,-0.08500,62.8750,100,59,0.47009
7210460,-0.11500,62.5625,100,59,0.46227
7210470,-0.11500,62.5625,100,59,0.46227
7210480,-0.13500,61.9375,100,59,0.44615
7210490,-0.13500,61.9375,100,59,0.44615
7210500,-0.13500,61.4375,100,59,0.43077
7210510,-0.13500,60.8750,100,59,0.41563
7210520,-0.13500,60.8750,100,59,0.41563
7210530,-0.13000,60.5625,100,59,0.40830
7210540,-0.13000,59.9375,100,59,0.39390
7210550,-0.13000,59.6250,100,59,0.38681
7210560,-0.12500,59.3750,100,59,0.38120
7210570,-0.12500,59.1875,100,59,0.37607
7210580,-0.11500,58.9375,100,59,0.35678
7210590,-0.11000,59.2500,100,59,0.34872
7210600,-0.11000,59.2500,100,59,0.34872
7210610,-0.09500,65.3750,100,59,0.33089
7210620,-0.08500,69.5625,100,59,0.32503
7210630,-0.08500,69.5625,100,59,0.32503
7210640,-0.06500,78.1875,100,59,0.31355
7210650,-0.06500,78.1875,100,59,0.31355
7210660,-0.05000,84.1250,100,59,0.30598
7210670,-0.03500,85.8125,100,59,0.30159
7210680,0.00000,87.5625,100,59,0.29231
7210690,0.00000,87.5625,100,59,0.29231
7210700,0.04500,90.0000,100,59,0.27790
7210710,0.07000,91.1250,100,59,0.27326
7210720,0.07000,91.1250,100,59,0.27326
7210730,0.11000,94.3125,100,59,0.26716
7210740,0.11000,94.3125,100,59,0.26716
7210750,0.10000,95.1875,100,59,0.26422
7210760,0.03000,96.3750,100,59,0.26081
7210770,0.03000,96.3750,100,59,0.26081
7210780,-0.00500,96.9375,100,59,0.25543
7210790,-0.03500,97.0000,100,59,0.25250
7210800,-0.06000,97.0000,100,59,0.24957
7210810,-0.08500,96.4375,100,59,0.24029
7210820,-0.08500,96.4375,100,59,0.24029
7210830,-0.09000,96.1250,100,59,0.23736
7210840,-0.09500,95.0625,100,59,0.23297
7210850,-0.09500,95.0625,100,59,0.23297
7210860,-0.09500,93.3750,100,59,0.23394
7210870,-0.09500,90.6250,100,59,0.24054
7210880,-0.09500,90.6250,100,59,0.24054
7210890,-0.09500,84.8750,100,59,0.27253
7210900,-0.09500,83.2500,100,59,0.28938
7210910,-0.09500,83.2500,100,59,0.28938
7210920,-0.09000,81.1875,100,59,0.32991
7210930,-0.08500,80.3750,100,59,0.37363
7210940,-0.08500,80.3750,100,59,0.37363
7210950,-0.08000,79.7500,100,59,0.41343
7210960,-0.07500,79.3750,100,59,0.42979
7210970,-0.07500,79.3750,100,59,0.42979
7210980,-0.07500,77.6875,100,59,0.48107
7210990,-0.07500,77.6875,100,59,0.48107
7211000,-0.07500,77.0625,100,59,0.49719
7211010,-0.07000,76.4375,100,59,0.51258
7211020,-0.07500,75.3750,100,59,0.54139
7211030,-0.07500,74.3750,100,59,0.56777
7211040,-0.07500,74.3750,100,59,0.56777
7211050,-0.07500,74.0000,100,59,0.57973
7211060,-0.07500,72.7500,100,59,0.60586
7211070,-0.07500,72.7500,100,59,0.60586
7211080,-0.06500,71.8750,100,59,0.62442
7211090,-0.06500,71.8750,100,59,0.62442
7211100,-0.06500,71.0625,100,59,0.63516
7211110,-0.06500,70.6875,100,59,0.63932
7211120,-0.06000,70.2500,100,59,0.64249
7211130,-0.05500,69.8750,100,59,0.64444
7211140,-0.04500,69.1250,100,59,0.64371
7211150,-0.03000,68.7500,100,59,0.64078
7211160,-0.00500,68.0000,100,59,0.63126
7211170,-0.00500,68.0000,100,59,0.63126
7211180,-0.02500,66.8750,100,59,0.61001
7211190,-0.03500,66.5000,100,59,0.60171
7211200,-0.03500,66.5000,100,59,0.60171
7211210,-0.04500,66.1250,100,59,0.59121
7211220,-0.06500,65.4375,100,59,0.57485
7211230,-0.07500,64.7500,100,59,0.55897
7211240,-0.07500,64.7500,100,59,0.55897
7211250,-0.06500,64.4375,100,59,0.55092
7211260,-0.08500,63.8125,100,59,0.53675
7211270,-0.07500,63.5000,100,59,0.52943
7211280,0.11000,63.1875,100,59,0.52186
7211290,0.85500,62.3125,100,59,0.49841
7211300,0.85500,62.3125,100,59,0.49841
7211310,0.80500,62.0625,100,59,0.49060
7211320,0.41000,61.8125,100,59,0.48278
7211330,0.06000,61.5625,100,59,0.47497
7211340,-0.11000,60.8125,100,59,0.45226
7211350,-0.11000,60.8125,100,59,0.45226
7211360,-0.13500,60.5625,100,59,0.44591
7211370,-0.15500,59.8125,100,59,0.42857
7211380,-0.15500,59.8125,100,59,0.42857
7211390,-0.14500,59.3125,100,59,0.41563
7211400,-0.15000,59.1250,100,59,0.40904
7211410,-0.15000,59.1250,100,59,0.40904
7211420,-0.15000,58.5625,100,59,0.39658
7211430,-0.14000,58.0000,100,59,0.38462
7211440,-0.13500,57.7500,100,59,0.37900
7211450,-0.13500,57.7500,100,59,0.37900
7211460,-0.13000,57.4375,100,59,0.36459
7211470,-0.13000,57.4375,100,59,0.36459
7211480,-0.12000,57.6875,100,59,0.35897
7211490,-0.10500,63.0625,100,59,0.34237
7211500,-0.10500,63.0625,100,59,0.34237
7211510,-0.10000,67.2500,100,59,0.33797
7211520,-0.09000,71.9375,100,59,0.33236
7211530,-0.06500,83.0625,100,59,0.31795
7211540,-0.05500,85.0625,100,59,0.31429
7211550,-0.05500,85.0625,100,59,0.31429
7211560,-0.04000,86.3125,100,59,0.31038
7211570,-0.02500,87.1250,100,59,0.30745
7211580,0.02000,89.6875,100,59,0.29524
7211590,0.02000,89.6875,100,59,0.29524
7211600,0.04500,90.8750,100,59,0.29133
7211610,0.10000,94.5625,100,59,0.28059
7211620,0.11000,95.5625,100,59,0.27692
7211630,0.11000,95.5625,100,59,0.27692
7211640,0.06000,97.1250,100,59,0.27082
7211650,0.01500,98.0000,100,59,0.26667
7211660,0.01500,98.0000,100,59,0.26667
7211670,-0.02000,98.1875,100,59,0.26398
7211680,-0.06500,98.2500,100,59,0.25861
7211690,-0.07500,98.0000,100,59,0.25348
7211700,-0.07500,98.0000,100,59,0.25348
7211710,-0.08500,97.3750,100,59,0.24884
7211720,-0.08500,96.9375,100,59,0.24737
7211730,-0.08500,96.9375,100,59,0.24737
7211740,-0.08500,94.8750,100,59,0.25250
7211750,-0.08500,93.8125,100,59,0.25861
7211760,-0.08500,93.8125,100,59,0.25861
7211770,-0.08500,88.7500,100,59,0.29841
7211780,-0.08500,86.6875,100,59,0.31844
7211790,-0.08500,86.6875,100,59,0.31844
7211800,-0.08500,83.3125,100,59,0.36361
7211810,-0.08500,83.3125,100,59,0.36361
7211820,-0.08000,81.6250,100,59,0.41026
7211830,-0.07500,80.9375,100,59,0.45348
7211840,-0.07500,80.6250,100,59,0.47106
7211850,-0.07500,80.6250,100,59,0.47106
7211860,-0.07500,79.7500,100,59,0.50330
7211870,-0.07500,79.1875,100,59,0.51990
7211880,-0.07500,77.9375,100,59,0.55214
7211890,-0.07500,77.9375,100,59,0.55214
7211900,-0.07000,76.6875,100,59,0.58217
7211910,-0.07000,75.6250,100,59,0.61001
7211920,-0.07000,75.6250,100,59,0.61001
7211930,-0.07000,75.1250,100,59,0.62271
7211940,-0.06500,73.8125,100,59,0.65031
7211950,-0.06500,73.8125,100,59,0.65031
7211960,-0.06500,72.9375,100,59,0.66520
7211970,-0.06500,72.9375,100,59,0.66520
7211980,-0.06500,72.1250,100,59,0.67839
7211990,-0.05500,71.3125,100,59,0.68742
7212000,-0.05500,71.3125,100,59,0.68742
7212010,-0.05500,70.8750,100,59,0.69011
7212020,-0.04500,69.7500,100,59,0.68840
7212030,-0.04500,69.7500,100,59,0.68840
7212040,-0.01000,69.0000,100,59,0.67912
7212050,-0.01000,69.0000,100,59,0.67912
7212060,0.00000,68.1875,100,59,0.66545
7212070,-0.02500,67.5000,100,59,0.64908
7212080,-0.02500,67.5000,100,59,0.64908
7212090,-0.03000,67.1250,100,59,0.64029
7212100,-0.05500,66.0000,100,59,0.61270
7212110,-0.07500,65.6875,100,59,0.60366
7212120,-0.07000,65.3125,100,59,0.59463
7212130,-0.06500,64.6250,100,59,0.57705
7212140,-0.06500,64.6250,100,59,0.57705
7212150,-0.08500,63.9375,100,59,0.56093
7212160,0.07500,63.6250,100,59,0.55263
7212170,0.07500,63.6250,100,59,0.55263
7212180,0.83500,62.8125,100,59,0.52772
7212190,0.83000,62.5000,100,59,0.51941
7212200,0.83000,62.5000,100,59,0.51941
7212210,0.09000,61.7500,100,59,0.49597
7212220,0.09000,61.7500,100,59,0.49597
7212230,-0.05500,61.5000,100,59,0.48840
7212240,-0.10500,61.1875,100,59,0.48059
7212250,-0.13000,60.9375,100,59,0.47375
7212260,-0.14500,60.4375,100,59,0.46105
7212270,-0.15000,59.9375,100,59,0.44762
7212280,-0.15000,59.6875,100,59,0.44103
7212290,-0.15000,59.6875,100,59,0.44103
7212300,-0.14500,58.8750,100,59,0.42100
7212310,-0.14500,58.5625,100,59,0.41465
7212320,-0.14500,58.3125,100,59,0.40806
7212330,-0.14500,57.8750,100,59,0.39658
7212340,-0.14500,57.8750,100,59,0.39658
7212350,-0.14000,57.8125,100,59,0.39194
7212360,-0.12500,58.1250,100,59,0.38022
7212370,-0.12500,58.1250,100,59,0.38022
7212380,-0.11000,63.6875,100,59,0.36215
7212390,-0.10000,67.9375,100,59,0.35653
7212400,-0.10000,67.9375,100,59,0.35653
7212410,-0.08500,72.6875,100,59,0.35092
7212420,-0.07500,80.9375,100,59,0.33993
7212430,-0.05500,85.6875,100,59,0.33016
7212440,-0.05500,85.6875,100,59,0.33016
7212450,-0.03500,86.9375,100,59,0.32674
7212460,-0.01500,88.5625,100,59,0.32015
7212470,0.00000,89.3750,100,59,0.31600
7212480,0.02000,90.4375,100,59,0.31184
7212490,0.04000,91.6875,100,59,0.30769
7212500,0.09500,95.5000,100,59,0.29573
7212510,0.09500,95.5000,100,59,0.29573
7212520,0.09500,97.5000,100,59,0.28840
7212530,0.09500,97.5000,100,59,0.28840
7212540,0.02000,99.0625,100,59,0.28083
7212550,-0.02000,99.2500,100,59,0.27839
7212560,-0.02000,99.2500,100,59,0.27839
7212570,-0.07500,99.1875,100,59,0.26960
7212580,-0.07500,99.1875,100,59,0.26960
7212590,-0.09500,98.8125,100,59,0.26374
7212600,-0.09500,98.8125,100,59,0.26374
7212610,-0.10000,97.6875,100,59,0.25885
7212620,-0.09500,97.0625,100,59,0.26007
7212630,-0.09500,97.0625,100,59,0.26007
7212640,-0.09500,95.2500,100,59,0.27057
7212650,-0.09500,95.2500,100,59,0.27057
7212660,-0.09500,92.3125,100,59,0.29280
7212670,-0.09500,88.3125,100,59,0.32894
7212680,-0.09500,88.3125,100,59,0.32894
7212690,-0.09500,83.1875,100,59,0.39683
7212700,-0.09500,82.3750,100,59,0.42002
7212710,-0.09500,82.3750,100,59,0.42002
7212720,-0.08500,81.5000,100,59,0.46349
7212730,-0.08500,80.8750,100,59,0.49963
7212740,-0.08500,80.8750,100,59,0.49963
7212750,-0.07500,79.9375,100,59,0.53016
7212760,-0.07500,79.3125,100,59,0.55824
7212770,-0.07500,79.3125,100,59,0.55824
7212780,-0.07500,78.0000,100,59,0.61734
7212790,-0.07500,77.3750,100,59,0.63761
7212800,-0.07500,76.7500,100,59,0.65519
7212810,-0.07500,76.1875,100,59,0.67082
7212820,-0.07500,74.8125,100,59,0.70989
7212830,-0.07500,74.8125,100,59,0.70989
7212840,-0.07500,74.3750,100,59,0.72063
7212850,-0.07500,73.9375,100,59,0.72845
7212860,-0.07000,72.6875,100,59,0.74652
7212870,-0.06500,72.2500,100,59,0.75214
7212880,-0.06500,71.8750,100,59,0.75678
7212890,-0.06500,71.8750,100,59,0.75678
7212900,-0.10500,59.1875,100,59,0.40440
7212910,-0.10500,59.1875,100,59,0.40440
7212920,-0.10500,59.1875,100,59,0.40440
7212930,-0.10500,59.1875,100,59,0.40440
7212940,-0.10500,59.1875,100,59,0.40440
7212950,-0.10500,59.1875,100,59,0.40440
7212960,-0.10500,59.1875,100,59,0.40440
7212970,-0.10500,59.1875,100,59,0.40440
7212980,-0.10500,59.1875,100,59,0.40440
7212990,-0.10500,59.1875,100,59,0.40440
7213000,-0.10500,59.1875,101,59,0.40440
7213010,-0.03500,86.1250,101,59,0.35653
7213020,-0.03500,86.1250,101,59,0.35653
7213030,-0.03500,86.1250,101,59,0.35653
7213040,-0.03500,86.1250,101,59,0.35653
7213050,-0.03500,86.1250,101,59,0.35653
7213060,-0.03500,86.1250,101,59,0.35653
7213070,-0.03500,86.1250,101,59,0.35653
7213080,-0.03500,86.1250,101,59,0.35653
7213090,-0.03500,86.1250,101,59,0.35653
7213100,-0.03500,86.1250,101,59,0.35653
7213110,-0.03500,86.1250,101,59,0.35653
7213120,-0.03500,86.1250,101,59,0.35653
7213130,-0.03500,86.1250,101,59,0.35653
7213140,-0.03500,86.1250,101,59,0.35653
7213150,-0.03500,86.1250,101,59,0.35653
7213160,-0.03500,86.1250,101,59,0.35653
7213170,-0.03500,86.1250,101,59,0.35653
7213180,-0.03500,86.1250,101,59,0.35653
7213190,-0.03500,86.1250,101,59,0.35653
7213200,-0.03500,86.1250,101,59,0.35653
7213210,-0.03500,86.1250,101,59,0.35653
7213220,-0.03500,86.1250,101,59,0.35653
7213230,-0.03500,86.1250,101,59,0.35653
7213240,-0.03500,86.1250,101,59,0.35653
7213250,-0.03500,86.1250,101,59,0.35653
7213260,-0.03500,86.1250,101,59,0.35653
7213270,-0.03500,86.1250,101,59,0.35653
7213280,-0.03500,86.1250,101,59,0.35653
7213290,-0.03500,86.1250,101,59,0.35653
7213300,-0.03500,86.1250,101,59,0.35653
7213310,-0.03500,86.1250,101,59,0.35653
7213320,-0.03500,86.1250,101,59,0.35653
7213330,-0.03500,86.1250,101,59,0.35653
7213340,0.00000,89.0000,101,59,0.34359
7213350,0.01500,89.9375,101,59,0.33919
7213360,0.01500,89.9375,101,59,0.33919
7213370,0.06000,93.7500,101,59,0.32503
7213380,0.06000,93.7500,101,59,0.32503
7213390,0.11000,96.1875,101,59,0.31673
7213400,0.12000,97.2500,101,59,0.31258
7213410,0.12000,97.2500,101,59,0.31258
7213420,0.11000,98.9375,101,59,0.30501
7213430,0.08000,99.5000,101,59,0.30134
7213440,0.03500,99.8750,101,59,0.29768
7213450,-0.03500,100.2500,101,59,0.29084
7213460,-0.03500,100.2500,101,59,0.29084
7213470,-0.05500,100.1875,101,59,0.28767
7213480,-0.07500,99.7500,101,59,0.28083
7213490,-0.07500,99.7500,101,59,0.28083
7213500,-0.07500,99.0000,101,59,0.27595
7213510,-0.08500,97.8750,101,59,0.27668
7213520,-0.08500,97.8750,101,59,0.27668
7213530,-0.08500,97.1250,101,59,0.28107
7213540,-0.08000,93.4375,101,59,0.31355
7213550,-0.08000,93.4375,101,59,0.31355
7213560,-0.08000,91.6250,101,59,0.33114
7213570,-0.07500,89.5625,101,59,0.35238
7213580,-0.07000,85.6250,101,59,0.40147
7213590,-0.07500,83.3125,101,59,0.45250
7213600,-0.07500,83.3125,101,59,0.45250
7213610,-0.07000,82.8125,101,59,0.47692
7213620,-0.07000,82.1875,101,59,0.52259
7213630,-0.07000,81.8750,101,59,0.54359
7213640,-0.07000,81.5000,101,59,0.56093
7213650,-0.06000,79.8750,101,59,0.61026
7213660,-0.06000,79.8750,101,59,0.61026
7213670,-0.05500,78.6250,101,59,0.64322
7213680,-0.05500,78.0000,101,59,0.65885
7213690,-0.05500,78.0000,101,59,0.65885
7213700,-0.05500,76.4375,101,59,0.70085
7213710,-0.05500,76.0000,101,59,0.71282
7213720,-0.05500,75.6250,101,59,0.72381
7213730,-0.05500,75.6250,101,59,0.72381
7213740,-0.05500,74.7500,101,59,0.74090
7213750,-0.05500,73.8750,101,59,0.75165
7213760,-0.05500,73.8750,101,59,0.75165
7213770,-0.05000,72.6250,101,59,0.76484
7213780,-0.04500,72.2500,101,59,0.76703
7213790,-0.04500,72.2500,101,59,0.76703
7213800,-0.03500,71.4375,101,59,0.76679
7213810,-0.02000,70.6250,101,59,0.75946
7213820,-0.02000,70.6250,101,59,0.75946
7213830,0.00000,69.8125,101,59,0.74652
7213840,0.00000,69.8125,101,59,0.74652
7213850,0.00000,69.4375,101,59,0.73846
7213860,-0.02500,68.3750,101,59,0.71013
7213870,-0.02500,68.3750,101,59,0.71013
7213880,-0.03500,68.0000,101,59,0.70037
7213890,-0.05500,67.6250,101,59,0.69060
7213900,-0.06500,66.9375,101,59,0.67155
7213910,-0.06500,66.6250,101,59,0.66203
7213920,-0.06000,66.2500,101,59,0.65250
7213930,-0.07500,65.9375,101,59,0.64298
7213940,-0.07000,65.2500,101,59,0.62442
7213950,0.10000,64.9375,101,59,0.61587
7213960,0.49500,64.6875,101,59,0.60684
7213970,0.81500,63.8750,101,59,0.57900
7213980,0.81500,63.8750,101,59,0.57900
7213990,0.43500,63.6250,101,59,0.56996
7214000,-0.05500,63.1250,101,60,0.55311
7214010,-0.10500,62.6250,101,60,0.53748
7214020,-0.10500,62.6250,101,60,0.53748
7214030,-0.14500,62.1875,101,60,0.52381
7214040,-0.14500,61.9375,101,60,0.51770
7214050,-0.14500,61.9375,101,60,0.51770
7214060,-0.14500,61.2500,101,60,0.49646
7214070,-0.14500,61.0000,101,60,0.48913
7214080,-0.14500,61.0000,101,60,0.48913
7214090,-0.14500,60.3125,101,60,0.46764
7214100,-0.14500,60.3125,101,60,0.46764
7214110,-0.14000,59.8750,101,60,0.45446
7214120,-0.14000,59.8750,101,60,0.45446
7214130,-0.13500,59.7500,101,60,0.44762
7214140,-0.12500,61.0625,101,60,0.43077
7214150,-0.12500,61.0625,101,60,0.43077
7214160,-0.11000,66.3125,101,60,0.42002
7214170,-0.10500,75.4375,101,60,0.40928
7214180,-0.10500,75.4375,101,60,0.40928
7214190,-0.08500,83.6875,101,60,0.39829
7214200,-0.07500,86.4375,101,60,0.39292
7214210,-0.07500,86.4375,101,60,0.39292
7214220,-0.04500,90.5625,101,60,0.37753
7214230,-0.04500,90.5625,101,60,0.37753
7214240,-0.00500,92.3750,101,60,0.37021
7214250,0.01000,94.9375,101,60,0.36190
7214260,0.03500,96.3125,101,60,0.35775
7214270,0.03500,96.3125,101,60,0.35775
7214280,0.09000,99.0000,101,60,0.35092
7214290,0.10000,101.1250,101,60,0.34457
7214300,0.10000,101.1250,101,60,0.34457
7214310,0.06000,102.5000,101,60,0.33822
7214320,0.02000,102.9375,101,60,0.33529
7214330,0.02000,102.9375,101,60,0.33529
7214340,-0.05000,103.4375,101,60,0.32943
7214350,-0.07000,103.3750,101,60,0.32747
7214360,-0.07000,103.3750,101,60,0.32747
7214370,-0.09000,102.9375,101,60,0.32088
7214380,-0.08500,102.6250,101,60,0.31941
7214390,-0.08500,102.6250,101,60,0.31941
7214400,-0.08500,102.1875,101,60,0.31917
7214410,-0.08500,100.1250,101,60,0.33358
7214420,-0.08500,100.1250,101,60,0.33358
7214430,-0.08500,97.7500,101,60,0.35922
7214440,-0.08500,97.7500,101,60,0.35922
7214450,-0.09000,92.1250,101,60,0.41734
7214460,-0.08500,90.0000,101,60,0.44151
7214470,-0.08500,90.0000,101,60,0.44151
7214480,-0.08500,88.1250,101,60,0.46618
7214490,-0.07500,85.3125,101,60,0.53651
7214500,-0.07500,85.3125,101,60,0.53651
7214510,-0.07000,84.5000,101,60,0.57851
7214520,-0.07000,84.5000,101,60,0.57851
7214530,-0.06500,84.1250,101,60,0.59853
7214540,-0.07000,82.6875,101,60,0.64762
7214550,-0.07000,82.6875,101,60,0.64762
7214560,-0.07000,82.0625,101,60,0.66325
7214570,-0.07000,80.1875,101,60,0.70965
7214580,-0.06500,79.6250,101,60,0.72405
7214590,-0.06500,79.6250,101,60,0.72405
7214600,-0.06500,78.5625,101,60,0.74945
7214610,-0.06500,77.6250,101,60,0.77070
7214620,-0.06500,77.6250,101,60,0.77070
7214630,-0.06500,76.8125,101,60,0.78608
7214640,-0.06500,76.8125,101,60,0.78608
7214650,-0.06000,76.3750,101,60,0.79023
7214660,-0.06000,75.5000,101,60,0.79902
7214670,-0.06000,75.0625,101,60,0.80220
7214680,-0.05500,74.2500,101,60,0.80537
7214690,-0.05500,74.2500,101,60,0.80537
7214700,-0.03500,73.0000,101,60,0.79756
7214710,-0.03500,73.0000,101,60,0.79756
7214720,-0.02000,72.6250,101,60,0.79145
7214730,-0.00500,71.4375,101,60,0.76581
7214740,-0.00500,71.4375,101,60,0.76581
7214750,-0.01500,71.0625,101,60,0.75604
7214760,-0.03500,70.3125,101,60,0.73455
7214770,-0.04500,69.5625,101,60,0.71258
7214780,-0.04500,69.5625,101,60,0.71258
7214790,-0.06500,69.2500,101,60,0.70183
7214800,-0.07000,68.8750,101,60,0.69133
7214810,-0.06500,68.5625,101,60,0.68107
7214820,-0.09000,67.5000,101,60,0.61294
7214830,-0.03000,67.1875,101,60,0.59976
7214840,-0.03000,67.1875,101,60,0.59976
7214850,0.24500,66.8750,101,60,0.58901
7214860,0.64500,66.3125,101,60,0.56947
7214870,0.86000,66.0625,101,60,0.56020
7214880,0.64500,65.8125,101,60,0.55092
7214890,0.24500,65.5625,101,60,0.54188
7214900,-0.09000,64.7500,101,60,0.51600
7214910,-0.09000,64.7500,101,60,0.51600
7214920,-0.14500,64.2500,101,60,0.50012
7214930,-0.14500,64.2500,101,60,0.50012
7214940,-0.15000,63.7500,101,60,0.48596
7214950,-0.15500,63.5000,101,60,0.47985
7214960,-0.15500,63.3125,101,60,0.47326
7214970,-0.15500,63.1250,101,60,0.46642
7214980,-0.15500,62.6875,101,60,0.45275
7214990,-0.15500,62.4375,101,60,0.44615
7215000,-0.15500,62.1875,101,60,0.43980
7215010,-0.15500,61.9375,101,60,0.43346
7215020,-0.15000,61.6875,101,60,0.42100
7215030,-0.14500,61.8125,101,60,0.41490
7215040,-0.14000,62.3125,101,60,0.41001
7215050,-0.12500,69.5000,101,60,0.39512
7215060,-0.11500,74.0625,101,60,0.38974
7215070,-0.11500,74.0625,101,60,0.38974
7215080,-0.11000,78.8750,101,60,0.38437
7215090,-0.09000,89.3125,101,60,0.36874
7215100,-0.09000,89.3125,101,60,0.36874
7215110,-0.07500,91.1875,101,60,0.36361
7215120,-0.04500,93.4375,101,60,0.35433
7215130,-0.04500,93.4375,101,60,0.35433
7215140,-0.02500,95.4375,101,60,0.34676
7215150,-0.01000,96.6875,101,60,0.34432
7215160,0.00500,98.0625,101,60,0.34139
7215170,0.03500,99.4375,101,60,0.33822
7215180,0.06500,102.0000,101,60,0.33162
7215190,0.08500,103.0625,101,60,0.32845
7215200,0.09000,104.0000,101,60,0.32527
7215210,0.07000,104.6875,101,60,0.32210
7215220,0.03500,105.6250,101,60,0.31624
7215230,0.00000,105.8750,101,60,0.31331
7215240,-0.03500,106.0000,101,60,0.31160
7215250,-0.08000,105.6875,101,60,0.30672
7215260,-0.08000,105.6875,101,60,0.30672
7215270,-0.08500,105.4375,101,60,0.30525
7215280,-0.09000,104.6875,101,60,0.30305
7215290,-0.08500,103.5000,101,60,0.30598
7215300,-0.08500,103.5000,101,60,0.30598
7215310,-0.08500,101.8125,101,60,0.31941
7215320,-0.08500,100.6250,101,60,0.33114
7215330,-0.08500,100.6250,101,60,0.33114
7215340,-0.08000,95.4375,101,60,0.37851
7215350,-0.08000,95.4375,101,60,0.37851
7215360,-0.07500,91.1250,101,60,0.42027
7215370,-0.07500,91.1250,101,60,0.42027
7215380,-0.07500,88.0000,101,60,0.46447
7215390,-0.06500,87.0625,101,60,0.48596
7215400,-0.06500,86.4375,101,60,0.50696
7215410,-0.05500,85.0000,101,60,0.56410
7215420,-0.05500,85.0000,101,60,0.56410
7215430,-0.05500,84.5000,101,60,0.58217
7215440,-0.05500,83.9375,101,60,0.59707
7215450,-0.04500,81.9375,101,60,0.63858
7215460,-0.04500,81.9375,101,60,0.63858
7215470,-0.04000,81.2500,101,60,0.65275
7215480,-0.03500,79.8750,101,60,0.67937
7215490,-0.03000,78.6875,101,60,0.70232
7215500,-0.03000,78.6875,101,60,0.70232
7215510,-0.03000,77.6250,101,60,0.72112
7215520,-0.03000,77.6250,101,60,0.72112
7215530,-0.02500,76.1875,101,60,0.73773
7215540,-0.02500,75.7500,101,60,0.74139
7215550,-0.02500,75.7500,101,60,0.74139
7215560,-0.02500,75.2500,101,60,0.74481
7215570,-0.02500,74.7500,101,60,0.74725
7215580,-0.02500,73.8125,101,60,0.74823
7215590,-0.02000,73.3750,101,60,0.74652
7215600,-0.01500,72.8750,101,60,0.74335
7215610,0.00000,72.4375,101,60,0.72527
7215620,0.02000,71.0625,101,60,0.71648
7215630,0.02000,70.6875,101,60,0.70672
7215640,0.02000,70.6875,101,60,0.70672
7215650,0.00000,69.4375,101,60,0.67521
7215660,-0.00500,69.0625,101,60,0.66374
7215670,-0.02500,68.6875,101,60,0.65226
7215680,-0.04000,68.3125,101,60,0.64103
7215690,-0.04000,68.3125,101,60,0.64103
7215700,-0.03500,67.1250,101,60,0.60879
7215710,-0.04500,66.7500,101,60,0.59780
7215720,-0.04500,66.7500,101,60,0.59780
7215730,0.06000,65.7500,101,60,0.56752
7215740,0.42000,65.3750,101,60,0.55775
7215750,0.42000,65.3750,101,60,0.55775
7215760,0.80500,65.0625,101,60,0.54725
7215770,0.55500,64.1250,101,60,0.51648
7215780,0.55500,64.1250,101,60,0.51648
7215790,0.15500,63.8750,101,60,0.50672
7215800,-0.08000,63.2500,101,60,0.48718
7215810,-0.08000,63.2500,101,60,0.48718
7215820,-0.11000,62.6250,101,60,0.46813
7215830,-0.12500,62.3125,101,60,0.45910
7215840,-0.13000,61.8125,101,60,0.44420
7215850,-0.13000,61.8125,101,60,0.44420
7215860,-0.13000,61.2500,101,60,0.42857
7215870,-0.12500,61.0000,101,60,0.42076
7215880,-0.12500,60.6875,101,60,0.41319
7215890,-0.11500,59.7500,101,60,0.38999
7215900,-0.11500,59.7500,101,60,0.38999
7215910,-0.11500,59.5000,101,60,0.38242
7215920,-0.11000,59.3125,101,60,0.37509
7215930,-0.10500,59.5000,101,60,0.35702
7215940,-0.10500,59.5000,101,60,0.35702
7215950,-0.08500,62.3750,101,60,0.34481
7215960,-0.07500,65.5000,101,60,0.33846
7215970,-0.07500,65.5000,101,60,0.33846
7215980,-0.06500,78.4375,101,60,0.31941
7215990,-0.05000,81.9375,101,60,0.31331
7216000,-0.05000,81.9375,100,59,0.31331
7216010,-0.02500,87.7500,100,59,0.29646
7216020,-0.00500,88.6250,100,59,0.29109
7216030,-0.00500,88.6250,100,59,0.29109
7216040,0.01000,89.4375,100,59,0.28742
7216050,0.05500,92.5000,100,59,0.27546
7216060,0.05500,92.5000,100,59,0.27546
7216070,0.11000,94.9375,100,59,0.26642
7216080,0.12500,96.0000,100,59,0.26203
7216090,0.12500,96.0000,100,59,0.26203
7216100,0.09000,98.3750,100,59,0.24933
7216110,0.05000,98.8125,100,59,0.24542
7216120,0.05000,98.8125,100,59,0.24542
7216130,-0.02500,99.3750,100,59,0.23785
7216140,-0.05000,99.3125,100,59,0.23541
7216150,-0.05000,99.3125,100,59,0.23541
7216160,-0.07500,98.9375,100,59,0.22930
7216170,-0.07500,98.9375,100,59,0.22930
7216180,-0.08500,97.7500,100,59,0.22125
7216190,-0.08500,97.1250,100,59,0.22002
7216200,-0.08500,97.1250,100,59,0.22002
7216210,-0.08500,94.2500,100,59,0.23004
7216220,-0.08500,92.8125,100,59,0.24005
7216230,-0.08500,92.8125,100,59,0.24005
7216240,-0.08000,89.0000,100,59,0.26618
7216250,-0.08000,89.0000,100,59,0.26618
7216260,-0.07500,85.2500,100,59,0.30501
7216270,-0.07000,82.9375,100,59,0.35018
7216280,-0.07000,82.9375,100,59,0.35018
7216290,-0.06500,81.6250,100,59,0.41563
7216300,-0.06000,81.2500,100,59,0.43565
7216310,-0.06000,81.2500,100,59,0.43565
7216320,-0.05500,80.8750,100,59,0.45495
7216330,-0.05500,79.1875,100,59,0.50305
7216340,-0.05500,79.1875,100,59,0.50305
7216350,-0.05500,78.5625,100,59,0.51795
7216360,-0.04500,77.3125,100,59,0.54750
7216370,-0.04500,77.3125,100,59,0.54750
7216380,-0.04500,75.7500,100,59,0.58779
7216390,-0.04500,75.3125,100,59,0.59951
7216400,-0.04500,75.3125,100,59,0.59951
7216410,-0.05000,74.8125,100,59,0.62833
7216420,-0.04500,73.5625,100,59,0.63565
7216430,-0.04500,73.5625,100,59,0.63565
7216440,-0.04500,72.6875,100,59,0.64420
7216450,-0.04500,72.6875,100,59,0.64420
7216460,-0.04500,71.8750,100,59,0.65128
7216470,-0.03500,71.0000,100,59,0.65495
7216480,-0.03500,71.0000,100,59,0.65495
7216490,-0.01500,69.7500,100,59,0.64860
7216500,0.00000,69.3125,100,59,0.64322
7216510,0.01000,68.9375,100,59,0.63639
7216520,0.00500,68.5625,100,59,0.62857
7216530,-0.00500,67.8125,100,59,0.61245
7216540,-0.01500,67.4375,100,59,0.60366
7216550,-0.01500,67.4375,100,59,0.60366
7216560,-0.03500,66.7500,100,59,0.58510
7216570,-0.05500,66.0625,100,59,0.56679
7216580,-0.05500,65.6875,100,59,0.55800
7216590,-0.05000,65.3125,100,59,0.54945
7216600,-0.05000,65.3125,100,59,0.54945
7216610,-0.08500,64.3125,100,59,0.52283
7216620,0.02000,64.0000,100,59,0.51380
7216630,0.37000,63.6875,100,59,0.50574
7216640,0.37000,63.6875,100,59,0.50574
7216650,0.77500,63.4375,100,59,0.49817
7216660,0.90000,62.9375,100,59,0.48156
7216670,0.58000,62.6875,100,59,0.47350
7216680,-0.01000,62.0625,100,59,0.45812
7216690,-0.07500,61.5625,100,59,0.44298
7216700,-0.07500,61.5625,100,59,0.44298
7216710,-0.12000,61.0625,100,59,0.42833
7216720,-0.12000,61.0625,100,59,0.42833
7216730,-0.12500,60.8125,100,59,0.42076
7216740,-0.12500,60.0625,100,59,0.40342
7216750,-0.12500,60.0625,100,59,0.40342
7216760,-0.12500,59.8125,100,59,0.39731
7216770,-0.12000,58.9375,100,59,0.37827
7216780,-0.12000,58.6875,100,59,0.37192
7216790,-0.12000,58.6875,100,59,0.37192
7216800,-0.11000,58.2500,100,59,0.35946
7216810,-0.10500,58.0625,100,59,0.34799
7216820,-0.10500,58.0625,100,59,0.34799
7216830,-0.09500,59.1250,100,59,0.33822
7216840,-0.09000,60.8125,100,59,0.33455
7216850,-0.09000,60.8125,100,59,0.33455
7216860,-0.08500,67.7500,100,59,0.33089
7216870,-0.07500,72.3125,100,59,0.33529
7216880,-0.06000,80.3125,100,59,0.33284
7216890,-0.04500,85.0000,100,59,0.32601
7216900,-0.04500,85.0000,100,59,0.32601
7216910,-0.01500,87.1875,100,59,0.31844
7216920,0.00500,87.9375,100,59,0.31453
7216930,0.00500,87.9375,100,59,0.31453
7216940,0.05000,90.7500,100,59,0.30598
7216950,0.05000,90.7500,100,59,0.30598
7216960,0.10000,93.0625,100,59,0.29939
7216970,0.12000,95.0625,100,59,0.29280
7216980,0.12000,95.0625,100,59,0.29280
7216990,0.09000,96.5000,100,59,0.28645
7217000,0.09000,96.5000,100,59,0.28645
7217010,0.05000,96.9375,100,59,0.28352
7217020,-0.02000,97.5000,100,59,0.27570
7217030,-0.02000,97.5000,100,59,0.27570
7217040,-0.04500,97.5000,100,59,0.27424
7217050,-0.06500,97.3750,100,59,0.27326
7217060,-0.07500,96.8125,100,59,0.26960
7217070,-0.07500,96.0000,100,59,0.26618
7217080,-0.07500,96.0000,100,59,0.26618
7217090,-0.08000,95.3750,100,59,0.26545
7217100,-0.08000,93.6875,100,59,0.26886
7217110,-0.07500,92.4375,100,59,0.27473
7217120,-0.07500,90.8750,100,59,0.28376
7217130,-0.07500,89.0000,100,59,0.29621
7217140,-0.07500,85.0625,100,59,0.32527
7217150,-0.06500,82.1875,100,59,0.36557
7217160,-0.06500,82.1875,100,59,0.36557
7217170,-0.06500,80.7500,100,59,0.43077
7217180,-0.06000,80.4375,100,59,0.45128
7217190,-0.06000,80.4375,100,59,0.45128
7217200,-0.06000,79.7500,100,59,0.48913
7217210,-0.06000,78.6875,100,59,0.52308
7217220,-0.06000,78.6875,100,59,0.52308
7217230,-0.05500,77.4375,100,59,0.55214
7217240,-0.05500,77.4375,100,59,0.55214
7217250,-0.05500,76.8750,100,59,0.56361
7217260,-0.05000,75.6250,100,59,0.58926
7217270,-0.05000,75.1250,100,59,0.60195
7217280,-0.05000,74.6875,100,59,0.61416
7217290,-0.05000,74.3125,100,59,0.62540
7217300,-0.05000,73.0625,100,59,0.65275
7217310,-0.05000,72.6250,100,59,0.66032
7217320,-0.05000,72.2500,100,59,0.66691
7217330,-0.05000,72.2500,100,59,0.66691
7217340,-0.05000,71.3750,100,59,0.67424
7217350,-0.05000,70.6250,100,59,0.67888
7217360,-0.05000,70.6250,100,59,0.67888
7217370,-0.05000,70.2500,100,59,0.67937
7217380,-0.04000,69.5000,100,59,0.67595
7217390,-0.00500,68.7500,100,59,0.66691
7217400,-0.00500,68.7500,100,59,0.66691
7217410,0.00000,68.3750,100,59,0.66056
7217420,0.06500,67.3125,100,59,0.63785
7217430,0.17500,67.0000,100,59,0.63004
7217440,0.17500,67.0000,100,59,0.63004
7217450,0.18000,66.6250,100,59,0.62173
7217460,0.00000,65.5625,100,59,0.59683
7217470,0.00000,65.5625,100,59,0.59683
7217480,0.00500,64.8125,100,59,0.58046
7217490,-0.01000,64.1875,100,59,0.56410
7217500,-0.01000,64.1875,100,59,0.56410
7217510,0.02500,63.6250,100,59,0.54750
7217520,0.02500,63.6250,100,59,0.54750
7217530,0.36500,63.3125,100,59,0.53944
7217540,0.89500,62.5000,100,59,0.51819
7217550,0.89500,62.5000,100,59,0.51819
7217560,0.60500,62.2500,100,59,0.51062
7217570,-0.02000,61.4375,100,59,0.48889
7217580,-0.02000,61.4375,100,59,0.48889
7217590,-0.12500,60.9375,100,59,0.47521
7217600,-0.15000,60.6875,100,59,0.46862
7217610,-0.15500,60.1875,100,59,0.45568
7217620,-0.14500,60.0000,100,59,0.45055
7217630,-0.14500,59.6875,100,59,0.44591
7217640,-0.14500,59.6875,100,59,0.44591
7217650,-0.15000,59.1250,100,59,0.43492
7217660,-0.14500,58.5625,100,59,0.42295
7217670,-0.14500,58.2500,100,59,0.41685
7217680,-0.14500,58.0625,100,59,0.41099
7217690,-0.14500,58.0625,100,59,0.41099
7217700,-0.14000,57.8125,100,59,0.39951
7217710,-0.12500,58.1250,100,59,0.38901
7217720,-0.12500,58.1250,100,59,0.38901
7217730,-0.12000,59.0000,100,59,0.38388
7217740,-0.11500,68.0000,100,59,0.37192
7217750,-0.11500,68.0000,100,59,0.37192
7217760,-0.10500,72.6875,100,59,0.36703
7217770,-0.08500,83.6250,100,59,0.35287
7217780,-0.08500,83.6250,100,59,0.35287
7217790,-0.07500,85.5625,100,59,0.34823
7217800,-0.05000,87.6875,100,59,0.33919
7217810,-0.05000,87.6875,100,59,0.33919
7217820,-0.01500,90.2500,100,59,0.32894
7217830,-0.01500,90.2500,100,59,0.32894
7217840,0.00500,91.4375,100,59,0.32674
7217850,0.04000,92.6875,100,59,0.32357
7217860,0.08500,96.1875,100,59,0.31355
7217870,0.08500,97.0625,100,59,0.31013
7217880,0.08500,97.0625,100,59,0.31013
7217890,0.03000,98.5625,100,59,0.30085
7217900,0.03000,98.5625,100,59,0.30085
7217910,-0.01500,98.7500,100,59,0.29817
7217920,-0.07000,98.8125,100,59,0.29304
7217930,-0.07000,98.8125,100,59,0.29304
7217940,-0.08500,98.5000,100,59,0.29060
7217950,-0.09500,98.2500,100,59,0.28889
7217960,-0.10500,97.9375,100,59,0.28669
7217970,-0.10500,97.5000,100,59,0.28474
7217980,-0.11500,95.5000,100,59,0.28645
7217990,-0.11500,94.4375,100,59,0.29231
7218000,-0.11500,94.4375,101,59,0.29231
7218010,-0.12000,89.5625,101,59,0.33040
7218020,-0.12000,87.5625,101,59,0.34701
7218030,-0.12000,87.5625,101,59,0.34701
7218040,-0.11500,84.0625,101,59,0.38462
7218050,-0.11000,82.2500,101,59,0.42784
7218060,-0.11000,81.7500,101,59,0.44933
7218070,-0.11000,81.3750,101,59,0.47009
7218080,-0.11000,81.0625,101,59,0.48987
7218090,-0.11000,81.0625,101,59,0.48987
7218100,-0.11000,80.1250,101,59,0.52674
7218110,-0.10500,79.0000,101,59,0.56093
7218120,-0.10500,79.0000,101,59,0.56093
7218130,-0.10500,78.3750,101,59,0.57680
7218140,-0.10500,77.1250,101,59,0.60122
7218150,-0.10500,76.5625,101,59,0.61368
7218160,-0.10500,76.0000,101,59,0.62589
7218170,-0.11000,75.5000,101,59,0.63785
7218180,-0.10500,74.5625,101,59,0.65934
7218190,-0.10500,74.1250,101,59,0.66886
7218200,-0.10500,73.6875,101,59,0.67766
7218210,-0.10000,73.2500,101,59,0.68547
7218220,-0.10000,72.4375,101,59,0.69841
7218230,-0.09000,71.6250,101,59,0.70354
7218240,-0.08500,71.1875,101,59,0.70501
7218250,-0.08500,71.1875,101,59,0.70501
7218260,-0.07500,70.0000,101,59,0.70330
7218270,-0.07500,70.0000,101,59,0.70330
7218280,-0.06500,69.6250,101,59,0.70012
7218290,-0.05000,69.2500,101,59,0.69573
7218300,-0.04000,68.5000,101,59,0.68352
7218310,-0.04500,68.1250,101,59,0.67595
7218320,-0.06500,67.3125,101,59,0.65885
7218330,-0.07000,66.5625,101,59,0.64200
7218340,-0.08500,66.2500,101,59,0.63321
7218350,-0.08500,66.2500,101,59,0.63321
7218360,-0.10500,65.8750,101,59,0.62442
7218370,-0.10500,65.5000,101,59,0.61563
7218380,-0.09500,64.8125,101,59,0.59829
7218390,-0.12500,64.1250,101,59,0.58046
7218400,-0.04000,63.8125,101,59,0.57143
7218410,-0.04000,63.8125,101,59,0.57143
7218420,0.69500,63.0000,101,59,0.54603
7218430,0.69500,63.0000,101,59,0.54603
7218440,0.60000,62.5000,101,59,0.53065
7218450,0.17500,62.0000,101,59,0.51526
7218460,-0.04500,61.6875,101,59,0.50745
7218470,-0.04500,61.6875,101,59,0.50745
7218480,-0.14500,61.1875,101,59,0.49231
7218490,-0.16000,60.6875,101,59,0.47814
7218500,-0.16000,60.6875,101,59,0.47814
7218510,-0.16000,60.1875,101,59,0.46471
7218520,-0.16000,60.1875,101,59,0.46471
7218530,-0.16000,59.4375,101,59,0.44737
7218540,-0.16000,59.1875,101,59,0.44151
7218550,-0.16000,59.1875,101,59,0.44151
7218560,-0.15500,58.5625,101,59,0.42930
7218570,-0.15500,58.1250,101,59,0.41661
7218580,-0.15500,58.1250,101,59,0.41661
7218590,-0.14500,58.0625,101,59,0.40415
7218600,-0.14500,58.0625,101,59,0.40415
7218610,-0.14500,58.2500,101,59,0.39805
7218620,-0.13000,63.5000,101,59,0.38169
7218630,-0.13000,63.5000,101,59,0.38169
7218640,-0.11500,72.1250,101,59,0.37289
7218650,-0.10500,80.5000,101,59,0.36361
7218660,-0.10500,80.5000,101,59,0.36361
7218670,-0.08000,85.5625,101,59,0.35433
7218680,-0.06500,86.9375,101,59,0.34994
7218690,-0.06500,86.9375,101,59,0.34994
7218700,-0.03000,89.6875,101,59,0.33700
7218710,-0.01000,90.7500,101,59,0.33284
7218720,0.01000,92.0000,101,59,0.32869
7218730,0.04000,94.5000,101,59,0.32332
7218740,0.06500,95.6875,101,59,0.32039
7218750,0.08500,96.7500,101,59,0.31722
7218760,0.08500,96.7500,101,59,0.31722
7218770,0.07000,98.9375,101,59,0.30720
7218780,0.03000,99.3125,101,59,0.30403
7218790,0.03000,99.3125,101,59,0.30403
7218800,-0.01500,99.5625,101,59,0.30085
7218810,-0.07500,99.6250,101,59,0.29231
7218820,-0.07500,99.6250,101,59,0.29231
7218830,-0.10000,99.1875,101,59,0.28987
7218840,-0.10500,98.8750,101,59,0.28791
7218850,-0.10500,98.8750,101,59,0.28791
7218860,-0.10500,97.4375,101,59,0.28425
7218870,-0.10500,96.6875,101,59,0.28620
7218880,-0.10500,95.8125,101,59,0.29084
7218890,-0.10500,93.1250,101,59,0.31013
7218900,-0.10500,91.3750,101,59,0.32430
7218910,-0.10500,89.3125,101,59,0.34212
7218920,-0.10500,87.2500,101,59,0.36410
7218930,-0.10500,83.9375,101,59,0.40659
7218940,-0.10500,83.9375,101,59,0.40659
7218950,-0.10000,82.3750,101,59,0.45397
7218960,-0.10000,82.3750,101,59,0.45397
7218970,-0.09500,81.9375,101,59,0.47766
7218980,-0.09500,81.1875,101,59,0.52210
7218990,-0.09500,80.7500,101,59,0.54310
7219000,-0.09500,80.2500,101,60,0.56313
7219010,-0.09500,79.6875,101,60,0.58242
7219020,-0.09500,78.5000,101,60,0.61856
7219030,-0.09500,77.8125,101,60,0.63297
7219040,-0.09500,77.2500,101,60,0.64542
7219050,-0.08500,75.6250,101,60,0.68498
7219060,-0.08500,75.6250,101,60,0.68498
7219070,-0.08500,75.1250,101,60,0.69719
7219080,-0.08500,74.2500,101,60,0.71844
7219090,-0.08500,74.2500,101,60,0.71844
7219100,-0.08500,73.4375,101,60,0.73529
7219110,-0.08000,72.6250,101,60,0.74847
7219120,-0.08000,72.6250,101,60,0.74847
7219130,-0.08500,72.1875,101,60,0.75189
7219140,-0.08000,71.3750,101,60,0.75531
7219150,-0.07500,70.8750,101,60,0.75604
7219160,-0.07000,70.5000,101,60,0.75507
7219170,-0.05000,70.1250,101,60,0.75238
7219180,-0.03000,69.3750,101,60,0.74237
7219190,-0.02000,68.9375,101,60,0.73480
7219200,-0.03000,68.1250,101,60,0.71648
7219210,-0.04500,67.4375,101,60,0.69524
7219220,-0.04500,67.4375,101,60,0.69524
7219230,-0.06500,66.6250,101,60,0.67473
7219240,-0.08500,66.2500,101,60,0.66422
7219250,-0.08500,66.2500,101,60,0.66422
7219260,-0.08500,65.5000,101,60,0.64371
7219270,-0.08500,64.8125,101,60,0.62344
7219280,-0.08500,64.8125,101,60,0.62344
7219290,-0.05500,63.9375,101,60,0.59267
7219300,-0.05500,63.9375,101,60,0.59267
7219310,0.67000,63.3750,101,60,0.57314
7219320,0.67000,63.3750,101,60,0.57314
7219330,0.87000,63.1250,101,60,0.56410
7219340,0.23500,62.3125,101,60,0.53797
7219350,0.23500,62.3125,101,60,0.53797
7219360,-0.02000,62.1250,101,60,0.52894
7219370,-0.10000,61.8750,101,60,0.51990
7219380,-0.15500,61.0625,101,60,0.49377
7219390,-0.15500,61.0625,101,60,0.49377
7219400,-0.16000,60.8750,101,60,0.48547
7219410,-0.16000,60.6250,101,60,0.47741
7219420,-0.15500,60.1875,101,60,0.46154
7219430,-0.15000,59.6875,101,60,0.44908
7219440,-0.15000,59.6875,101,60,0.44908
7219450,-0.15000,59.3750,101,60,0.44249
7219460,-0.15000,58.8750,101,60,0.42882
7219470,-0.13500,58.4375,101,60,0.41490
7219480,-0.13500,58.4375,101,60,0.40781
7219490,-0.13500,58.4375,101,60,0.40781
7219500,-0.12500,59.1875,101,60,0.39438
7219510,-0.11500,63.0625,101,60,0.38144
7219520,-0.11000,66.8125,101,60,0.37656
7219530,-0.10000,75.9375,101,60,0.36728
7219540,-0.10000,75.9375,101,60,0.36728
7219550,-0.08500,83.3125,101,60,0.35678
7219560,-0.07000,85.6875,101,60,0.35140
7219570,-0.07000,85.6875,101,60,0.35140
7219580,-0.03500,89.1875,101,60,0.33626
7219590,-0.03500,89.1875,101,60,0.33626
7219600,0.00000,91.1250,101,60,0.32698
7219610,0.02000,93.6250,101,60,0.31795
7219620,0.02000,93.6250,101,60,0.31795
7219630,0.08000,96.1875,101,60,0.31282
7219640,0.08000,96.1875,101,60,0.31282
7219650,0.10000,97.2500,101,60,0.30965
7219660,0.10500,99.0000,101,60,0.30256
7219670,0.08500,99.6250,101,60,0.29915
7219680,0.00500,100.3750,101,60,0.29206
7219690,-0.03000,100.6875,101,60,0.28620
7219700,-0.05500,100.6875,101,60,0.28352
7219710,-0.07000,100.5625,101,60,0.28107
7219720,-0.07000,100.5625,101,60,0.28107
7219730,-0.08500,99.7500,101,60,0.27766
7219740,-0.08500,99.3125,101,60,0.27643
7219750,-0.08500,99.3125,101,60,0.27643
7219760,-0.09000,98.1250,101,60,0.27741
7219770,-0.09500,96.1875,101,60,0.28938
7219780,-0.09500,96.1875,101,60,0.28938
7219790,-0.09500,93.3125,101,60,0.31746
7219800,-0.09500,93.3125,101,60,0.31746
7219810,-0.09500,91.4375,101,60,0.33724
7219820,-0.09000,85.6250,101,60,0.40733
7219830,-0.08500,84.3125,101,60,0.42882
7219840,-0.08500,84.3125,101,60,0.42882
7219850,-0.09000,82.6250,101,60,0.49792
7219860,-0.08500,82.3125,101,60,0.52015
7219870,-0.08500,81.9375,101,60,0.54139
7219880,-0.08500,81.5000,101,60,0.56166
7219890,-0.08500,81.5000,101,60,0.56166
7219900,-0.08500,80.4375,101,60,0.59976
7219910,-0.08500,79.8750,101,60,0.61758
7219920,-0.08500,79.2500,101,60,0.63468
7219930,-0.08500,78.5625,101,60,0.64860
7219940,-0.08500,77.4375,101,60,0.67375
7219950,-0.08500,76.9375,101,60,0.68718
7219960,-0.08000,76.4375,101,60,0.70037
7219970,-0.08500,76.0000,101,60,0.71282
7219980,-0.08000,75.1250,101,60,0.73455
7219990,-0.08000,74.6875,101,60,0.74359
7220000,-0.08500,73.8750,101,60,0.75824
7220010,-0.08500,73.8750,101,60,0.75824
7220020,-0.08500,73.0625,101,60,0.76777
7220030,-0.08000,72.1875,101,60,0.76923
7220040,-0.08000,72.1875,101,60,0.76923
7220050,-0.07500,71.7500,101,60,0.76874
7220060,-0.05500,70.6250,101,60,0.75946
7220070,-0.05500,70.6250,101,60,0.75946
7220080,-0.03500,69.9375,101,60,0.74530
7220090,-0.03500,69.9375,101,60,0.74530
7220100,-0.04500,68.8125,101,60,0.71575
7220110,-0.05000,68.4375,101,60,0.70501
7220120,-0.05000,68.4375,101,60,0.70501
7220130,-0.08000,67.3125,101,60,0.67424
7220140,-0.09500,66.9375,101,60,0.66398
7220150,-0.09500,66.9375,101,60,0.66398
7220160,-0.08500,66.2500,101,60,0.64396
7220170,-0.08500,66.2500,101,60,0.64396
7220180,-0.09500,65.6250,101,60,0.62369
7220190,0.05000,65.0625,101,60,0.60366
7220200,0.05000,65.0625,101,60,0.60366
7220210,0.79000,64.1875,101,60,0.57460
7220220,0.82000,63.9375,101,60,0.56630
7220230,0.82000,63.9375,101,60,0.56630
7220240,0.10000,63.5000,101,60,0.55018
7220250,0.10000,63.5000,101,60,0.55018
7220260,-0.06000,63.0000,101,60,0.53382
7220270,-0.14500,62.5000,101,60,0.51795
7220280,-0.14500,62.5000,101,60,0.51795
7220290,-0.15500,62.2500,101,60,0.50989
7220300,-0.15500,61.6250,101,60,0.48645
7220310,-0.15500,61.6250,101,60,0.48645
7220320,-0.15500,61.3750,101,60,0.47912
7220330,-0.15500,60.6875,101,60,0.46081
7220340,-0.15500,60.6875,101,60,0.46081
7220350,-0.15500,60.4375,101,60,0.45397
7220360,-0.14000,59.9375,101,60,0.44078
7220370,-0.14000,59.9375,101,60,0.44078
7220380,-0.13500,59.8750,101,60,0.42735
7220390,-0.13000,60.2500,101,60,0.42100
7220400,-0.12500,61.3125,101,60,0.41465
7220410,-0.11500,70.8750,101,60,0.39658
7220420,-0.11500,75.6875,101,60,0.39194
7220430,-0.10500,80.1875,101,60,0.38803
7220440,-0.10500,80.1875,101,60,0.38803
7220450,-0.08500,88.8125,101,60,0.37387
7220460,-0.07500,90.2500,101,60,0.36899
7220470,-0.05500,91.2500,101,60,0.36410
7220480,-0.03500,92.1875,101,60,0.35922
7220490,-0.03500,92.1875,101,60,0.35922
7220500,-0.01500,94.4375,101,60,0.35018
7220510,0.02500,97.1875,101,60,0.34212
7220520,0.02500,97.1875,101,60,0.34212
7220530,0.05000,98.5000,101,60,0.33944
7220540,0.09500,101.9375,101,60,0.33162
7220550,0.09500,101.9375,101,60,0.33162
7220560,0.09000,102.7500,101,60,0.32821
7220570,0.02000,104.1250,101,60,0.31844
7220580,0.02000,104.1250,101,60,0.31844
7220590,-0.04500,104.4375,101,60,0.31331
7220600,-0.04500,104.4375,101,60,0.31331
7220610,-0.08500,104.3125,101,60,0.30672
7220620,-0.09000,104.0625,101,60,0.30574
7220630,-0.09000,104.0625,101,60,0.30574
7220640,-0.09500,103.7500,101,60,0.30525
7220650,-0.09500,102.1250,101,60,0.30867
7220660,-0.09500,102.1250,101,60,0.30867
7220670,-0.09500,100.3750,101,60,0.32479
7220680,-0.09000,99.1250,101,60,0.33871
7220690,-0.09000,99.1250,101,60,0.33871
7220700,-0.08500,93.7500,101,60,0.40073
7220710,-0.08000,91.6875,101,60,0.42564
7220720,-0.08000,91.6875,101,60,0.42564
7220730,-0.08000,87.1250,101,60,0.49011
7220740,-0.08000,86.3750,101,60,0.51282
7220750,-0.08000,86.3750,101,60,0.51282
7220760,-0.08000,85.8750,101,60,0.53480
7220770,-0.08000,85.4375,101,60,0.55653
7220780,-0.07500,84.6875,101,60,0.59805
7220790,-0.07000,83.6875,101,60,0.63712
7220800,-0.07000,83.6875,101,60,0.63712
7220810,-0.07000,83.0625,101,60,0.65568
7220820,-0.07000,81.8125,101,60,0.69035
7220830,-0.07000,81.4000,101,60,0.70085
7220840,-0.07000,81.1937,101,60,0.70354
7220850,-0.07000,80.5625,101,60,0.71477
7220860,-0.06500,78.8750,101,60,0.75092
7220870,-0.06500,78.8750,101,60,0.75092
7220880,-0.07000,78.3750,101,60,0.76190
7220890,-0.06500,77.0625,101,60,0.78877
7220900,-0.06500,77.0625,101,60,0.78877
7220910,-0.06500,76.2500,101,60,0.80049
7220920,-0.06500,76.2500,101,60,0.80049
7220930,-0.06500,75.0000,101,60,0.80562
7220940,-0.06500,75.0000,101,60,0.80562
7220950,-0.05000,74.1875,101,60,0.80366
7220960,-0.03500,73.8125,101,60,0.78608
7220970,-0.03500,73.8125,101,60,0.78608
7220980,-0.01500,72.5625,101,60,0.73114
7220990,-0.01500,72.5625,101,60,0.73114
7221000,-0.01500,72.1875,101,59,0.72015
7221010,-0.02500,71.8125,101,59,0.70940
7221020,-0.03500,70.7500,101,59,0.67741
7221030,-0.03500,70.7500,101,59,0.67741
7221040,-0.05500,70.3750,101,59,0.66740
7221050,-0.08500,69.3125,101,59,0.63687
7221060,-0.08500,69.3125,101,59,0.63687
7221070,-0.09500,68.5625,101,59,0.61685
7221080,-0.09500,68.1875,101,59,0.60684
7221090,-0.09500,68.1875,101,59,0.60684
7221100,0.41500,67.2500,101,59,0.57705
7221110,0.77000,66.9375,101,59,0.56728
7221120,0.77000,66.9375,101,59,0.56728
7221130,0.46500,66.1875,101,59,0.54090
7221140,0.09000,65.9375,101,59,0.53236
7221150,0.09000,65.9375,101,59,0.53236
7221160,-0.11000,65.3750,101,59,0.51575
7221170,-0.11000,65.3750,101,59,0.51575
7221180,-0.13000,64.8125,101,59,0.50012
7221190,-0.13500,64.3125,101,59,0.48523
7221200,-0.13500,64.3125,101,59,0.48523
7221210,-0.13500,64.0625,101,59,0.47790
7221220,-0.13500,63.5000,101,59,0.45763
7221230,-0.14000,63.5000,101,59,0.45763
7221240,-0.14000,63.2500,101,59,0.45201
7221250,-0.13500,63.0000,101,59,0.44591
7221260,-0.13500,62.4375,101,59,0.43346
7221270,-0.12500,62.0625,101,59,0.42027
7221280,-0.12000,62.0000,101,59,0.41392
7221290,-0.12000,62.0000,101,59,0.41392
7221300,-0.10500,64.5625,101,59,0.39512
7221310,-0.10500,67.3125,101,59,0.38950
7221320,-0.10500,67.3125,101,59,0.38950
7221330,-0.09500,80.2500,101,59,0.37509
7221340,-0.08000,84.1250,101,59,0.37045
7221350,-0.08000,84.1250,101,59,0.37045
7221360,-0.05500,89.3750,101,59,0.36068
7221370,-0.04500,91.8750,101,59,0.35165
7221380,-0.04500,91.8750,101,59,0.35165
7221390,0.00000,93.6875,101,59,0.34310
7221400,0.00000,93.6875,101,59,0.34310
7221410,0.03000,94.7500,101,59,0.33919
7221420,0.07000,98.6875,101,59,0.32869
7221430,0.07000,98.6875,101,59,0.32869
7221440,0.11000,101.0625,101,59,0.32332
7221450,0.11000,101.0625,101,59,0.32332
7221460,0.11000,102.8750,101,59,0.31697
7221470,0.04000,104.0000,101,59,0.31111
7221480,0.04000,104.0000,101,59,0.31111
7221490,0.00000,104.3750,101,59,0.30818
7221500,-0.05000,104.8750,101,59,0.30134
7221510,-0.05000,104.8750,101,59,0.30134
7221520,-0.06500,104.7500,101,59,0.29939
7221530,-0.07500,103.9375,101,59,0.29670
7221540,-0.07500,103.9375,101,59,0.29670
7221550,-0.08000,103.5000,101,59,0.29621
7221560,-0.08000,102.3750,101,59,0.29841
7221570,-0.08000,102.3750,101,59,0.29841
7221580,-0.08000,100.5625,101,59,0.30989
7221590,-0.07500,97.8750,101,59,0.33431
7221600,-0.07500,97.8750,101,59,0.33431
7221610,-0.07500,96.0625,101,59,0.35092
7221620,-0.07500,91.9375,101,59,0.39023
7221630,-0.06500,88.2500,101,59,0.42662
7221640,-0.06500,88.2500,101,59,0.42662
7221650,-0.06500,87.0000,101,59,0.44615
7221660,-0.06500,85.4375,101,59,0.48571
7221670,-0.05500,84.4375,101,59,0.52283
7221680,-0.05500,84.0000,101,59,0.54042
7221690,-0.05500,84.0000,101,59,0.54042
7221700,-0.05000,82.2500,101,59,0.58999
7221710,-0.05000,81.6250,101,59,0.60513
7221720,-0.05000,81.6250,101,59,0.60513
7221730,-0.05000,80.9375,101,59,0.61954
7221740,-0.05000,79.6250,101,59,0.64054
7221750,-0.04500,79.0000,101,59,0.65104
7221760,-0.04000,78.4375,101,59,0.66129
7221770,-0.04000,76.8125,101,59,0.68767
7221780,-0.04000,76.8125,101,59,0.68767
7221790,-0.04500,76.3750,101,59,0.69475
7221800,-0.04500,75.8750,101,59,0.70061
7221810,-0.04500,75.4375,101,59,0.70525
7221820,-0.04000,74.1250,101,59,0.71209
7221830,-0.03500,73.6250,101,59,0.71087
7221840,-0.03500,73.6250,101,59,0.71087
7221850,-0.03000,73.1875,101,59,0.70940
7221860,-0.01500,72.1875,101,59,0.70330
7221870,0.00500,71.7500,101,59,0.69841
7221880,0.02000,70.8750,101,59,0.68449
7221890,0.00500,70.0625,101,59,0.66569
7221900,-0.00500,69.6250,101,59,0.65495
7221910,-0.00500,69.6250,101,59,0.65495
7221920,-0.02500,68.8750,101,59,0.63199
7221930,-0.05000,68.0625,101,59,0.61074
7221940,-0.05000,68.0625,101,59,0.61074
7221950,-0.05000,67.3125,101,59,0.58852
7221960,-0.05000,67.3125,101,59,0.58852
7221970,-0.05500,66.9375,101,59,0.57753
7221980,-0.07000,66.1875,101,59,0.55507
7221990,0.01000,65.8125,101,59,0.54383
7222000,0.76500,65.1875,100,59,0.52210
7222010,0.91000,64.6250,100,59,0.50037
7222020,0.91000,64.6250,100,59,0.50037
7222030,0.20000,64.0000,100,59,0.48254
7222040,0.20000,64.0000,100,59,0.48254
7222050,-0.00500,63.6875,100,59,0.47350
7222060,-0.07000,63.1250,100,59,0.45543
7222070,-0.10500,62.8125,100,59,0.44640
7222080,-0.12000,62.5000,100,59,0.43761
7222090,-0.12500,62.2500,100,59,0.42882
7222100,-0.13000,61.6875,100,59,0.41172
7222110,-0.12000,61.1875,100,59,0.39536
7222120,-0.12000,61.1875,100,59,0.39536
7222130,-0.11500,60.9375,100,59,0.38755
7222140,-0.11000,60.3125,100,59,0.37582
7222150,-0.10500,59.6875,100,59,0.36264
7222160,-0.10500,59.4375,100,59,0.35556
7222170,-0.10500,59.1250,100,59,0.34115
7222180,-0.09500,59.1250,100,59,0.33407
7222190,-0.09500,59.1250,100,59,0.33407
7222200,-0.08500,60.0625,100,59,0.32063
7222210,-0.08000,64.5000,100,59,0.30769
7222220,-0.08000,64.5000,100,59,0.30769
7222230,-0.05500,72.8750,100,59,0.29890
7222240,-0.05500,72.8750,100,59,0.29890
7222250,-0.04500,77.1875,100,59,0.29402
7222260,-0.02000,85.7500,100,59,0.27790
7222270,-0.02000,85.7500,100,59,0.27790
7222280,0.02000,88.0625,100,59,0.26789
7222290,0.04000,89.5000,100,59,0.25885
7222300,0.04000,89.5000,100,59,0.25885
7222310,0.06000,90.4375,100,59,0.25446
7222320,0.11000,92.5625,100,59,0.24591
7222330,0.11000,92.5625,100,59,0.24591
7222340,0.12500,94.7500,100,59,0.24176
7222350,0.12000,95.6875,100,59,0.23907
7222360,0.09000,96.4375,100,59,0.23590
7222370,0.05000,97.0000,100,59,0.23297
7222380,0.00500,97.7500,100,59,0.22711
7222390,-0.02500,97.9375,100,59,0.22418
7222400,-0.05500,98.0000,100,59,0.22149
7222410,-0.08000,97.5625,100,59,0.21392
7222420,-0.08500,97.2500,100,59,0.21270
7222430,-0.08500,97.2500,100,59,0.21270
7222440,-0.09000,96.8750,100,59,0.21221
7222450,-0.09000,96.3750,100,59,0.21099
7222460,-0.09500,93.8750,100,59,0.21172
7222470,-0.09500,93.8750,100,59,0.21172
7222480,-0.09500,92.5625,100,59,0.21612
7222490,-0.08500,87.0625,100,59,0.24933
7222500,-0.08500,87.0625,100,59,0.24933
7222510,-0.08000,85.1250,100,59,0.26716
7222520,-0.07500,82.2500,100,59,0.30940
7222530,-0.07500,81.0000,100,59,0.34921
7222540,-0.07500,80.6875,100,59,0.37021
7222550,-0.07500,80.6875,100,59,0.37021
7222560,-0.07000,80.3750,100,59,0.39145
7222570,-0.06500,80.0000,100,59,0.41197
7222580,-0.06500,78.5000,100,59,0.46862
7222590,-0.06500,77.9375,100,59,0.48620
7222600,-0.06500,77.9375,100,59,0.48620
7222610,-0.06000,76.1250,100,59,0.53407
7222620,-0.06000,76.1250,100,59,0.53407
7222630,-0.06000,75.5625,100,59,0.54652
7222640,-0.06000,74.5625,100,59,0.56825
7222650,-0.06000,74.5625,100,59,0.56825
7222660,-0.05500,73.6875,100,59,0.58974
7222670,-0.05500,73.3125,100,59,0.59951
7222680,-0.05500,72.9375,100,59,0.60855
7222690,-0.06000,71.6875,100,59,0.62930
7222700,-0.06000,71.6875,100,59,0.62930
7222710,-0.06000,71.2500,100,59,0.63419
7222720,-0.06000,70.8750,100,59,0.63785
7222730,-0.05500,70.5000,100,59,0.64029
7222740,-0.04500,69.7500,100,59,0.63907
7222750,-0.01500,68.9375,100,59,0.63297
7222760,-0.01500,68.9375,100,59,0.63297
7222770,-0.01000,67.8750,100,59,0.61392
7222780,-0.02000,67.5000,100,59,0.60537
7222790,-0.02000,67.5000,100,59,0.60537
7222800,-0.03500,66.7500,100,59,0.58681
7222810,-0.05500,66.0625,100,59,0.56801
7222820,-0.05500,66.0625,100,59,0.56801
7222830,-0.07500,65.3750,100,59,0.55189
7222840,-0.06500,65.0625,100,59,0.54383
7222850,-0.06500,65.0625,100,59,0.54383
7222860,-0.07500,64.3125,100,59,0.52674
7222870,-0.09000,64.0000,100,59,0.51819
7222880,0.01000,63.6875,100,59,0.50940
7222890,0.36000,63.3750,100,59,0.50061
7222900,0.76500,62.8125,100,59,0.48376
7222910,0.89000,62.5625,100,59,0.47570
7222920,0.56000,62.3125,100,59,0.46764
7222930,0.14500,62.0625,100,59,0.46081
7222940,-0.09500,61.3125,100,59,0.44127
7222950,-0.09500,61.3125,100,59,0.44127
7222960,-0.13000,61.0625,100,59,0.43443
7222970,-0.14500,60.8125,100,59,0.42759
7222980,-0.15000,60.3125,100,59,0.41368
7222990,-0.15000,59.8125,100,59,0.40000
7223000,-0.15000,59.8125,100,59,0.40000
7223010,-0.14500,59.5000,100,59,0.39341
7223020,-0.14500,59.0625,100,59,0.40024
7223030,-0.13500,58.4375,100,59,0.40024
7223040,-0.13500,58.1875,100,59,0.39707
7223050,-0.13500,58.1875,100,59,0.39707
7223060,-0.13500,57.7500,100,59,0.38828
7223070,-0.12500,57.7500,100,59,0.37802
7223080,-0.11500,58.0625,100,59,0.37289
7223090,-0.11500,58.0625,100,59,0.37289
7223100,-0.10000,64.1875,100,59,0.35800
7223110,-0.09500,68.4375,100,59,0.35311
7223120,-0.09500,68.4375,100,59,0.35311
7223130,-0.07000,80.9375,100,59,0.34237
7223140,-0.05500,83.6875,100,59,0.33822
7223150,-0.05500,83.6875,100,59,0.33822
7223160,-0.02000,86.8125,100,59,0.32991
7223170,-0.02000,86.8125,100,59,0.32991
7223180,0.00000,88.3750,100,59,0.32161
7223190,0.04000,90.1875,100,59,0.31331
7223200,0.04000,90.1875,100,59,0.31331
7223210,0.07000,91.3750,100,59,0.30940
7223220,0.10000,93.7500,100,59,0.30208
7223230,0.12000,94.8750,100,59,0.29988
7223240,0.11000,95.8125,100,59,0.29841
7223250,0.08000,96.6250,100,59,0.29621
7223260,0.04000,97.6875,100,59,0.29133
7223270,0.00000,97.9375,100,59,0.28864
7223280,-0.03000,98.0625,100,59,0.28620
7223290,-0.07500,98.0000,100,59,0.27912
7223300,-0.08000,97.8125,100,59,0.27643
7223310,-0.08000,97.8125,100,59,0.27643
7223320,-0.08500,97.5000,100,59,0.27375
7223330,-0.09000,96.0000,100,59,0.27131
7223340,-0.09000,95.3125,100,59,0.27179
7223350,-0.09000,94.4375,100,59,0.27424
7223360,-0.09000,94.4375,100,59,0.27424
7223370,-0.08000,90.0625,100,59,0.29963
7223380,-0.08000,90.0625,100,59,0.29963
7223390,-0.08000,88.0625,100,59,0.31453
7223400,-0.07500,84.3125,100,59,0.35287
7223410,-0.07500,84.3125,100,59,0.35287
7223420,-0.07000,81.4375,100,59,0.41758
7223430,-0.06500,81.0000,100,59,0.43614
7223440,-0.06500,81.0000,100,59,0.43614
7223450,-0.06500,79.8750,100,59,0.49426
7223460,-0.06000,79.4375,100,59,0.51233
7223470,-0.06000,78.8750,100,59,0.52967
7223480,-0.06000,78.2500,100,59,0.54628
7223490,-0.06000,78.2500,100,59,0.54628
7223500,-0.06500,76.4375,100,59,0.59219
7223510,-0.06500,75.8125,100,59,0.60611
7223520,-0.06500,75.8125,100,59,0.60611
7223530,-0.06500,74.4375,100,59,0.63687
7223540,-0.06500,74.0000,100,59,0.64689
7223550,-0.06500,74.0000,100,59,0.64689
7223560,-0.06500,73.5625,100,59,0.65641
7223570,-0.06500,73.1250,100,59,0.66496
7223580,-0.06500,71.8750,100,59,0.68596
7223590,-0.06500,71.8750,100,59,0.68596
7223600,-0.06500,71.4375,100,59,0.69084
7223610,-0.06500,71.0625,100,59,0.69451
7223620,-0.06000,70.2500,100,59,0.69817
7223630,-0.04000,69.5000,100,59,0.69451
7223640,-0.02500,69.1875,100,59,0.69109
7223650,-0.01000,68.4375,100,59,0.68034
7223660,-0.01000,68.4375,100,59,0.68034
7223670,-0.00500,68.0000,100,59,0.67326
7223680,-0.02500,67.3125,100,59,0.65641
7223690,-0.02500,67.3125,100,59,0.65641
7223700,-0.03500,66.2500,100,59,0.62906
7223710,-0.06000,65.8750,100,59,0.62002
7223720,-0.06000,65.8750,100,59,0.62002
7223730,-0.06500,64.8125,100,59,0.59512
7223740,-0.06000,64.5000,100,59,0.58657
7223750,-0.06000,64.5000,100,59,0.58657
7223760,-0.01500,63.8125,100,59,0.56899
7223770,-0.01500,63.8125,100,59,0.56899
7223780,0.28500,63.1875,100,59,0.55189
7223790,0.90500,62.6250,100,59,0.53480
7223800,0.90500,62.6250,100,59,0.53480
7223810,0.67500,62.3750,100,59,0.52650
7223820,0.25000,61.8750,100,59,0.51038
7223830,0.00000,61.6250,100,59,0.50354
7223840,-0.11500,61.0625,100,59,0.49084
7223850,-0.11500,61.0625,100,59,0.49084
7223860,-0.13500,60.5625,100,59,0.47766
7223870,-0.14000,60.0625,100,59,0.46422
7223880,-0.14000,60.0625,100,59,0.46422
7223890,-0.14000,59.3750,100,59,0.44396
7223900,-0.14000,59.1250,100,59,0.43785
7223910,-0.14000,59.1250,100,59,0.43785
7223920,-0.14000,58.8125,100,59,0.43175
7223930,-0.13500,58.0625,100,59,0.41734
7223940,-0.13500,58.0625,100,59,0.41734
7223950,-0.12500,57.7500,100,59,0.40635
7223960,-0.12000,57.8125,100,59,0.40073
7223970,-0.12000,57.8125,100,59,0.38926
7223980,-0.11500,58.8750,100,59,0.38926
7223990,-0.10500,63.4375,100,59,0.37827
7224000,-0.09500,67.5000,100,59,0.37289
7224010,-0.09500,67.5000,100,59,0.37289
7224020,-0.07000,80.2500,100,59,0.35849
7224030,-0.06000,83.1250,100,59,0.35507
7224040,-0.06000,83.1250,100,59,0.35507
7224050,-0.03000,87.3750,100,59,0.34286
7224060,-0.03000,87.3750,100,59,0.34286
7224070,0.01500,88.9375,100,59,0.33455
7224080,0.04000,90.0000,100,59,0.33065
7224090,0.04000,90.0000,100,59,0.33065
7224100,0.09000,93.7500,100,59,0.31941
7224110,0.10500,94.9375,100,59,0.31575
7224120,0.10500,94.9375,100,59,0.31575
7224130,0.08500,97.6250,100,59,0.30916
7224140,0.08500,97.6250,100,59,0.30916
7224150,0.04500,98.1250,100,59,0.30647
7224160,0.00000,98.5000,100,59,0.30354
7224170,-0.05500,98.8750,100,59,0.29524
7224180,-0.05500,98.8750,100,59,0.29524
7224190,-0.07500,98.7500,100,59,0.29280
7224200,-0.10000,98.3125,100,59,0.28742
7224210,-0.10000,98.3125,100,59,0.28742
7224220,-0.10500,97.0000,100,59,0.28230
7224230,-0.10500,96.3125,100,59,0.28303
7224240,-0.10500,96.3125,100,59,0.28303
7224250,-0.11000,93.0000,100,59,0.29597
7224260,-0.11000,93.0000,100,59,0.29597
7224270,-0.10500,89.3750,100,59,0.32039
7224280,-0.10000,87.3125,100,59,0.33773
7224290,-0.10000,87.3125,100,59,0.33773
7224300,-0.09500,82.6875,100,59,0.40147
7224310,-0.09500,82.6875,100,59,0.40147
7224320,-0.09500,81.9375,100,59,0.42393
7224330,-0.09000,81.5000,100,59,0.44347
7224340,-0.09000,80.7500,100,59,0.47961
7224350,-0.08500,80.3125,100,59,0.49841
7224360,-0.08500,79.8750,100,59,0.51648
7224370,-0.07500,78.1875,100,59,0.56728
7224380,-0.07000,77.5625,100,59,0.58339
7224390,-0.07000,77.5625,100,59,0.58339
7224400,-0.07500,76.3125,100,59,0.61343
7224410,-0.07500,75.1875,100,59,0.64005
7224420,-0.07500,75.1875,100,59,0.64005
7224430,-0.07500,74.2500,100,59,0.65788
7224440,-0.07500,74.2500,100,59,0.65788
7224450,-0.07500,73.8125,100,59,0.66667
7224460,-0.07000,72.6250,100,59,0.68987
7224470,-0.07000,72.6250,100,59,0.68987
7224480,-0.07000,72.1875,100,59,0.69621
7224490,-0.07000,70.9375,100,59,0.70891
7224500,-0.07000,70.9375,100,59,0.70891
7224510,-0.06000,70.1250,100,59,0.71062
7224520,-0.06000,70.1250,100,59,0.71062
7224530,-0.04500,69.7500,100,59,0.70867
7224540,-0.01500,68.6250,100,59,0.69524
7224550,-0.01500,68.6250,100,59,0.69524
7224560,-0.01000,68.1875,100,59,0.68864
7224570,-0.03500,67.0000,100,59,0.66374
7224580,-0.03500,67.0000,100,59,0.66374
7224590,-0.03500,66.6875,100,59,0.65446
7224600,-0.06500,65.9375,100,59,0.63590
7224610,-0.06500,65.9375,100,59,0.63590
7224620,-0.06500,64.8750,100,59,0.61026
7224630,-0.06500,64.8750,100,59,0.61026
7224640,-0.06500,64.5000,100,59,0.60171
7224650,-0.02500,63.4375,100,59,0.57460
7224660,0.22500,63.1250,100,59,0.56557
7224670,0.22500,63.1250,100,59,0.56557
7224680,0.90500,62.5625,100,59,0.54799
7224690,0.72500,62.0625,100,59,0.53138
7224700,0.72500,62.0625,100,59,0.53138
7224710,0.02500,61.5625,100,59,0.51551
7224720,0.02500,61.5625,100,59,0.51551
7224730,-0.07500,61.2500,100,59,0.50867
7224740,-0.11500,60.7500,100,59,0.49499
7224750,-0.13500,60.5000,100,59,0.48767
7224760,-0.14500,60.2500,100,59,0.48059
7224770,-0.14500,60.0000,100,59,0.47375
7224780,-0.14500,59.5000,100,59,0.45983
7224790,-0.14500,59.2500,100,59,0.45299
7224800,-0.14500,59.0625,100,59,0.44615
7224810,-0.14500,58.8125,100,59,0.43956
7224820,-0.13500,58.0625,100,59,0.42222
7224830,-0.13500,58.0625,100,59,0.42222
7224840,-0.13500,57.8125,100,59,0.41636
7224850,-0.13000,57.8750,100,59,0.39902
7224860,-0.13000,57.8750,100,59,0.39902
7224870,-0.12500,58.3750,100,59,0.39365
7224880,-0.11500,59.6875,100,59,0.38828
7224890,-0.10500,62.0625,100,59,0.38291
7224900,-0.08500,74.8750,100,59,0.36703
7224910,-0.08500,74.8750,100,59,0.36703
7224920,-0.05500,82.1250,100,59,0.35726
7224930,-0.05500,82.1250,100,59,0.35726
7224940,-0.03000,87.0000,100,59,0.34505
7224950,-0.03000,87.0000,100,59,0.34505
7224960,-0.01000,87.7500,100,59,0.34066
7224970,0.03000,90.6250,100,59,0.32845
7224980,0.03000,90.6250,100,59,0.32845
7224990,0.08000,93.1250,100,59,0.32137
7225000,0.11000,94.3750,101,60,0.31795
7225010,0.11000,94.3750,101,60,0.31795
7225020,0.09500,97.1875,101,60,0.31062
7225030,0.05000,97.7500,101,60,0.30818
7225040,0.01000,98.1875,101,60,0.30549
7225050,0.01000,98.1875,101,60,0.30549
7225060,-0.05500,98.5625,101,60,0.28645
7225070,-0.07500,98.5000,101,60,0.28034
7225080,-0.07500,98.5000,101,60,0.28034
7225090,-0.09500,97.8125,101,60,0.26960
7225100,-0.09500,97.8125,101,60,0.26960
7225110,-0.09500,97.4375,101,60,0.26716
7225120,-0.10000,96.3125,101,60,0.26569
7225130,-0.10000,94.5000,101,60,0.27106
7225140,-0.10000,93.2500,101,60,0.27717
7225150,-0.10000,93.2500,101,60,0.27717
7225160,-0.09500,89.9375,101,60,0.30061
7225170,-0.09500,85.8750,101,60,0.33919
7225180,-0.09500,85.8750,101,60,0.33919
7225190,-0.09000,82.7500,101,60,0.38779
7225200,-0.09000,82.7500,101,60,0.38779
7225210,-0.08500,81.8125,101,60,0.41368
7225220,-0.08000,80.5000,101,60,0.48034
7225230,-0.07500,80.1250,101,60,0.50085
7225240,-0.07500,80.1250,101,60,0.50085
7225250,-0.07000,79.7500,101,60,0.52137
7225260,-0.07000,78.6250,101,60,0.56093
7225270,-0.07500,78.0625,101,60,0.57973
7225280,-0.07500,77.4375,101,60,0.59805
7225290,-0.07500,75.6250,101,60,0.64786
7225300,-0.07500,75.1250,101,60,0.66276
7225310,-0.07500,75.1250,101,60,0.66276
7225320,-0.07500,74.1875,101,60,0.68742
7225330,-0.07500,74.1875,101,60,0.68742
7225340,-0.07500,73.3750,101,60,0.70501
7225350,-0.06500,72.5625,101,60,0.72259
7225360,-0.06500,72.5625,101,60,0.72259
7225370,-0.06500,71.3750,101,60,0.74237
7225380,-0.06500,71.0000,101,60,0.74628
7225390,-0.06500,71.0000,101,60,0.74628
7225400,-0.06500,70.1875,101,60,0.74969
7225410,-0.06500,70.1875,101,60,0.74969
7225420,-0.05000,69.3750,101,60,0.74603
7225430,-0.03500,69.0000,101,60,0.74139
7225440,-0.01500,68.6250,101,60,0.73578
7225450,-0.00500,68.2500,101,60,0.72869
7225460,-0.02500,67.1875,101,60,0.70134
7225470,-0.02500,67.1875,101,60,0.70134
7225480,-0.03500,66.8125,101,60,0.69084
7225490,-0.05500,65.7500,101,60,0.65812
7225500,-0.05500,65.7500,101,60,0.65812
7225510,-0.07500,65.3750,101,60,0.64713
7225520,-0.07500,65.0625,101,60,0.63639
7225530,-0.07500,64.0625,101,60,0.60684
7225540,-0.07500,64.0625,101,60,0.60684
7225550,0.03000,63.4375,101,60,0.58632
7225560,0.03000,63.4375,101,60,0.58632
7225570,0.38000,63.1875,101,60,0.57631
7225580,0.77500,62.6250,101,60,0.55751
7225590,0.86000,62.4375,101,60,0.54823
7225600,0.14500,61.9375,101,60,0.52991
7225610,0.14500,61.9375,101,60,0.52991
7225620,-0.04500,61.4375,101,60,0.51331
7225630,-0.13500,60.9375,101,60,0.49890
7225640,-0.15500,60.6875,101,60,0.49084
7225650,-0.15500,60.6875,101,60,0.49084
7225660,-0.15500,60.2500,101,60,0.47473
7225670,-0.15500,59.7500,101,60,0.45934
7225680,-0.15500,59.7500,101,60,0.45934
7225690,-0.15500,59.5625,101,60,0.45177
7225700,-0.15000,59.1875,101,60,0.43712
7225710,-0.15000,58.9375,101,60,0.43004
7225720,-0.14500,58.6875,101,60,0.42320
7225730,-0.14500,58.4375,101,60,0.41758
7225740,-0.13500,58.2500,101,60,0.40659
7225750,-0.12500,58.6250,101,60,0.39414
7225760,-0.12500,58.6250,101,60,0.39414
7225770,-0.12500,59.5000,101,60,0.38779
7225780,-0.11500,64.5000,101,60,0.37534
7225790,-0.10500,73.2500,101,60,0.36337
7225800,-0.10500,73.2500,101,60,0.36337
7225810,-0.09500,77.6250,101,60,0.35751
7225820,-0.07000,86.0625,101,60,0.34432
7225830,-0.05000,87.3750,101,60,0.34042
7225840,-0.05000,87.3750,101,60,0.34042
7225850,-0.01500,89.8750,101,60,0.32747
7225860,-0.01500,89.8750,101,60,0.32747
7225870,0.03000,92.1875,101,60,0.31893
7225880,0.03000,92.1875,101,60,0.31893
7225890,0.06000,93.5000,101,60,0.31453
7225900,0.09000,95.9375,101,60,0.30623
7225910,0.10500,97.8750,101,60,0.29939
7225920,0.10500,97.8750,101,60,0.29939
7225930,0.08000,98.5625,101,60,0.29744
7225940,0.04000,99.5000,101,60,0.29451
7225950,-0.00500,99.7500,101,60,0.29231
7225960,-0.04000,99.8750,101,60,0.28987
7225970,-0.06500,99.8750,101,60,0.28742
7225980,-0.08000,99.6250,101,60,0.28278
7225990,-0.09000,99.4375,101,60,0.28059
7226000,-0.09500,98.6250,101,60,0.27717
7226010,-0.09500,98.6250,101,60,0.27717
7226020,-0.10000,97.5000,101,60,0.27790
7226030,-0.09500,96.7500,101,60,0.28107
7226040,-0.09500,95.8125,101,60,0.28620
7226050,-0.09500,94.5625,101,60,0.29451
7226060,-0.09500,91.2500,101,60,0.32210
7226070,-0.09000,89.2500,101,60,0.34139
7226080,-0.08500,87.2500,101,60,0.36386
7226090,-0.08500,85.5625,101,60,0.38828
7226100,-0.08500,83.5000,101,60,0.43907
7226110,-0.08500,82.9375,101,60,0.46422
7226120,-0.08000,82.5000,101,60,0.48864
7226130,-0.08000,82.1250,101,60,0.50916
7226140,-0.07500,81.2500,101,60,0.54676
7226150,-0.07500,80.7500,101,60,0.56630
7226160,-0.07500,80.1875,101,60,0.58584
7226170,-0.07000,78.3750,101,60,0.64029
7226180,-0.07000,78.3750,101,60,0.64029
7226190,-0.07000,77.7500,101,60,0.65714
7226200,-0.06500,76.6250,101,60,0.68840
7226210,-0.06500,76.6250,101,60,0.68840
7226220,-0.06500,75.7500,101,60,0.71331
7226230,-0.06500,75.3125,101,60,0.72186
7226240,-0.06500,74.8750,101,60,0.73114
7226250,-0.06500,73.6250,101,60,0.75629
7226260,-0.06500,73.6250,101,60,0.75629
7226270,-0.06500,72.8125,101,60,0.76777
7226280,-0.06500,72.8125,101,60,0.76777
7226290,-0.06500,72.4375,101,60,0.77167
7226300,-0.05500,71.1875,101,60,0.77387
7226310,-0.04500,70.8125,101,60,0.77118
7226320,-0.04500,70.8125,101,60,0.77118
7226330,-0.01500,69.7500,101,60,0.75336
7226340,-0.01500,69.3750,101,60,0.74530
7226350,-0.01500,69.3750,101,60,0.74530
7226360,-0.03500,68.6250,101,60,0.72650
7226370,-0.03500,68.6250,101,60,0.72650
7226380,-0.04500,67.9375,101,60,0.70598
7226390,-0.04500,67.5625,101,60,0.69524
7226400,-0.06500,67.2500,101,60,0.68425
7226410,-0.08000,66.8750,101,60,0.67350
7226420,-0.07000,65.8750,101,60,0.64444
7226430,-0.07000,65.8750,101,60,0.64444
7226440,-0.05500,65.2500,101,60,0.62515
7226450,-0.05500,65.2500,101,60,0.62515
7226460,0.13500,64.6875,101,60,0.60537
7226470,0.51500,64.3750,101,60,0.59536
7226480,0.83000,64.1250,101,60,0.58535
7226490,0.76500,63.8750,101,60,0.57558
7226500,0.39000,63.3750,101,60,0.55702
7226510,0.05500,63.1250,101,60,0.54799
7226520,-0.07500,62.8750,101,60,0.54017
7226530,-0.12000,62.6250,101,60,0.53309
7226540,-0.14500,62.1875,101,60,0.51795
7226550,-0.15500,61.7500,101,60,0.50256
7226560,-0.15500,61.7500,101,60,0.50256
7226570,-0.15500,61.5000,101,60,0.49499
7226580,-0.15500,60.8750,101,60,0.47253
7226590,-0.15500,60.8750,101,60,0.47253
7226600,-0.15500,60.6875,101,60,0.46520
7226610,-0.15500,60.5000,101,60,0.45812
7226620,-0.15500,60.0000,101,60,0.44518
7226630,-0.15000,59.8750,101,60,0.43980
7226640,-0.14500,59.8125,101,60,0.43394
7226650,-0.14500,59.9375,101,60,0.42784
7226660,-0.13500,61.4375,101,60,0.41563
7226670,-0.13000,63.4375,101,60,0.40952
7226680,-0.12500,66.6875,101,60,0.40366
7226690,-0.11500,70.9375,101,60,0.39805
7226700,-0.11000,79.6875,101,60,0.38730
7226710,-0.10500,83.3125,101,60,0.38217
7226720,-0.09000,86.0625,101,60,0.37778
7226730,-0.06000,90.2500,101,60,0.36557
7226740,-0.06000,90.2500,101,60,0.36557
7226750,-0.04500,91.1250,101,60,0.36117
7226760,-0.02000,92.1250,101,60,0.35702
7226770,0.00000,93.2500,101,60,0.35287
7226780,0.05000,97.1250,101,60,0.34066
7226790,0.08000,98.3125,101,60,0.33700
7226800,0.08000,98.3125,101,60,0.33700
7226810,0.08500,101.0000,101,60,0.32869
7226820,0.05000,101.6250,101,60,0.32723
7226830,0.05000,101.6250,101,60,0.32723
7226840,-0.02500,102.3125,101,60,0.32308
7226850,-0.02500,102.3125,101,60,0.32308
7226860,-0.05500,102.6250,101,60,0.31844
7226870,-0.08500,102.5000,101,60,0.31380
7226880,-0.08500,102.5000,101,60,0.31380
7226890,-0.09500,101.6875,101,60,0.31013
7226900,-0.10000,101.1875,101,60,0.31013
7226910,-0.10000,101.1875,101,60,0.31013
7226920,-0.09500,99.8125,101,60,0.31477
7226930,-0.09500,97.8125,101,60,0.32796
7226940,-0.09500,97.8125,101,60,0.32796
7226950,-0.09000,94.7500,101,60,0.35482
7226960,-0.09000,94.7500,101,60,0.35482
7226970,-0.08500,88.6875,101,60,0.41905
7226980,-0.08000,87.1875,101,60,0.44347
7226990,-0.08000,87.1875,101,60,0.44347
7227000,-0.07500,85.3125,101,60,0.49231
7227010,-0.07000,84.3125,101,60,0.53504
7227020,-0.07000,84.3125,101,60,0.53504
7227030,-0.07000,83.9375,101,60,0.55238
7227040,-0.06500,83.1250,101,60,0.59096
7227050,-0.06500,83.1250,101,60,0.59096
7227060,-0.06500,82.0625,101,60,0.62906
7227070,-0.05500,80.8125,101,60,0.66471
7227080,-0.05500,80.8125,101,60,0.66471
7227090,-0.06000,79.1250,101,60,0.71136
7227100,-0.06000,79.1250,101,60,0.71136
7227110,-0.06000,78.5625,101,60,0.71819
7227120,-0.05500,78.0625,101,60,0.71819
7227130,-0.06000,77.6250,101,60,0.72088
7227140,-0.05500,76.7500,101,60,0.73431
7227150,-0.05500,76.3750,101,60,0.74188
7227160,-0.05500,76.0000,101,60,0.74872
7227170,-0.05500,75.5625,101,60,0.75458
7227180,-0.05500,74.3750,101,60,0.76508
7227190,-0.05500,74.3750,101,60,0.76508
7227200,-0.05000,73.9375,101,60,0.76606
7227210,-0.03500,72.6875,101,60,0.75897
7227220,-0.03500,72.6875,101,60,0.75897
7227230,-0.02500,72.2500,101,60,0.75336
7227240,-0.00500,71.5000,101,60,0.73895
7227250,-0.01500,70.7500,101,60,0.72039
7227260,-0.02500,70.3750,101,60,0.71038
7227270,-0.02500,70.0000,101,60,0.69988
7227280,-0.04000,69.5625,101,60,0.68938
7227290,-0.04000,69.5625,101,60,0.68938
7227300,-0.06500,68.3750,101,60,0.65812
7227310,-0.06500,68.3750,101,60,0.65812
7227320,-0.05500,67.9375,101,60,0.64835
7227330,-0.07000,66.6250,101,60,0.61856
7227340,-0.07000,66.6250,101,60,0.61856
7227350,-0.02500,66.2500,101,60,0.60855
7227360,0.62000,65.5000,101,60,0.58901
7227370,0.62000,65.5000,101,60,0.58901
7227380,0.88000,64.8125,101,60,0.56972
7227390,0.72500,64.5000,101,60,0.56044
7227400,0.32500,64.1875,101,60,0.55116
7227410,0.05000,63.8750,101,60,0.54212
7227420,-0.09500,62.8750,101,60,0.51917
7227430,-0.09500,62.8750,101,60,0.51917
7227440,-0.11000,62.5625,101,60,0.51184
7227450,-0.12000,62.2500,101,60,0.50427
7227460,-0.12500,61.6250,101,60,0.48913
7227470,-0.12500,61.3750,101,60,0.48181
7227480,-0.11500,60.9375,101,60,0.46764
7227490,-0.11500,60.3750,101,60,0.45421
7227500,-0.11500,60.3750,101,60,0.45421
7227510,-0.11500,60.1250,101,60,0.44762
7227520,-0.10500,59.9375,101,60,0.44200
7227530,-0.10500,59.7500,101,60,0.43712
7227540,-0.09500,59.7500,101,60,0.42002
7227550,-0.09500,59.7500,101,60,0.42002
7227560,-0.08500,60.4375,101,60,0.41416
7227570,-0.07500,61.8750,101,60,0.40855
7227580,-0.06500,72.7500,101,60,0.39170
7227590,-0.05000,77.1875,101,60,0.38584
7227600,-0.05000,77.1875,101,60,0.38584
7227610,-0.03500,86.2500,101,60,0.36996
7227620,-0.02000,87.6875,101,60,0.36606
7227630,-0.02000,87.6875,101,60,0.36606
7227640,0.01500,89.3750,101,60,0.35653
7227650,0.01500,89.3750,101,60,0.35653
7227660,0.04000,91.1875,101,60,0.34554
7227670,0.06000,92.3750,101,60,0.34017
7227680,0.09000,93.6250,101,60,0.33480
7227690,0.11500,94.8750,101,60,0.32943
7227700,0.14000,97.1875,101,60,0.31990
7227710,0.14000,98.1250,101,60,0.31526
7227720,0.12500,98.8750,101,60,0.31233
7227730,0.08500,99.4375,101,60,0.31013
7227740,0.04500,100.1875,101,60,0.30330
7227750,0.01000,100.3125,101,60,0.29988
7227760,-0.02000,100.3750,101,60,0.29646
7227770,-0.05500,100.0000,101,60,0.28694
7227780,-0.06000,99.6875,101,60,0.28376
7227790,-0.06000,99.6875,101,60,0.28376
7227800,-0.06500,99.2500,101,60,0.28107
7227810,-0.06500,97.2500,101,60,0.27912
7227820,-0.06500,97.2500,101,60,0.27912
7227830,-0.06500,95.0625,101,60,0.28767
7227840,-0.06500,93.5625,101,60,0.29597
7227850,-0.06500,93.5625,101,60,0.29597
7227860,-0.06500,89.7500,101,60,0.32332
7227870,-0.06500,85.9375,101,60,0.36239
7227880,-0.06500,85.9375,101,60,0.36239
7227890,-0.06000,84.5000,101,60,0.38437
7227900,-0.06000,82.8125,101,60,0.42930
7227910,-0.05500,81.8750,101,60,0.46886
7227920,-0.05500,81.8750,101,60,0.46886
7227930,-0.05000,80.4375,101,60,0.51966
7227940,-0.05000,80.4375,101,60,0.51966
7227950,-0.05000,79.8750,101,60,0.53675
7227960,-0.05000,79.3125,101,60,0.55336
7227970,-0.05000,78.6250,101,60,0.56947
7227980,-0.04500,77.3125,101,60,0.59951
7227990,-0.03500,76.1875,101,60,0.62613
7228000,-0.03500,76.1875,100,59,0.62613
7228010,-0.04000,74.6875,100,59,0.65788
7228020,-0.04000,74.1875,100,59,0.66447
7228030,-0.04000,74.1875,100,59,0.66447
7228040,-0.03500,73.3750,100,59,0.67814
7228050,-0.03500,73.3750,100,59,0.67814
7228060,-0.03500,72.5000,100,59,0.68889
7228070,-0.03000,72.1250,100,59,0.69304
7228080,-0.03000,71.6875,100,59,0.69597
7228090,-0.02500,70.8125,100,59,0.69792
7228100,-0.02000,70.4375,100,59,0.69670
7228110,-0.00500,70.0000,100,59,0.69353
7228120,0.00500,69.5625,100,59,0.68889
7228130,0.01000,69.1250,100,59,0.68327
7228140,0.01000,67.9375,100,59,0.65885
7228150,0.01000,67.9375,100,59,0.65885
7228160,-0.01000,67.1250,100,59,0.63736
7228170,-0.01000,67.1250,100,59,0.63736
7228180,-0.04500,66.0625,100,59,0.60293
7228190,-0.05000,65.6875,100,59,0.59145
7228200,-0.05000,65.6875,100,59,0.59145
7228210,-0.04500,64.6250,100,59,0.56093
7228220,-0.06500,64.2500,100,59,0.55116
7228230,-0.06500,64.2500,100,59,0.55116
7228240,0.34500,63.5625,100,59,0.53089
7228250,0.34500,63.5625,100,59,0.53089
7228260,0.90000,62.6875,100,59,0.50110
7228270,0.61500,62.4375,100,59,0.49158
7228280,0.61500,62.4375,100,59,0.49158
7228290,-0.00500,61.6250,100,59,0.46422
7228300,-0.07000,61.3125,100,59,0.45519
7228310,-0.07000,61.3125,100,59,0.45519
7228320,-0.11500,60.8125,100,59,0.44078
7228330,-0.11500,60.8125,100,59,0.44078
7228340,-0.11500,60.2500,100,59,0.42540
7228350,-0.12000,59.7500,100,59,0.41001
7228360,-0.12000,59.7500,100,59,0.41001
7228370,-0.12500,59.5000,100,59,0.40244
7228380,-0.12500,58.7500,100,59,0.37973
7228390,-0.12500,58.7500,100,59,0.37973
7228400,-0.12500,58.1250,100,59,0.36508
7228410,-0.12000,57.7500,100,59,0.35458
7228420,-0.11500,57.6250,100,59,0.34872
7228430,-0.11000,57.5625,100,59,0.34261
7228440,-0.11000,57.5625,100,59,0.34261
7228450,-0.10500,57.7500,100,59,0.33602
7228460,-0.10500,59.6250,100,59,0.32308
7228470,-0.10500,61.9375,100,59,0.31697
7228480,-0.08500,69.4375,100,59,0.30501
7228490,-0.07500,77.2500,100,59,0.29353
7228500,-0.07500,77.2500,100,59,0.29353
7228510,-0.05000,82.3750,100,59,0.28425
7228520,-0.05000,82.3750,100,59,0.28425
7228530,-0.03500,83.8125,100,59,0.28132
7228540,0.01000,85.9375,100,59,0.26911
7228550,0.01000,85.9375,100,59,0.26911
7228560,0.03000,86.7500,100,59,0.26496
7228570,0.05500,87.6250,100,59,0.26105
7228580,0.08500,89.6875,100,59,0.25299
7228590,0.10000,90.6875,100,59,0.24933
7228600,0.07500,92.3125,100,59,0.24151
7228610,0.07500,92.3125,100,59,0.24151
7228620,0.03000,93.3125,100,59,0.23736
7228630,-0.01000,93.6250,100,59,0.23492
7228640,-0.04500,93.7500,100,59,0.23199
7228650,-0.07500,93.7500,100,59,0.22906
7228660,-0.09000,93.4375,100,59,0.22320
7228670,-0.11000,92.8125,100,59,0.21807
7228680,-0.11000,92.8125,100,59,0.21807
7228690,-0.10500,91.0625,100,59,0.21197
7228700,-0.10500,90.1250,100,59,0.21172
7228710,-0.10500,88.9375,100,59,0.21368
7228720,-0.10500,88.9375,100,59,0.21368
7228730,-0.10500,83.9375,100,59,0.23297
7228740,-0.10500,82.1875,100,59,0.24567
7228750,-0.10500,82.1875,100,59,0.24567
7228760,-0.10500,80.6875,100,59,0.26178
7228770,-0.10000,79.5625,100,59,0.28083
7228780,-0.09500,78.3125,100,59,0.32527
7228790,-0.09500,77.6250,100,59,0.37265
7228800,-0.09500,77.6250,100,59,0.37265
7228810,-0.09000,77.3125,100,59,0.39560
7228820,-0.08500,75.9375,100,59,0.45128
7228830,-0.08500,75.3125,100,59,0.46935
7228840,-0.08500,75.3125,100,59,0.46935
7228850,-0.08500,74.7500,100,59,0.48694
7228860,-0.08500,73.6250,100,59,0.52063
7228870,-0.08000,73.0625,100,59,0.53651
7228880,-0.08000,72.5625,100,59,0.55140
7228890,-0.08500,71.3125,100,59,0.59048
7228900,-0.08500,71.3125,100,59,0.59048
7228910,-0.08000,70.9375,100,59,0.60171
7228920,-0.08500,70.1875,100,59,0.61709
7228930,-0.08500,70.1875,100,59,0.61709
7228940,-0.08500,69.5000,100,59,0.63126
7228950,-0.08500,68.6875,100,59,0.64225
7228960,-0.08500,68.6875,100,59,0.64225
7228970,-0.07500,67.6250,100,59,0.64908
7228980,-0.07000,67.2500,100,59,0.64835
7228990,-0.07000,67.2500,100,59,0.64835
7229000,-0.03500,66.5000,100,59,0.64249
7229010,-0.02500,65.7500,100,59,0.63150
7229020,-0.02500,65.7500,100,59,0.63150
7229030,-0.02500,65.4375,100,59,0.62418
7229040,-0.03500,65.1250,100,59,0.61587
7229050,-0.04500,64.7500,100,59,0.60708
7229060,-0.06500,63.7500,100,59,0.57949
7229070,-0.06500,63.7500,100,59,0.57949
7229080,-0.08500,63.4375,100,59,0.57045
7229090,-0.08500,62.5000,100,59,0.54457
7229100,-0.08500,62.5000,100,59,0.54457
7229110,-0.11500,61.8750,100,59,0.52796
7229120,-0.02000,61.5625,100,59,0.52088
7229130,-0.02000,61.5625,100,59,0.52088
7229140,0.31000,61.0625,100,59,0.50549
7229150,0.72500,60.8125,100,59,0.49744
7229160,0.87500,60.5625,100,59,0.49231
7229170,0.57500,60.3125,100,59,0.48889
7229180,0.16500,59.8125,100,59,0.47790
7229190,-0.10500,59.2500,100,59,0.46496
7229200,-0.10500,59.2500,100,59,0.46496
7229210,-0.13500,59.0000,100,59,0.45836
7229220,-0.15500,58.3125,100,59,0.44176
7229230,-0.15500,58.3125,100,59,0.44176
7229240,-0.15500,58.1250,100,59,0.43590
7229250,-0.15500,57.3125,100,59,0.41856
7229260,-0.15500,57.3125,100,59,0.41856
7229270,-0.15500,56.8750,100,59,0.40733
7229280,-0.15500,56.5625,100,59,0.40171
7229290,-0.15500,56.5625,100,59,0.40171
7229300,-0.14500,55.9375,100,59,0.38584
7229310,-0.13500,55.8750,100,59,0.38193
7229320,-0.13500,55.8750,100,59,0.38193
7229330,-0.12500,57.0000,100,59,0.36996
7229340,-0.12500,58.7500,100,59,0.36557
7229350,-0.11000,61.6250,100,59,0.36093
7229360,-0.11000,61.6250,100,59,0.36093
7229370,-0.09500,73.9375,100,59,0.34750
7229380,-0.08500,77.5000,100,59,0.34310
7229390,-0.08500,77.5000,100,59,0.34310
7229400,-0.07000,80.2500,100,59,0.33895
7229410,-0.05500,82.2500,100,59,0.33504
7229420,-0.02000,85.1250,100,59,0.32674
7229430,0.00000,85.8750,100,59,0.32357
7229440,0.00000,85.8750,100,59,0.32357
7229450,0.05000,88.9375,100,59,0.31282
7229460,0.07500,90.0000,100,59,0.30940
7229470,0.07500,90.0000,100,59,0.30940
7229480,0.09000,92.0000,100,59,0.30208
7229490,0.09000,92.0000,100,59,0.30208
7229500,0.07000,93.4375,100,59,0.29548
7229510,-0.01000,94.2500,100,59,0.29011
7229520,-0.01000,94.2500,100,59,0.29011
7229530,-0.04500,94.4375,100,59,0.28889
7229540,-0.07000,94.5625,100,59,0.28425
7229550,-0.09500,94.2500,100,59,0.27912
7229560,-0.09500,94.2500,100,59,0.27912
7229570,-0.10000,93.1875,100,59,0.27204
7229580,-0.10000,92.6250,100,59,0.27082
7229590,-0.10000,92.6250,100,59,0.27082
7229600,-0.10000,91.0000,100,59,0.27228
7229610,-0.10000,91.0000,100,59,0.27228
7229620,-0.10000,86.6250,100,59,0.29109
7229630,-0.10000,86.6250,100,59,0.29109
7229640,-0.10000,82.8750,100,59,0.31966
7229650,-0.10000,82.8750,100,59,0.31966
7229660,-0.10000,80.2500,100,59,0.35995
7229670,-0.10000,79.5000,100,59,0.38242
7229680,-0.09500,78.6875,100,59,0.42759
7229690,-0.09500,78.6875,100,59,0.42759
7229700,-0.09500,77.5625,100,59,0.48864
7229710,-0.09500,77.5625,100,59,0.48864
7229720,-0.09500,76.5625,100,59,0.51868
7229730,-0.09000,76.5625,100,59,0.51868
7229740,-0.09000,75.4375,100,59,0.54847
7229750,-0.08000,74.2500,100,59,0.57729
7229760,-0.08000,73.6875,100,59,0.59096
7229770,-0.08000,73.6875,100,59,0.59096
7229780,-0.08500,72.2500,100,59,0.62882
7229790,-0.08500,71.8125,100,59,0.63980
7229800,-0.08500,71.8125,100,59,0.63980
7229810,-0.08000,71.4375,100,59,0.64982
7229820,-0.08000,70.3125,100,59,0.66911
7229830,-0.08000,70.3125,100,59,0.66911
7229840,-0.08000,69.9375,100,59,0.67497
7229850,-0.07500,68.7500,100,59,0.68791
7229860,-0.07500,68.3750,100,59,0.69011
7229870,-0.07500,68.3750,100,59,0.69011
7229880,-0.05500,67.6875,100,59,0.69035
7229890,-0.05500,67.6875,100,59,0.69035
7229900,-0.04000,67.0000,100,59,0.68400
7229910,-0.02000,66.2500,100,59,0.67228
7229920,-0.02500,65.8750,100,59,0.66520
7229930,-0.02500,65.8750,100,59,0.66520
7229940,-0.04500,64.8125,100,59,0.64103
7229950,-0.04500,64.8125,100,59,0.64103
7229960,-0.05000,64.5000,100,59,0.63248
7229970,-0.07500,64.1875,100,59,0.62393
7229980,-0.07500,63.1875,100,59,0.59878
7229990,-0.07500,62.8750,100,59,0.59023
7230000,-0.07500,62.8750,100,59,0.59023
7230010,-0.07000,61.9375,100,59,0.56703
7230020,0.16500,61.6250,100,59,0.55946
7230030,0.16500,61.6250,100,59,0.55946
7230040,0.88000,61.1250,100,59,0.54383
7230050,0.74500,60.6250,100,59,0.52869
7230060,0.74500,60.6250,100,59,0.52869
7230070,0.03000,60.1875,100,59,0.51429
