RelativeTimeMilliseconds;ECG;ART;ART (Sys);ART (Dia);PPG
7800000;-0.13500;63.6250;105;62;0.40464
7800010;-0.13000;62.6250;105;62;0.37998
7800020;-0.13000;62.6250;105;62;0.37998
7800030;-0.12500;62.3125;105;62;0.37363
7800040;-0.12500;61.7500;105;62;0.35922
7800050;-0.12500;61.7500;105;62;0.35922
7800060;-0.12000;61.3750;105;62;0.34481
7800070;-0.11500;61.3750;105;62;0.33773
7800080;-0.11000;61.5625;105;62;0.33089
7800090;-0.10000;62.1875;105;62;0.32405
7800100;-0.08500;70.2500;105;62;0.30427
7800110;-0.08000;74.6875;105;62;0.29939
7800120;-0.08000;74.6875;105;62;0.29939
7800130;-0.06500;85.8750;105;62;0.28523
7800140;-0.05000;88.0000;105;62;0.28010
7800150;-0.05000;88.0000;105;62;0.28010
7800160;-0.01500;90.5625;105;62;0.27033
7800170;0.00000;92.3750;105;62;0.26007
7800180;0.00000;92.3750;105;62;0.26007
7800190;0.05000;94.7500;105;62;0.25006
7800200;0.05000;94.7500;105;62;0.25006
7800210;0.10000;98.3750;105;62;0.23810
7800220;0.10000;98.3750;105;62;0.23810
7800230;0.09500;100.1875;105;62;0.23346
7800240;0.06000;100.8750;105;62;0.23028
7800250;0.06000;100.8750;105;62;0.23028
7800260;0.01500;101.7500;105;62;0.22344
7800270;-0.05500;102.0000;105;62;0.21758
7800280;-0.05500;102.0000;105;62;0.21758
7800290;-0.07500;101.9375;105;62;0.21490
7800300;-0.10500;101.3125;105;62;0.20757
7800310;-0.10500;100.8750;105;62;0.20659
7800320;-0.11000;100.3125;105;62;0.20635
7800330;-0.11500;98.6875;105;62;0.20366
7800340;-0.11500;98.6875;105;62;0.20366
7800350;-0.11500;95.8750;105;62;0.20244
7800360;-0.11500;93.9375;105;62;0.20415
7800370;-0.11500;93.9375;105;62;0.20415
7800380;-0.11500;87.5000;105;62;0.22613
7800390;-0.11500;85.9375;105;62;0.24054
7800400;-0.11500;85.9375;105;62;0.24054
7800410;-0.10500;84.0000;105;62;0.29890
7800420;-0.10500;84.0000;105;62;0.29890
7800430;-0.10500;83.6875;105;62;0.31868
7800440;-0.10000;83.3750;105;62;0.34066
7800450;-0.10000;83.0000;105;62;0.36313
7800460;-0.09500;81.1875;105;62;0.42906
7800470;-0.09500;81.1875;105;62;0.42906
7800480;-0.09500;79.9375;105;62;0.46911
7800490;-0.10000;78.7500;105;62;0.50696
7800500;-0.10000;78.7500;105;62;0.50696
7800510;-0.09500;77.7500;105;62;0.54017
7800520;-0.09500;77.7500;105;62;0.54017
7800530;-0.09500;76.5000;105;62;0.57656
7800540;-0.09500;76.0625;105;62;0.58779
7800550;-0.09500;76.0625;105;62;0.58779
7800560;-0.09500;75.6250;105;62;0.59805
7800570;-0.09000;74.3125;105;62;0.62418
7800580;-0.09000;74.3125;105;62;0.62418
7800590;-0.08000;73.8750;105;62;0.63101
7800600;-0.08000;73.4375;105;62;0.63687
7800610;-0.07500;73.0000;105;62;0.64176
7800620;-0.07000;72.1875;105;62;0.64713
7800630;-0.06000;71.8125;105;62;0.64713
7800640;-0.03500;71.0625;105;62;0.64420
7800650;-0.03500;71.0625;105;62;0.64420
7800660;-0.02500;70.3125;105;62;0.63541
7800670;-0.04500;69.5000;105;62;0.62173
7800680;-0.04500;69.5000;105;62;0.62173
7800690;-0.05500;69.1250;105;62;0.61368
7800700;-0.06500;68.3125;105;62;0.59634
7800710;-0.08000;67.8750;105;62;0.58755
7800720;-0.09500;67.5000;105;62;0.57949
7800730;-0.07500;66.4375;105;62;0.55653
7800740;-0.07500;66.4375;105;62;0.55653
7800750;-0.09500;65.7500;105;62;0.54066
7800760;0.07000;65.4375;105;62;0.53284
7800770;0.46500;64.8125;105;62;0.51722
7800780;0.46500;64.8125;105;62;0.51722
7800790;0.82500;64.3125;105;62;0.50183
7800800;0.43500;64.0625;105;62;0.49451
7800810;0.43500;64.0625;105;62;0.49451
7800820;-0.07000;63.2500;105;62;0.47595
7800830;-0.12000;63.0000;105;62;0.46984
7800840;-0.12000;63.0000;105;62;0.46984
7800850;-0.15500;62.2500;105;62;0.45104
7800860;-0.15500;62.0000;105;62;0.44493
7800870;-0.15500;61.7500;105;62;0.43883
7800880;-0.15500;61.5000;105;62;0.43297
7800890;-0.15500;61.5000;105;62;0.43297
7800900;-0.15500;60.6875;105;62;0.41612
7800910;-0.15500;60.3750;105;62;0.41148
7800920;-0.15500;60.3750;105;62;0.41148
7800930;-0.14500;60.0625;105;62;0.40757
7800940;-0.14500;59.6875;105;62;0.39780
7800950;-0.14500;59.6250;105;62;0.39267
7800960;-0.14000;59.6250;105;62;0.38730
7800970;-0.13500;59.9375;105;62;0.38193
7800980;-0.12500;62.6250;105;62;0.37192
7800990;-0.12000;65.6875;105;62;0.36728
7801000;-0.11500;69.8125;105;62;0.36264
7801010;-0.10500;74.5625;105;62;0.35824
7801020;-0.08500;85.9375;105;62;0.34799
7801030;-0.06500;88.0625;105;62;0.34432
7801040;-0.06500;88.0625;105;62;0.34432
7801050;-0.03000;91.3750;105;62;0.33260
7801060;-0.03000;91.3750;105;62;0.33260
7801070;-0.00500;92.4375;105;62;0.32869
7801080;0.01500;93.6875;105;62;0.32503
7801090;0.04000;95.0625;105;62;0.32186
7801100;0.06000;97.8125;105;62;0.31551
7801110;0.09000;99.0625;105;62;0.31233
7801120;0.10500;100.1250;105;62;0.31013
7801130;0.10000;101.0625;105;62;0.30867
7801140;0.06500;102.3125;105;62;0.30379
7801150;0.02500;102.6875;105;62;0.30110
7801160;-0.01500;103.0000;105;62;0.29866
7801170;-0.04500;103.1250;105;62;0.29646
7801180;-0.06500;103.1875;105;62;0.29231
7801190;-0.08500;103.0625;105;62;0.29011
7801200;-0.09000;102.8125;105;62;0.28816
7801210;-0.09000;102.5000;105;62;0.28620
7801220;-0.09500;101.4375;105;62;0.28327
7801230;-0.10000;99.6250;105;62;0.28278
7801240;-0.10000;99.6250;105;62;0.28278
7801250;-0.10000;98.3750;105;62;0.28303
7801260;-0.10000;92.6875;105;62;0.29548
7801270;-0.10000;92.6875;105;62;0.29548
7801280;-0.10000;90.3750;105;62;0.30574
7801290;-0.09500;85.5625;105;62;0.35482
7801300;-0.09500;85.5625;105;62;0.35482
7801310;-0.08500;84.5625;105;62;0.39438
7801320;-0.08500;84.5625;105;62;0.39438
7801330;-0.08500;84.3125;105;62;0.41221
7801340;-0.08500;83.0000;105;62;0.47082
7801350;-0.08500;83.0000;105;62;0.47082
7801360;-0.08000;82.4375;105;62;0.48987
7801370;-0.07500;81.8125;105;62;0.50842
7801380;-0.07500;79.8750;105;62;0.55995
7801390;-0.07500;79.3125;105;62;0.57582
7801400;-0.07000;78.7500;105;62;0.59121
7801410;-0.07500;77.8125;105;62;0.61709
7801420;-0.07500;77.8125;105;62;0.61709
7801430;-0.07500;76.8750;105;62;0.63785
7801440;-0.07000;76.4375;105;62;0.64835
7801450;-0.07000;76.4375;105;62;0.64835
7801460;-0.06500;75.1250;105;62;0.67595
7801470;-0.06500;74.6875;105;62;0.68327
7801480;-0.06500;74.6875;105;62;0.68327
7801490;-0.07000;73.4375;105;62;0.69890
7801500;-0.07000;73.4375;105;62;0.69890
7801510;-0.06500;73.0625;105;62;0.70159
7801520;-0.03500;72.2500;105;62;0.70159
7801530;-0.03500;72.2500;105;62;0.70159
7801540;-0.00500;71.0625;105;62;0.69304
7801550;-0.01500;70.6875;105;62;0.68742
7801560;-0.01500;70.6875;105;62;0.68742
7801570;-0.02500;70.3125;105;62;0.68034
7801580;-0.03500;69.1250;105;62;0.65446
7801590;-0.03500;69.1250;105;62;0.65446
7801600;-0.06500;68.7500;105;62;0.64518
7801610;-0.08000;67.7500;105;62;0.61929
7801620;-0.08000;67.7500;105;62;0.61929
7801630;-0.08000;67.0625;105;62;0.60220
7801640;-0.08000;67.0625;105;62;0.60220
7801650;-0.09500;66.7500;105;62;0.59365
7801660;0.39000;65.8125;105;62;0.56777
7801670;0.39000;65.8125;105;62;0.56777
7801680;0.78500;65.5625;105;62;0.55922
7801690;0.87500;65.2500;105;62;0.55067
7801700;0.52500;64.7500;105;62;0.53382
7801710;0.12000;64.4375;105;62;0.52576
7801720;-0.10000;63.9375;105;62;0.51258
7801730;-0.10000;63.9375;105;62;0.51258
7801740;-0.12500;63.4375;105;62;0.49792
7801750;-0.13500;63.1875;105;62;0.49035
7801760;-0.13500;62.9375;105;62;0.48327
7801770;-0.13500;62.2500;105;62;0.46374
7801780;-0.13500;62.2500;105;62;0.46374
7801790;-0.13500;62.0000;105;62;0.45739
7801800;-0.13500;61.7500;105;62;0.45104
7801810;-0.13500;61.4375;105;62;0.44493
7801820;-0.13500;60.9375;105;62;0.43541
7801830;-0.13000;60.7500;105;62;0.43028
7801840;-0.12500;60.6250;105;62;0.42491
7801850;-0.12500;61.5000;105;62;0.40830
7801860;-0.12500;61.5000;105;62;0.40830
7801870;-0.11500;63.0000;105;62;0.40269
7801880;-0.10500;69.6250;105;62;0.39194
7801890;-0.10500;69.6250;105;62;0.39194
7801900;-0.08500;83.0625;105;62;0.37705
7801910;-0.08500;83.0625;105;62;0.37705
7801920;-0.06000;88.5000;105;62;0.37045
7801930;-0.04000;91.1875;105;62;0.36264
7801940;-0.02500;92.1250;105;62;0.35849
7801950;-0.00500;93.1250;105;62;0.35433
7801960;-0.00500;93.1250;105;62;0.35433
7801970;0.04000;97.2500;105;62;0.34286
7801980;0.07000;98.6250;105;62;0.33919
7801990;0.07000;98.6250;105;62;0.33919
7802000;0.12000;101.1875;106;62;0.33211
7802010;0.11500;103.0625;106;62;0.32821
7802020;0.09000;103.6875;106;62;0.32552
7802030;0.09000;103.6875;106;62;0.32552
7802040;0.04000;104.1875;106;62;0.32283
7802050;-0.03500;104.7500;106;62;0.31575
7802060;-0.03500;104.7500;106;62;0.31575
7802070;-0.07500;104.6250;106;62;0.31136
7802080;-0.07500;104.6250;106;62;0.31136
7802090;-0.08500;104.4375;106;62;0.30940
7802100;-0.09500;103.8750;106;62;0.30501
7802110;-0.10000;103.3750;106;62;0.30305
7802120;-0.10500;102.7500;106;62;0.30232
7802130;-0.10500;101.9375;106;62;0.30232
7802140;-0.10500;99.5625;106;62;0.30354
7802150;-0.09500;95.9375;106;62;0.31258
7802160;-0.09500;95.9375;106;62;0.31258
7802170;-0.09500;93.6250;106;62;0.32137
7802180;-0.09000;87.7500;106;62;0.36654
7802190;-0.09000;87.7500;106;62;0.36654
7802200;-0.08500;86.1875;106;62;0.40659
7802210;-0.08500;85.6250;106;62;0.44200
7802220;-0.08500;85.6250;106;62;0.44200
7802230;-0.08000;84.7500;106;62;0.47937
7802240;-0.08000;84.7500;106;62;0.47937
7802250;-0.07500;84.1875;106;62;0.49817
7802260;-0.07500;82.8125;106;62;0.53382
7802270;-0.07500;82.1250;106;62;0.55067
7802280;-0.07500;81.5000;106;62;0.56679
7802290;-0.07000;79.8125;106;62;0.61123
7802300;-0.07000;79.8125;106;62;0.61123
7802310;-0.07000;79.3125;106;62;0.62466
7802320;-0.07500;78.3125;106;62;0.64420
7802330;-0.07500;78.3125;106;62;0.64420
7802340;-0.07000;77.4375;106;62;0.66300
7802350;-0.07000;76.9375;106;62;0.67179
7802360;-0.06500;76.0625;106;62;0.68742
7802370;-0.06500;75.1250;106;62;0.69915
7802380;-0.06000;74.6875;106;62;0.70379
7802390;-0.06000;74.6875;106;62;0.70379
7802400;-0.05500;74.2500;106;62;0.70745
7802410;-0.04500;73.8125;106;62;0.70989
7802420;-0.01000;72.6250;106;62;0.70769
7802430;-0.01000;72.6250;106;62;0.70769
7802440;0.00000;72.1875;106;62;0.70452
7802450;-0.01500;71.0000;106;62;0.68694
7802460;-0.01500;71.0000;106;62;0.68694
7802470;-0.02500;70.6250;106;62;0.67863
7802480;-0.03500;70.1875;106;62;0.66935
7802490;-0.05500;69.7500;106;62;0.66007
7802500;-0.06500;68.6250;106;62;0.63175
7802510;-0.05500;68.2500;106;62;0.62320
7802520;-0.05500;68.2500;106;62;0.62320
7802530;-0.06000;67.8750;106;62;0.61490
7802540;0.02500;66.8125;106;62;0.58779
7802550;0.02500;66.8125;106;62;0.58779
7802560;0.79500;66.1875;106;62;0.57729
7802570;0.89000;65.5625;106;62;0.56117
7802580;0.89000;65.5625;106;62;0.56117
7802590;0.16500;65.0000;106;62;0.54286
7802600;0.16500;65.0000;106;62;0.54286
7802610;-0.01500;64.6875;106;62;0.53333
7802620;-0.11000;63.8125;106;62;0.50891
7802630;-0.11000;63.8125;106;62;0.50891
7802640;-0.12500;63.5625;106;62;0.50012
7802650;-0.12500;62.8125;106;62;0.47546
7802660;-0.12500;62.5625;106;62;0.46764
7802670;-0.13000;62.3125;106;62;0.46007
7802680;-0.13000;62.3125;106;62;0.46007
7802690;-0.12500;61.4375;106;62;0.43834
7802700;-0.11500;61.1250;106;62;0.43126
7802710;-0.11500;61.1250;106;62;0.43126
7802720;-0.10500;60.7500;106;62;0.42002
7802730;-0.10500;60.7500;106;62;0.42002
7802740;-0.11500;61.3125;106;62;0.40098
7802750;-0.11500;62.5625;106;62;0.39463
7802760;-0.11500;62.5625;106;62;0.39463
7802770;-0.09500;73.5000;106;62;0.37607
7802780;-0.08500;78.3125;106;62;0.36996
7802790;-0.08500;78.3125;106;62;0.36996
7802800;-0.06500;85.9375;106;62;0.35775
7802810;-0.06500;85.9375;106;62;0.35775
7802820;-0.03500;91.3125;106;62;0.34457
7802830;-0.03500;91.3125;106;62;0.34457
7802840;0.01000;93.2500;106;62;0.33431
7802850;0.01000;93.2500;106;62;0.33431
7802860;0.06000;97.4375;106;62;0.31966
7802870;0.08500;98.9375;106;62;0.31526
7802880;0.08500;98.9375;106;62;0.31526
7802890;0.13000;102.5625;106;62;0.30256
7802900;0.13000;102.5625;106;62;0.30256
7802910;0.12500;103.4375;106;62;0.29890
7802920;0.05000;104.6250;106;62;0.29475
7802930;0.05000;104.6250;106;62;0.29475
7802940;0.00500;105.2500;106;62;0.28938
7802950;-0.02500;105.3750;106;62;0.28620
7802960;-0.07000;105.4375;106;62;0.28034
7802970;-0.08500;105.1250;106;62;0.27424
7802980;-0.08500;105.1250;106;62;0.27424
7802990;-0.08500;104.3125;106;62;0.26813
7803000;-0.08500;104.3125;106;62;0.26813
7803010;-0.08500;103.7500;106;62;0.26569
7803020;-0.08500;102.0625;106;62;0.26569
7803030;-0.08000;100.9375;106;62;0.26667
7803040;-0.08000;97.6250;106;62;0.27473
7803050;-0.08000;97.6250;106;62;0.27473
7803060;-0.08000;93.1250;106;62;0.29621
7803070;-0.08000;90.8750;106;62;0.31258
7803080;-0.08500;89.0625;106;62;0.33211
7803090;-0.08500;87.7500;106;62;0.35433
7803100;-0.08000;86.0625;106;62;0.42662
7803110;-0.08000;86.0625;106;62;0.42662
7803120;-0.08000;85.6875;106;62;0.44737
7803130;-0.07500;84.1250;106;62;0.50696
7803140;-0.07500;84.1250;106;62;0.50696
7803150;-0.07500;83.5000;106;62;0.52698
7803160;-0.07000;82.1875;106;62;0.56532
7803170;-0.07000;82.1875;106;62;0.56532
7803180;-0.07000;80.9375;106;62;0.60171
7803190;-0.06500;79.8125;106;62;0.63565
7803200;-0.06500;79.8125;106;62;0.63565
7803210;-0.06500;79.3125;106;62;0.65128
7803220;-0.06500;78.3750;106;62;0.67350
7803230;-0.06500;77.5000;106;62;0.69475
7803240;-0.06500;77.0625;106;62;0.70476
7803250;-0.06500;77.0625;106;62;0.70476
7803260;-0.06500;75.7500;106;62;0.72869
7803270;-0.06000;75.3125;106;62;0.73455
7803280;-0.06000;75.3125;106;62;0.73455
7803290;-0.05000;74.0625;106;62;0.74505
7803300;-0.05000;74.0625;106;62;0.74505
7803310;-0.01500;73.2500;106;62;0.74335
7803320;-0.01500;73.2500;106;62;0.74335
7803330;-0.00500;72.8750;106;62;0.73944
7803340;-0.02500;71.6875;106;62;0.72015
7803350;-0.02500;71.6875;106;62;0.72015
7803360;-0.03500;71.3125;106;62;0.71111
7803370;-0.03500;70.8750;106;62;0.70110
7803380;-0.05500;70.0000;106;62;0.67912
7803390;-0.07000;69.6250;106;62;0.66789
7803400;-0.07500;69.2500;106;62;0.65665
7803410;-0.06500;68.8750;106;62;0.64567
7803420;-0.07000;68.1875;106;62;0.62637
7803430;-0.09500;67.8125;106;62;0.61661
7803440;0.01000;67.5000;106;62;0.60659
7803450;0.35500;67.1875;106;62;0.59634
7803460;0.87500;66.3750;106;62;0.56532
7803470;0.87500;66.3750;106;62;0.56532
7803480;0.56000;66.1250;106;62;0.55531
7803490;0.15500;65.8750;106;62;0.54554
7803500;-0.02500;65.3125;106;62;0.52674
7803510;-0.12000;64.7500;106;62;0.51160
7803520;-0.12000;64.7500;106;62;0.51160
7803530;-0.13500;64.4375;106;62;0.50403
7803540;-0.14000;63.9375;106;62;0.48816
7803550;-0.14500;63.7500;106;62;0.48010
7803560;-0.14000;63.3125;106;62;0.46398
7803570;-0.14000;63.3125;106;62;0.46398
7803580;-0.14500;62.5000;106;62;0.44127
7803590;-0.14500;62.5000;106;62;0.44127
7803600;-0.14000;62.1875;106;62;0.43419
7803610;-0.13500;61.9375;106;62;0.42735
7803620;-0.12500;61.8125;106;62;0.41123
7803630;-0.12500;61.8125;106;62;0.41123
7803640;-0.11500;63.8125;106;62;0.39902
7803650;-0.11500;63.8125;106;62;0.39902
7803660;-0.11000;70.2500;106;62;0.38657
7803670;-0.09500;79.8125;106;62;0.37460
7803680;-0.08000;84.0000;106;62;0.36899
7803690;-0.08000;84.0000;106;62;0.36899
7803700;-0.06000;91.5625;106;62;0.35409
7803710;-0.05000;92.8125;106;62;0.35092
7803720;-0.05000;92.8125;106;62;0.35092
7803730;-0.01500;96.2500;106;62;0.33871
7803740;-0.01500;96.2500;106;62;0.33871
7803750;0.04000;99.3125;106;62;0.33040
7803760;0.07000;100.8125;106;62;0.32650
7803770;0.07000;100.8125;106;62;0.32650
7803780;0.11000;104.6250;106;62;0.31453
7803790;0.11000;104.6250;106;62;0.31453
7803800;0.11000;105.5000;106;62;0.31111
7803810;0.08000;106.2500;106;62;0.30769
7803820;0.04000;107.2500;106;62;0.30427
7803830;-0.03500;107.7500;106;62;0.29963
7803840;-0.06000;107.8125;106;62;0.29719
7803850;-0.06000;107.8125;106;62;0.29719
7803860;-0.09000;107.6250;106;62;0.29011
7803870;-0.09000;107.6250;106;62;0.29011
7803880;-0.09500;107.3125;106;62;0.28791
7803890;-0.09500;106.9375;106;62;0.28596
7803900;-0.09500;105.8125;106;62;0.28303
7803910;-0.09500;105.0625;106;62;0.28303
7803920;-0.09500;104.0000;106;62;0.28474
7803930;-0.09500;102.6875;106;62;0.28816
7803940;-0.09500;99.0000;106;62;0.30330
7803950;-0.09500;94.4375;106;62;0.33260
7803960;-0.09500;94.4375;106;62;0.33260
7803970;-0.09000;92.2500;106;62;0.35189
7803980;-0.08500;88.5625;106;62;0.42149
7803990;-0.08500;88.1250;106;62;0.44542
7804000;-0.08500;88.1250;106;62;0.44542
7804010;-0.08500;87.7500;106;62;0.46886
7804020;-0.08500;86.9375;106;62;0.50696
7804030;-0.08000;86.4375;106;62;0.52650
7804040;-0.07000;85.2500;106;62;0.56606
7804050;-0.07000;83.8750;106;62;0.60366
7804060;-0.07000;83.8750;106;62;0.60366
7804070;-0.06500;83.1875;106;62;0.62173
7804080;-0.06500;82.6250;106;62;0.63907
7804090;-0.06500;82.0000;106;62;0.65568
7804100;-0.06000;81.0000;106;62;0.68547
7804110;-0.05500;80.0625;106;62;0.70525
7804120;-0.05500;80.0625;106;62;0.70525
7804130;-0.05000;78.7500;106;62;0.73455
7804140;-0.05000;78.3125;106;62;0.74310
7804150;-0.05000;78.3125;106;62;0.74310
7804160;-0.05000;77.4375;106;62;0.75726
7804170;-0.05000;77.4375;106;62;0.75726
7804180;-0.05000;76.5625;106;62;0.76654
7804190;-0.03500;75.6875;106;62;0.76923
7804200;-0.03500;75.6875;106;62;0.76923
7804210;-0.01000;74.3750;106;62;0.75971
7804220;0.00000;74.0000;106;62;0.75385
7804230;0.00000;74.0000;106;62;0.75385
7804240;-0.02000;73.1875;106;62;0.73871
7804250;-0.02000;73.1875;106;62;0.73871
7804260;-0.02500;72.3750;106;62;0.71893
7804270;-0.03500;72.0000;106;62;0.70818
7804280;-0.06500;71.2500;106;62;0.68547
7804290;-0.06500;71.2500;106;62;0.68547
7804300;-0.05500;70.1875;106;62;0.65275
7804310;-0.05500;70.1875;106;62;0.65275
7804320;-0.07500;69.5000;106;62;0.63297
7804330;0.08500;68.8125;106;62;0.61245
7804340;0.08500;68.8125;106;62;0.61245
7804350;0.81500;68.2500;106;62;0.59219
7804360;0.81500;68.0000;106;62;0.58217
7804370;0.45500;67.5000;106;62;0.56313
7804380;0.09500;67.2500;106;62;0.55385
7804390;0.09500;67.2500;106;62;0.55385
7804400;-0.05000;66.9375;106;62;0.54432
7804410;-0.12500;66.1250;106;62;0.51917
7804420;-0.12500;66.1250;106;62;0.51917
7804430;-0.13500;65.6250;106;62;0.50330
7804440;-0.13500;65.6250;106;62;0.50330
7804450;-0.14000;64.9375;106;62;0.48034
7804460;-0.14000;64.6875;106;62;0.47302
7804470;-0.14000;64.6875;106;62;0.47302
7804480;-0.13500;64.1250;106;62;0.45910
7804490;-0.13500;64.1250;106;62;0.45910
7804500;-0.13500;63.6250;106;62;0.44567
7804510;-0.12500;63.5625;106;62;0.43541
7804520;-0.12500;63.5625;106;62;0.43541
7804530;-0.12000;66.4375;106;62;0.41807
7804540;-0.11500;69.5000;106;62;0.41221
7804550;-0.11500;69.5000;106;62;0.41221
7804560;-0.11000;78.6250;106;62;0.40073
7804570;-0.11000;78.6250;106;62;0.40073
7804580;-0.09500;87.5625;106;62;0.38999
7804590;-0.07500;93.0000;106;62;0.37973
7804600;-0.07500;93.0000;106;62;0.37973
7804610;-0.06500;94.5000;106;62;0.37094
7804620;-0.02500;97.9375;106;62;0.35067
7804630;0.00000;99.3750;106;62;0.34579
7804640;0.00000;99.3750;106;62;0.34579
7804650;0.04500;103.9375;106;62;0.33309
7804660;0.04500;103.9375;106;62;0.33309
7804670;0.07500;105.3750;106;62;0.32943
7804680;0.10500;106.6250;106;62;0.32601
7804690;0.12000;107.6875;106;62;0.32112
7804700;0.11500;109.2500;106;62;0.31575
7804710;0.08500;109.8750;106;62;0.31306
7804720;0.04500;110.3125;106;62;0.31087
7804730;0.00000;110.6875;106;62;0.30867
7804740;-0.03500;111.0000;106;62;0.30427
7804750;-0.05500;111.0000;106;62;0.30183
7804760;-0.07500;110.8750;106;62;0.29988
7804770;-0.08500;110.6875;106;62;0.29817
7804780;-0.09000;110.0000;106;62;0.29597
7804790;-0.09500;109.5000;106;62;0.29548
7804800;-0.09500;108.8750;106;62;0.29597
7804810;-0.09500;108.0625;106;62;0.29817
7804820;-0.10000;105.7500;106;62;0.30916
7804830;-0.10000;104.1250;106;62;0.31917
7804840;-0.10000;99.8750;106;62;0.34896
7804850;-0.09500;95.2500;106;62;0.38950
7804860;-0.09500;95.2500;106;62;0.38950
7804870;-0.09500;93.4375;106;62;0.41221
7804880;-0.09000;91.3125;106;62;0.45812
7804890;-0.08500;90.2500;106;62;0.49915
7804900;-0.08500;90.2500;106;62;0.49915
7804910;-0.08500;89.5000;106;62;0.53358
7804920;-0.08500;89.0000;106;62;0.55189
7804930;-0.08500;89.0000;106;62;0.55189
7804940;-0.08500;87.1250;106;62;0.60635
7804950;-0.08500;87.1250;106;62;0.60635
7804960;-0.08000;86.4375;106;62;0.62344
7804970;-0.08500;84.4375;106;62;0.67082
7804980;-0.08000;83.8125;106;62;0.68498
7804990;-0.08000;83.8125;106;62;0.68498
7805000;-0.07500;83.2500;106;62;0.70232
7805010;-0.07000;81.6250;106;62;0.73040
7805020;-0.07000;81.6250;106;62;0.73040
7805030;-0.06500;80.5625;106;62;0.74408
7805040;-0.06500;80.0000;106;62;0.74969
7805050;-0.06500;80.0000;106;62;0.74969
7805060;-0.06500;78.9375;106;62;0.75702
7805070;-0.06500;77.8750;106;62;0.75897
7805080;-0.05500;77.3125;106;62;0.75775
7805090;-0.04500;76.3125;106;62;0.74994
7805100;-0.04500;76.3125;106;62;0.74994
7805110;-0.03500;75.8125;106;62;0.74432
7805120;-0.02000;75.3125;106;62;0.73333
7805130;-0.00500;74.8125;106;62;0.72430
7805140;-0.00500;73.8750;106;62;0.69744
7805150;-0.02000;73.3750;106;62;0.68620
7805160;-0.03500;72.5000;106;62;0.66300
7805170;-0.03500;72.5000;106;62;0.66300
7805180;-0.05500;71.5625;106;62;0.64029
7805190;-0.06500;71.1875;106;62;0.63004
7805200;-0.07000;70.3750;106;62;0.60977
7805210;-0.07000;70.3750;106;62;0.60977
7805220;-0.07500;69.5000;106;62;0.58901
7805230;0.07000;68.7500;106;62;0.56361
7805240;0.07000;68.7500;106;62;0.56361
7805250;0.81500;67.7500;106;62;0.52943
7805260;0.83500;67.3750;106;62;0.52015
7805270;0.83500;67.3750;106;62;0.52015
7805280;0.11000;66.7500;106;62;0.50476
7805290;-0.03500;66.1250;106;62;0.48816
7805300;-0.03500;66.1250;106;62;0.48816
7805310;-0.11500;65.5000;106;62;0.47179
7805320;-0.11500;65.5000;106;62;0.47179
7805330;-0.12500;65.1250;106;62;0.46398
7805340;-0.12000;64.3125;106;62;0.44127
7805350;-0.12000;64.3125;106;62;0.44127
7805360;-0.12000;63.7500;106;62;0.42686
7805370;-0.12000;63.7500;106;62;0.42686
7805380;-0.11500;63.1250;106;62;0.41514
7805390;-0.11500;62.8125;106;62;0.40879
7805400;-0.11500;62.5000;106;62;0.40220
7805410;-0.10500;62.0625;106;62;0.38193
7805420;-0.10500;62.0625;106;62;0.38193
7805430;-0.09500;62.9375;106;62;0.36874
7805440;-0.09500;64.5000;106;62;0.36215
7805450;-0.08500;71.4375;106;62;0.34945
7805460;-0.08500;71.4375;106;62;0.34945
7805470;-0.07500;76.1875;106;62;0.34335
7805480;-0.06000;85.0000;106;62;0.33431
7805490;-0.06000;85.0000;106;62;0.33431
7805500;-0.05000;90.4375;106;62;0.32405
7805510;-0.02000;93.1250;106;62;0.31355
7805520;-0.02000;93.1250;106;62;0.31355
7805530;-0.00500;94.1250;106;62;0.30842
7805540;0.02000;96.5625;106;62;0.29817
7805550;0.04000;98.0625;106;62;0.29304
7805560;0.06500;99.5625;106;62;0.28816
7805570;0.11500;103.6875;106;62;0.27766
7805580;0.13000;104.6875;106;62;0.27399
7805590;0.13000;104.6875;106;62;0.27399
7805600;0.10000;106.1875;106;62;0.26569
7805610;0.05500;107.0000;106;62;0.25714
7805620;0.00500;107.2500;106;62;0.25299
7805630;-0.03000;107.3750;106;62;0.24884
7805640;-0.03000;107.3750;106;62;0.24884
7805650;-0.07000;107.3125;106;62;0.23834
7805660;-0.08500;107.0625;106;62;0.23590
7805670;-0.08500;106.7500;106;62;0.23541
7805680;-0.09000;106.2500;106;62;0.23687
7805690;-0.09000;106.2500;106;62;0.23687
7805700;-0.08500;104.0000;106;62;0.25275
7805710;-0.08500;104.0000;106;62;0.25275
7805720;-0.08500;102.8125;106;62;0.26447
7805730;-0.08500;97.1875;106;62;0.31722
7805740;-0.08500;97.1875;106;62;0.31722
7805750;-0.08500;94.8125;106;62;0.33871
7805760;-0.08500;90.5000;106;62;0.38315
7805770;-0.08500;90.5000;106;62;0.38315
7805780;-0.08500;88.1875;106;62;0.41954
7805790;-0.08000;87.1875;106;62;0.45739
7805800;-0.08000;87.1875;106;62;0.45739
7805810;-0.07500;86.7500;106;62;0.47643
7805820;-0.07500;85.7500;106;62;0.51306
7805830;-0.07000;84.5000;106;62;0.54725
7805840;-0.07000;84.5000;106;62;0.54725
7805850;-0.07000;83.8125;106;62;0.56337
7805860;-0.06500;81.7500;106;62;0.60611
7805870;-0.06500;81.7500;106;62;0.60611
7805880;-0.06000;81.1875;106;62;0.61636
7805890;-0.05500;79.5625;106;62;0.64371
7805900;-0.05500;79.5625;106;62;0.64371
7805910;-0.05500;79.1250;106;62;0.65226
7805920;-0.05500;78.6250;106;62;0.66007
7805930;-0.05500;78.1875;106;62;0.66667
7805940;-0.05500;76.7500;106;62;0.67985
7805950;-0.05500;76.7500;106;62;0.67985
7805960;-0.05500;76.2500;106;62;0.68156
7805970;-0.05500;74.8750;106;62;0.67668
7805980;-0.05500;74.8750;106;62;0.67668
7805990;-0.02000;74.0000;106;62;0.66593
7806000;-0.01500;73.5625;106;62;0.65836
7806010;-0.01500;73.5625;106;62;0.65836
7806020;-0.01500;72.2500;106;62;0.62882
7806030;-0.03500;71.8750;106;62;0.61758
7806040;-0.03500;71.8750;106;62;0.61758
7806050;-0.05500;70.5625;106;62;0.58364
7806060;-0.05500;70.5625;106;62;0.58364
7806070;-0.07500;70.1250;106;62;0.57265
7806080;-0.08000;69.7500;106;62;0.56288
7806090;-0.07500;69.3750;106;62;0.55385
7806100;-0.07000;68.5625;106;62;0.53382
7806110;-0.06500;67.8125;106;62;0.51380
7806120;-0.06500;67.8125;106;62;0.51380
7806130;0.60500;66.8750;106;62;0.48425
7806140;0.60500;66.8750;106;62;0.48425
7806150;0.88000;66.5625;106;62;0.47473
7806160;0.30000;66.0000;106;62;0.45714
7806170;0.30000;66.0000;106;62;0.45714
7806180;0.00500;65.3750;106;62;0.44274
7806190;-0.12500;64.8125;106;62;0.42784
7806200;-0.12500;64.8125;106;62;0.42784
7806210;-0.14500;64.5000;106;62;0.42002
7806220;-0.14500;63.6250;106;62;0.39756
7806230;-0.14500;63.3750;106;62;0.39023
7806240;-0.14500;63.3750;106;62;0.39023
7806250;-0.14500;62.5000;106;62;0.36923
7806260;-0.14500;62.1875;106;62;0.36239
7806270;-0.14500;62.1875;106;62;0.36239
7806280;-0.14500;61.5625;106;62;0.35238
7806290;-0.14000;61.1250;106;62;0.34090
7806300;-0.14000;61.1250;106;62;0.34090
7806310;-0.13500;61.0625;106;62;0.33480
7806320;-0.12500;61.0625;106;62;0.32869
7806330;-0.11500;63.9375;106;62;0.31136
7806340;-0.11000;66.9375;106;62;0.30574
7806350;-0.11000;66.9375;106;62;0.30574
7806360;-0.09000;75.6875;106;62;0.29475
7806370;-0.09000;75.6875;106;62;0.29475
7806380;-0.07500;83.6875;106;62;0.28791
7806390;-0.05000;88.3750;106;62;0.27985
7806400;-0.05000;88.3750;106;62;0.27985
7806410;-0.03500;89.6875;106;62;0.27546
7806420;0.01000;92.5625;106;62;0.26252
7806430;0.01000;92.5625;106;62;0.26252
7806440;0.03500;93.6875;106;62;0.25861
7806450;0.08500;97.3750;106;62;0.24835
7806460;0.08500;97.3750;106;62;0.24835
7806470;0.11000;98.5000;106;62;0.24518
7806480;0.12000;99.4375;106;62;0.24322
7806490;0.10500;100.2500;106;62;0.24200
7806500;0.07000;101.3125;106;62;0.23761
7806510;0.03000;101.6250;106;62;0.23492
7806520;-0.01500;101.8125;106;62;0.23223
7806530;-0.04500;101.8750;106;62;0.22955
7806540;-0.07000;101.6875;106;62;0.22466
7806550;-0.08500;101.4375;106;62;0.22271
7806560;-0.10000;100.6875;106;62;0.22027
7806570;-0.10000;100.6875;106;62;0.22027
7806580;-0.10500;99.3750;106;62;0.22369
7806590;-0.10500;97.1875;106;62;0.23394
7806600;-0.10500;97.1875;106;62;0.23394
7806610;-0.10500;95.6250;106;62;0.24347
7806620;-0.10000;91.5000;106;62;0.27912
7806630;-0.10000;89.3125;106;62;0.30720
7806640;-0.10000;87.3750;106;62;0.33211
7806650;-0.10000;85.8750;106;62;0.35556
7806660;-0.09500;84.3750;106;62;0.39976
7806670;-0.08500;83.6875;106;62;0.43834
7806680;-0.08500;83.6875;106;62;0.43834
7806690;-0.08500;83.3750;106;62;0.45397
7806700;-0.08000;82.4375;106;62;0.48742
7806710;-0.07500;81.8125;106;62;0.50379
7806720;-0.08000;80.5000;106;62;0.53504
7806730;-0.08000;80.5000;106;62;0.53504
7806740;-0.08000;79.1875;106;62;0.56361
7806750;-0.08500;78.1875;106;62;0.58950
7806760;-0.08000;77.6875;106;62;0.60098
7806770;-0.08000;77.6875;106;62;0.60098
7806780;-0.08000;76.2500;106;62;0.62466
7806790;-0.08000;75.8750;106;62;0.63223
7806800;-0.08000;75.8750;106;62;0.63223
7806810;-0.08000;75.4375;106;62;0.63907
7806820;-0.08000;74.1875;106;62;0.65421
7806830;-0.08000;74.1875;106;62;0.65421
7806840;-0.07000;73.3125;106;62;0.65763
7806850;-0.07000;73.3125;106;62;0.65763
7806860;-0.06500;72.0625;106;62;0.65031
7806870;-0.05000;71.6875;106;62;0.64518
7806880;-0.03500;71.3125;106;62;0.63907
7806890;-0.01500;70.5000;106;62;0.62393
7806900;-0.01500;70.5000;106;62;0.62393
7806910;-0.00500;70.0625;106;62;0.61563
7806920;-0.03500;69.3750;106;62;0.59805
7806930;-0.03500;69.3750;106;62;0.59805
7806940;-0.05000;68.1875;106;62;0.57265
7806950;-0.07000;67.8125;106;62;0.56459
7806960;-0.08500;67.4375;106;62;0.55629
7806970;-0.08000;66.6875;106;62;0.54164
7806980;-0.08000;66.6875;106;62;0.54164
7806990;-0.09000;66.0000;106;62;0.52552
7807000;-0.09000;66.0000;106;62;0.52552
7807010;-0.08500;65.6875;106;62;0.51746
7807020;0.53500;64.7500;106;62;0.49280
7807030;0.53500;64.7500;106;62;0.49280
7807040;0.77500;64.2500;106;62;0.47717
7807050;0.36000;63.7500;106;62;0.46276
7807060;0.36000;63.7500;106;62;0.46276
7807070;-0.08000;63.1875;106;62;0.45153
7807080;-0.08000;63.1875;106;62;0.45153
7807090;-0.12500;62.8750;106;62;0.44542
7807100;-0.15000;62.1250;106;62;0.42686
7807110;-0.15000;61.8750;106;62;0.42076
7807120;-0.15000;61.8750;106;62;0.42076
7807130;-0.15500;61.1875;106;62;0.40293
7807140;-0.15500;61.1875;106;62;0.40293
7807150;-0.15500;60.9375;106;62;0.39707
7807160;-0.14500;60.2500;106;62;0.38559
7807170;-0.14500;60.2500;106;62;0.38559
7807180;-0.14000;59.6875;106;62;0.37705
7807190;-0.12500;59.4375;106;62;0.36777
7807200;-0.12500;59.4375;106;62;0.36777
7807210;-0.12500;59.5000;106;62;0.36288
7807220;-0.12500;63.0000;106;62;0.34799
7807230;-0.12500;63.0000;106;62;0.34799
7807240;-0.11500;66.4375;106;62;0.34310
7807250;-0.10000;80.1875;106;62;0.32918
7807260;-0.10000;80.1875;106;62;0.32918
7807270;-0.07000;86.5000;106;62;0.32308
7807280;-0.07000;86.5000;106;62;0.32308
7807290;-0.05500;88.3125;106;62;0.31990
7807300;-0.02000;91.3750;106;62;0.30916
7807310;-0.02000;91.3750;106;62;0.30916
7807320;0.02000;93.7500;106;62;0.30232
7807330;0.02000;93.7500;106;62;0.30232
7807340;0.04500;96.5625;106;62;0.29646
7807350;0.10000;99.1875;106;62;0.29109
7807360;0.11000;100.2500;106;62;0.28840
7807370;0.10000;101.8750;106;62;0.28596
7807380;0.06000;102.3750;106;62;0.28400
7807390;0.02000;102.6875;106;62;0.28181
7807400;-0.02000;102.9375;106;62;0.27937
7807410;-0.02000;102.9375;106;62;0.27937
7807420;-0.07500;103.0000;106;62;0.27204
7807430;-0.07500;103.0000;106;62;0.27204
7807440;-0.10000;102.5625;106;62;0.26789
7807450;-0.10000;101.6875;106;62;0.26740
7807460;-0.10500;101.1250;106;62;0.26960
7807470;-0.10500;101.1250;106;62;0.26960
7807480;-0.10500;99.3750;106;62;0.28059
7807490;-0.10500;99.3750;106;62;0.28059
7807500;-0.10500;94.5000;106;62;0.31990
7807510;-0.10000;92.2500;106;62;0.33895
7807520;-0.13000;90.0000;106;62;0.35971
7807530;-0.16000;86.4375;106;62;0.40391
7807540;-0.16000;86.4375;106;62;0.40391
7807550;-0.14000;84.8750;106;62;0.44737
7807560;-0.13500;84.5000;106;62;0.46764
7807570;-0.13500;84.5000;106;62;0.46764
7807580;-0.11500;83.3750;106;62;0.51673
7807590;-0.11000;82.8750;106;62;0.53333
7807600;-0.11000;82.8750;106;62;0.53333
7807610;-0.10500;82.2500;106;62;0.54994
7807620;-0.09500;80.3125;106;62;0.59609
7807630;-0.09500;80.3125;106;62;0.59609
7807640;-0.08500;79.6875;106;62;0.61050
7807650;-0.08500;79.1250;106;62;0.62442
7807660;-0.08000;77.6875;106;62;0.65788
7807670;-0.07500;77.2500;106;62;0.66496
7807680;-0.07500;77.2500;106;62;0.66496
7807690;-0.07500;76.0000;106;62;0.68571
7807700;-0.07500;76.0000;106;62;0.68571
7807710;-0.07500;75.1875;106;62;0.69524
7807720;-0.07000;74.7500;106;62;0.69841
7807730;-0.07000;74.7500;106;62;0.69841
7807740;-0.07000;73.5000;106;62;0.69988
7807750;-0.07000;73.5000;106;62;0.69988
7807760;-0.05000;72.6875;106;62;0.69328
7807770;-0.03500;71.8750;106;62;0.68107
7807780;-0.03500;71.8750;106;62;0.68107
7807790;-0.02000;71.4375;106;62;0.67326
7807800;-0.01000;70.6875;106;62;0.65519
7807810;-0.01000;70.6875;106;62;0.65519
7807820;-0.02500;69.8750;106;62;0.63565
7807830;-0.03500;69.4375;106;62;0.62613
7807840;-0.05500;68.6875;106;62;0.60757
7807850;-0.07500;67.9375;106;62;0.58901
7807860;-0.07500;67.5625;106;62;0.58071
7807870;-0.07500;67.5625;106;62;0.58071
7807880;-0.07500;66.8750;106;62;0.56459
7807890;-0.08500;66.1250;106;62;0.54750
7807900;-0.08500;66.1250;106;62;0.54750
7807910;0.41000;65.4375;106;62;0.53089
7807920;0.41000;65.4375;106;62;0.53089
7807930;0.80500;65.1875;106;62;0.52259
7807940;0.51000;64.3750;106;62;0.49890
7807950;0.51000;64.3750;106;62;0.49890
7807960;0.12000;64.1250;106;62;0.49133
7807970;-0.09500;63.3125;106;62;0.47179
7807980;-0.09500;63.3125;106;62;0.47179
7807990;-0.12000;63.0000;106;62;0.46545
7808000;-0.13500;62.5000;106;62;0.45250
7808010;-0.13500;62.5000;106;62;0.45250
7808020;-0.13500;61.7500;106;62;0.43321
7808030;-0.13000;61.5000;106;62;0.42711
7808040;-0.13000;61.5000;106;62;0.42711
7808050;-0.12500;60.6250;106;62;0.40879
7808060;-0.12500;60.6250;106;62;0.40879
7808070;-0.12500;60.3750;106;62;0.40391
7808080;-0.12500;60.0625;106;62;0.39438
7808090;-0.12500;60.2500;106;62;0.38339
7808100;-0.12500;61.0000;106;62;0.37802
7808110;-0.12500;61.0000;106;62;0.37802
7808120;-0.11500;65.5000;106;62;0.36752
7808130;-0.11500;65.5000;106;62;0.36752
7808140;-0.09500;79.1875;106;62;0.35287
7808150;-0.08500;83.1875;106;62;0.34847
7808160;-0.08500;83.1875;106;62;0.34847
7808170;-0.07500;86.3125;106;62;0.34408
7808180;-0.04000;90.9375;106;62;0.33455
7808190;-0.02000;91.8750;106;62;0.33065
7808200;0.00000;92.8750;106;62;0.32698
7808210;0.00000;92.8750;106;62;0.32698
7808220;0.02000;95.5625;106;62;0.31990
7808230;0.07000;98.5625;106;62;0.31306
7808240;0.07000;98.5625;106;62;0.31306
7808250;0.09500;99.8750;106;62;0.30989
7808260;0.11000;102.8125;106;62;0.30183
7808270;0.11000;102.8125;106;62;0.30183
7808280;0.08000;103.4375;106;62;0.30061
7808290;-0.00500;104.3750;106;62;0.29426
7808300;-0.04000;104.5625;106;62;0.29182
7808310;-0.04000;104.5625;106;62;0.29182
7808320;-0.08000;104.5000;106;62;0.28694
7808330;-0.09000;104.0000;106;62;0.28327
7808340;-0.09000;104.0000;106;62;0.28327
7808350;-0.10000;103.1250;106;62;0.28400
7808360;-0.10000;102.5000;106;62;0.28767
7808370;-0.10000;102.5000;106;62;0.28767
7808380;-0.10500;99.3125;106;62;0.31233
7808390;-0.10500;99.3125;106;62;0.31233
7808400;-0.11000;97.6875;106;62;0.32650
7808410;-0.10500;91.1875;106;62;0.38437
7808420;-0.10500;91.1875;106;62;0.38437
7808430;-0.10500;89.1875;106;62;0.40610
7808440;-0.09500;87.6875;106;62;0.42808
7808450;-0.08500;85.6875;106;62;0.48987
7808460;-0.08500;85.6875;106;62;0.48987
7808470;-0.08500;85.2500;106;62;0.50696
7808480;-0.08500;84.8125;106;62;0.52210
7808490;-0.08500;83.1875;106;62;0.57118
7808500;-0.08500;83.1875;106;62;0.57118
7808510;-0.08000;82.5000;106;62;0.58730
7808520;-0.07500;81.8125;106;62;0.60293
7808530;-0.08000;79.9375;106;62;0.64518
7808540;-0.08000;79.3750;106;62;0.65714
7808550;-0.08000;78.8125;106;62;0.66813
7808560;-0.08000;78.3125;106;62;0.67814
7808570;-0.08000;78.3125;106;62;0.67814
7808580;-0.07000;77.0000;106;62;0.69792
7808590;-0.07500;76.5625;106;62;0.70403
7808600;-0.07500;76.5625;106;62;0.70403
7808610;-0.07500;76.1250;106;62;0.70916
7808620;-0.07000;74.7500;106;62;0.71770
7808630;-0.07000;74.7500;106;62;0.71770
7808640;-0.06500;74.3125;106;62;0.71795
7808650;-0.05500;73.0625;106;62;0.70867
7808660;-0.05500;73.0625;106;62;0.70867
7808670;-0.02500;72.1875;106;62;0.71306
7808680;-0.02500;72.1875;106;62;0.71306
7808690;-0.01500;71.0000;106;62;0.69451
7808700;-0.01500;71.0000;106;62;0.69451
7808710;-0.04000;70.1250;106;62;0.67375
7808720;-0.04000;70.1250;106;62;0.67375
7808730;-0.05500;69.0000;106;62;0.64127
7808740;-0.07500;68.5625;106;62;0.63077
7808750;-0.07500;68.5625;106;62;0.63077
7808760;-0.06500;67.8125;106;62;0.60977
7808770;-0.07000;67.0625;106;62;0.59121
7808780;-0.07000;67.0625;106;62;0.59121
7808790;-0.09000;66.7500;106;62;0.58120
7808800;0.00000;66.4375;106;62;0.57118
7808810;0.34000;66.1250;106;62;0.56117
7808820;0.81000;65.5000;106;62;0.54188
7808830;0.56500;65.0625;106;62;0.52357
7808840;0.15500;64.7500;106;62;0.51477
7808850;0.15500;64.7500;106;62;0.51477
7808860;-0.10500;63.8125;106;62;0.49035
7808870;-0.13000;63.2875;106;62;0.47651
7808880;-0.13000;63.0562;106;62;0.47026
7808890;-0.14500;63.0000;106;62;0.46862
7808900;-0.14500;63.0000;106;62;0.46862
7808910;-0.14000;62.6875;106;62;0.46105
7808920;-0.13500;62.1875;106;62;0.44615
7808930;-0.13500;62.1875;106;62;0.44615
7808940;-0.13000;61.3750;106;62;0.42515
7808950;-0.13000;61.3750;106;62;0.42515
7808960;-0.12500;61.0625;106;62;0.41807
7808970;-0.12000;60.3750;106;62;0.40000
7808980;-0.12000;60.3125;106;62;0.39414
7808990;-0.12000;60.3125;106;62;0.39414
7809000;-0.11000;60.9375;107;62;0.38193
7809010;-0.11000;60.9375;107;62;0.38193
7809020;-0.10500;64.5625;107;62;0.37021
7809030;-0.09000;72.8750;107;62;0.35849
7809040;-0.09000;72.8750;107;62;0.35849
7809050;-0.07500;77.6250;107;62;0.35287
7809060;-0.05500;87.9375;107;62;0.33626
7809070;-0.04000;89.6875;107;62;0.33236
7809080;-0.04000;89.6875;107;62;0.33236
7809090;-0.02000;90.8750;107;62;0.32918
7809100;0.02000;94.1250;107;62;0.31673
7809110;0.02000;94.1250;107;62;0.31673
7809120;0.04500;95.5625;107;62;0.31233
7809130;0.10000;100.0000;107;62;0.30037
7809140;0.10000;100.0000;107;62;0.30037
7809150;0.12500;102.3750;107;62;0.29328
7809160;0.10500;103.1875;107;62;0.28987
7809170;0.10500;103.1875;107;62;0.28987
7809180;0.01500;104.7500;107;62;0.28400
7809190;-0.02500;104.9375;107;62;0.28132
7809200;-0.02500;104.9375;107;62;0.28132
7809210;-0.05500;105.0625;107;62;0.27863
7809220;-0.07000;105.0625;107;62;0.27302
7809230;-0.08500;104.8750;107;62;0.27033
7809240;-0.09000;104.3125;107;62;0.26716
7809250;-0.09000;104.3125;107;62;0.26716
7809260;-0.09500;103.3750;107;62;0.26960
7809270;-0.09500;101.7500;107;62;0.28205
7809280;-0.09500;101.7500;107;62;0.28205
7809290;-0.09500;100.6250;107;62;0.29231
7809300;-0.09500;95.2500;107;62;0.34457
7809310;-0.09500;95.2500;107;62;0.34457
7809320;-0.09500;92.8750;107;62;0.36728
7809330;-0.09000;90.6875;107;62;0.39096
7809340;-0.08500;87.6250;107;62;0.43883
7809350;-0.08500;86.8750;107;62;0.46178
7809360;-0.08000;86.3750;107;62;0.48425
7809370;-0.07500;86.0000;107;62;0.50598
7809380;-0.07500;85.1875;107;62;0.54042
7809390;-0.07000;84.6875;107;62;0.55800
7809400;-0.07000;84.0625;107;62;0.57607
7809410;-0.06500;82.1250;107;62;0.62784
7809420;-0.06500;82.1250;107;62;0.62784
7809430;-0.06500;80.8125;107;62;0.65812
7809440;-0.06500;80.2500;107;62;0.67179
7809450;-0.06500;80.2500;107;62;0.67179
7809460;-0.06000;78.7500;107;62;0.70794
7809470;-0.06000;78.2500;107;62;0.71551
7809480;-0.06000;77.8750;107;62;0.72112
7809490;-0.06000;77.8750;107;62;0.72112
7809500;-0.06000;77.0000;107;62;0.73309
7809510;-0.06000;76.1250;107;62;0.74188
7809520;-0.06000;76.1250;107;62;0.74188
7809530;-0.05500;75.6875;107;62;0.74457
7809540;-0.04500;74.3750;107;62;0.74457
7809550;-0.03000;73.9375;107;62;0.74090
7809560;-0.03000;73.9375;107;62;0.74090
7809570;0.00000;72.6875;107;62;0.72112
7809580;0.00000;72.6875;107;62;0.72112
7809590;-0.00500;71.9375;107;62;0.70256
7809600;-0.02500;71.5625;107;62;0.69255
7809610;-0.02500;71.5625;107;62;0.69255
7809620;-0.04500;70.3750;107;62;0.66056
7809630;-0.04500;70.3750;107;62;0.66056
7809640;-0.07000;69.6250;107;62;0.63932
7809650;-0.06500;68.8750;107;62;0.61783
7809660;-0.06500;68.8750;107;62;0.61783
7809670;-0.08000;68.1875;107;62;0.59780
7809680;-0.08000;68.1875;107;62;0.59780
7809690;0.24500;67.1875;107;62;0.56850
7809700;0.66000;66.8750;107;62;0.55971
7809710;0.66000;66.8750;107;62;0.55971
7809720;0.88000;66.6250;107;62;0.55043
7809730;0.67500;66.3125;107;62;0.54139
7809740;0.25500;65.7500;107;62;0.52381
7809750;-0.08000;65.1875;107;62;0.50672
7809760;-0.11500;64.9375;107;62;0.49866
7809770;-0.11500;64.9375;107;62;0.49866
7809780;-0.14000;64.1875;107;62;0.47863
7809790;-0.14000;64.1875;107;62;0.47863
7809800;-0.14000;63.8750;107;62;0.47179
7809810;-0.14000;63.6875;107;62;0.46471
7809820;-0.14500;63.2500;107;62;0.45031
7809830;-0.14500;63.0000;107;62;0.44347
7809840;-0.13500;62.4375;107;62;0.43053
7809850;-0.13500;62.4375;107;62;0.43053
7809860;-0.13500;61.9375;107;62;0.41783
7809870;-0.13500;61.7500;107;62;0.41148
7809880;-0.13000;61.8125;107;62;0.40635
7809890;-0.12500;61.8125;107;62;0.40171
7809900;-0.12500;63.7500;107;62;0.39048
7809910;-0.11500;70.1875;107;62;0.37851
7809920;-0.11500;70.1875;107;62;0.37851
7809930;-0.11000;74.8750;107;62;0.37289
7809940;-0.10000;84.1250;107;62;0.36190
7809950;-0.07500;90.1250;107;62;0.35189
7809960;-0.07500;90.1250;107;62;0.35189
7809970;-0.05500;91.8750;107;62;0.34725
7809980;-0.03500;94.1250;107;62;0.34115
7809990;-0.02000;95.1875;107;62;0.33748
7810000;0.00000;96.5000;106;62;0.33358
7810010;0.02000;97.9375;106;62;0.32991
7810020;0.04500;101.0000;106;62;0.32283
7810030;0.07500;102.4375;106;62;0.31941
7810040;0.10000;103.7500;106;62;0.31600
7810050;0.11000;104.8750;106;62;0.31306
7810060;0.09000;106.5625;106;62;0.30745
7810070;0.05500;107.1250;106;62;0.30476
7810080;0.01000;107.6250;106;62;0.30330
7810090;-0.02500;107.9375;106;62;0.30208
7810100;-0.06000;108.2500;106;62;0.29817
7810110;-0.07500;108.3125;106;62;0.29646
7810120;-0.09000;108.2500;106;62;0.29475
7810130;-0.09500;107.4375;106;62;0.29353
7810140;-0.09500;107.4375;106;62;0.29353
7810150;-0.09500;106.9375;106;62;0.29646
7810160;-0.09500;106.3125;106;62;0.30183
7810170;-0.09500;105.5000;106;62;0.31062
7810180;-0.09500;103.1875;106;62;0.33382
7810190;-0.09000;101.5625;106;62;0.35043
7810200;-0.09000;99.6250;106;62;0.37021
7810210;-0.08500;97.3750;106;62;0.39243
7810220;-0.09000;90.9375;106;62;0.46447
7810230;-0.09000;90.9375;106;62;0.46447
7810240;-0.09000;88.8750;106;62;0.51062
7810250;-0.09000;88.0000;106;62;0.55287
7810260;-0.09000;88.0000;106;62;0.55287
7810270;-0.08000;87.1875;106;62;0.58901
7810280;-0.08000;87.1875;106;62;0.58901
7810290;-0.07500;86.7500;106;62;0.60391
7810300;-0.07500;85.5000;106;62;0.63736
7810310;-0.07500;84.8750;106;62;0.65397
7810320;-0.07500;84.1875;106;62;0.67033
7810330;-0.07500;82.3125;106;62;0.71380
7810340;-0.07500;82.3125;106;62;0.71380
7810350;-0.07500;81.7500;106;62;0.72601
7810360;-0.07500;80.8125;106;62;0.74652
7810370;-0.07500;80.8125;106;62;0.74652
7810380;-0.07000;79.8750;106;62;0.75849
7810390;-0.06000;79.0000;106;62;0.76899
7810400;-0.06000;79.0000;106;62;0.76899
7810410;-0.06000;78.5625;106;62;0.77338
7810420;-0.06500;77.1875;106;62;0.77900
7810430;-0.06500;77.1875;106;62;0.77900
7810440;-0.06500;76.7500;106;62;0.77778
7810450;-0.03500;75.4375;106;62;0.76410
7810460;-0.03500;75.4375;106;62;0.76410
7810470;-0.02500;75.0625;106;62;0.75629
7810480;-0.01500;74.6250;106;62;0.74750
7810490;-0.01500;74.2500;106;62;0.73797
7810500;-0.03500;73.0625;106;62;0.70427
7810510;-0.03500;73.0625;106;62;0.70427
7810520;-0.04500;72.6875;106;62;0.69280
7810530;-0.06000;72.3125;106;62;0.68132
7810540;-0.07500;71.5000;106;62;0.65885
7810550;-0.07000;71.1250;106;62;0.64811
7810560;-0.06500;70.7500;106;62;0.63761
7810570;-0.07500;70.3750;106;62;0.62735
7810580;-0.08500;69.6875;106;62;0.60904
7810590;0.02500;69.3750;106;62;0.59976
7810600;0.37000;69.0625;106;62;0.59023
7810610;0.75500;68.8125;106;62;0.58046
7810620;0.50500;67.9375;106;62;0.55263
7810630;0.50500;67.9375;106;62;0.55263
7810640;0.12500;67.6875;106;62;0.54359
7810650;-0.04500;67.3750;106;62;0.53480
7810660;-0.10500;66.8125;106;62;0.51770
7810670;-0.13000;66.5625;106;62;0.50940
7810680;-0.14000;66.3125;106;62;0.50256
7810690;-0.14000;65.5625;106;62;0.48230
7810700;-0.14000;65.3125;106;62;0.47350
7810710;-0.14000;65.3125;106;62;0.47350
7810720;-0.14500;65.0625;106;62;0.46569
7810730;-0.14500;64.3125;106;62;0.43101
7810740;-0.14500;64.3125;106;62;0.43101
7810750;-0.14500;64.0625;106;62;0.42295
7810760;-0.14500;63.8750;106;62;0.41612
7810770;-0.14000;63.9375;106;62;0.40073
7810780;-0.14000;63.9375;106;62;0.40073
7810790;-0.13500;64.6250;106;62;0.39585
7810800;-0.13000;66.2500;106;62;0.39048
7810810;-0.12000;69.0625;106;62;0.38535
7810820;-0.11500;78.0000;106;62;0.37460
7810830;-0.10500;82.8125;106;62;0.36947
7810840;-0.10000;87.0625;106;62;0.36435
7810850;-0.07000;94.3125;106;62;0.34969
7810860;-0.07000;94.3125;106;62;0.34969
7810870;-0.05500;95.5000;106;62;0.34603
7810880;-0.03500;96.5625;106;62;0.34310
7810890;-0.02000;97.7500;106;62;0.33968
7810900;0.00000;100.6250;106;62;0.33260
7810910;0.02500;102.2500;106;62;0.32918
7810920;0.08000;105.2500;106;62;0.32234
7810930;0.09500;107.6875;106;62;0.31648
7810940;0.09500;107.6875;106;62;0.31648
7810950;0.07000;109.3125;106;62;0.31111
7810960;0.03000;109.8750;106;62;0.30867
7810970;0.03000;109.8750;106;62;0.30867
7810980;-0.04500;110.7500;106;62;0.30549
7810990;-0.04500;110.7500;106;62;0.30549
7811000;-0.07500;110.8750;106;62;0.30403
7811010;-0.09500;110.5625;106;62;0.29939
7811020;-0.09500;110.5625;106;62;0.29939
7811030;-0.10500;109.6875;106;62;0.29939
7811040;-0.10000;109.1250;106;62;0.30232
7811050;-0.10000;109.1250;106;62;0.30232
7811060;-0.10000;106.3750;106;62;0.32723
7811070;-0.10000;106.3750;106;62;0.32723
7811080;-0.09500;103.3750;106;62;0.35580
7811090;-0.09500;99.0625;106;62;0.39536
7811100;-0.09500;99.0625;106;62;0.39536
7811110;-0.09000;96.6250;106;62;0.41734
7811120;-0.09500;94.3125;106;62;0.43980
7811130;-0.09500;92.5000;106;62;0.46178
7811140;-0.09000;90.2500;106;62;0.50379
7811150;-0.08000;89.1250;106;62;0.54310
7811160;-0.08000;89.1250;106;62;0.54310
7811170;-0.07500;88.6875;106;62;0.56166
7811180;-0.07500;87.5625;106;62;0.59072
7811190;-0.06500;86.2500;106;62;0.62149
7811200;-0.06500;86.2500;106;62;0.62149
7811210;-0.06000;85.5625;106;62;0.63687
7811220;-0.05500;83.3750;106;62;0.67912
7811230;-0.05500;83.3750;106;62;0.67912
7811240;-0.05500;82.6875;106;62;0.69133
7811250;-0.05500;82.0625;106;62;0.70256
7811260;-0.05500;80.9375;106;62;0.72161
7811270;-0.05000;80.3750;106;62;0.72796
7811280;-0.05000;79.3750;106;62;0.73724
7811290;-0.04500;78.3125;106;62;0.74554
7811300;-0.04500;78.3125;106;62;0.74554
7811310;-0.04500;77.3125;106;62;0.74921
7811320;-0.04500;76.8125;106;62;0.74799
7811330;-0.04500;76.8125;106;62;0.74799
7811340;-0.03500;75.3750;106;62;0.73748
7811350;-0.03500;75.3750;106;62;0.73748
7811360;-0.01500;74.8750;106;62;0.73065
7811370;-0.00500;74.3750;106;62;0.72234
7811380;0.00000;73.0625;106;62;0.69206
7811390;-0.01500;72.6250;106;62;0.68059
7811400;-0.01500;72.6250;106;62;0.68059
7811410;-0.01500;72.1875;106;62;0.64469
7811420;-0.02000;71.3125;106;62;0.64469
7811430;-0.04000;70.8750;106;62;0.63272
7811440;-0.05000;70.0625;106;62;0.61001
7811450;-0.05000;70.0625;106;62;0.61001
7811460;-0.04500;69.2500;106;62;0.58315
7811470;-0.06500;68.5000;106;62;0.56630
7811480;-0.06500;68.5000;106;62;0.56630
7811490;0.47500;67.4375;106;62;0.53529
7811500;0.47500;67.4375;106;62;0.53529
7811510;0.84500;67.1250;106;62;0.52454
7811520;0.46500;66.5000;106;62;0.50305
7811530;0.46500;66.5000;106;62;0.50305
7811540;0.11000;65.8750;106;62;0.48278
7811550;-0.08000;65.3125;106;62;0.46398
7811560;-0.08000;65.3125;106;62;0.46398
7811570;-0.10500;64.9375;106;62;0.45519
7811580;-0.11500;64.3750;106;62;0.43736
7811590;-0.12000;64.0625;106;62;0.43126
7811600;-0.12500;63.8125;106;62;0.42369
7811610;-0.12500;62.9375;106;62;0.39976
7811620;-0.12500;62.9375;106;62;0.39976
7811630;-0.12000;62.6250;106;62;0.39170
7811640;-0.12000;62.3125;106;62;0.38388
7811650;-0.11500;61.9375;106;62;0.37460
7811660;-0.10500;61.3750;106;62;0.36068
7811670;-0.10500;61.1875;106;62;0.35556
7811680;-0.10500;61.1250;106;62;0.35067
7811690;-0.09500;62.8750;106;62;0.33016
7811700;-0.09500;62.8750;106;62;0.33016
7811710;-0.08500;65.1875;106;62;0.32283
7811720;-0.06500;73.2500;106;62;0.31184
7811730;-0.06500;73.2500;106;62;0.31184
7811740;-0.05500;82.0625;106;62;0.29817
7811750;-0.04500;85.4375;106;62;0.29353
7811760;-0.01500;89.7500;106;62;0.28327
7811770;-0.01500;89.7500;106;62;0.28327
7811780;0.00000;92.0000;106;62;0.27643
7811790;0.02500;93.0000;106;62;0.27253
7811800;0.04500;94.1875;106;62;0.26813
7811810;0.07000;95.5625;106;62;0.26349
7811820;0.12000;99.6250;106;62;0.24957
7811830;0.14000;100.7500;106;62;0.24542
7811840;0.14000;100.7500;106;62;0.24542
7811850;0.09500;103.2500;106;62;0.23394
7811860;0.05000;103.6875;106;62;0.23175
7811870;0.05000;103.6875;106;62;0.23175
7811880;-0.02500;104.2500;106;62;0.22759
7811890;-0.02500;104.2500;106;62;0.22759
7811900;-0.04500;104.3125;106;62;0.22149
7811910;-0.06500;104.2500;106;62;0.21832
7811920;-0.08000;104.0625;106;62;0.21514
7811930;-0.08500;103.8125;106;62;0.21245
7811940;-0.08500;102.8750;106;62;0.20952
7811950;-0.08500;101.3750;106;62;0.21661
7811960;-0.08500;101.3750;106;62;0.21661
7811970;-0.08500;97.3125;106;62;0.24127
7811980;-0.08000;95.2500;106;62;0.25641
7811990;-0.08000;95.2500;106;62;0.25641
7812000;-0.08000;90.6875;106;62;0.29524
7812010;-0.07500;87.2500;106;62;0.33993
7812020;-0.07500;87.2500;106;62;0.33993
7812030;-0.07500;85.6875;106;62;0.39267
7812040;-0.07500;85.6875;106;62;0.39267
7812050;-0.07500;85.2500;106;62;0.41465
7812060;-0.07000;84.4375;106;62;0.45055
7812070;-0.06500;83.9375;106;62;0.46496
7812080;-0.06500;83.3750;106;62;0.48327
7812090;-0.07000;82.7500;106;62;0.50549
7812100;-0.06500;81.3750;106;62;0.54164
7812110;-0.06500;80.7500;106;62;0.55727
7812120;-0.06500;80.1875;106;62;0.57192
7812130;-0.06500;78.5000;106;62;0.60684
7812140;-0.06500;78.5000;106;62;0.60684
7812150;-0.06500;78.0000;106;62;0.61783
7812160;-0.06500;77.0625;106;62;0.63370
7812170;-0.06500;77.0625;106;62;0.63370
7812180;-0.06500;76.1250;106;62;0.64371
7812190;-0.06000;75.6875;106;62;0.64811
7812200;-0.05500;74.8125;106;62;0.65470
7812210;-0.05500;74.8125;106;62;0.65470
7812220;-0.05000;73.5000;106;62;0.65348
7812230;-0.03500;73.0625;106;62;0.64982
7812240;-0.03500;73.0625;106;62;0.64982
7812250;-0.01000;71.8125;106;62;0.62979
7812260;-0.01000;71.8125;106;62;0.62979
7812270;0.00000;71.3750;106;62;0.62149
7812280;-0.00500;71.0000;106;62;0.61197
7812290;-0.02500;70.6250;106;62;0.60171
7812300;-0.03000;69.8750;106;62;0.58120
7812310;-0.06000;69.0625;106;62;0.56068
7812320;-0.06000;69.0625;106;62;0.56068
7812330;-0.07000;68.6875;106;62;0.55311
7812340;-0.06500;67.9375;106;62;0.53260
7812350;-0.08000;67.1875;106;62;0.51160
7812360;-0.08000;67.1875;106;62;0.51160
7812370;0.11500;66.1875;106;62;0.48645
7812380;0.11500;66.1875;106;62;0.48645
7812390;0.86000;65.5000;106;62;0.46935
7812400;0.86000;65.5000;106;62;0.46935
7812410;0.81000;65.0000;106;62;0.46105
7812420;0.05000;64.4375;106;62;0.43761
7812430;-0.06000;64.1875;106;62;0.43004
7812440;-0.06000;64.1875;106;62;0.43004
7812450;-0.12500;63.3125;106;62;0.40904
7812460;-0.13500;63.0625;106;62;0.40342
7812470;-0.13500;63.0625;106;62;0.40342
7812480;-0.13500;62.5625;106;62;0.39048
7812490;-0.13500;62.5625;106;62;0.39048
7812500;-0.13500;62.0000;106;62;0.37729
7812510;-0.13500;61.5000;106;62;0.36435
7812520;-0.13500;61.5000;106;62;0.36435
7812530;-0.13500;61.1875;106;62;0.35800
7812540;-0.13000;60.3125;106;62;0.33968
7812550;-0.13000;60.3125;106;62;0.33968
7812560;-0.12500;60.1250;106;62;0.33529
7812570;-0.11500;60.3125;106;62;0.32186
7812580;-0.11500;60.3125;106;62;0.32186
7812590;-0.10500;63.0625;106;62;0.31136
7812600;-0.09500;66.1875;106;62;0.30623
7812610;-0.09500;66.1875;106;62;0.30623
7812620;-0.07500;79.3750;106;62;0.29182
7812630;-0.06500;83.0000;106;62;0.28718
7812640;-0.06500;83.0000;106;62;0.28718
7812650;-0.03500;89.0000;106;62;0.27643
7812660;-0.03500;89.0000;106;62;0.27643
7812670;-0.01500;89.9375;106;62;0.27448
7812680;0.03000;91.8750;106;62;0.26838
7812690;0.05000;94.4375;106;62;0.26227
7812700;0.05000;94.4375;106;62;0.26227
7812710;0.10000;97.0625;106;62;0.25617
7812720;0.10000;97.0625;106;62;0.25617
7812730;0.11500;98.1875;106;62;0.25324
7812740;0.10000;100.0000;106;62;0.24811
7812750;0.07000;100.6250;106;62;0.24542
7812760;0.02000;101.1250;106;62;0.24396
7812770;-0.02500;101.4375;106;62;0.25299
7812780;-0.07500;101.8125;106;62;0.27277
7812790;-0.08500;101.6250;106;62;0.27228
7812800;-0.08500;101.6250;106;62;0.27228
7812810;-0.09000;101.4375;106;62;0.27106
7812820;-0.09500;100.2500;106;62;0.27033
7812830;-0.09500;100.2500;106;62;0.27033
7812840;-0.10500;99.6250;106;62;0.27326
7812850;-0.10500;98.7500;106;62;0.27888
7812860;-0.10500;96.1875;106;62;0.29841
7812870;-0.10500;94.3750;106;62;0.31111
7812880;-0.10500;92.2500;106;62;0.32698
7812890;-0.10500;90.0000;106;62;0.34579
7812900;-0.10000;86.2500;106;62;0.38779
7812910;-0.10000;85.1250;106;62;0.40952
7812920;-0.10000;84.4375;106;62;0.43077
7812930;-0.09000;83.3750;106;62;0.48987
7812940;-0.09000;83.3750;106;62;0.48987
7812950;-0.08500;83.0000;106;62;0.50794
7812960;-0.08500;81.8750;106;62;0.53626
7812970;-0.08500;81.8750;106;62;0.53626
7812980;-0.08500;79.9375;106;62;0.57924
7812990;-0.08500;79.3125;106;62;0.59316
7813000;-0.08500;79.3125;105;62;0.59316
7813010;-0.08000;77.6250;105;62;0.63101
7813020;-0.07500;77.1875;105;62;0.64151
7813030;-0.07500;76.7500;105;62;0.65104
7813040;-0.07500;76.7500;105;62;0.65104
7813050;-0.07500;76.3125;105;62;0.65958
7813060;-0.07500;75.0000;105;62;0.67570
7813070;-0.07500;75.0000;105;62;0.67570
7813080;-0.07500;74.5625;105;62;0.67961
7813090;-0.07500;74.1250;105;62;0.68278
7813100;-0.07500;73.2500;105;62;0.68596
7813110;-0.07000;72.8750;105;62;0.68547
7813120;-0.06500;72.4375;105;62;0.68327
7813130;-0.06000;72.0000;105;62;0.67937
7813140;-0.04500;71.2500;105;62;0.66740
7813150;-0.03000;70.8750;105;62;0.65983
7813160;-0.03500;70.0625;105;62;0.64347
7813170;-0.03500;70.0625;105;62;0.64347
7813180;-0.05500;68.8750;105;62;0.61612
7813190;-0.05500;68.8750;105;62;0.61612
7813200;-0.06500;68.1250;105;62;0.59829
7813210;-0.08000;67.3750;105;62;0.58120
7813220;-0.08000;67.3750;105;62;0.58120
7813230;-0.07500;66.6250;105;62;0.56410
7813240;-0.07000;66.3125;105;62;0.55580
7813250;-0.07000;66.3125;105;62;0.55580
7813260;-0.09000;65.6250;105;62;0.53993
7813270;-0.07000;65.2500;105;62;0.53284
7813280;0.57500;64.6250;105;62;0.51770
7813290;0.88000;64.0625;105;62;0.50281
7813300;0.88000;64.0625;105;62;0.50281
7813310;0.34500;63.5625;105;62;0.48816
7813320;0.34500;63.5625;105;62;0.48816
7813330;0.03000;63.3125;105;62;0.48107
7813340;-0.11500;62.5000;105;62;0.45983
7813350;-0.13500;62.2500;105;62;0.45372
7813360;-0.13500;62.2500;105;62;0.45372
7813370;-0.14000;61.4375;105;62;0.43614
7813380;-0.14000;61.4375;105;62;0.43614
7813390;-0.14000;61.1875;105;62;0.43004
7813400;-0.14500;60.6875;105;62;0.41807
7813410;-0.14500;60.6875;105;62;0.41807
7813420;-0.14500;60.1875;105;62;0.40635
7813430;-0.13500;59.5625;105;62;0.39463
7813440;-0.13500;59.5625;105;62;0.39463
7813450;-0.13500;59.3750;105;62;0.38877
7813460;-0.12500;59.2500;105;62;0.37436
7813470;-0.12000;59.7500;105;62;0.36996
7813480;-0.11500;60.9375;105;62;0.36508
7813490;-0.11500;60.9375;105;62;0.36508
7813500;-0.10500;71.5000;105;62;0.35092
7813510;-0.10500;71.5000;105;62;0.35092
7813520;-0.09500;76.2500;105;62;0.34652
7813530;-0.08500;80.5625;105;62;0.34212
7813540;-0.05500;88.1875;105;62;0.32894
7813550;-0.05500;88.1875;105;62;0.32894
7813560;-0.03500;89.3750;105;62;0.32601
7813570;-0.01500;90.3750;105;62;0.32357
7813580;0.03000;93.8750;105;62;0.31453
7813590;0.03000;93.8750;105;62;0.31453
7813600;0.09000;96.8125;105;62;0.30818
7813610;0.11500;99.3750;105;62;0.30208
7813620;0.11500;99.3750;105;62;0.30208
7813630;0.11000;101.3125;105;62;0.29621
7813640;0.07000;102.0000;105;62;0.29353
7813650;0.07000;102.0000;105;62;0.29353
7813660;-0.01000;103.1250;105;62;0.28913
7813670;-0.01000;103.1250;105;62;0.28913
7813680;-0.04500;103.2500;105;62;0.28767
7813690;-0.08500;102.9375;105;62;0.28205
7813700;-0.08500;102.9375;105;62;0.28205
7813710;-0.08500;102.6250;105;62;0.28034
7813720;-0.09000;102.3125;105;62;0.27961
7813730;-0.09500;101.8125;105;62;0.28059
7813740;-0.09500;100.4375;105;62;0.28987
7813750;-0.09500;99.4375;105;62;0.29939
7813760;-0.09500;98.1875;105;62;0.31062
7813770;-0.09500;92.4375;105;62;0.36093
7813780;-0.09500;90.1875;105;62;0.38266
7813790;-0.09500;88.1250;105;62;0.40513
7813800;-0.09500;88.1250;105;62;0.40513
7813810;-0.09500;86.6250;105;62;0.42759
7813820;-0.09500;85.0625;105;62;0.47009
7813830;-0.09000;84.6250;105;62;0.49011
7813840;-0.08500;83.8750;105;62;0.52796
7813850;-0.08500;83.8750;105;62;0.52796
7813860;-0.08500;82.8125;105;62;0.56068
7813870;-0.08500;81.5625;105;62;0.58779
7813880;-0.08500;81.5625;105;62;0.58779
7813890;-0.08000;80.8750;105;62;0.60220
7813900;-0.07500;79.0625;105;62;0.64249
7813910;-0.07500;78.5000;105;62;0.65421
7813920;-0.07500;78.5000;105;62;0.65421
7813930;-0.07500;77.0625;105;62;0.68352
7813940;-0.07500;77.0625;105;62;0.68352
7813950;-0.07000;76.6250;105;62;0.69133
7813960;-0.07000;76.1875;105;62;0.69670
7813970;-0.06500;75.7500;105;62;0.70061
7813980;-0.06500;74.8125;105;62;0.70818
7813990;-0.06000;74.3750;105;62;0.71087
7814000;-0.06000;73.9375;106;62;0.71233
7814010;-0.06000;73.5625;106;62;0.71233
7814020;-0.05500;72.6875;106;62;0.70696
7814030;-0.04000;71.8125;106;62;0.69573
7814040;-0.02500;71.8125;106;62;0.69573
7814050;0.00000;70.6250;106;62;0.67179
7814060;0.00000;70.6250;106;62;0.67179
7814070;-0.02000;69.8750;106;62;0.65421
7814080;-0.02000;69.8750;106;62;0.65421
7814090;-0.03500;69.5000;106;62;0.64469
7814100;-0.05500;68.3125;106;62;0.61612
7814110;-0.05500;68.3125;106;62;0.61612
7814120;-0.07500;67.5000;106;62;0.59707
7814130;-0.07500;67.5000;106;62;0.59707
7814140;-0.07500;66.4375;106;62;0.56947
7814150;-0.09500;66.1250;106;62;0.56117
7814160;-0.09500;66.1250;106;62;0.56117
7814170;0.00500;65.1875;106;62;0.55336
7814180;0.34000;65.1875;106;62;0.53700
7814190;0.90000;64.5625;106;62;0.52088
7814200;0.90000;64.5625;106;62;0.52088
7814210;0.59000;64.3125;106;62;0.51306
7814220;0.17500;63.8125;106;62;0.49817
7814230;-0.08500;63.2500;106;62;0.48376
7814240;-0.08500;63.2500;106;62;0.48376
7814250;-0.11500;62.9375;106;62;0.47668
7814260;-0.12500;62.4375;106;62;0.46374
7814270;-0.13000;62.1875;106;62;0.45812
7814280;-0.13000;61.6875;106;62;0.44518
7814290;-0.13500;61.1250;106;62;0.43248
7814300;-0.13500;61.1250;106;62;0.43248
7814310;-0.13500;60.5625;106;62;0.41978
7814320;-0.13500;60.2500;106;62;0.41343
7814330;-0.13500;60.2500;106;62;0.41343
7814340;-0.12500;59.6250;106;62;0.40147
7814350;-0.11500;59.5625;106;62;0.39096
7814360;-0.11500;59.5625;106;62;0.39096
7814370;-0.11500;59.6875;106;62;0.38706
7814380;-0.11000;61.7500;106;62;0.37753
7814390;-0.10500;64.3750;106;62;0.37265
7814400;-0.10000;68.2500;106;62;0.36801
7814410;-0.08500;81.8750;106;62;0.35360
7814420;-0.08500;81.8750;106;62;0.35360
7814430;-0.06000;87.5625;106;62;0.34481
7814440;-0.04500;89.1875;106;62;0.34042
7814450;-0.04500;89.1875;106;62;0.34042
7814460;-0.00500;92.3750;106;62;0.33114
7814470;-0.00500;92.3750;106;62;0.33114
7814480;0.02000;93.6875;106;62;0.32747
7814490;0.07000;98.0000;106;62;0.31746
7814500;0.07000;98.0000;106;62;0.31746
7814510;0.10000;99.3125;106;62;0.31453
7814520;0.12000;100.5000;106;62;0.31160
7814530;0.12000;101.5000;106;62;0.30842
7814540;0.09500;102.9375;106;62;0.30281
7814550;0.05000;103.4375;106;62;0.30012
7814560;0.00500;103.8125;106;62;0.29866
7814570;-0.05500;104.1875;106;62;0.29377
7814580;-0.05500;104.1875;106;62;0.29377
7814590;-0.07500;104.1250;106;62;0.29158
7814600;-0.08500;104.0000;106;62;0.28962
7814610;-0.09000;103.7500;106;62;0.28816
7814620;-0.09000;102.8750;106;62;0.28913
7814630;-0.09000;102.2500;106;62;0.29280
7814640;-0.09000;101.5000;106;62;0.29939
7814650;-0.08500;100.5000;106;62;0.30965
7814660;-0.10500;95.6875;106;62;0.35238
7814670;-0.10500;95.6875;106;62;0.35238
7814680;-0.10000;91.1875;106;62;0.39365
7814690;-0.09500;87.5000;106;62;0.43761
7814700;-0.09500;87.5000;106;62;0.43761
7814710;-0.07500;85.6875;106;62;0.48010
7814720;-0.07500;85.2500;106;62;0.50037
7814730;-0.07500;85.2500;106;62;0.50037
7814740;-0.06500;83.9375;106;62;0.55604
7814750;-0.06500;83.9375;106;62;0.55604
7814760;-0.06000;83.4375;106;62;0.57070
7814770;-0.05500;81.5000;106;62;0.61197
7814780;-0.05500;81.5000;106;62;0.61197
7814790;-0.05500;80.1875;106;62;0.63932
7814800;-0.06000;79.5625;106;62;0.65177
7814810;-0.06000;79.5625;106;62;0.65177
7814820;-0.06000;78.5000;106;62;0.69451
7814830;-0.05500;78.0000;106;62;0.71087
7814840;-0.05500;77.0625;106;62;0.73309
7814850;-0.05500;77.0625;106;62;0.73309
7814860;-0.05500;76.1250;106;62;0.74383
7814870;-0.05500;75.2500;106;62;0.75238
7814880;-0.05500;75.2500;106;62;0.75238
7814890;-0.05500;73.8750;106;62;0.75702
7814900;-0.05500;73.8750;106;62;0.75702
7814910;-0.05000;73.4375;106;62;0.75531
7814920;-0.03000;72.5625;106;62;0.74628
7814930;-0.03000;72.5625;106;62;0.74628
7814940;-0.01000;71.7500;106;62;0.73065
7814950;0.00500;70.9375;106;62;0.71136
7814960;0.00500;70.9375;106;62;0.71136
7814970;-0.02000;69.6250;106;62;0.68010
7814980;-0.02500;69.2500;106;62;0.66911
7814990;-0.02500;69.2500;106;62;0.66911
7815000;-0.05000;68.4375;106;62;0.64664
7815010;-0.06000;67.6875;106;62;0.62442
7815020;-0.06000;67.6875;106;62;0.62442
7815030;-0.05000;67.0000;106;62;0.60269
7815040;-0.05000;67.0000;106;62;0.60269
7815050;-0.07000;66.6875;106;62;0.59194
7815060;-0.05000;66.0000;106;62;0.57314
7815070;0.17500;65.6875;106;62;0.56386
7815080;0.59000;65.3750;106;62;0.55433
7815090;0.89000;65.1250;106;62;0.54505
7815100;0.78500;64.5625;106;62;0.52650
7815110;0.04000;64.1250;106;62;0.50818
7815120;0.04000;64.1250;106;62;0.50818
7815130;-0.10000;63.2500;106;62;0.48278
7815140;-0.10000;63.2500;106;62;0.48278
7815150;-0.12000;63.0000;106;62;0.47497
7815160;-0.13000;62.5625;106;62;0.46227
7815170;-0.13000;62.5625;106;62;0.46227
7815180;-0.13000;62.0625;106;62;0.44835
7815190;-0.12500;61.5625;106;62;0.43321
7815200;-0.12500;61.5625;106;62;0.43321
7815210;-0.12500;61.2500;106;62;0.42564
7815220;-0.12500;60.4375;106;62;0.40415
7815230;-0.12500;60.4375;106;62;0.40415
7815240;-0.12000;60.1875;106;62;0.39121
7815250;-0.12000;60.1875;106;62;0.39121
7815260;-0.11500;61.1875;106;62;0.37631
7815270;-0.11500;61.1875;106;62;0.37631
7815280;-0.10500;65.8750;106;62;0.36459
7815290;-0.10500;65.8750;106;62;0.36459
7815300;-0.09000;79.5000;106;62;0.34701
7815310;-0.07500;83.4375;106;62;0.34164
7815320;-0.07500;83.4375;106;62;0.34164
7815330;-0.05500;90.2500;106;62;0.32723
7815340;-0.03500;91.3750;106;62;0.32283
7815350;-0.03500;91.3750;106;62;0.32283
7815360;-0.00500;93.5000;106;62;0.31795
7815370;-0.00500;93.5000;106;62;0.31795
7815380;0.02000;96.2500;106;62;0.31160
7815390;0.07500;99.1250;106;62;0.30452
7815400;0.07500;99.1250;106;62;0.30452
7815410;0.09500;100.3750;106;62;0.30085
7815420;0.09500;103.3750;106;62;0.29060
7815430;0.09500;103.3750;106;62;0.29060
7815440;0.01000;104.5000;106;62;0.28474
7815450;-0.03000;105.0000;106;62;0.28181
7815460;-0.03000;105.0000;106;62;0.28181
7815470;-0.08500;105.1875;106;62;0.27766
7815480;-0.10500;105.0625;106;62;0.27546
7815490;-0.10500;105.0625;106;62;0.27546
7815500;-0.11500;104.2500;106;62;0.27253
7815510;-0.11500;103.8125;106;62;0.27473
7815520;-0.11500;103.8125;106;62;0.27473
7815530;-0.11500;101.4375;106;62;0.30037
7815540;-0.11500;101.4375;106;62;0.30037
7815550;-0.11500;98.6250;106;62;0.33309
7815560;-0.11500;98.6250;106;62;0.33309
7815570;-0.11000;94.5000;106;62;0.35116
7815580;-0.11000;92.1875;106;62;0.39658
7815590;-0.11000;90.1250;106;62;0.42100
7815600;-0.10500;87.3750;106;62;0.46911
7815610;-0.10500;87.3750;106;62;0.46911
7815620;-0.09500;85.9375;106;62;0.53578
7815630;-0.09500;85.5000;106;62;0.55653
7815640;-0.09500;85.5000;106;62;0.55653
7815650;-0.09000;84.0000;106;62;0.60806
7815660;-0.09000;83.3750;106;62;0.62418
7815670;-0.08500;82.6875;106;62;0.64054
7815680;-0.08000;82.0625;106;62;0.65641
7815690;-0.08000;82.0625;106;62;0.65641
7815700;-0.08500;80.1875;106;62;0.69939
7815710;-0.08500;79.6875;106;62;0.71160
7815720;-0.08500;79.1875;106;62;0.72283
7815730;-0.08500;78.3125;106;62;0.74164
7815740;-0.08500;78.3125;106;62;0.74164
7815750;-0.08000;77.8750;106;62;0.74921
7815760;-0.07500;77.0000;106;62;0.75702
7815770;-0.07500;77.0000;106;62;0.75702
7815780;-0.07000;75.6250;106;62;0.76386
7815790;-0.07000;75.1875;106;62;0.76386
7815800;-0.07000;75.1875;106;62;0.76386
7815810;-0.06500;74.7500;106;62;0.76215
7815820;-0.04000;73.5625;106;62;0.74676
7815830;-0.04000;73.5625;106;62;0.74676
7815840;-0.02500;73.1875;106;62;0.73871
7815850;-0.01500;72.7500;106;62;0.72943
7815860;-0.02500;71.6250;106;62;0.69963
7815870;-0.04000;71.1875;106;62;0.68889
7815880;-0.04000;71.1875;106;62;0.68889
7815890;-0.06000;70.0625;106;62;0.65690
7815900;-0.07500;69.6875;106;62;0.64640
7815910;-0.07500;69.6875;106;62;0.64640
7815920;-0.07500;68.9375;106;62;0.62515
7815930;-0.07500;68.9375;106;62;0.62515
7815940;-0.07000;68.2500;106;62;0.60440
7815950;-0.03500;67.5625;106;62;0.58535
7815960;-0.03500;67.5625;106;62;0.58535
7815970;0.66000;66.6875;106;62;0.55849
7815980;0.87000;66.4375;106;62;0.54945
7815990;0.87000;66.4375;106;62;0.54945
7816000;0.25000;65.8750;106;62;0.53211
7816010;-0.00500;65.3750;106;62;0.51526
7816020;-0.00500;65.3750;106;62;0.51526
7816030;-0.12500;64.8125;106;62;0.49890
7816040;-0.14000;64.5625;106;62;0.49109
7816050;-0.14000;64.5625;106;62;0.49109
7816060;-0.15000;64.0625;106;62;0.47863
7816070;-0.15000;63.5625;106;62;0.46593
7816080;-0.15000;63.5625;106;62;0.46593
7816090;-0.15500;62.9375;106;62;0.44591
7816100;-0.15500;62.9375;106;62;0.44591
7816110;-0.15000;62.3750;106;62;0.43248
7816120;-0.15000;62.3750;106;62;0.43248
7816130;-0.14500;62.1250;106;62;0.42589
7816140;-0.14000;61.9375;106;62;0.41319
7816150;-0.13500;62.3125;106;62;0.40391
7816160;-0.13500;63.3750;106;62;0.39902
7816170;-0.13500;63.3750;106;62;0.39902
7816180;-0.12500;73.5625;106;62;0.38291
7816190;-0.12000;78.5000;106;62;0.37778
7816200;-0.12000;78.5000;106;62;0.37778
7816210;-0.10000;89.8125;106;62;0.36288
7816220;-0.08500;91.8125;106;62;0.35849
7816230;-0.08500;91.8125;106;62;0.35849
7816240;-0.05500;94.3750;106;62;0.34994
7816250;-0.05500;94.3750;106;62;0.34994
7816260;-0.03500;96.7500;106;62;0.34432
7816270;-0.01000;98.2500;106;62;0.34115
7816280;0.04000;101.4375;106;62;0.33407
7816290;0.07000;104.2500;106;62;0.32747
7816300;0.09500;105.4375;106;62;0.32405
7816310;0.10000;106.4375;106;62;0.32088
7816320;0.10000;106.4375;106;62;0.32088
7816330;0.08000;107.3125;106;62;0.31844
7816340;0.04500;108.5625;106;62;0.31355
7816350;0.00000;109.0000;106;62;0.31233
7816360;-0.06500;109.4375;106;62;0.31013
7816370;-0.08000;109.5000;106;62;0.30623
7816380;-0.08000;109.5000;106;62;0.30623
7816390;-0.10000;109.1250;106;62;0.30452
7816400;-0.10500;108.8125;106;62;0.30549
7816410;-0.10500;107.8125;106;62;0.31477
7816420;-0.10500;107.1250;106;62;0.32430
7816430;-0.10500;106.2500;106;62;0.33724
7816440;-0.10500;106.2500;106;62;0.33724
7816450;-0.11000;102.0000;106;62;0.38828
7816460;-0.11000;102.0000;106;62;0.38828
7816470;-0.11000;99.9375;106;62;0.40952
7816480;-0.10500;95.2500;106;62;0.45665
7816490;-0.10500;91.5000;106;62;0.50305
7816500;-0.10500;91.5000;106;62;0.50305
7816510;-0.10500;89.6250;106;62;0.54725
7816520;-0.10000;89.1250;106;62;0.56825
7816530;-0.10000;89.1250;106;62;0.56825
7816540;-0.08500;87.8750;106;62;0.62369
7816550;-0.08500;87.8750;106;62;0.62369
7816560;-0.08500;86.8125;106;62;0.65275
7816570;-0.08500;86.8125;106;62;0.65275
7816580;-0.08500;84.8125;106;62;0.69866
7816590;-0.08000;84.1250;106;62;0.71306
7816600;-0.08000;84.1250;106;62;0.71306
7816610;-0.08000;82.4375;106;62;0.74945
7816620;-0.08000;81.8750;106;62;0.75946
7816630;-0.08000;81.8750;106;62;0.75946
7816640;-0.07500;80.9375;106;62;0.77582
7816650;-0.08000;80.0625;106;62;0.78339
7816660;-0.08000;80.0625;106;62;0.78339
7816670;-0.07500;79.1875;106;62;0.78901
7816680;-0.07500;79.1875;106;62;0.78901
7816690;-0.07000;77.8125;106;62;0.78901
7816700;-0.06500;77.3750;106;62;0.78584
7816710;-0.06500;77.3750;106;62;0.78584
7816720;-0.06500;76.9375;106;62;0.78071
7816730;-0.05500;76.5000;106;62;0.77411
7816740;-0.04000;75.6250;106;62;0.75702
7816750;-0.03500;75.1875;106;62;0.74701
7816760;-0.03500;74.3750;106;62;0.72527
7816770;-0.04000;73.6250;106;62;0.70232
7816780;-0.04000;73.2500;106;62;0.69084
7816790;-0.04000;73.2500;106;62;0.69084
7816800;-0.07500;72.5000;106;62;0.66789
7816810;-0.08000;71.6875;106;62;0.64615
7816820;-0.08000;71.6875;106;62;0.64615
7816830;-0.07500;71.3125;106;62;0.63541
7816840;-0.07500;70.9375;106;62;0.62466
7816850;-0.09500;70.6250;106;62;0.61416
7816860;-0.05000;69.9375;106;62;0.58730
7816870;0.20500;69.6250;106;62;0.56508
7816880;0.60000;69.3750;106;62;0.54921
7816890;0.67000;68.5625;106;62;0.51624
7816900;0.67000;68.5625;106;62;0.51624
7816910;0.26500;68.3125;106;62;0.50720
7816920;-0.08500;67.8125;106;62;0.49011
7816930;-0.08500;67.8125;106;62;0.49011
7816940;-0.12500;67.1875;106;62;0.47424
7816950;-0.14500;66.6875;106;62;0.46178
7816960;-0.14500;66.6875;106;62;0.46178
7816970;-0.14500;66.4375;106;62;0.45519
7816980;-0.14500;65.7500;106;62;0.43565
7816990;-0.14500;65.7500;106;62;0.43565
7817000;-0.14500;65.5000;105;62;0.42930
7817010;-0.14500;65.1875;105;62;0.42320
7817020;-0.14500;64.6875;105;62;0.41050
7817030;-0.14000;64.4375;105;62;0.40415
7817040;-0.13500;64.3125;105;62;0.39829
7817050;-0.13000;64.2500;105;62;0.39243
7817060;-0.12500;65.0000;105;62;0.38364
7817070;-0.11000;69.0625;105;62;0.37387
7817080;-0.10500;72.9375;105;62;0.36874
7817090;-0.10500;72.9375;105;62;0.36874
7817100;-0.09500;82.2500;105;62;0.35873
7817110;-0.08500;86.3750;105;62;0.35385
7817120;-0.05500;92.0000;105;62;0.34457
7817130;-0.05500;92.0000;105;62;0.34457
7817140;-0.04000;94.9375;105;62;0.33553
7817150;-0.02500;96.0000;105;62;0.33236
7817160;-0.00500;97.1875;105;62;0.32967
7817170;0.01500;98.5000;105;62;0.32650
7817180;0.04000;101.5625;105;62;0.31941
7817190;0.07000;103.0625;105;62;0.31600
7817200;0.10000;104.5000;105;62;0.31282
7817210;0.12000;105.7500;105;62;0.31013
7817220;0.13000;107.6875;105;62;0.30525
7817230;0.08000;108.9375;105;62;0.30061
7817240;0.04000;109.3750;105;62;0.29841
7817250;0.04000;109.3750;105;62;0.29841
7817260;-0.02500;110.0000;105;62;0.29524
7817270;-0.02500;110.0000;105;62;0.29524
7817280;-0.04500;110.0000;105;62;0.29377
7817290;-0.07000;109.3750;105;62;0.29133
7817300;-0.07000;109.3750;105;62;0.29133
7817310;-0.07500;108.4375;105;62;0.29573
7817320;-0.07500;108.4375;105;62;0.29573
7817330;-0.07500;107.7500;105;62;0.30159
7817340;-0.07500;105.9375;105;62;0.32283
7817350;-0.07500;104.6250;105;62;0.33602
7817360;-0.07500;103.0000;105;62;0.35043
7817370;-0.07500;96.3750;105;62;0.40733
7817380;-0.07500;94.1250;105;62;0.42735
7817390;-0.07500;94.1250;105;62;0.42735
7817400;-0.07000;90.8750;105;62;0.46569
7817410;-0.07000;90.8750;105;62;0.46569
7817420;-0.06500;88.7500;105;62;0.51770
7817430;-0.06000;88.2500;105;62;0.53407
7817440;-0.05500;87.7500;105;62;0.54969
7817450;-0.05500;86.5000;105;62;0.57387
7817460;-0.05500;86.5000;105;62;0.57387
7817470;-0.05500;85.0625;105;62;0.59878
7817480;-0.05500;84.3750;105;62;0.61099
7817490;-0.04500;83.0000;105;62;0.63321
7817500;-0.04000;82.3125;105;62;0.64298
7817510;-0.04000;82.3125;105;62;0.64298
7817520;-0.03500;81.1875;105;62;0.65910
7817530;-0.03500;81.1875;105;62;0.65910
7817540;-0.03000;79.6250;105;62;0.67497
7817550;-0.03000;79.6250;105;62;0.67497
7817560;-0.03000;79.1250;105;62;0.67692
7817570;-0.02500;77.6875;105;62;0.68156
7817580;-0.02500;77.1875;105;62;0.68132
7817590;-0.01500;76.6875;105;62;0.67961
7817600;-0.01500;76.1875;105;62;0.67643
7817610;-0.01500;76.1875;105;62;0.67643
7817620;-0.02500;74.6875;105;62;0.65763
7817630;-0.02500;74.2500;105;62;0.64884
7817640;-0.02500;74.2500;105;62;0.64884
7817650;-0.00500;73.8125;105;62;0.63883
7817660;0.00000;72.9375;105;62;0.61880
7817670;-0.03500;72.5000;105;62;0.60806
7817680;-0.07500;71.6250;105;62;0.58486
7817690;-0.07500;71.6250;105;62;0.58486
7817700;-0.09500;70.8750;105;62;0.56166
7817710;-0.06500;70.0625;105;62;0.53919
7817720;-0.06500;70.0625;105;62;0.53919
7817730;-0.04000;69.6250;105;62;0.52796
7817740;-0.07500;68.5625;105;62;0.49719
7817750;-0.07500;68.5625;105;62;0.49719
7817760;0.01000;68.1875;105;62;0.48864
7817770;0.36000;67.8750;105;62;0.47937
7817780;0.77500;67.2500;105;62;0.45983
7817790;0.56500;66.6250;105;62;0.44127
7817800;0.16500;66.3125;105;62;0.43223
7817810;0.16500;66.3125;105;62;0.43223
7817820;-0.07000;65.3750;105;62;0.40659
7817830;-0.09500;65.0625;105;62;0.39853
7817840;-0.09500;65.0625;105;62;0.39853
7817850;-0.10500;64.7500;105;62;0.39072
7817860;-0.11500;63.8750;105;62;0.37143
7817870;-0.11500;63.6250;105;62;0.36410
7817880;-0.11500;63.3125;105;62;0.35653
7817890;-0.11500;63.3125;105;62;0.35653
7817900;-0.11000;62.3125;105;62;0.33407
7817910;-0.11500;62.0000;105;62;0.32674
7817920;-0.11500;62.0000;105;62;0.32674
7817930;-0.11500;61.3125;105;62;0.30598
7817940;-0.10500;61.1875;105;62;0.30085
7817950;-0.10500;61.1875;105;62;0.30085
7817960;-0.10000;61.6250;105;62;0.29133
7817970;-0.10000;64.6250;105;62;0.28010
7817980;-0.10000;64.6250;105;62;0.28010
7817990;-0.09000;71.8750;105;62;0.26960
7818000;-0.07500;76.3750;105;61;0.26447
7818010;-0.07500;76.3750;105;61;0.26447
7818020;-0.06000;84.1875;105;61;0.25397
7818030;-0.01500;88.7500;105;61;0.24396
7818040;-0.01500;88.7500;105;61;0.24396
7818050;0.02500;92.2500;105;61;0.23565
7818060;0.05000;93.3750;105;61;0.23199
7818070;0.05000;93.3750;105;61;0.23199
7818080;0.07000;94.6875;105;61;0.22857
7818090;0.09500;96.0000;105;61;0.22515
7818100;0.12500;98.6250;105;61;0.21880
7818110;0.15500;100.6250;105;61;0.21245
7818120;0.15500;100.6250;105;61;0.21245
7818130;0.13500;101.4375;105;61;0.20952
7818140;0.04500;102.8750;105;61;0.20122
7818150;0.04500;102.8750;105;61;0.20122
7818160;0.00000;103.0625;105;61;0.20000
7818170;-0.02500;103.1875;105;61;0.19780
7818180;-0.05500;102.8750;105;61;0.18926
7818190;-0.05500;102.5000;105;61;0.18681
7818200;-0.05500;102.5000;105;61;0.18681
7818210;-0.06000;102.0625;105;61;0.18535
7818220;-0.06500;99.8125;105;61;0.19170
7818230;-0.06500;99.8125;105;61;0.19170
7818240;-0.06500;96.9375;105;61;0.20879
7818250;-0.06500;96.9375;105;61;0.20879
7818260;-0.06000;92.8125;105;61;0.23565
7818270;-0.06000;88.5625;105;61;0.27253
7818280;-0.06000;87.0625;105;61;0.29255
7818290;-0.06000;87.0625;105;61;0.29255
7818300;-0.05500;85.4375;105;61;0.33236
7818310;-0.05500;85.0000;105;61;0.35140
7818320;-0.04500;84.2500;105;61;0.38730
7818330;-0.04500;84.2500;105;61;0.38730
7818340;-0.04500;83.2500;105;61;0.41978
7818350;-0.04000;82.6250;105;61;0.43321
7818360;-0.04000;82.0000;105;61;0.44518
7818370;-0.04000;81.3125;105;61;0.45812
7818380;-0.04000;80.0000;105;61;0.48352
7818390;-0.04500;79.3750;105;61;0.49524
7818400;-0.04500;78.8750;105;61;0.50647
7818410;-0.05000;78.3750;105;61;0.51722
7818420;-0.04500;77.0625;105;61;0.54505
7818430;-0.04500;77.0625;105;61;0.54505
7818440;-0.04500;76.6250;105;61;0.55263
7818450;-0.04500;75.3125;105;61;0.56606
7818460;-0.04500;75.3125;105;61;0.56606
7818470;-0.04500;74.8750;105;61;0.56947
7818480;-0.04500;74.0625;105;61;0.57314
7818490;-0.04500;74.0625;105;61;0.57314
7818500;-0.04500;73.1875;105;61;0.57118
7818510;-0.03000;72.3750;105;61;0.56361
7818520;-0.03000;72.3750;105;61;0.56361
7818530;-0.01500;72.0000;105;61;0.55800
7818540;0.00500;70.8125;105;61;0.53724
7818550;0.00500;70.8125;105;61;0.53724
7818560;-0.00500;70.4375;105;61;0.53040
7818570;-0.03000;69.3125;105;61;0.50745
7818580;-0.03000;69.3125;105;61;0.50745
7818590;-0.03500;68.9375;105;61;0.50012
7818600;-0.05500;68.5625;105;61;0.49280
7818610;-0.06500;68.1875;105;61;0.48547
7818620;-0.06000;67.4375;105;61;0.47082
7818630;-0.07500;66.8125;105;61;0.45641
7818640;-0.05000;66.5000;105;61;0.45031
7818650;-0.05000;66.5000;105;61;0.45031
7818660;0.62000;65.5625;105;61;0.43175
7818670;0.62000;65.5625;105;61;0.43175
7818680;0.90000;65.3125;105;61;0.42515
7818690;0.34000;64.5000;105;61;0.40513
7818700;0.34000;64.5000;105;61;0.40513
7818710;0.03500;64.2500;105;61;0.39878
7818720;-0.06000;64.0000;105;61;0.39267
7818730;-0.10000;63.7500;105;61;0.38657
7818740;-0.12000;63.1875;105;61;0.37411
7818750;-0.12500;62.6875;105;61;0.36508
7818760;-0.12000;62.4375;105;61;0.35995
7818770;-0.12500;61.9375;105;61;0.34921
7818780;-0.12500;61.6250;105;61;0.34383
7818790;-0.12500;61.6250;105;61;0.34383
7818800;-0.12500;61.0625;105;61;0.33358
7818810;-0.12000;60.5625;105;61;0.32332
7818820;-0.11500;60.3750;105;61;0.31844
7818830;-0.11500;60.3750;105;61;0.31844
7818840;-0.11500;60.2500;105;61;0.31355
7818850;-0.10500;61.4375;105;61;0.30427
7818860;-0.10500;61.4375;105;61;0.30427
7818870;-0.09500;66.2500;105;61;0.29573
7818880;-0.09500;66.2500;105;61;0.29573
7818890;-0.08500;70.4375;105;61;0.29133
7818900;-0.07500;79.6875;105;61;0.28254
7818910;-0.06500;83.5000;105;61;0.29499
7818920;-0.03000;88.3125;105;61;0.32430
7818930;-0.03000;88.3125;105;61;0.32430
7818940;-0.01500;90.8125;105;61;0.32650
7818950;0.02000;92.8750;105;61;0.32527
7818960;0.02000;92.8750;105;61;0.32527
7818970;0.07000;97.0000;105;61;0.31844
7818980;0.10000;98.4375;105;61;0.31600
7818990;0.10000;98.4375;105;61;0.31600
7819000;0.13000;100.8750;105;61;0.31038
7819010;0.11500;102.6250;105;61;0.30525
7819020;0.08000;103.1875;105;61;0.30281
7819030;0.03000;103.6250;105;61;0.30061
7819040;0.03000;103.6250;105;61;0.30061
7819050;-0.04500;104.0625;105;61;0.29744
7819060;-0.06500;104.0000;105;61;0.29524
7819070;-0.06500;104.0000;105;61;0.29524
7819080;-0.08500;103.5000;105;61;0.29109
7819090;-0.09500;102.6250;105;61;0.28962
7819100;-0.09500;102.6250;105;61;0.28962
7819110;-0.09500;101.1250;105;61;0.29475
7819120;-0.09000;100.1250;105;61;0.30134
7819130;-0.09000;100.1250;105;61;0.30134
7819140;-0.09500;97.1875;105;61;0.32430
7819150;-0.09500;95.1875;105;61;0.33871
7819160;-0.09000;92.9375;105;61;0.35458
7819170;-0.09000;87.3125;105;61;0.41343
7819180;-0.09000;87.3125;105;61;0.41343
7819190;-0.08500;86.3750;105;61;0.43321
7819200;-0.08000;85.4375;105;61;0.47009
7819210;-0.08000;85.4375;105;61;0.47009
7819220;-0.07500;84.6875;105;61;0.50330
7819230;-0.07500;83.5625;105;61;0.53358
7819240;-0.07500;83.5625;105;61;0.53358
7819250;-0.07000;82.9375;105;61;0.54628
7819260;-0.06500;80.8750;105;61;0.58169
7819270;-0.06500;80.8750;105;61;0.58169
7819280;-0.06500;79.6875;105;61;0.60464
7819290;-0.06500;79.6875;105;61;0.60464
7819300;-0.06500;78.6875;105;61;0.62540
7819310;-0.06500;78.2500;105;61;0.63468
7819320;-0.06500;77.8125;105;61;0.64322
7819330;-0.06500;76.5000;105;61;0.66398
7819340;-0.06500;76.5000;105;61;0.66398
7819350;-0.06500;75.6250;105;61;0.67057
7819360;-0.05500;75.1875;105;61;0.67302
7819370;-0.05500;75.1875;105;61;0.67302
7819380;-0.05500;73.9375;105;61;0.67546
7819390;-0.05500;73.9375;105;61;0.67546
7819400;-0.05000;73.5000;105;61;0.67375
7819410;-0.03000;72.3125;105;61;0.66105
7819420;-0.03000;72.3125;105;61;0.66105
7819430;-0.01500;71.9375;105;61;0.65470
7819440;-0.00500;71.1250;105;61;0.64151
7819450;-0.00500;71.1250;105;61;0.64151
7819460;-0.01500;70.3125;105;61;0.62808
7819470;-0.04000;69.5000;105;61;0.61343
7819480;-0.05500;69.1250;105;61;0.60586
7819490;-0.05500;69.1250;105;61;0.59121
7819500;-0.07500;68.0625;105;61;0.58413
7819510;-0.07500;68.0625;105;61;0.58413
7819520;-0.07000;67.3750;105;61;0.57021
7819530;-0.09500;66.6875;105;61;0.55604
7819540;-0.09500;66.6875;105;61;0.55604
7819550;-0.02500;66.3750;105;61;0.54969
7819560;0.29000;66.0625;105;61;0.54383
7819570;0.89500;65.1875;105;61;0.52430
7819580;0.89500;65.1875;105;61;0.52430
7819590;0.63000;64.9375;105;61;0.51819
7819600;0.20500;64.6250;105;61;0.51209
7819610;-0.09500;63.7500;105;61;0.49426
7819620;-0.09500;63.7500;105;61;0.49426
7819630;-0.14500;63.2500;105;61;0.48278
7819640;-0.14500;63.2500;105;61;0.48278
7819650;-0.15500;63.0000;105;61;0.47814
7819660;-0.15500;62.5000;105;61;0.46838
7819670;-0.15500;62.0000;105;61;0.45739
7819680;-0.15000;61.7500;105;61;0.45177
7819690;-0.15000;61.7500;105;61;0.45177
7819700;-0.14000;60.8125;105;61;0.43565
7819710;-0.14000;60.5625;105;61;0.43053
7819720;-0.14000;60.5625;105;61;0.43053
7819730;-0.13000;60.3125;105;61;0.41612
7819740;-0.13000;60.3125;105;61;0.41612
7819750;-0.12500;60.6875;105;61;0.41245
7819760;-0.11500;61.6250;105;61;0.40928
7819770;-0.09000;85.4375;105;61;0.54579
7819780;-0.09000;85.4375;105;61;0.54579
7819790;-0.09000;85.4375;105;61;0.54579
7819800;-0.09000;85.4375;105;61;0.54579
7819810;-0.09000;85.4375;105;61;0.54579
7819820;-0.09000;85.4375;105;61;0.54579
7819830;-0.09000;82.3125;105;61;0.60659
7819840;-0.09000;82.3125;105;61;0.60659
7819850;-0.09000;82.3125;105;61;0.60659
7819860;-0.09000;82.3125;105;61;0.60659
7819870;-0.09000;82.3125;105;61;0.60659
7819880;-0.09000;82.3125;105;61;0.60659
7819890;-0.09000;82.3125;105;61;0.60659
7819900;-0.09000;82.3125;105;61;0.60659
7819910;-0.09000;82.3125;105;61;0.60659
7819920;-0.09000;82.3125;105;61;0.60659
7819930;-0.09000;82.3125;105;61;0.60659
7819940;-0.09000;82.3125;105;61;0.60659
7819950;-0.09000;82.3125;105;61;0.60659
7819960;-0.09000;82.3125;105;61;0.60659
7819970;-0.09000;82.3125;105;61;0.60659
7819980;-0.09000;82.3125;105;61;0.60659
7819990;-0.09000;82.3125;105;61;0.60659
7820000;-0.08500;80.9375;106;61;0.62906
7820010;-0.08500;80.9375;106;61;0.62906
7820020;-0.08500;80.9375;106;61;0.62906
7820030;-0.08500;80.9375;106;61;0.62906
7820040;-0.08500;80.9375;106;61;0.62906
7820050;-0.08500;80.9375;106;61;0.62906
7820060;-0.08500;80.9375;106;61;0.62906
7820070;-0.08500;80.9375;106;61;0.62906
7820080;-0.08500;80.9375;106;61;0.62906
7820090;-0.08500;80.9375;106;61;0.62906
7820100;-0.08500;80.9375;106;61;0.62906
7820110;-0.08500;80.9375;106;61;0.62906
7820120;-0.08500;80.9375;106;61;0.62906
7820130;-0.08500;80.9375;106;61;0.62906
7820140;-0.08500;80.9375;106;61;0.62906
7820150;-0.08500;80.9375;106;61;0.62906
7820160;-0.08500;80.9375;106;61;0.62906
7820170;-0.08500;80.9375;106;61;0.62906
7820180;-0.08500;80.3750;106;61;0.63956
7820190;-0.08500;79.8125;106;61;0.64933
7820200;-0.08500;79.8125;106;61;0.64933
7820210;-0.08000;79.3125;106;61;0.65836
7820220;-0.08000;78.3750;106;61;0.67424
7820230;-0.08000;77.9375;106;61;0.68107
7820240;-0.07500;77.5000;106;61;0.68694
7820250;-0.07500;77.0625;106;61;0.69109
7820260;-0.07500;76.1875;106;61;0.69695
7820270;-0.07000;75.6875;106;61;0.69939
7820280;-0.06500;75.2500;106;61;0.70085
7820290;-0.06000;74.0000;106;61;0.69744
7820300;-0.05000;73.5625;106;61;0.69353
7820310;-0.05000;73.5625;106;61;0.69353
7820320;-0.03000;73.1875;106;61;0.68840
7820330;-0.01000;71.9375;106;61;0.66862
7820340;-0.01000;71.9375;106;61;0.66862
7820350;-0.01500;71.5625;106;61;0.66178
7820360;-0.03500;71.1250;106;61;0.65470
7820370;-0.05500;69.9375;106;61;0.63346
7820380;-0.05500;69.9375;106;61;0.63346
7820390;-0.08500;69.1875;106;61;0.61929
7820400;-0.08000;68.8125;106;61;0.61197
7820410;-0.08000;68.8125;106;61;0.61197
7820420;-0.09000;67.7500;106;61;0.58999
7820430;-0.09000;67.3750;106;61;0.58266
7820440;-0.09000;67.3750;106;61;0.58266
7820450;0.48000;66.4375;106;61;0.56410
7820460;0.84500;66.1250;106;61;0.55775
7820470;0.84500;66.1250;106;61;0.55775
7820480;0.81500;65.8750;106;61;0.55116
7820490;0.42500;65.5625;106;61;0.54432
7820500;0.06500;65.0000;106;61;0.53114
7820510;-0.11500;64.3750;106;61;0.51893
7820520;-0.11500;64.3750;106;61;0.51893
7820530;-0.14500;64.1250;106;61;0.51282
7820540;-0.15500;63.6250;106;61;0.50208
7820550;-0.15500;63.3750;106;61;0.49768
7820560;-0.15500;62.9375;106;61;0.48694
7820570;-0.15500;62.9375;106;61;0.48694
7820580;-0.15000;62.3125;106;61;0.47570
7820590;-0.15500;62.0000;106;61;0.46984
7820600;-0.15500;61.6875;106;61;0.46422
7820610;-0.14500;61.0000;106;61;0.44786
7820620;-0.14500;61.0000;106;61;0.44786
7820630;-0.13500;60.9375;106;61;0.44274
7820640;-0.13500;61.0000;106;61;0.43736
7820650;-0.13000;61.3750;106;61;0.43321
7820660;-0.12000;68.3125;106;61;0.42100
7820670;-0.12000;68.3125;106;61;0.42100
7820680;-0.11000;72.8750;106;61;0.41636
7820690;-0.10000;77.8125;106;61;0.41148
7820700;-0.09000;85.7500;106;61;0.40195
7820710;-0.07500;88.4375;106;61;0.39731
7820720;-0.06000;90.3125;106;61;0.39267
7820730;-0.04500;91.6875;106;61;0.38852
7820740;-0.02500;94.0000;106;61;0.38169
7820750;-0.00500;95.3125;106;61;0.37924
7820760;0.01500;96.8750;106;61;0.37631
7820770;0.04500;98.5000;106;61;0.37289
7820780;0.07000;101.5625;106;61;0.36630
7820790;0.10000;102.9375;106;61;0.36337
7820800;0.11000;105.0625;106;61;0.35726
7820810;0.11000;105.0625;106;61;0.35726
7820820;0.07000;106.3750;106;61;0.35140
7820830;-0.01500;107.1250;106;61;0.34579
7820840;-0.05000;107.2500;106;61;0.34383
7820850;-0.05000;107.2500;106;61;0.34383
7820860;-0.09000;107.1250;106;61;0.33822
7820870;-0.09000;107.1250;106;61;0.33822
7820880;-0.09500;106.5625;106;61;0.33504
7820890;-0.09500;106.5625;106;61;0.33504
7820900;-0.09500;105.5625;106;61;0.33626
7820910;-0.10000;104.0000;106;61;0.34750
7820920;-0.10000;102.8750;106;61;0.35775
7820930;-0.10000;102.8750;106;61;0.35775
7820940;-0.10000;99.6250;106;61;0.38535
7820950;-0.10000;97.5000;106;61;0.40024
7820960;-0.10000;95.1250;106;61;0.41661
7820970;-0.09500;89.2500;106;61;0.47839
7820980;-0.09500;89.2500;106;61;0.47839
7820990;-0.09000;87.6875;106;61;0.52088
7821000;-0.09000;87.6875;106;62;0.52088
7821010;-0.08500;87.2500;106;62;0.54066
7821020;-0.08500;86.3750;106;62;0.57827
7821030;-0.08500;85.1875;106;62;0.61270
7821040;-0.08000;84.5625;106;62;0.62662
7821050;-0.08000;84.5625;106;62;0.62662
7821060;-0.08000;83.1875;106;62;0.65275
7821070;-0.08000;82.5625;106;62;0.66642
7821080;-0.07500;81.8750;106;62;0.67985
7821090;-0.08000;80.1875;106;62;0.71624
7821100;-0.08000;80.1875;106;62;0.71624
7821110;-0.08000;79.6875;106;62;0.72698
7821120;-0.08500;78.8125;106;62;0.74554
7821130;-0.08500;78.8125;106;62;0.74554
7821140;-0.12000;77.4375;106;62;0.76239
7821150;-0.12000;77.4375;106;62;0.76239
7821160;-0.10500;77.0000;106;62;0.76606
7821170;-0.09000;75.6875;106;62;0.77216
7821180;-0.09000;75.6875;106;62;0.77216
7821190;-0.08500;75.2500;106;62;0.77167
7821200;-0.07500;74.8750;106;62;0.76948
7821210;-0.05500;74.4375;106;62;0.76532
7821220;-0.04500;73.6250;106;62;0.75287
7821230;-0.02500;72.8125;106;62;0.73626
7821240;-0.03500;72.3750;106;62;0.72772
7821250;-0.03500;72.3750;106;62;0.72772
7821260;-0.05500;71.5625;106;62;0.70989
7821270;-0.07000;70.7500;106;62;0.69133
7821280;-0.08500;70.3750;106;62;0.68230
7821290;-0.08500;69.6250;106;62;0.66496
7821300;-0.07500;69.3125;106;62;0.65617
7821310;-0.07500;69.3125;106;62;0.65617
7821320;-0.10500;68.5625;106;62;0.63858
7821330;-0.10500;68.5625;106;62;0.63858
7821340;0.26000;67.6250;106;62;0.61343
7821350;0.26000;67.6250;106;62;0.61343
7821360;0.68000;67.3125;106;62;0.60537
7821370;0.89000;67.0625;106;62;0.59707
7821380;0.64000;66.5000;106;62;0.58120
7821390;-0.02500;65.9375;106;62;0.56581
7821400;-0.02500;65.9375;106;62;0.56581
7821410;-0.10500;65.6250;106;62;0.55849
7821420;-0.15000;64.8750;106;62;0.53651
7821430;-0.15500;64.6250;106;62;0.52918
7821440;-0.15500;64.6250;106;62;0.52918
7821450;-0.15500;63.9375;106;62;0.51136
7821460;-0.15000;63.6875;106;62;0.50476
7821470;-0.15000;63.6875;106;62;0.50476
7821480;-0.15000;63.1875;106;62;0.49109
7821490;-0.15000;63.1875;106;62;0.49109
7821500;-0.15000;62.6250;106;62;0.47741
7821510;-0.14500;62.3750;106;62;0.47057
7821520;-0.13500;62.1250;106;62;0.45788
7821530;-0.13500;62.1250;106;62;0.45788
7821540;-0.13000;62.9375;106;62;0.44640
7821550;-0.12500;64.4375;106;62;0.44200
7821560;-0.12000;67.1875;106;62;0.43663
7821570;-0.11500;71.2500;106;62;0.43101
7821580;-0.11500;80.9375;106;62;0.41905
7821590;-0.10500;85.1250;106;62;0.41343
7821600;-0.09500;88.4375;106;62;0.40781
7821610;-0.08000;90.8750;106;62;0.40269
7821620;-0.06500;93.8750;106;62;0.39316
7821630;-0.04500;95.0625;106;62;0.38852
7821640;-0.02500;96.3125;106;62;0.38535
7821650;0.00000;97.7500;106;62;0.38266
7821660;0.02000;101.0000;106;62;0.37485
7821670;0.07500;104.0625;106;62;0.36703
7821680;0.07500;104.0625;106;62;0.36703
7821690;0.10000;107.4375;106;62;0.35604
7821700;0.08000;108.1250;106;62;0.35263
7821710;0.08000;108.1250;106;62;0.35263
7821720;0.01000;109.1250;106;62;0.34676
7821730;0.01000;109.1250;106;62;0.34676
7821740;-0.02000;109.6250;106;62;0.34188
7821750;-0.07500;109.6250;106;62;0.33871
7821760;-0.07500;109.6250;106;62;0.33871
7821770;-0.09000;108.9375;106;62;0.33358
7821780;-0.09500;108.5000;106;62;0.33382
7821790;-0.09500;108.5000;106;62;0.33382
7821800;-0.10000;107.2500;106;62;0.34237
7821810;-0.10000;107.2500;106;62;0.34237
7821820;-0.10500;105.2500;106;62;0.36532
7821830;-0.10500;102.0625;106;62;0.39976
7821840;-0.10500;99.9375;106;62;0.41783
7821850;-0.10500;99.9375;106;62;0.41783
7821860;-0.09500;93.1250;106;62;0.48620
7821870;-0.09500;93.1250;106;62;0.48620
7821880;-0.09000;90.4375;106;62;0.53162
7821890;-0.08500;89.2500;106;62;0.57314
7821900;-0.08500;89.2500;106;62;0.57314
7821910;-0.08000;88.3750;106;62;0.61172
7821920;-0.08000;87.8750;106;62;0.63004
7821930;-0.08000;87.8750;106;62;0.63004
7821940;-0.08500;85.9375;106;62;0.67473
7821950;-0.08500;85.9375;106;62;0.67473
7821960;-0.08000;85.2500;106;62;0.68889
7821970;-0.08000;83.2500;106;62;0.73065
7821980;-0.08000;83.2500;106;62;0.73065
7821990;-0.07500;82.1875;106;62;0.75556
7822000;-0.07500;81.6875;106;62;0.76654
7822010;-0.07500;81.6875;106;62;0.76654
7822020;-0.07500;80.7500;106;62;0.78559
7822030;-0.07500;79.8125;106;62;0.79927
7822040;-0.07500;79.8125;106;62;0.79927
7822050;-0.08000;79.3125;106;62;0.80317
7822060;-0.07500;78.0000;106;62;0.81416
7822070;-0.07500;78.0000;106;62;0.81416
7822080;-0.07500;77.1250;106;62;0.81538
7822090;-0.07500;77.1250;106;62;0.81538
7822100;-0.07000;76.3125;106;62;0.81026
7822110;-0.04500;75.5000;106;62;0.79878
7822120;-0.04500;75.5000;106;62;0.79878
7822130;-0.03500;75.0625;106;62;0.79121
7822140;-0.02500;74.2500;106;62;0.77387
7822150;-0.03500;73.8750;106;62;0.76484
7822160;-0.04500;73.5000;106;62;0.75531
7822170;-0.06000;72.3125;106;62;0.72723
7822180;-0.06000;72.3125;106;62;0.72723
7822190;-0.08000;71.9375;106;62;0.71819
7822200;-0.08000;71.1875;106;62;0.70061
7822210;-0.08000;71.1875;106;62;0.70061
7822220;-0.07500;70.4375;106;62;0.68278
7822230;-0.07000;69.7500;106;62;0.66520
7822240;-0.07000;69.7500;106;62;0.66520
7822250;0.14500;69.3750;106;62;0.65714
7822260;0.85000;68.5625;106;62;0.63248
7822270;0.85000;68.5625;106;62;0.63248
7822280;0.76500;68.2500;106;62;0.62418
7822290;0.03500;67.4375;106;62;0.60049
7822300;0.03500;67.4375;106;62;0.60049
7822310;-0.07500;67.1875;106;62;0.59316
7822320;-0.13500;66.6250;106;62;0.57851
7822330;-0.13500;66.6250;106;62;0.57851
7822340;-0.14500;66.1250;106;62;0.56459
7822350;-0.15000;65.6875;106;62;0.55189
7822360;-0.15000;65.6875;106;62;0.55189
7822370;-0.15000;65.5000;106;62;0.54505
7822380;-0.15000;64.7500;106;62;0.52430
7822390;-0.15000;64.7500;106;62;0.52430
7822400;-0.14500;64.4375;106;62;0.51746
7822410;-0.14500;63.9375;106;62;0.49768
7822420;-0.14500;63.9375;106;62;0.49768
7822430;-0.14000;64.5625;106;62;0.48498
7822440;-0.13500;65.8125;106;62;0.47961
7822450;-0.13500;65.8125;106;62;0.47961
7822460;-0.12500;76.6875;106;62;0.46129
7822470;-0.12500;76.6875;106;62;0.46129
7822480;-0.11000;86.2500;106;62;0.45006
7822490;-0.09500;92.6250;106;62;0.43980
7822500;-0.09500;92.6250;106;62;0.43980
7822510;-0.06500;95.9375;106;62;0.43004
7822520;-0.06500;95.9375;106;62;0.43004
7822530;-0.03000;99.8750;106;62;0.41734
7822540;-0.01500;101.5000;106;62;0.41441
7822550;-0.01500;101.5000;106;62;0.41441
7822560;0.03000;104.9375;106;62;0.40733
7822570;0.06000;108.0000;106;62;0.40000
7822580;0.09000;109.2500;106;62;0.39634
7822590;0.10500;110.3125;106;62;0.39267
7822600;0.10500;110.3125;106;62;0.39267
7822610;0.09000;111.1875;106;62;0.38950
7822620;0.01000;112.6875;106;62;0.38022
7822630;0.01000;112.6875;106;62;0.38022
7822640;-0.05500;113.1250;106;62;0.37631
7822650;-0.07500;113.1875;106;62;0.37167
7822660;-0.07500;113.1875;106;62;0.37167
7822670;-0.10000;112.6875;106;62;0.36801
7822680;-0.10500;112.3750;106;62;0.36777
7822690;-0.10500;111.3125;106;62;0.37387
7822700;-0.10500;111.3125;106;62;0.37387
7822710;-0.10500;109.6875;106;62;0.39438
7822720;-0.10500;108.5000;106;62;0.41050
7822730;-0.10500;105.2500;106;62;0.44860
7822740;-0.10500;105.2500;106;62;0.44860
7822750;-0.10500;100.6875;106;62;0.48962
7822760;-0.10500;100.6875;106;62;0.48962
7822770;-0.10000;94.3125;106;62;0.55775
7822780;-0.10000;94.3125;106;62;0.55775
7822790;-0.09500;92.4375;106;62;0.60024
7822800;-0.09500;92.4375;106;62;0.60024
7822810;-0.09500;91.9375;106;62;0.62002
7822820;-0.09500;91.0000;106;62;0.65812
7822830;-0.09500;89.8750;106;62;0.69109
7822840;-0.08500;89.2500;106;62;0.70403
7822850;-0.08500;89.2500;106;62;0.70403
7822860;-0.07500;87.8125;106;62;0.73407
7822870;-0.07500;87.0625;106;62;0.74921
7822880;-0.07500;86.3750;106;62;0.76361
7822890;-0.06500;84.6875;106;62;0.80317
7822900;-0.06500;84.6875;106;62;0.80317
7822910;-0.07000;83.6250;106;62;0.82515
7822920;-0.06500;83.1875;106;62;0.83468
7822930;-0.06500;83.1875;106;62;0.83468
7822940;-0.07000;82.2500;106;62;0.84884
7822950;-0.06500;81.3750;106;62;0.85690
7822960;-0.06500;81.3750;106;62;0.85690
7822970;-0.05500;79.9375;106;62;0.86520
7822980;-0.05500;79.9375;106;62;0.86520
7822990;-0.06000;79.5000;106;62;0.86496
7823000;-0.05500;78.6250;106;62;0.83004
7823010;-0.04000;77.7500;106;62;0.75214
7823020;-0.04000;77.7500;106;62;0.75214
7823030;-0.02000;76.8750;106;62;0.71868
7823040;-0.02500;76.4375;106;62;0.70696
7823050;-0.02500;76.4375;106;62;0.70696
7823060;-0.03500;75.1250;106;62;0.67570
7823070;-0.03500;75.1250;106;62;0.67570
7823080;-0.03500;74.6875;106;62;0.66569
7823090;-0.05500;73.2500;106;62;0.63639
7823100;-0.04500;72.8125;106;62;0.62711
7823110;-0.04500;72.8125;106;62;0.62711
7823120;-0.06000;71.8750;106;62;0.60855
7823130;-0.04500;71.0625;106;62;0.59096
7823140;-0.04500;71.0625;106;62;0.59096
7823150;0.56500;70.3125;106;62;0.57436
7823160;0.56500;70.3125;106;62;0.57436
7823170;0.80500;69.1875;106;62;0.54872
7823180;0.80500;69.1875;106;62;0.54872
7823190;0.40500;68.8750;106;62;0.54042
7823200;-0.03500;68.1250;106;62;0.52430
7823210;-0.03500;68.1250;106;62;0.52430
7823220;-0.10000;67.0625;106;62;0.50061
7823230;-0.10500;66.7500;106;62;0.49353
7823240;-0.10500;66.7500;106;62;0.49353
7823250;-0.10500;66.4375;106;62;0.48694
7823260;-0.10500;65.8750;106;62;0.47326
7823270;-0.10500;65.3125;106;62;0.45958
7823280;-0.10500;65.3125;106;62;0.45958
7823290;-0.10500;64.9375;106;62;0.45250
7823300;-0.10500;64.0000;106;62;0.43248
7823310;-0.10500;64.0000;106;62;0.43248
7823320;-0.09500;63.6875;106;62;0.41929
7823330;-0.08500;64.2500;106;62;0.40757
7823340;-0.08500;64.2500;106;62;0.40757
7823350;-0.08000;68.1250;106;62;0.39780
7823360;-0.07500;71.9375;106;62;0.39219
7823370;-0.07500;71.9375;106;62;0.39219
7823380;-0.06500;81.5000;106;62;0.38046
7823390;-0.05500;85.8125;106;62;0.37411
7823400;-0.04000;89.3125;106;62;0.36777
7823410;-0.03000;91.8750;106;62;0.36142
7823420;0.00000;96.2500;106;62;0.34310
7823430;0.01000;97.6250;106;62;0.33871
7823440;0.01000;97.6250;106;62;0.33871
7823450;0.05000;102.3125;106;62;0.32527
7823460;0.05000;102.3125;106;62;0.32527
7823470;0.08000;103.8750;106;62;0.32039
7823480;0.14000;106.7500;106;62;0.31062
7823490;0.14000;106.7500;106;62;0.31062
7823500;0.16000;108.9375;106;62;0.30110
7823510;0.11500;110.3750;106;62;0.29206
7823520;0.07000;110.8750;106;62;0.28767
7823530;0.03000;111.3750;106;62;0.28230
7823540;-0.00500;111.4375;106;62;0.27888
7823550;-0.00500;111.4375;106;62;0.27888
7823560;-0.02500;111.3750;106;62;0.27546
7823570;-0.03500;111.3125;106;62;0.27179
7823580;-0.04500;110.7500;106;62;0.26569
7823590;-0.05000;110.3750;106;62;0.26422
7823600;-0.05000;109.8125;106;62;0.26471
7823610;-0.05500;109.0625;106;62;0.26789
7823620;-0.05500;105.8125;106;62;0.29866
7823630;-0.05500;105.8125;106;62;0.29866
7823640;-0.05500;104.1875;106;62;0.31331
7823650;-0.05500;97.4375;106;62;0.36850
7823660;-0.05500;97.4375;106;62;0.36850
7823670;-0.05500;95.0625;106;62;0.38926
7823680;-0.05000;93.0625;106;62;0.41001
7823690;-0.05500;91.6875;106;62;0.43028
7823700;-0.05000;90.0625;106;62;0.46886
7823710;-0.05000;89.5625;106;62;0.48694
7823720;-0.04500;89.0625;106;62;0.50452
7823730;-0.04500;88.5000;106;62;0.52137
7823740;-0.04500;87.3125;106;62;0.54774
7823750;-0.03500;85.9375;106;62;0.57558
7823760;-0.03500;85.9375;106;62;0.57558
7823770;-0.03500;85.1875;106;62;0.61612
7823780;-0.03500;83.8125;106;62;0.61612
7823790;-0.04000;83.1875;106;62;0.62833
7823800;-0.04500;82.6250;106;62;0.63980
7823810;-0.04000;81.0625;106;62;0.66838
7823820;-0.04000;81.0625;106;62;0.66838
7823830;-0.03500;80.5625;106;62;0.67619
7823840;-0.03000;80.0625;106;62;0.68132
7823850;-0.02500;78.6250;106;62;0.69158
7823860;-0.02500;78.6250;106;62;0.69158
7823870;-0.02500;78.1250;106;62;0.69377
7823880;-0.02500;77.6250;106;62;0.69475
7823890;-0.01500;77.1250;106;62;0.69377
7823900;-0.00500;76.1875;106;62;0.68694
7823910;0.02000;75.3125;106;62;0.67424
7823920;0.02000;75.3125;106;62;0.67424
7823930;0.03000;74.8750;106;62;0.66593
7823940;0.01000;73.5625;106;62;0.63736
7823950;0.00500;73.1250;106;62;0.62686
7823960;0.00500;73.1250;106;62;0.62686
7823970;-0.02500;71.8125;106;62;0.59560
7823980;-0.03500;71.3750;106;62;0.58559
7823990;-0.03500;71.3750;106;62;0.58559
7824000;-0.02500;70.5625;106;62;0.56557
7824010;-0.02500;70.5625;106;62;0.56557
7824020;-0.04000;69.8125;106;62;0.54554
7824030;0.14500;69.1250;106;62;0.52650
7824040;0.14500;69.1250;106;62;0.52650
7824050;0.56500;68.7500;106;62;0.51795
7824060;0.91000;68.0625;106;62;0.49963
7824070;0.42000;67.4375;106;62;0.48107
7824080;0.42000;67.4375;106;62;0.48107
7824090;-0.03000;66.5625;106;62;0.45324
7824100;-0.03000;66.5625;106;62;0.45324
7824110;-0.07500;66.2500;106;62;0.44420
7824120;-0.10500;65.6875;106;62;0.42686
7824130;-0.10500;65.6875;106;62;0.42686
7824140;-0.10500;65.1250;106;62;0.41294
7824150;-0.10500;64.5625;106;62;0.39805
7824160;-0.10500;64.5625;106;62;0.39805
7824170;-0.10500;63.5625;106;62;0.37485
7824180;-0.10500;63.2500;106;62;0.36728
7824190;-0.10500;63.2500;106;62;0.36728
7824200;-0.09500;62.6875;106;62;0.35238
7824210;-0.09500;62.6875;106;62;0.35238
7824220;-0.09500;62.3750;106;62;0.33846
7824230;-0.09000;62.5625;106;62;0.32625
7824240;-0.09000;62.5625;106;62;0.32625
7824250;-0.08500;63.2500;106;62;0.32161
7824260;-0.07000;71.7500;106;62;0.30379
7824270;-0.07000;71.7500;106;62;0.30379
7824280;-0.05500;80.6875;106;62;0.29133
7824290;-0.04000;87.3125;106;62;0.27985
7824300;-0.02500;89.3750;106;62;0.27448
7824310;-0.02500;89.3750;106;62;0.27448
7824320;-0.01000;90.8125;106;62;0.26935
7824330;0.02000;93.8750;106;62;0.25836
7824340;0.02000;93.8750;106;62;0.25836
7824350;0.04000;95.1250;106;62;0.25495
7824360;0.07000;96.4375;106;62;0.25128
7824370;0.12000;100.2500;106;62;0.23956
7824380;0.13000;101.3125;106;62;0.23590
7824390;0.13000;101.3125;106;62;0.23590
7824400;0.11500;102.1875;106;62;0.23223
7824410;0.07500;102.8750;106;62;0.22882
7824420;0.03000;103.6875;106;62;0.22247
7824430;-0.01500;103.9375;106;62;0.21929
7824440;-0.04500;104.0000;106;62;0.21734
7824450;-0.06500;103.9375;106;62;0.21587
7824460;-0.08000;103.6250;106;62;0.21074
7824470;-0.09500;103.3125;106;62;0.20806
7824480;-0.09500;102.1875;106;62;0.20440
7824490;-0.10000;100.4375;106;62;0.20708
7824500;-0.10000;100.4375;106;62;0.20708
7824510;-0.10500;99.1250;106;62;0.21245
7824520;-0.10000;95.5625;106;62;0.23370
7824530;-0.10000;95.5625;106;62;0.23370
7824540;-0.09000;88.8750;106;62;0.28230
7824550;-0.08500;87.3750;106;62;0.30330
7824560;-0.08500;87.3750;106;62;0.30330
7824570;-0.09000;85.5000;106;62;0.36947
7824580;-0.09000;85.5000;106;62;0.36947
7824590;-0.07500;84.8125;106;62;0.41026
7824600;-0.07500;84.3125;106;62;0.42930
7824610;-0.07500;84.3125;106;62;0.42930
7824620;-0.07500;82.4375;106;62;0.48278
7824630;-0.07500;82.4375;106;62;0.48278
7824640;-0.07000;81.0625;106;62;0.50989
7824650;-0.06500;79.8750;106;62;0.53797
7824660;-0.06500;79.8750;106;62;0.53797
7824670;-0.07000;79.3750;106;62;0.55140
7824680;-0.06500;78.3750;106;62;0.57656
7824690;-0.06500;77.5000;106;62;0.59853
7824700;-0.06500;77.0625;106;62;0.60806
7824710;-0.06500;76.6250;106;62;0.61685
7824720;-0.06500;76.1875;106;62;0.62442
7824730;-0.06500;75.3125;106;62;0.63321
7824740;-0.06500;75.3125;106;62;0.63321
7824750;-0.06500;74.8750;106;62;0.63663
7824760;-0.06500;74.0625;106;62;0.64054
7824770;-0.06500;74.0625;106;62;0.64054
7824780;-0.05000;72.9375;106;62;0.63394
7824790;-0.05000;72.9375;106;62;0.63394
7824800;-0.01500;72.1250;106;62;0.62100
7824810;-0.01500;72.1250;106;62;0.62100
7824820;-0.00500;71.2500;106;62;0.60440
7824830;-0.01500;70.5000;106;62;0.58730
7824840;-0.01500;70.5000;106;62;0.58730
7824850;-0.03500;70.1250;106;62;0.57924
7824860;-0.04000;69.3750;106;62;0.56239
7824870;-0.06000;69.0000;106;62;0.55385
7824880;-0.07500;68.6250;106;62;0.54554
7824890;-0.07500;68.3125;106;62;0.53724
7824900;-0.06500;67.5625;106;62;0.52039
7824910;-0.10000;66.9375;106;62;0.50379
7824920;-0.00500;66.6250;106;62;0.49597
7824930;-0.00500;66.6250;106;62;0.49597
7824940;0.75000;65.7500;106;62;0.47521
7824950;0.75000;65.7500;106;62;0.47521
7824960;0.90000;65.5000;106;62;0.46764
7824970;0.58000;65.2500;106;62;0.46007
7824980;0.16500;64.6875;106;62;0.44444
7824990;-0.09500;64.2500;106;62;0.42979
7825000;-0.09500;64.2500;106;62;0.42979
7825010;-0.14500;63.5625;106;62;0.41026
7825020;-0.14500;63.2500;106;62;0.40342
7825030;-0.14500;63.2500;106;62;0.40342
7825040;-0.14500;63.0000;106;62;0.39780
7825050;-0.14500;62.7500;106;62;0.39267
7825060;-0.14500;62.2500;106;62;0.40366
7825070;-0.14500;61.9375;106;62;0.40464
7825080;-0.13500;61.3750;106;62;0.39829
7825090;-0.13500;60.9375;106;62;0.38779
7825100;-0.13500;60.9375;106;62;0.38779
7825110;-0.13500;60.8125;106;62;0.37705
7825120;-0.13000;61.0625;106;62;0.37167
7825130;-0.13000;61.0625;106;62;0.37167
7825140;-0.12000;66.4375;106;62;0.35946
7825150;-0.10500;70.5625;106;62;0.35458
7825160;-0.10500;70.5625;106;62;0.35458
7825170;-0.08500;83.8750;106;62;0.34042
7825180;-0.08500;83.8750;106;62;0.34042
7825190;-0.06500;89.1250;106;62;0.33211
7825200;-0.06500;89.1250;106;62;0.33211
7825210;-0.02500;92.6875;106;62;0.31966
7825220;-0.01000;93.7500;106;62;0.31600
7825230;0.01000;95.0000;106;62;0.31355
7825240;0.03000;96.4375;106;62;0.31160
7825250;0.03000;96.4375;106;62;0.31160
7825260;0.09000;100.6875;106;62;0.30305
7825270;0.09000;100.6875;106;62;0.30305
7825280;0.11000;101.8750;106;62;0.30012
7825290;0.08000;104.2500;106;62;0.29133
7825300;0.08000;104.2500;106;62;0.29133
7825310;0.03500;104.6875;106;62;0.28864
7825320;-0.03500;105.1250;106;62;0.28327
7825330;-0.03500;105.1250;106;62;0.28327
7825340;-0.06000;105.1875;106;62;0.28083
7825350;-0.08500;104.7500;106;62;0.27717
7825360;-0.08500;104.7500;106;62;0.27717
7825370;-0.09500;103.2500;106;62;0.27399
7825380;-0.09500;102.5625;106;62;0.27619
7825390;-0.09500;102.5625;106;62;0.27619
7825400;-0.09500;101.6250;106;62;0.28156
7825410;-0.09500;100.4375;106;62;0.29011
7825420;-0.09500;97.0000;106;62;0.31844
7825430;-0.10000;94.6875;106;62;0.33480
7825440;-0.09500;92.3750;106;62;0.35189
7825450;-0.09000;90.2500;106;62;0.37216
7825460;-0.08500;87.5000;106;62;0.41636
7825470;-0.08500;86.8750;106;62;0.43810
7825480;-0.07500;86.1250;106;62;0.47937
7825490;-0.08000;85.2500;106;62;0.51673
7825500;-0.08000;85.2500;106;62;0.51673
7825510;-0.08500;84.0625;106;62;0.55189
7825520;-0.08000;83.4375;106;62;0.56850
7825530;-0.08000;83.4375;106;62;0.56850
7825540;-0.08000;81.5000;106;62;0.60757
7825550;-0.08500;80.9375;106;62;0.62125
7825560;-0.08500;80.9375;106;62;0.62125
7825570;-0.08500;79.5000;106;62;0.65885
7825580;-0.08500;79.5000;106;62;0.65885
7825590;-0.08000;79.0000;106;62;0.66984
7825600;-0.08000;78.0625;106;62;0.68913
7825610;-0.08000;78.0625;106;62;0.68913
7825620;-0.08000;77.1875;106;62;0.70476
7825630;-0.08500;76.7500;106;62;0.70940
7825640;-0.08500;76.3125;106;62;0.71258
7825650;-0.08500;75.1250;106;62;0.71990
7825660;-0.08500;75.1250;106;62;0.71990
7825670;-0.08000;74.7500;106;62;0.71966
7825680;-0.06000;73.9375;106;62;0.71429
7825690;-0.06000;73.9375;106;62;0.71429
7825700;-0.04000;73.1250;106;62;0.70281
7825710;-0.03000;72.7500;106;62;0.69548
7825720;-0.01500;72.3125;106;62;0.68718
7825730;-0.04500;71.1875;106;62;0.66154
7825740;-0.05500;70.8125;106;62;0.65324
7825750;-0.05500;70.8125;106;62;0.65324
7825760;-0.06500;70.4375;106;62;0.64469
7825770;-0.08500;70.0625;106;62;0.63614
7825780;-0.08500;69.0000;106;62;0.61026
7825790;-0.08500;68.6250;106;62;0.60171
7825800;-0.08500;68.6250;106;62;0.60171
7825810;-0.09500;67.5625;106;62;0.57534
7825820;0.13000;67.2500;106;62;0.56777
7825830;0.13000;67.2500;106;62;0.56777
7825840;0.55000;67.0000;106;62;0.56068
7825850;0.86500;66.6875;106;62;0.55336
7825860;0.77500;66.1250;106;62;0.53822
7825870;0.02000;65.6250;106;62;0.52332
7825880;0.02000;65.6250;106;62;0.52332
7825890;-0.08500;65.3125;106;62;0.51624
7825900;-0.15000;64.5000;106;62;0.49499
7825910;-0.15000;64.5000;106;62;0.49499
7825920;-0.16000;64.0000;106;62;0.48107
7825930;-0.16000;63.5625;106;62;0.46984
7825940;-0.16000;63.5625;106;62;0.46984
7825950;-0.15500;63.0000;106;62;0.45763
7825960;-0.15500;62.6250;106;62;0.45128
7825970;-0.15500;62.6250;106;62;0.45128
7825980;-0.15500;62.0000;106;62;0.43834
7825990;-0.15000;61.5000;106;62;0.42589
7826000;-0.15000;61.5000;107;62;0.42589
7826010;-0.14500;61.9375;107;62;0.40781
7826020;-0.13500;63.0625;107;62;0.40317
7826030;-0.12500;65.2500;107;62;0.39902
7826040;-0.12000;68.6875;107;62;0.39390
7826050;-0.12000;68.6875;107;62;0.39390
7826060;-0.10500;82.3750;107;62;0.37802
7826070;-0.10500;82.3750;107;62;0.37802
7826080;-0.09500;86.0000;107;62;0.37265
7826090;-0.08500;88.6875;107;62;0.36777
7826100;-0.07000;91.9375;107;62;0.35824
7826110;-0.05000;93.0000;107;62;0.35385
7826120;-0.02500;94.1250;107;62;0.34994
7826130;-0.00500;95.4375;107;62;0.34603
7826140;0.02000;98.3750;107;62;0.34066
7826150;0.04000;99.9375;107;62;0.33748
7826160;0.06500;101.3750;107;62;0.33407
7826170;0.11000;104.7500;107;62;0.32381
7826180;0.11000;104.7500;107;62;0.32381
7826190;0.09500;105.5000;107;62;0.32039
7826200;0.06000;106.0625;107;62;0.31722
7826210;0.01500;106.4375;107;62;0.31453
7826220;-0.05500;107.0000;107;62;0.30794
7826230;-0.07500;106.9375;107;62;0.30672
7826240;-0.07500;106.9375;107;62;0.30672
7826250;-0.09500;106.2500;107;62;0.30061
7826260;-0.09500;106.2500;107;62;0.30061
7826270;-0.09500;105.8125;107;62;0.29939
7826280;-0.09500;105.1875;107;62;0.29963
7826290;-0.10000;104.5000;107;62;0.30183
7826300;-0.10000;102.3750;107;62;0.31600
7826310;-0.10000;100.9375;107;62;0.32869
7826320;-0.10000;99.1875;107;62;0.34481
7826330;-0.09500;92.3750;107;62;0.40024
7826340;-0.09000;90.3750;107;62;0.42051
7826350;-0.08500;89.0000;107;62;0.44176
7826360;-0.08500;89.0000;107;62;0.44176
7826370;-0.08500;87.2500;107;62;0.50330
7826380;-0.08500;87.2500;107;62;0.50330
7826390;-0.08500;86.8125;107;62;0.52259
7826400;-0.08000;85.8750;107;62;0.55971
7826410;-0.08000;85.8750;107;62;0.55971
7826420;-0.08000;84.6250;107;62;0.59389
7826430;-0.07500;83.1875;107;62;0.61929
7826440;-0.07500;83.1875;107;62;0.61929
7826450;-0.07500;82.5000;107;62;0.63272
7826460;-0.07000;81.3125;107;62;0.65910
7826470;-0.07000;80.8125;107;62;0.67155
7826480;-0.07500;80.3125;107;62;0.68303
7826490;-0.07000;78.9375;107;62;0.71258
7826500;-0.07000;78.5000;107;62;0.72039
7826510;-0.07000;78.0000;107;62;0.72723
7826520;-0.07000;78.0000;107;62;0.72723
7826530;-0.06500;76.6250;107;62;0.73748
7826540;-0.06500;76.1125;107;62;0.74188
7826550;-0.06500;75.9813;107;62;0.74200
7826560;-0.06000;75.7500;107;62;0.73944
7826570;-0.05000;74.9375;107;62;0.73578
7826580;-0.05000;74.9375;107;62;0.73578
7826590;-0.03500;74.5000;107;62;0.73162
7826600;-0.00500;73.6875;107;62;0.71917
7826610;-0.00500;73.6875;107;62;0.71917
7826620;-0.01000;72.4375;107;62;0.69328
7826630;-0.02500;72.0000;107;62;0.68400
7826640;-0.02500;72.0000;107;62;0.68400
7826650;-0.03000;71.6250;107;62;0.67473
7826660;-0.06000;70.4375;107;62;0.64591
7826670;-0.06000;70.4375;107;62;0.64591
7826680;-0.06500;70.0625;107;62;0.63614
7826690;-0.05500;69.6875;107;62;0.62637
7826700;-0.06000;68.9375;107;62;0.60733
7826710;-0.08500;68.5000;107;62;0.59780
7826720;-0.05000;68.1875;107;62;0.58852
7826730;0.62000;67.2500;107;62;0.56190
7826740;0.62000;67.2500;107;62;0.56190
7826750;0.75000;66.6875;107;62;0.54579
7826760;0.75000;66.6875;107;62;0.54579
7826770;0.02500;65.8125;107;62;0.52186
7826780;0.02500;65.8125;107;62;0.52186
7826790;-0.07500;65.5625;107;62;0.51404
7826800;-0.13500;65.0000;107;62;0.49866
7826810;-0.13500;64.5000;107;62;0.48376
7826820;-0.13500;64.5000;107;62;0.48376
7826830;-0.13500;63.9375;107;62;0.46960
7826840;-0.14000;63.6875;107;62;0.46374
7826850;-0.14000;63.6875;107;62;0.46374
7826860;-0.14000;62.8125;107;62;0.44420
7826870;-0.14000;62.8125;107;62;0.44420
7826880;-0.14000;62.5000;107;62;0.43785
7826890;-0.13500;61.7500;107;62;0.41929
7826900;-0.13500;61.7500;107;62;0.41929
7826910;-0.13000;61.6250;107;62;0.41294
7826920;-0.12000;62.1250;107;62;0.40049
7826930;-0.11500;65.5625;107;62;0.38950
7826940;-0.10500;69.0625;107;62;0.38535
7826950;-0.09500;73.6250;107;62;0.38046
7826960;-0.09500;73.6250;107;62;0.38046
7826970;-0.07500;86.5000;107;62;0.36484
7826980;-0.07500;86.5000;107;62;0.36484
7826990;-0.06500;89.1875;107;62;0.35971
7827000;-0.03500;92.5625;108;62;0.34896
7827010;-0.02000;94.8125;108;62;0.33895
7827020;-0.02000;94.8125;108;62;0.33895
7827030;0.03500;97.6250;108;62;0.33114
7827040;0.06500;99.1875;108;62;0.32869
7827050;0.09500;102.2500;108;62;0.32186
7827060;0.12000;103.6250;108;62;0.31819
7827070;0.12000;103.6250;108;62;0.31819
7827080;0.10500;105.6875;108;62;0.31136
7827090;0.10500;105.6875;108;62;0.31136
7827100;0.02000;107.4375;108;62;0.29646
7827110;-0.02000;107.7500;108;62;0.28547
7827120;-0.02000;107.7500;108;62;0.28547
7827130;-0.07000;108.0000;108;62;0.27228
7827140;-0.07000;108.0000;108;62;0.27228
7827150;-0.08500;107.8125;108;62;0.26960
7827160;-0.09500;107.3125;108;62;0.26471
7827170;-0.09500;106.5000;108;62;0.26398
7827180;-0.09500;106.5000;108;62;0.26398
7827190;-0.10000;105.0625;108;62;0.27277
7827200;-0.10000;104.0000;108;62;0.28278
7827210;-0.10000;104.0000;108;62;0.28278
7827220;-0.09500;98.8750;108;62;0.33480
7827230;-0.09500;98.8750;108;62;0.33480
7827240;-0.09500;96.5000;108;62;0.35458
7827250;-0.09000;94.1250;108;62;0.37436
7827260;-0.08500;90.3125;108;62;0.42027
7827270;-0.08500;88.5625;108;62;0.46569
7827280;-0.08500;88.5625;108;62;0.46569
7827290;-0.07500;87.3125;108;62;0.52894
7827300;-0.08000;86.8125;108;62;0.54896
7827310;-0.08000;86.8125;108;62;0.54896
7827320;-0.08000;85.6875;108;62;0.58681
7827330;-0.08000;84.3750;108;62;0.61563
7827340;-0.08000;84.3750;108;62;0.61563
7827350;-0.07500;83.0000;108;62;0.64542
7827360;-0.07500;83.0000;108;62;0.64542
7827370;-0.07500;82.3750;108;62;0.65983
7827380;-0.06500;80.8125;108;62;0.69866
7827390;-0.06500;80.8125;108;62;0.69866
7827400;-0.06500;79.8750;108;62;0.71966
7827410;-0.06500;79.8750;108;62;0.71966
7827420;-0.07000;79.0000;108;62;0.73626
7827430;-0.07000;78.0625;108;62;0.74652
7827440;-0.07000;78.0625;108;62;0.74652
7827450;-0.07000;77.6250;108;62;0.74823
7827460;-0.07000;76.7500;108;62;0.75067
7827470;-0.06000;75.9375;108;62;0.74774
7827480;-0.06000;75.9375;108;62;0.74774
7827490;-0.04500;75.5000;108;62;0.74359
7827500;-0.03000;74.6875;108;62;0.73016
7827510;-0.01500;74.2500;108;62;0.72161
7827520;-0.01000;73.8750;108;62;0.71209
7827530;-0.02000;73.4375;108;62;0.70159
7827540;-0.03500;72.5625;108;62;0.68132
7827550;-0.05500;71.8125;108;62;0.66032
7827560;-0.05500;71.8125;108;62;0.66032
7827570;-0.08000;70.7500;108;62;0.62882
7827580;-0.08000;70.7500;108;62;0.62882
7827590;-0.07500;70.4375;108;62;0.61832
7827600;-0.07000;70.0625;108;62;0.60781
7827610;-0.09000;69.6875;108;62;0.59756
7827620;0.16500;68.5625;108;62;0.56752
7827630;0.16500;68.5625;108;62;0.56752
7827640;0.59000;68.3125;108;62;0.55849
7827650;0.74500;67.5000;108;62;0.53187
7827660;0.74500;67.5000;108;62;0.53187
7827670;0.33000;67.2500;108;62;0.52308
7827680;-0.08000;66.6875;108;62;0.50549
7827690;-0.12500;66.1250;108;62;0.48889
7827700;-0.14000;65.8750;108;62;0.48083
7827710;-0.14500;65.6250;108;62;0.47302
7827720;-0.14500;65.6250;108;62;0.47302
7827730;-0.14500;64.8750;108;62;0.45299
7827740;-0.14500;64.6875;108;62;0.44615
7827750;-0.14500;64.6875;108;62;0.44615
7827760;-0.15000;64.1875;108;62;0.43223
7827770;-0.15000;64.1875;108;62;0.43223
7827780;-0.15000;63.6875;108;62;0.41856
7827790;-0.14500;63.2500;108;62;0.40562
7827800;-0.14500;63.2500;108;62;0.40562
7827810;-0.13500;63.1250;108;62;0.39951
7827820;-0.12500;64.5000;108;62;0.38169
7827830;-0.12500;66.5625;108;62;0.37680
7827840;-0.12500;66.5625;108;62;0.37680
7827850;-0.11000;79.3750;108;62;0.36166
7827860;-0.09500;84.0625;108;62;0.35604
7827870;-0.09500;84.0625;108;62;0.35604
7827880;-0.07000;90.8125;108;62;0.34554
7827890;-0.05500;94.3125;108;62;0.33578
7827900;-0.05500;94.3125;108;62;0.33578
7827910;-0.02000;96.7500;108;62;0.32601
7827920;0.00000;98.1250;108;62;0.32137
7827930;0.00000;98.1250;108;62;0.32137
7827940;0.04500;102.9375;108;62;0.31233
7827950;0.04500;102.9375;108;62;0.31233
7827960;0.07000;104.4375;108;62;0.30940
7827970;0.10000;105.8750;108;62;0.30647
7827980;0.11000;108.1250;108;62;0.30037
7827990;0.09500;109.0000;108;62;0.29744
7828000;0.06000;109.7500;107;62;0.29475
7828010;-0.02500;111.0625;107;62;0.28669
7828020;-0.02500;111.0625;107;62;0.28669
7828030;-0.07000;111.3125;107;62;0.28254
7828040;-0.08500;111.2500;107;62;0.28132
7828050;-0.08500;111.2500;107;62;0.28132
7828060;-0.09500;110.8750;107;62;0.27839
7828070;-0.10000;110.1875;107;62;0.27863
7828080;-0.10000;110.1875;107;62;0.27863
7828090;-0.10500;108.1250;107;62;0.29670
7828100;-0.10500;108.1250;107;62;0.29670
7828110;-0.09500;105.6875;107;62;0.32698
7828120;-0.09500;103.9375;107;62;0.34701
7828130;-0.09500;103.9375;107;62;0.34701
7828140;-0.09000;97.0625;107;62;0.40806
7828150;-0.09000;94.9375;107;62;0.43150
7828160;-0.09000;94.9375;107;62;0.43150
7828170;-0.09000;91.5000;107;62;0.50037
7828180;-0.08500;90.9375;107;62;0.52210
7828190;-0.08500;90.9375;107;62;0.52210
7828200;-0.08500;90.5000;107;62;0.54310
7828210;-0.08500;90.0000;107;62;0.56361
7828220;-0.08000;88.1875;107;62;0.62125
7828230;-0.08000;88.1875;107;62;0.62125
7828240;-0.07500;87.5000;107;62;0.63614
7828250;-0.07500;85.5000;107;62;0.67961
7828260;-0.07500;85.5000;107;62;0.67961
7828270;-0.07000;84.3750;107;62;0.70818
7828280;-0.07000;83.8125;107;62;0.72088
7828290;-0.07000;83.8125;107;62;0.72088
7828300;-0.07000;82.3125;107;62;0.75311
7828310;-0.07000;81.8125;107;62;0.76142
7828320;-0.07000;81.8125;107;62;0.76142
7828330;-0.07500;80.5000;107;62;0.77485
7828340;-0.07500;80.0625;107;62;0.77753
7828350;-0.07500;80.0625;107;62;0.77753
7828360;-0.06500;79.1875;107;62;0.78071
7828370;-0.06500;79.1875;107;62;0.78071
7828380;-0.06000;77.8750;107;62;0.77265
7828390;-0.06000;77.8750;107;62;0.77265
7828400;-0.03500;77.0625;107;62;0.75873
7828410;-0.03500;77.0625;107;62;0.75873
7828420;-0.02500;75.8125;107;62;0.72918
7828430;-0.02500;75.8125;107;62;0.72918
7828440;-0.04500;75.0000;107;62;0.70794
7828450;-0.05000;74.1875;107;62;0.68498
7828460;-0.05000;74.1875;107;62;0.68498
7828470;-0.08500;73.3750;107;62;0.66203
7828480;-0.08500;73.3750;107;62;0.66203
7828490;-0.07500;72.1875;107;62;0.62882
7828500;-0.07500;72.1875;107;62;0.62882
7828510;-0.09500;71.4375;107;62;0.60708
7828520;0.03500;71.1250;107;62;0.59658
7828530;0.03500;71.1250;107;62;0.59658
7828540;0.77500;70.2500;107;62;0.56972
7828550;0.77500;70.2500;107;62;0.56972
7828560;0.48500;69.7500;107;62;0.55092
7828570;0.48500;69.7500;107;62;0.55092
7828580;0.11000;69.1875;107;62;0.53211
7828590;-0.05500;68.9375;107;62;0.52308
7828600;-0.10500;68.6250;107;62;0.51429
7828610;-0.13500;68.3750;107;62;0.50574
7828620;-0.15500;67.5000;107;62;0.48181
7828630;-0.15500;67.5000;107;62;0.48181
7828640;-0.15000;67.3125;107;62;0.47521
7828650;-0.15000;67.0625;107;62;0.46935
7828660;-0.15000;66.6250;107;62;0.45641
7828670;-0.15000;66.0625;107;62;0.44298
7828680;-0.15000;66.0625;107;62;0.44298
7828690;-0.14500;65.3750;107;62;0.42222
7828700;-0.14500;65.3125;107;62;0.41563
7828710;-0.14500;65.3125;107;62;0.41563
7828720;-0.13500;66.0000;107;62;0.40293
7828730;-0.13500;69.5625;107;62;0.39292
7828740;-0.13500;69.5625;107;62;0.39292
7828750;-0.14500;77.8750;107;62;0.38242
7828760;-0.14500;77.8750;107;62;0.38242
7828770;-0.12500;91.1250;107;62;0.36679
7828780;-0.12500;91.1250;107;62;0.36679
7828790;-0.11000;93.8750;107;62;0.36166
7828800;-0.08500;97.3125;107;62;0.35214
7828810;-0.08500;97.3125;107;62;0.35214
7828820;-0.06500;99.8125;107;62;0.34286
7828830;-0.04500;101.3125;107;62;0.33822
7828840;0.01000;104.6875;107;62;0.33236
7828850;0.01000;104.6875;107;62;0.33236
7828860;0.04000;107.9375;107;62;0.32576
7828870;0.08500;110.4375;107;62;0.31966
7828880;0.08500;110.4375;107;62;0.31966
7828890;0.06500;112.9375;107;62;0.31136
7828900;0.03000;113.4375;107;62;0.30867
7828910;0.03000;113.4375;107;62;0.30867
7828920;-0.04500;114.2500;107;62;0.30379
7828930;-0.07500;114.5625;107;62;0.30183
7828940;-0.07500;114.5625;107;62;0.30183
7828950;-0.09500;114.4375;107;62;0.29890
7828960;-0.09500;114.1875;107;62;0.29792
7828970;-0.10000;113.5000;107;62;0.29939
7828980;-0.10000;112.9375;107;62;0.30330
7828990;-0.10000;112.9375;107;62;0.30330
7829000;-0.10000;112.2500;107;62;0.31038
7829010;-0.09500;108.8125;107;62;0.35263
7829020;-0.09500;108.8125;107;62;0.35263
7829030;-0.09500;105.0000;107;62;0.38828
7829040;-0.09500;105.0000;107;62;0.38828
7829050;-0.09000;102.5625;107;62;0.40928
7829060;-0.08500;95.9375;107;62;0.47790
7829070;-0.08500;95.9375;107;62;0.47790
7829080;-0.08000;94.6250;107;62;0.50061
7829090;-0.08000;93.6875;107;62;0.52259
7829100;-0.08000;92.4375;107;62;0.56484
7829110;-0.08000;91.3125;107;62;0.60415
7829120;-0.07500;90.6875;107;62;0.62271
7829130;-0.07500;90.6875;107;62;0.62271
7829140;-0.06500;88.5000;107;62;0.66569
7829150;-0.06500;88.5000;107;62;0.66569
7829160;-0.06500;87.7500;107;62;0.67399
7829170;-0.06500;87.0625;107;62;0.67814
7829180;-0.06000;85.6875;107;62;0.69744
7829190;-0.06000;85.0000;107;62;0.70818
7829200;-0.05500;84.3750;107;62;0.71844
7829210;-0.05500;83.7500;107;62;0.72796
7829220;-0.05000;82.6250;107;62;0.74359
7829230;-0.04500;81.5625;107;62;0.75067
7829240;-0.05000;81.0625;107;62;0.75385
7829250;-0.05000;81.0625;107;62;0.75385
7829260;-0.04500;79.4375;107;62;0.75800
7829270;-0.04500;79.4375;107;62;0.75800
7829280;-0.04500;78.9375;107;62;0.75678
7829290;-0.02000;77.4375;107;62;0.74237
7829300;-0.02000;77.4375;107;62;0.74237
7829310;0.01000;76.5000;107;62;0.72503
7829320;0.01000;76.5000;107;62;0.72503
7829330;0.00000;75.1250;107;62;0.69304
7829340;-0.00500;74.6875;107;62;0.68156
7829350;-0.00500;74.6875;107;62;0.68156
7829360;-0.01500;74.2500;107;62;0.66984
7829370;-0.02500;73.8125;107;62;0.65763
7829380;-0.04500;72.9375;107;62;0.63370
7829390;-0.03500;72.0625;107;62;0.61050
7829400;-0.03500;72.0625;107;62;0.61050
7829410;-0.04000;71.6250;107;62;0.59902
7829420;-0.05500;70.8125;107;62;0.57656
7829430;0.34000;70.0625;107;62;0.55629
7829440;0.75500;69.6875;107;62;0.54579
7829450;0.75500;69.6875;107;62;0.54579
7829460;0.64000;68.6875;107;62;0.51502
7829470;0.64000;68.6875;107;62;0.51502
7829480;0.23500;68.4375;107;62;0.50501
7829490;0.01000;68.1250;107;62;0.49548
7829500;-0.06000;67.4375;107;62;0.47668
7829510;-0.09000;67.1250;107;62;0.46740
7829520;-0.10500;66.8125;107;62;0.45812
7829530;-0.10500;66.5625;107;62;0.44908
7829540;-0.11000;65.6875;107;62;0.42637
7829550;-0.11000;65.6875;107;62;0.42637
7829560;-0.11000;65.4375;107;62;0.41807
7829570;-0.10500;65.1250;107;62;0.40952
7829580;-0.10500;64.4375;107;62;0.39316
7829590;-0.10500;63.8125;107;62;0.37753
7829600;-0.09500;63.5625;107;62;0.36996
7829610;-0.09500;63.5625;107;62;0.36996
7829620;-0.09500;63.3125;107;62;0.35531
7829630;-0.12500;64.1875;107;62;0.34408
7829640;-0.12500;64.1875;107;62;0.34408
7829650;-0.10500;72.6875;107;62;0.32430
7829660;-0.09000;77.3750;107;62;0.31770
7829670;-0.07500;82.0625;107;62;0.31111
7829680;-0.06000;86.1250;107;62;0.30476
7829690;-0.06000;86.1250;107;62;0.30476
7829700;-0.02500;93.3750;107;62;0.28645
7829710;-0.02500;93.3750;107;62;0.28645
7829720;0.01500;95.9375;107;62;0.27497
7829730;0.01500;95.9375;107;62;0.27497
7829740;0.04000;98.6250;107;62;0.26764
7829750;0.09000;101.6875;107;62;0.25861
7829760;0.09000;101.6875;107;62;0.25861
7829770;0.13000;105.6875;107;62;0.24469
7829780;0.13500;106.6875;107;62;0.24029
7829790;0.11000;107.5625;107;62;0.23614
7829800;0.07000;108.2500;107;62;0.23223
7829810;0.07000;108.2500;107;62;0.23223
7829820;0.02000;109.2500;107;62;0.22418
7829830;-0.04000;109.6875;107;62;0.22051
7829840;-0.05500;109.7500;107;62;0.21783
7829850;-0.05500;109.7500;107;62;0.21783
7829860;-0.07500;109.2500;107;62;0.20781
7829870;-0.07500;108.8750;107;62;0.20488
7829880;-0.07500;108.8750;107;62;0.20488
7829890;-0.07500;107.0000;107;62;0.20684
7829900;-0.07500;106.0000;107;62;0.21319
7829910;-0.07500;106.0000;107;62;0.21319
7829920;-0.07500;104.7500;107;62;0.22344
7829930;-0.07500;103.1250;107;62;0.23736
7829940;-0.07500;98.9375;107;62;0.26911
7829950;-0.06500;96.5000;107;62;0.28913
7829960;-0.06500;92.2500;107;62;0.33382
7829970;-0.06500;90.0000;107;62;0.37875
