RelativeTimeMilliseconds;ECG;ART;ART (Sys);ART (Dia);PPG
8400000;-0.11500;67.0625;110;61;0.37827
8400010;-0.09500;81.2500;110;61;0.36313
8400020;-0.09500;81.2500;110;61;0.36313
8400030;-0.08000;89.1875;110;61;0.35531
8400040;-0.06500;91.7500;110;61;0.35263
8400050;-0.06500;91.7500;110;61;0.35263
8400060;-0.03000;96.5625;110;61;0.34139
8400070;-0.01500;98.0625;110;61;0.33773
8400080;-0.01500;98.0625;110;61;0.33773
8400090;0.04000;103.2500;110;61;0.32821
8400100;0.07000;104.9375;110;61;0.32527
8400110;0.07000;104.9375;110;61;0.32527
8400120;0.09500;106.5625;110;61;0.32234
8400130;0.13000;108.0000;110;61;0.31966
8400140;0.15000;110.4375;110;61;0.31600
8400150;0.12000;112.1250;110;61;0.31453
8400160;0.12000;112.1250;110;61;0.31453
8400170;0.07500;112.8125;110;61;0.31331
8400180;-0.01500;114.0000;110;61;0.30965
8400190;-0.01500;114.0000;110;61;0.30965
8400200;-0.04500;114.1875;110;61;0.30842
8400210;-0.08000;113.9375;110;61;0.30525
8400220;-0.08000;113.9375;110;61;0.30525
8400230;-0.08000;113.6250;110;61;0.30476
8400240;-0.08500;113.2500;110;61;0.30525
8400250;-0.08500;112.7500;110;61;0.30720
8400260;-0.08500;111.3125;110;61;0.31526
8400270;-0.08500;110.3125;110;61;0.32332
8400280;-0.08500;109.1250;110;61;0.33480
8400290;-0.09000;107.6875;110;61;0.34945
8400300;-0.09000;103.7500;110;61;0.38803
8400310;-0.09000;101.2500;110;61;0.41050
8400320;-0.09000;98.6250;110;61;0.43419
8400330;-0.08500;96.2500;110;61;0.45788
8400340;-0.09000;93.0000;110;61;0.50159
8400350;-0.09500;92.1250;110;61;0.51966
8400360;-0.09000;91.5625;110;61;0.53919
8400370;-0.08500;91.1250;110;61;0.55897
8400380;-0.07500;89.6250;110;61;0.61661
8400390;-0.07500;89.6250;110;61;0.61661
8400400;-0.07500;88.9375;110;61;0.63468
8400410;-0.06500;86.8750;110;61;0.68352
8400420;-0.06000;86.1875;110;61;0.69792
8400430;-0.06000;86.1875;110;61;0.69792
8400440;-0.05500;84.8750;110;61;0.71746
8400450;-0.05500;84.8750;110;61;0.71746
8400460;-0.06000;83.7500;110;61;0.73675
8400470;-0.06000;82.7500;110;61;0.75385
8400480;-0.06000;82.7500;110;61;0.75385
8400490;-0.06000;81.3125;110;61;0.77216
8400500;-0.06000;81.3125;110;61;0.77216
8400510;-0.06000;80.3750;110;61;0.76044
8400520;-0.06500;79.9375;110;61;0.75629
8400530;-0.06500;79.9375;110;61;0.75629
8400540;-0.06500;78.4375;110;61;0.74505
8400550;-0.06500;78.4375;110;61;0.74505
8400560;-0.06500;78.0000;110;61;0.74066
8400570;-0.06500;76.6250;110;61;0.71990
8400580;-0.06500;76.6250;110;61;0.71990
8400590;-0.04000;75.6875;110;61;0.69915
8400600;-0.04000;75.6875;110;61;0.69915
8400610;-0.03000;75.2500;110;61;0.68742
8400620;-0.04500;73.9375;110;61;0.65055
8400630;-0.04500;73.9375;110;61;0.65055
8400640;-0.05000;73.5000;110;61;0.63907
8400650;-0.08000;72.1250;110;61;0.60513
8400660;-0.08000;72.1250;110;61;0.60513
8400670;-0.08500;71.3125;110;61;0.58291
8400680;-0.08500;71.3125;110;61;0.58291
8400690;-0.08000;70.8750;110;61;0.57216
8400700;-0.09500;69.7500;110;61;0.54090
8400710;0.08500;69.3750;110;61;0.53089
8400720;0.51000;69.0000;110;61;0.52088
8400730;0.51000;69.0000;110;61;0.52088
8400740;1.00500;67.8750;110;61;0.49646
8400750;0.57500;67.5000;110;61;0.48840
8400760;0.57500;67.5000;110;61;0.48840
8400770;0.13000;67.1250;110;61;0.48059
8400780;-0.05000;66.3750;110;61;0.46545
8400790;-0.11500;66.0000;110;61;0.45812
8400800;-0.14500;65.6875;110;61;0.45104
8400810;-0.15500;64.6875;110;61;0.43126
8400820;-0.15500;64.6875;110;61;0.43126
8400830;-0.15500;64.3750;110;61;0.42515
8400840;-0.15500;63.8125;110;61;0.41563
8400850;-0.15500;63.1875;110;61;0.40488
8400860;-0.15500;63.1875;110;61;0.40488
8400870;-0.15000;62.8125;110;61;0.39927
8400880;-0.14500;62.4375;110;61;0.39341
8400890;-0.14500;61.8750;110;61;0.37607
8400900;-0.14500;61.8750;110;61;0.37607
8400910;-0.14000;62.1250;110;61;0.37021
8400920;-0.12500;65.1250;110;61;0.35873
8400930;-0.12500;65.1250;110;61;0.35873
8400940;-0.12500;73.0625;110;61;0.35043
8400950;-0.10000;82.9375;110;61;0.34115
8400960;-0.10000;82.9375;110;61;0.34115
8400970;-0.07500;91.7500;110;61;0.32674
8400980;-0.07500;91.7500;110;61;0.32674
8400990;-0.04500;94.7500;110;61;0.31746
8401000;-0.02000;96.1250;110;61;0.31306
8401010;-0.02000;96.1250;110;61;0.31306
8401020;0.03000;101.2500;110;61;0.30012
8401030;0.06000;103.0000;110;61;0.29719
8401040;0.06000;103.0000;110;61;0.29719
8401050;0.12000;107.3125;110;61;0.28889
8401060;0.14500;108.4375;110;61;0.28571
8401070;0.14500;108.4375;110;61;0.28571
8401080;0.13000;110.2500;110;61;0.27937
8401090;0.08500;111.5000;110;61;0.27350
8401100;0.08500;111.5000;110;61;0.27350
8401110;0.03000;111.9375;110;61;0.27057
8401120;-0.01000;112.1875;110;61;0.26789
8401130;-0.06500;112.3750;110;61;0.26252
8401140;-0.07500;112.1875;110;61;0.26056
8401150;-0.07500;112.1875;110;61;0.26056
8401160;-0.08500;111.6250;110;61;0.25690
8401170;-0.08500;111.6250;110;61;0.25690
8401180;-0.08500;109.8125;110;61;0.25910
8401190;-0.09500;108.9375;110;61;0.26471
8401200;-0.09500;108.9375;110;61;0.26471
8401210;-0.09500;104.5625;110;61;0.30256
8401220;-0.09500;104.5625;110;61;0.30256
8401230;-0.09000;102.4375;110;61;0.32137
8401240;-0.09500;97.3750;110;61;0.35751
8401250;-0.09500;97.3750;110;61;0.35751
8401260;-0.09500;92.8125;110;61;0.40000
8401270;-0.09000;91.2500;110;61;0.42173
8401280;-0.09000;90.1875;110;61;0.44322
8401290;-0.09500;89.4375;110;61;0.46398
8401300;-0.09500;88.3125;110;61;0.50330
8401310;-0.09000;87.8125;110;61;0.52186
8401320;-0.08500;86.6250;110;61;0.55678
8401330;-0.08500;85.1875;110;61;0.58266
8401340;-0.08000;84.5000;110;61;0.59585
8401350;-0.08000;84.5000;110;61;0.59585
8401360;-0.08000;83.8125;110;61;0.60904
8401370;-0.07500;81.8125;110;61;0.64420
8401380;-0.07500;81.8125;110;61;0.64420
8401390;-0.07500;81.2500;110;61;0.65446
8401400;-0.07000;80.7500;110;61;0.66349
8401410;-0.07000;80.2500;110;61;0.67155
8401420;-0.06500;78.8750;110;61;0.68913
8401430;-0.06500;78.8750;110;61;0.68913
8401440;-0.06500;77.7500;110;61;0.69255
8401450;-0.06500;77.7500;110;61;0.69255
8401460;-0.06500;76.6875;110;61;0.69353
8401470;-0.06500;75.6875;110;61;0.69011
8401480;-0.06500;75.6875;110;61;0.69011
8401490;-0.06500;75.1875;110;61;0.68596
8401500;-0.05500;74.2500;110;61;0.67326
8401510;-0.04500;73.8125;110;61;0.66447
8401520;-0.03500;73.3750;110;61;0.65446
8401530;-0.03000;72.0625;110;61;0.62051
8401540;-0.03000;72.0625;110;61;0.62051
8401550;-0.04500;71.5625;110;61;0.60781
8401560;-0.06500;70.6875;110;61;0.58169
8401570;-0.06500;70.6875;110;61;0.58169
8401580;-0.08500;69.7500;110;61;0.55629
8401590;-0.09500;69.3750;110;61;0.54383
8401600;-0.08500;68.9375;110;61;0.53187
8401610;-0.08500;68.5625;110;61;0.52015
8401620;-0.11500;67.7500;110;61;0.49744
8401630;-0.07000;67.3750;110;61;0.48620
8401640;0.23000;67.0000;110;61;0.47643
8401650;0.73500;66.6250;110;61;0.46764
8401660;1.03500;65.9375;110;61;0.44884
8401670;0.79500;65.5625;110;61;0.43980
8401680;0.29000;65.3125;110;61;0.43077
8401690;-0.02000;65.0000;110;61;0.42198
8401700;-0.16000;64.0000;110;61;0.39683
8401710;-0.16000;64.0000;110;61;0.39683
8401720;-0.18000;63.3750;110;61;0.38046
8401730;-0.18000;63.3750;110;61;0.38046
8401740;-0.18000;62.5000;110;61;0.36142
8401750;-0.18000;62.5000;110;61;0.36142
8401760;-0.18000;61.8125;110;61;0.34774
8401770;-0.18000;61.8125;110;61;0.34774
8401780;-0.17500;60.7500;110;61;0.32772
8401790;-0.17500;60.7500;110;61;0.32772
8401800;-0.17000;60.4375;110;61;0.32161
8401810;-0.16000;59.8750;110;61;0.30403
8401820;-0.15500;59.9375;110;61;0.29841
8401830;-0.15500;59.9375;110;61;0.29841
8401840;-0.14500;61.6250;110;61;0.29035
8401850;-0.13000;67.6250;110;61;0.28083
8401860;-0.13000;67.6250;110;61;0.28083
8401870;-0.12000;72.1250;110;61;0.27570
8401880;-0.11000;76.8750;110;61;0.27057
8401890;-0.09500;81.1250;110;61;0.26545
8401900;-0.06500;88.8125;110;61;0.25153
8401910;-0.06500;88.8125;110;61;0.25153
8401920;-0.02500;91.1250;110;61;0.24322
8401930;0.00500;93.5000;110;61;0.23810
8401940;0.00500;93.5000;110;61;0.23810
8401950;0.06000;96.3125;110;61;0.23150
8401960;0.08500;97.7500;110;61;0.22808
8401970;0.08500;97.7500;110;61;0.22808
8401980;0.11500;100.2500;110;61;0.22149
8401990;0.13000;101.2500;110;61;0.21832
8402000;0.12000;102.0625;109;61;0.21538
8402010;0.07500;102.6250;109;61;0.21270
8402020;0.02000;103.5000;109;61;0.20733
8402030;-0.03000;103.7500;109;61;0.20464
8402040;-0.06500;103.8750;109;61;0.20317
8402050;-0.09000;103.8750;109;61;0.20244
8402060;-0.10500;103.6250;109;61;0.19902
8402070;-0.11500;103.3750;109;61;0.19683
8402080;-0.11500;102.9375;109;61;0.19463
8402090;-0.12500;102.3750;109;61;0.19243
8402100;-0.13500;100.8125;109;61;0.19072
8402110;-0.13000;98.1875;109;61;0.19634
8402120;-0.13000;98.1875;109;61;0.19634
8402130;-0.12500;96.3750;109;61;0.20391
8402140;-0.12000;91.7500;109;61;0.22589
8402150;-0.12000;87.5625;109;61;0.26105
8402160;-0.11500;86.1875;109;61;0.28254
8402170;-0.11000;84.8750;109;61;0.32845
8402180;-0.10500;84.4375;109;61;0.35165
8402190;-0.10000;84.0625;109;61;0.37460
8402200;-0.10000;84.0625;109;61;0.37460
8402210;-0.10000;82.4375;109;61;0.43883
8402220;-0.10000;81.7500;109;61;0.45861
8402230;-0.10000;81.7500;109;61;0.45861
8402240;-0.10000;81.1250;109;61;0.47497
8402250;-0.09500;79.2500;109;61;0.52112
8402260;-0.09500;79.2500;109;61;0.52112
8402270;-0.09500;78.6875;109;61;0.53651
8402280;-0.09000;78.1875;109;61;0.55140
8402290;-0.09500;77.6250;109;61;0.56557
8402300;-0.09000;76.1875;109;61;0.60147
8402310;-0.09000;76.1875;109;61;0.60147
8402320;-0.08500;75.7500;109;61;0.61099
8402330;-0.08500;75.2500;109;61;0.61954
8402340;-0.08000;74.3125;109;61;0.62979
8402350;-0.08000;73.8750;109;61;0.63419
8402360;-0.08000;73.4375;109;61;0.63810
8402370;-0.08000;73.0000;109;61;0.64103
8402380;-0.08500;72.1250;109;61;0.64249
8402390;-0.08500;71.6875;109;61;0.64103
8402400;-0.08500;71.2500;109;61;0.63785
8402410;-0.07500;70.8125;109;61;0.63272
8402420;-0.05000;69.5000;109;61;0.60977
8402430;-0.05000;69.5000;109;61;0.60977
8402440;-0.04000;69.0625;109;61;0.60098
8402450;-0.05000;67.8125;109;61;0.57118
8402460;-0.06000;67.4375;109;61;0.56117
8402470;-0.06000;67.4375;109;61;0.56117
8402480;-0.09500;66.6250;109;61;0.54164
8402490;-0.09500;66.6250;109;61;0.54164
8402500;-0.10500;65.8750;109;61;0.52186
8402510;-0.09500;65.5000;109;61;0.51209
8402520;-0.08500;65.1250;109;61;0.50208
8402530;-0.10500;64.8125;109;61;0.49231
8402540;0.11000;63.7500;109;61;0.46764
8402550;0.11000;63.7500;109;61;0.46764
8402560;0.58000;63.4375;109;61;0.46740
8402570;1.00500;63.1250;109;61;0.47131
8402580;0.99000;62.6250;109;61;0.46545
8402590;0.07000;62.1250;109;61;0.45348
8402600;0.07000;62.1250;109;61;0.45348
8402610;-0.12500;61.3750;109;61;0.43468
8402620;-0.15000;61.1250;109;61;0.42979
8402630;-0.15000;61.1250;109;61;0.42979
8402640;-0.16000;60.6250;109;61;0.42051
8402650;-0.16000;60.1875;109;61;0.40977
8402660;-0.16000;60.1875;109;61;0.40977
8402670;-0.15500;59.7500;109;61;0.39878
8402680;-0.15500;59.5000;109;61;0.39316
8402690;-0.15500;59.5000;109;61;0.39316
8402700;-0.14500;58.4375;109;61;0.37705
8402710;-0.14500;58.1875;109;61;0.37192
8402720;-0.14500;58.1875;109;61;0.37192
8402730;-0.13500;58.2500;109;61;0.36020
8402740;-0.13500;58.2500;109;61;0.36020
8402750;-0.13000;59.0625;109;61;0.35604
8402760;-0.12500;60.8125;109;61;0.35165
8402770;-0.12000;63.8125;109;61;0.34725
8402780;-0.10000;77.6875;109;61;0.33382
8402790;-0.10000;77.6875;109;61;0.33382
8402800;-0.07500;84.9375;109;61;0.32527
8402810;-0.07500;84.9375;109;61;0.32527
8402820;-0.06500;88.9375;109;61;0.31770
8402830;-0.01500;91.3125;109;61;0.31306
8402840;0.00000;92.6250;109;61;0.31038
8402850;0.00000;92.6250;109;61;0.31038
8402860;0.03000;95.6250;109;61;0.30379
8402870;0.06000;97.2500;109;61;0.30085
8402880;0.08500;98.8125;109;61;0.29792
8402890;0.11000;100.2500;109;61;0.29524
8402900;0.13000;102.6250;109;61;0.29035
8402910;0.13000;103.5000;109;61;0.28791
8402920;0.10000;104.1250;109;61;0.28571
8402930;0.00000;105.3750;109;61;0.28156
8402940;-0.03500;105.5625;109;61;0.28010
8402950;-0.03500;105.5625;109;61;0.28010
8402960;-0.08500;105.6875;109;61;0.27643
8402970;-0.08500;105.6875;109;61;0.27643
8402980;-0.09500;105.3750;109;61;0.27179
8402990;-0.09500;105.0625;109;61;0.26984
8403000;-0.10000;104.6250;109;61;0.26813
8403010;-0.10500;103.3125;109;61;0.26691
8403020;-0.10500;102.3750;109;61;0.26984
8403030;-0.10500;101.1875;109;61;0.27424
8403040;-0.10000;99.6250;109;61;0.28107
8403050;-0.10000;97.6875;109;61;0.29109
8403060;-0.09500;92.9375;109;61;0.32088
8403070;-0.10000;88.6250;109;61;0.36068
8403080;-0.10000;88.6250;109;61;0.36068
8403090;-0.10000;87.2500;109;61;0.38217
8403100;-0.09500;85.9375;109;61;0.42540
8403110;-0.08500;85.5000;109;61;0.44615
8403120;-0.08500;85.0625;109;61;0.46618
8403130;-0.08500;84.5625;109;61;0.48571
8403140;-0.07500;82.7500;109;61;0.53284
8403150;-0.07500;82.0625;109;61;0.54921
8403160;-0.07500;81.3750;109;61;0.56532
8403170;-0.07500;81.3750;109;61;0.56532
8403180;-0.07500;79.6250;109;61;0.60952
8403190;-0.07500;79.1250;109;61;0.62271
8403200;-0.07500;78.6250;109;61;0.63492
8403210;-0.07500;77.6875;109;61;0.65665
8403220;-0.07500;77.6875;109;61;0.65665
8403230;-0.07000;76.7500;109;61;0.67009
8403240;-0.07000;76.2500;109;61;0.67643
8403250;-0.07000;76.2500;109;61;0.67643
8403260;-0.06500;74.9375;109;61;0.69206
8403270;-0.06500;74.9375;109;61;0.69206
8403280;-0.06500;74.5000;109;61;0.69548
8403290;-0.05000;73.2500;109;61;0.69792
8403300;-0.04500;72.8125;109;61;0.69597
8403310;-0.04500;72.8125;109;61;0.69597
8403320;-0.03500;72.3750;109;61;0.69255
8403330;-0.00500;71.1875;109;61;0.67375
8403340;-0.00500;71.1875;109;61;0.67375
8403350;0.00500;70.3750;109;61;0.65665
8403360;0.00500;70.3750;109;61;0.65665
8403370;-0.01500;69.1250;109;61;0.62784
8403380;-0.01500;69.1250;109;61;0.62784
8403390;-0.03500;68.3750;109;61;0.60904
8403400;-0.03500;68.3750;109;61;0.60904
8403410;-0.06000;68.0000;109;61;0.59976
8403420;-0.05000;66.8750;109;61;0.57363
8403430;-0.05000;66.8750;109;61;0.57363
8403440;-0.07500;66.1875;109;61;0.55751
8403450;-0.07500;66.1875;109;61;0.55751
8403460;0.32500;65.1875;109;61;0.53236
8403470;0.32500;65.1875;109;61;0.53236
8403480;0.84000;64.8750;109;61;0.52430
8403490;0.82500;63.9375;109;61;0.50159
8403500;0.82500;63.9375;109;61;0.50159
8403510;0.30500;63.6875;109;61;0.49451
8403520;-0.08000;63.1875;109;61;0.48107
8403530;-0.08000;63.1875;109;61;0.48107
8403540;-0.11500;62.6875;109;61;0.47009
8403550;-0.13500;62.4375;109;61;0.46422
8403560;-0.14000;62.1875;109;61;0.45812
8403570;-0.14000;61.9375;109;61;0.45177
8403580;-0.14000;61.1250;109;61;0.43394
8403590;-0.14000;61.1250;109;61;0.43394
8403600;-0.14500;60.5000;109;61;0.42271
8403610;-0.14000;59.7500;109;61;0.41221
8403620;-0.14000;59.7500;109;61;0.41221
8403630;-0.13000;59.3125;109;61;0.40391
8403640;-0.12500;59.2500;109;61;0.39902
8403650;-0.11500;60.0000;109;61;0.38852
8403660;-0.11000;61.5000;109;61;0.38315
8403670;-0.11000;61.5000;109;61;0.38315
8403680;-0.10500;68.2500;109;61;0.37338
8403690;-0.09500;78.0625;109;61;0.36484
8403700;-0.09500;78.0625;109;61;0.36484
8403710;-0.07500;85.8125;109;61;0.35678
8403720;-0.06000;88.3750;109;61;0.35263
8403730;-0.06000;88.3750;109;61;0.35263
8403740;-0.02500;92.5625;109;61;0.34457
8403750;-0.02500;92.5625;109;61;0.34457
8403760;0.00000;93.8125;109;61;0.34115
8403770;0.04500;98.6875;109;61;0.33040
8403780;0.04500;98.6875;109;61;0.33040
8403790;0.07500;100.3125;109;61;0.32698
8403800;0.11000;101.8750;109;61;0.32357
8403810;0.14000;103.2500;109;61;0.32039
8403820;0.15500;105.3750;109;61;0.31477
8403830;0.10000;106.7500;109;61;0.31184
8403840;0.04500;107.1875;109;61;0.30989
8403850;0.04500;107.1875;109;61;0.30989
8403860;-0.04000;107.7500;109;61;0.30281
8403870;-0.04000;107.7500;109;61;0.30281
8403880;-0.08500;107.6875;109;61;0.29841
8403890;-0.09500;107.1875;109;61;0.29402
8403900;-0.09500;107.1875;109;61;0.29402
8403910;-0.10000;106.2500;109;61;0.29084
8403920;-0.10500;105.5625;109;61;0.29084
8403930;-0.10500;105.5625;109;61;0.29084
8403940;-0.10000;102.3750;109;61;0.30208
8403950;-0.10000;102.3750;109;61;0.30208
8403960;-0.10500;98.7500;109;61;0.32332
8403970;-0.10500;94.0000;109;61;0.35653
8403980;-0.10500;94.0000;109;61;0.35653
8403990;-0.10500;89.6875;109;61;0.39731
8404000;-0.10000;88.3750;110;61;0.41856
8404010;-0.10000;88.3750;110;61;0.41856
8404020;-0.09500;86.4375;110;61;0.47619
8404030;-0.09500;86.0000;110;61;0.49158
8404040;-0.09500;86.0000;110;61;0.49158
8404050;-0.09000;85.4375;110;61;0.50794
8404060;-0.08500;84.1875;110;61;0.54139
8404070;-0.08500;83.5625;110;61;0.55751
8404080;-0.08000;82.2500;110;61;0.58828
8404090;-0.08000;82.2500;110;61;0.58828
8404100;-0.08000;81.0000;110;61;0.61685
8404110;-0.07500;80.4375;110;61;0.64200
8404120;-0.07500;79.8750;110;61;0.64200
8404130;-0.07500;79.3750;110;61;0.65104
8404140;-0.07000;78.4375;110;61;0.66618
8404150;-0.07000;78.0625;110;61;0.67375
8404160;-0.07000;77.6250;110;61;0.68083
8404170;-0.07000;77.1875;110;61;0.68718
8404180;-0.06500;76.3750;110;61;0.69719
8404190;-0.07000;75.9375;110;61;0.70061
8404200;-0.06500;75.0625;110;61;0.70403
8404210;-0.06500;75.0625;110;61;0.70403
8404220;-0.06000;74.1875;110;61;0.70208
8404230;-0.04500;73.3125;110;61;0.69451
8404240;-0.04500;73.3125;110;61;0.69451
8404250;-0.03500;72.8750;110;61;0.68889
8404260;-0.01500;71.5000;110;61;0.66545
8404270;-0.01500;71.5000;110;61;0.66545
8404280;-0.01500;71.1250;110;61;0.65592
8404290;-0.02500;70.6875;110;61;0.64615
8404300;-0.03500;69.5000;110;61;0.61636
8404310;-0.03500;69.5000;110;61;0.61636
8404320;-0.06500;68.6875;110;61;0.59756
8404330;-0.06500;67.9375;110;61;0.58071
8404340;-0.06500;67.9375;110;61;0.58071
8404350;-0.06500;67.1875;110;61;0.56288
8404360;-0.08000;66.8125;110;61;0.55409
8404370;-0.08000;66.8125;110;61;0.55409
8404380;0.43000;65.8125;110;61;0.52845
8404390;0.43000;65.8125;110;61;0.52845
8404400;0.92500;65.4375;110;61;0.52015
8404410;1.07500;65.1250;110;61;0.51209
8404420;0.21000;64.1875;110;61;0.49035
8404430;0.21000;64.1875;110;61;0.49035
8404440;-0.09000;63.6250;110;61;0.47839
8404450;-0.12500;63.1250;110;61;0.46569
8404460;-0.12500;63.1250;110;61;0.46569
8404470;-0.14500;62.6250;110;61;0.45348
8404480;-0.14500;62.6250;110;61;0.45348
8404490;-0.14500;61.8750;110;61;0.43565
8404500;-0.14500;61.6250;110;61;0.43004
8404510;-0.14500;61.6250;110;61;0.43004
8404520;-0.14500;61.2500;110;61;0.42442
8404530;-0.14500;60.8750;110;61;0.41978
8404540;-0.14500;60.1875;110;61;0.41074
8404550;-0.14500;59.9375;110;61;0.40562
8404560;-0.14000;59.7500;110;61;0.40049
8404570;-0.13000;60.8125;110;61;0.38486
8404580;-0.13000;60.8125;110;61;0.38486
8404590;-0.11500;65.7500;110;61;0.37460
8404600;-0.11500;65.7500;110;61;0.37460
8404610;-0.11000;70.0000;110;61;0.36923
8404620;-0.10500;79.4375;110;61;0.35849
8404630;-0.09500;83.3125;110;61;0.35482
8404640;-0.07500;86.3125;110;61;0.35189
8404650;-0.06500;88.4375;110;61;0.34823
8404660;-0.05000;91.1875;110;61;0.33968
8404670;0.00000;93.8750;110;61;0.33089
8404680;0.00000;93.8750;110;61;0.33089
8404690;0.06000;98.9375;110;61;0.31893
8404700;0.09000;100.6250;110;61;0.31551
8404710;0.09000;100.6250;110;61;0.31551
8404720;0.14500;103.5625;110;61;0.30989
8404730;0.16000;105.6875;110;61;0.30623
8404740;0.16000;105.6875;110;61;0.30623
8404750;0.10000;107.0625;110;61;0.30110
8404760;0.05000;107.5000;110;61;0.29841
8404770;0.05000;107.5000;110;61;0.29841
8404780;0.00000;108.0625;110;61;0.29328
8404790;-0.03500;108.1875;110;61;0.29084
8404800;-0.05500;108.2500;110;61;0.28840
8404810;-0.07500;107.5625;110;61;0.28156
8404820;-0.07500;107.1250;110;61;0.28059
8404830;-0.07500;107.1250;110;61;0.28059
8404840;-0.07500;106.6250;110;61;0.28059
8404850;-0.07500;106.0000;110;61;0.28107
8404860;-0.07500;104.1250;110;61;0.28767
8404870;-0.07500;101.0625;110;61;0.30647
8404880;-0.07500;99.0000;110;61;0.32137
8404890;-0.07500;99.0000;110;61;0.32137
8404900;-0.07000;91.7500;110;61;0.38217
8404910;-0.07000;89.9375;110;61;0.40513
8404920;-0.06500;88.6875;110;61;0.42564
8404930;-0.06500;88.6875;110;61;0.42564
8404940;-0.06500;87.3750;110;61;0.46471
8404950;-0.06500;86.9375;110;61;0.48523
8404960;-0.06000;86.5000;110;61;0.50574
8404970;-0.05500;84.7500;110;61;0.56508
8404980;-0.05500;84.1250;110;61;0.58339
8404990;-0.05500;83.4375;110;61;0.60098
8405000;-0.05500;83.4375;110;61;0.60098
8405010;-0.04500;81.4375;110;61;0.64786
8405020;-0.04500;81.4375;110;61;0.64786
8405030;-0.04500;80.8750;110;61;0.65934
8405040;-0.04500;79.8125;110;61;0.67961
8405050;-0.04500;78.8750;110;61;0.70037
8405060;-0.04500;78.8750;110;61;0.70037
8405070;-0.04500;78.0000;110;61;0.71795
8405080;-0.04500;78.0000;110;61;0.71795
8405090;-0.04500;77.1875;110;61;0.73138
8405100;-0.04000;76.3125;110;61;0.74042
8405110;-0.04000;76.3125;110;61;0.74042
8405120;-0.03500;75.5000;110;61;0.74359
8405130;-0.04000;74.6875;110;61;0.74066
8405140;-0.03500;74.2500;110;61;0.73773
8405150;-0.02500;73.8750;110;61;0.73333
8405160;-0.01000;73.4375;110;61;0.72747
8405170;-0.00500;72.6250;110;61;0.71136
8405180;-0.00500;72.6250;110;61;0.71136
8405190;0.00000;72.1875;110;61;0.70134
8405200;-0.00500;71.7500;110;61;0.69060
8405210;-0.02000;71.3750;110;61;0.67937
8405220;-0.03500;70.1875;110;61;0.64640
8405230;-0.03500;70.1875;110;61;0.64640
8405240;-0.06500;69.4375;110;61;0.62637
8405250;-0.06000;68.6875;110;61;0.60537
8405260;-0.06000;68.6875;110;61;0.60537
8405270;-0.07500;67.9375;110;61;0.58462
8405280;-0.06000;67.6250;110;61;0.57460
8405290;-0.06000;67.6250;110;61;0.57460
8405300;0.15500;67.0000;110;61;0.55531
8405310;1.05000;66.3750;110;61;0.53700
8405320;1.05000;66.3750;110;61;0.53700
8405330;0.98000;66.0625;110;61;0.52918
8405340;0.09000;65.2500;110;61;0.50696
8405350;0.09000;65.2500;110;61;0.50696
8405360;-0.05500;64.7500;110;61;0.49206
8405370;-0.11000;64.7500;110;61;0.49206
8405380;-0.15000;64.0000;110;61;0.47057
8405390;-0.15000;64.0000;110;61;0.47057
8405400;-0.15500;63.7500;110;61;0.46374
8405410;-0.15500;63.1250;110;61;0.44420
8405420;-0.15500;63.1250;110;61;0.44420
8405430;-0.15500;62.8125;110;61;0.43907
8405440;-0.15000;62.5625;110;61;0.43443
8405450;-0.15000;62.2500;110;61;0.42906
8405460;-0.14500;61.5625;110;61;0.41148
8405470;-0.14500;61.5625;110;61;0.40537
8405480;-0.14500;61.5625;110;61;0.40537
8405490;-0.14000;61.8125;110;61;0.39951
8405500;-0.13500;64.5000;110;61;0.38803
8405510;-0.13500;67.6875;110;61;0.38266
8405520;-0.12500;77.0625;110;61;0.37314
8405530;-0.11500;86.0000;110;61;0.36557
8405540;-0.11500;86.0000;110;61;0.36557
8405550;-0.10500;89.1875;110;61;0.36142
8405560;-0.08500;91.4375;110;61;0.35702
8405570;-0.06000;95.7500;110;61;0.34457
8405580;-0.06000;95.7500;110;61;0.34457
8405590;-0.01500;98.7500;110;61;0.33675
8405600;-0.01500;98.7500;110;61;0.33675
8405610;0.00000;100.4375;110;61;0.33309
8405620;0.06000;105.3750;110;61;0.32405
8405630;0.06000;105.3750;110;61;0.32405
8405640;0.11000;107.9375;110;61;0.32088
8405650;0.11000;107.9375;110;61;0.32088
8405660;0.11000;109.7500;110;61;0.31624
8405670;0.02500;110.8750;110;61;0.31184
8405680;0.02500;110.8750;110;61;0.31184
8405690;-0.02500;111.1875;110;61;0.31013
8405700;-0.06500;111.6250;110;61;0.30720
8405710;-0.09500;111.6875;110;61;0.30598
8405720;-0.10500;111.6875;110;61;0.30476
8405730;-0.11500;111.5625;110;61;0.30427
8405740;-0.11500;111.0000;110;61;0.30354
8405750;-0.11500;110.0000;110;61;0.30403
8405760;-0.11500;110.0000;110;61;0.30403
8405770;-0.11500;109.3125;110;61;0.30647
8405780;-0.11500;106.1875;110;61;0.33138
8405790;-0.11500;104.5625;110;61;0.34652
8405800;-0.11500;104.5625;110;61;0.34652
8405810;-0.11500;102.5625;110;61;0.36459
8405820;-0.11500;97.6250;110;61;0.40733
8405830;-0.11500;93.2500;110;61;0.44713
8405840;-0.11500;91.9375;110;61;0.46813
8405850;-0.11500;91.9375;110;61;0.46813
8405860;-0.11500;89.8125;110;61;0.53138
8405870;-0.11500;89.3125;110;61;0.55140
8405880;-0.11500;89.3125;110;61;0.55140
8405890;-0.11500;88.7500;110;61;0.57094
8405900;-0.10500;86.8125;110;61;0.62515
8405910;-0.10500;86.8125;110;61;0.62515
8405920;-0.10000;86.1250;110;61;0.64176
8405930;-0.09500;84.1875;110;61;0.67912
8405940;-0.09500;83.5625;110;61;0.69182
8405950;-0.09500;83.5625;110;61;0.69182
8405960;-0.09500;82.4375;110;61;0.71575
8405970;-0.09500;81.3750;110;61;0.73602
8405980;-0.09500;81.3750;110;61;0.73602
8405990;-0.09500;80.5000;110;61;0.75214
8406000;-0.09500;80.0000;109;61;0.75873
8406010;-0.09500;80.0000;109;61;0.75873
8406020;-0.08500;78.6875;109;61;0.76899
8406030;-0.08500;78.6875;109;61;0.76899
8406040;-0.08500;78.1875;109;61;0.77070
8406050;-0.08000;76.8750;109;61;0.77045
8406060;-0.08000;76.8750;109;61;0.77045
8406070;-0.08000;76.4375;109;61;0.76752
8406080;-0.06000;75.6250;109;61;0.75678
8406090;-0.06000;75.6250;109;61;0.75678
8406100;-0.03500;74.3125;109;61;0.72991
8406110;-0.03000;73.8750;109;61;0.71917
8406120;-0.03000;73.8750;109;61;0.71917
8406130;-0.04000;73.4375;109;61;0.70842
8406140;-0.05000;72.6875;109;61;0.68694
8406150;-0.05500;72.2500;109;61;0.67546
8406160;-0.06500;71.8750;109;61;0.66422
8406170;-0.08500;71.5000;109;61;0.65324
8406180;-0.08500;70.7500;109;61;0.63175
8406190;-0.08000;70.0625;109;61;0.61099
8406200;-0.09500;69.7500;109;61;0.60073
8406210;-0.09500;69.7500;109;61;0.60073
8406220;0.21500;68.8125;109;61;0.57363
8406230;0.69500;68.5000;109;61;0.56508
8406240;0.69500;68.5000;109;61;0.56508
8406250;0.85500;67.7500;109;61;0.53944
8406260;0.36500;67.5000;109;61;0.53138
8406270;0.36500;67.5000;109;61;0.53138
8406280;-0.09500;67.0625;109;61;0.51551
8406290;-0.13500;66.5625;109;61;0.50012
8406300;-0.13500;66.5625;109;61;0.50012
8406310;-0.17000;66.1250;109;61;0.48523
8406320;-0.17000;66.1250;109;61;0.48523
8406330;-0.17000;65.8750;109;61;0.47937
8406340;-0.17000;65.1875;109;61;0.46252
8406350;-0.17000;65.1875;109;61;0.46252
8406360;-0.17000;64.8750;109;61;0.45641
8406370;-0.16500;64.1250;109;61;0.43883
8406380;-0.16500;64.1250;109;61;0.43883
8406390;-0.16000;63.9375;109;61;0.43321
8406400;-0.16000;63.9375;109;61;0.42759
8406410;-0.15500;66.0625;109;61;0.41172
8406420;-0.15500;66.0625;109;61;0.41172
8406430;-0.14000;72.6250;109;61;0.40317
8406440;-0.14000;72.6250;109;61;0.40317
8406450;-0.12500;86.9375;109;61;0.38877
8406460;-0.11500;90.5000;109;61;0.38462
8406470;-0.11500;90.5000;109;61;0.38462
8406480;-0.09500;95.0625;109;61;0.37680
8406490;-0.07500;97.8125;109;61;0.36972
8406500;-0.07500;97.8125;109;61;0.36972
8406510;-0.04500;100.7500;109;61;0.36264
8406520;-0.04500;100.7500;109;61;0.36264
8406530;-0.02000;102.5000;109;61;0.36020
8406540;0.00000;107.7500;109;61;0.35531
8406550;0.06000;109.1875;109;61;0.34969
8406560;0.06000;109.1875;109;61;0.34969
8406570;0.11000;112.3125;109;61;0.34212
8406580;0.11000;112.3125;109;61;0.34212
8406590;0.10000;112.9375;109;61;0.33993
8406600;0.06500;113.5000;109;61;0.33797
8406610;0.02000;113.9375;109;61;0.33626
8406620;-0.02500;114.5625;109;61;0.33382
8406630;-0.06500;114.7500;109;61;0.33358
8406640;-0.10500;114.7500;109;61;0.33211
8406650;-0.10500;114.7500;109;61;0.33211
8406660;-0.11000;114.3750;109;61;0.31355
8406670;-0.11500;113.5625;109;61;0.30623
8406680;-0.11500;113.5625;109;61;0.30623
8406690;-0.11500;112.9375;109;61;0.30720
8406700;-0.12000;109.8750;109;61;0.32796
8406710;-0.12000;109.8750;109;61;0.32796
8406720;-0.11500;106.4375;109;61;0.35556
8406730;-0.11500;101.6875;109;61;0.38999
8406740;-0.11500;101.6875;109;61;0.38999
8406750;-0.11500;96.5625;109;61;0.43297
8406760;-0.11000;94.6250;109;61;0.45519
8406770;-0.11000;94.6250;109;61;0.45519
8406780;-0.10500;91.6250;109;61;0.51917
8406790;-0.10500;91.6250;109;61;0.51917
8406800;-0.10000;91.0000;109;61;0.53919
8406810;-0.09500;90.4375;109;61;0.55873
8406820;-0.09500;89.1875;109;61;0.59341
8406830;-0.09000;87.7500;109;61;0.62222
8406840;-0.09000;87.0000;109;61;0.63785
8406850;-0.09000;87.0000;109;61;0.63785
8406860;-0.09000;85.5000;109;61;0.66716
8406870;-0.08500;84.7500;109;61;0.68059
8406880;-0.08500;84.0625;109;61;0.69328
8406890;-0.08500;83.4375;109;61;0.70476
8406900;-0.08000;81.6250;109;61;0.73309
8406910;-0.08000;81.6250;109;61;0.73309
8406920;-0.08000;81.1250;109;61;0.74042
8406930;-0.08000;80.5625;109;61;0.74505
8406940;-0.08000;79.4375;109;61;0.75067
8406950;-0.07500;78.4375;109;61;0.75507
8406960;-0.07500;78.4375;109;61;0.75507
8406970;-0.07000;76.9375;109;61;0.75336
8406980;-0.07000;76.4375;109;61;0.75018
8406990;-0.06500;76.0000;109;61;0.74554
8407000;-0.07000;75.5625;109;61;0.73919
8407010;-0.07000;75.5625;109;61;0.73919
8407020;-0.04500;74.1875;109;61;0.71233
8407030;-0.03500;73.7500;109;61;0.70134
8407040;-0.03500;73.7500;109;61;0.70134
8407050;-0.02500;72.4375;109;61;0.66496
8407060;-0.03500;72.0000;109;61;0.65250
8407070;-0.03500;72.0000;109;61;0.65250
8407080;-0.04500;71.1250;109;61;0.62784
8407090;-0.06500;70.3125;109;61;0.60366
8407100;-0.06500;70.3125;109;61;0.60366
8407110;-0.07500;69.9375;109;61;0.59219
8407120;-0.07500;69.5625;109;61;0.58095
8407130;-0.08000;68.4375;109;61;0.55116
8407140;-0.08000;68.4375;109;61;0.55116
8407150;-0.06000;68.0625;109;61;0.54066
8407160;0.56000;67.3125;109;61;0.51941
8407170;0.99000;66.6875;109;61;0.49915
8407180;0.99000;66.6875;109;61;0.49915
8407190;1.01000;66.3750;109;61;0.48962
8407200;0.55000;66.0000;109;61;0.48034
8407210;0.11500;65.6875;109;61;0.47106
8407220;-0.10500;64.6875;109;61;0.44786
8407230;-0.13500;64.3750;109;61;0.44054
8407240;-0.13500;64.3750;109;61;0.44054
8407250;-0.15000;63.5000;109;61;0.41734
8407260;-0.15000;63.2500;109;61;0.40952
8407270;-0.15000;63.2500;109;61;0.40952
8407280;-0.15500;62.6875;109;61;0.39463
8407290;-0.15500;62.0625;109;61;0.38046
8407300;-0.15500;62.0625;109;61;0.38046
8407310;-0.15500;61.6875;109;61;0.37363
8407320;-0.14500;61.0625;109;61;0.36117
8407330;-0.14500;60.6875;109;61;0.35043
8407340;-0.14500;60.6875;109;61;0.35043
8407350;-0.13500;61.6875;109;61;0.33822
8407360;-0.13500;61.6875;109;61;0.33822
8407370;-0.12500;63.5000;109;61;0.33211
8407380;-0.11500;70.8750;109;61;0.31990
8407390;-0.10500;75.6875;109;61;0.31429
8407400;-0.09500;80.3125;109;61;0.30891
8407410;-0.08000;87.2500;109;61;0.30354
8407420;-0.04500;91.0000;109;61;0.29182
8407430;-0.04500;91.0000;109;61;0.29182
8407440;0.00000;93.6250;109;61;0.28327
8407450;0.02500;96.6875;109;61;0.27375
8407460;0.02500;96.6875;109;61;0.27375
8407470;0.08000;100.0625;109;61;0.26496
8407480;0.11000;101.6250;109;61;0.26105
8407490;0.11000;101.6250;109;61;0.26105
8407500;0.16000;105.3750;109;61;0.25006
8407510;0.16000;106.2500;109;61;0.24664
8407520;0.16000;106.2500;109;61;0.24664
8407530;0.14000;106.9375;109;61;0.24444
8407540;0.09500;107.9375;109;61;0.24078
8407550;-0.00500;108.5000;109;61;0.23565
8407560;-0.00500;108.5000;109;61;0.23565
8407570;-0.05500;108.5625;109;61;0.22735
8407580;-0.05500;108.5625;109;61;0.22735
8407590;-0.08000;108.0625;109;61;0.22198
8407600;-0.08000;107.6250;109;61;0.21954
8407610;-0.08000;107.6250;109;61;0.21954
8407620;-0.08000;106.3750;109;61;0.21807
8407630;-0.08500;104.4375;109;61;0.22369
8407640;-0.08500;104.4375;109;61;0.22369
8407650;-0.08500;99.1875;109;61;0.25299
8407660;-0.08500;96.6875;109;61;0.26911
8407670;-0.08500;96.6875;109;61;0.26911
8407680;-0.08500;91.7500;109;61;0.30891
8407690;-0.08500;88.6875;109;61;0.35360
8407700;-0.08500;88.6875;109;61;0.35360
8407710;-0.07500;87.4375;109;61;0.39805
8407720;-0.07000;87.0000;109;61;0.41685
8407730;-0.07000;87.0000;109;61;0.41685
8407740;-0.06500;85.5625;109;61;0.47082
8407750;-0.06500;85.5625;109;61;0.47082
8407760;-0.06500;84.9375;109;61;0.48938
8407770;-0.06500;82.9375;109;61;0.54261
8407780;-0.06500;82.9375;109;61;0.54261
8407790;-0.05500;81.7500;109;61;0.57485
8407800;-0.05500;81.1875;109;61;0.58950
8407810;-0.05500;80.1250;109;61;0.61416
8407820;-0.05500;80.1250;109;61;0.61416
8407830;-0.05000;79.6250;109;61;0.62295
8407840;-0.05000;78.6875;109;61;0.64176
8407850;-0.05000;77.8125;109;61;0.65739
8407860;-0.05000;77.8125;109;61;0.65739
8407870;-0.04500;76.9375;109;61;0.66886
8407880;-0.04500;76.9375;109;61;0.66886
8407890;-0.05000;76.5000;109;61;0.67302
8407900;-0.05000;75.0000;109;61;0.67790
8407910;-0.05000;75.0000;109;61;0.67790
8407920;-0.04500;74.0000;109;61;0.67277
8407930;-0.02500;73.0625;109;61;0.66252
8407940;-0.02500;73.0625;109;61;0.66252
8407950;-0.00500;72.1250;109;61;0.64713
8407960;0.00000;71.6250;109;61;0.63785
8407970;0.00000;71.6250;109;61;0.63785
8407980;-0.02000;70.2500;109;61;0.60635
8407990;-0.02000;70.2500;109;61;0.60635
8408000;-0.03500;69.8125;109;61;0.59536
8408010;-0.07500;68.5000;109;61;0.56459
8408020;-0.07500;68.5000;109;61;0.56459
8408030;-0.06500;68.0625;109;61;0.55556
8408040;-0.06000;67.5625;109;61;0.54628
8408050;-0.07500;67.1250;109;61;0.53675
8408060;-0.09500;66.3125;109;61;0.51722
8408070;0.03000;65.9375;109;61;0.50769
8408080;0.45500;65.5000;109;61;0.49841
8408090;0.94000;65.1875;109;61;0.48938
8408100;1.04500;64.5000;109;61;0.47204
8408110;0.65000;64.1250;109;61;0.46398
8408120;-0.04500;63.5625;109;61;0.45104
8408130;-0.04500;63.5625;109;61;0.45104
8408140;-0.11500;63.0000;109;61;0.43712
8408150;-0.14500;62.7500;109;61;0.43028
8408160;-0.15500;62.5000;109;61;0.42344
8408170;-0.16000;62.3125;109;61;0.41685
8408180;-0.16000;61.8125;109;61;0.40317
8408190;-0.16000;61.5625;109;61;0.39658
8408200;-0.15500;61.3125;109;61;0.38999
8408210;-0.15500;61.0625;109;61;0.38364
8408220;-0.15500;60.4375;109;61;0.37265
8408230;-0.15000;59.8750;109;61;0.36313
8408240;-0.14500;59.6875;109;61;0.35775
8408250;-0.14500;59.6875;109;61;0.35775
8408260;-0.14000;60.2500;109;61;0.34017
8408270;-0.13500;61.6250;109;61;0.33431
8408280;-0.13500;61.6250;109;61;0.33431
8408290;-0.12500;64.1250;109;61;0.32821
8408300;-0.11500;77.1250;109;61;0.31136
8408310;-0.11500;77.1250;109;61;0.31136
8408320;-0.09500;84.6250;109;61;0.30452
8408330;-0.08500;88.8750;109;61;0.29597
8408340;-0.06500;90.1875;109;61;0.29109
8408350;-0.04500;91.3750;109;61;0.28645
8408360;-0.04500;91.3750;109;61;0.28645
8408370;-0.02000;92.6250;109;61;0.28181
8408380;0.00000;95.5000;109;61;0.27326
8408390;0.02500;97.0625;109;61;0.26911
8408400;0.05000;98.6250;109;61;0.26496
8408410;0.10500;102.4375;109;61;0.25495
8408420;0.10500;102.4375;109;61;0.25495
8408430;0.11000;103.3125;109;61;0.25348
8408440;0.04000;104.5000;109;61;0.24884
8408450;-0.00500;105.1875;109;61;0.24371
8408460;-0.00500;105.1875;109;61;0.24371
8408470;-0.09000;105.4375;109;61;0.23883
8408480;-0.11500;105.4375;109;61;0.23639
8408490;-0.11500;105.4375;109;61;0.23639
8408500;-0.13500;104.6875;109;61;0.22882
8408510;-0.13500;104.6875;109;61;0.22882
8408520;-0.13500;103.5625;109;61;0.22759
8408530;-0.13500;103.5625;109;61;0.22759
8408540;-0.13500;101.9375;109;61;0.22759
8408550;-0.13500;100.6875;109;61;0.23028
8408560;-0.13500;97.3125;109;61;0.24444
8408570;-0.13500;97.3125;109;61;0.24444
8408580;-0.13000;92.6875;109;61;0.27350
8408590;-0.12500;90.4375;109;61;0.29280
8408600;-0.11500;87.3750;109;61;0.33724
8408610;-0.11500;87.3750;109;61;0.33724
8408620;-0.11000;85.7500;109;61;0.40073
8408630;-0.11000;85.7500;109;61;0.40073
8408640;-0.10500;84.8750;109;61;0.44176
8408650;-0.10500;84.8750;109;61;0.44176
8408660;-0.10500;83.6250;109;61;0.48181
8408670;-0.10500;82.3125;109;61;0.51966
8408680;-0.10000;81.6875;109;61;0.53748
8408690;-0.10000;81.6875;109;61;0.53748
8408700;-0.09000;79.8125;109;61;0.58974
8408710;-0.09000;79.3125;109;61;0.60293
8408720;-0.09000;79.3125;109;61;0.60293
8408730;-0.08500;77.8750;109;61;0.63516
8408740;-0.08500;77.4375;109;61;0.64493
8408750;-0.08500;77.4375;109;61;0.64493
8408760;-0.08500;76.6250;109;61;0.66178
8408770;-0.08500;76.6250;109;61;0.66178
8408780;-0.08500;75.3750;109;61;0.68010
8408790;-0.08500;74.9375;109;61;0.68425
8408800;-0.08500;74.9375;109;61;0.68425
8408810;-0.08500;74.5625;109;61;0.68718
8408820;-0.08000;73.6875;109;61;0.68791
8408830;-0.08000;73.2500;109;61;0.68571
8408840;-0.07000;72.3125;109;61;0.67814
8408850;-0.05500;71.4375;109;61;0.66569
8408860;-0.05500;71.4375;109;61;0.66569
8408870;-0.03500;70.5000;109;61;0.64884
8408880;-0.03500;70.5000;109;61;0.64884
8408890;-0.03500;70.0625;109;61;0.63980
8408900;-0.04500;68.8125;109;61;0.61148
8408910;-0.05500;68.4375;109;61;0.60269
8408920;-0.07500;68.0625;109;61;0.59414
8408930;-0.07500;68.0625;109;61;0.59414
8408940;-0.07500;66.9375;109;61;0.56703
8408950;-0.07000;66.5625;109;61;0.55800
8408960;-0.07000;66.5625;109;61;0.55800
8408970;-0.08000;65.4375;109;61;0.53162
8408980;-0.08000;65.4375;109;61;0.53162
8408990;0.14500;65.0625;109;61;0.52332
8409000;1.05000;64.3750;109;61;0.50745
8409010;1.05000;64.3750;109;61;0.50745
8409020;0.46500;63.5625;109;61;0.48742
8409030;0.46500;63.5625;109;61;0.48742
8409040;0.06500;63.2500;109;61;0.48083
8409050;-0.07500;63.0000;109;61;0.47424
8409060;-0.12000;62.4375;109;61;0.46154
8409070;-0.14000;62.1875;109;61;0.45519
8409080;-0.15000;61.9375;109;61;0.44908
8409090;-0.15000;61.6875;109;61;0.44274
8409100;-0.15000;61.2500;109;61;0.43077
8409110;-0.15000;61.0000;109;61;0.42491
8409120;-0.14500;60.6875;109;61;0.42002
8409130;-0.14500;60.3125;109;61;0.41563
8409140;-0.14000;59.6875;109;61;0.40513
8409150;-0.13500;59.3750;109;61;0.39951
8409160;-0.13500;59.1875;109;61;0.39414
8409170;-0.13000;59.6875;109;61;0.37827
8409180;-0.13000;59.6875;109;61;0.37827
8409190;-0.12000;61.0000;109;61;0.37289
8409200;-0.11500;63.3750;109;61;0.36777
8409210;-0.10500;67.0625;109;61;0.36264
8409220;-0.09500;81.0000;109;61;0.35116
8409230;-0.09500;81.0000;109;61;0.35116
8409240;-0.07000;87.3750;109;61;0.34383
8409250;-0.05500;90.7500;109;61;0.33553
8409260;-0.05500;90.7500;109;61;0.33553
8409270;-0.01500;93.3125;109;61;0.32723
8409280;0.01000;94.7500;109;61;0.32332
8409290;0.01000;94.7500;109;61;0.32332
8409300;0.06500;99.6250;109;61;0.31282
8409310;0.09500;101.1250;109;61;0.31087
8409320;0.09500;101.1250;109;61;0.31087
8409330;0.14500;104.8750;109;61;0.30452
8409340;0.14500;104.8750;109;61;0.30452
8409350;0.10500;106.3750;109;61;0.29988
8409360;0.10500;106.3750;109;61;0.29988
8409370;0.05500;106.8750;109;61;0.29768
8409380;-0.03500;107.5625;109;61;0.29084
8409390;-0.06500;107.6250;109;61;0.28864
8409400;-0.06500;107.6250;109;61;0.28864
8409410;-0.10500;107.0625;109;61;0.28303
8409420;-0.10500;107.0625;109;61;0.28303
8409430;-0.10500;106.1875;109;61;0.28107
8409440;-0.10500;106.1875;109;61;0.28107
8409450;-0.10500;105.5625;109;61;0.28034
8409460;-0.11500;102.4375;109;61;0.28791
8409470;-0.11500;102.4375;109;61;0.28791
8409480;-0.11500;100.8125;109;61;0.29597
8409490;-0.11500;98.8750;109;61;0.30745
8409500;-0.11500;94.0000;109;61;0.33968
8409510;-0.11000;91.5625;109;61;0.35971
8409520;-0.10500;89.6250;109;61;0.37851
8409530;-0.10500;88.3125;109;61;0.39683
8409540;-0.10000;86.5000;109;61;0.45885
8409550;-0.10000;86.5000;109;61;0.45885
8409560;-0.09500;85.5625;109;61;0.49866
8409570;-0.09000;84.4375;109;61;0.53602
8409580;-0.09000;84.4375;109;61;0.53602
8409590;-0.08500;83.7500;109;61;0.55385
8409600;-0.08000;82.3750;109;61;0.58730
8409610;-0.08000;82.3750;109;61;0.58730
8409620;-0.07500;81.1250;109;61;0.61197
8409630;-0.07500;80.0625;109;61;0.63687
8409640;-0.07500;80.0625;109;61;0.63687
8409650;-0.07000;78.5625;109;61;0.67131
8409660;-0.06500;78.1250;109;61;0.68107
8409670;-0.06500;78.1250;109;61;0.68107
8409680;-0.06500;77.1875;109;61;0.69768
8409690;-0.06500;76.3125;109;61;0.71013
8409700;-0.06500;76.3125;109;61;0.71013
8409710;-0.06000;75.8125;109;61;0.71453
8409720;-0.06000;74.9375;109;61;0.71746
8409730;-0.06000;74.9375;109;61;0.71746
8409740;-0.06000;74.0625;109;61;0.71770
8409750;-0.05500;73.1875;109;61;0.71282
8409760;-0.05500;73.1875;109;61;0.71282
8409770;-0.03500;72.7500;109;61;0.70794
8409780;-0.02500;71.9375;109;61;0.69402
8409790;-0.00500;71.5000;109;61;0.68547
8409800;0.00000;71.0625;109;61;0.67595
8409810;0.00000;70.6250;109;61;0.66593
8409820;-0.01500;69.8125;109;61;0.64444
8409830;-0.02000;69.3750;109;61;0.63346
8409840;-0.03500;68.9375;109;61;0.62564
8409850;-0.06500;67.8125;109;61;0.59805
8409860;-0.06500;67.8125;109;61;0.59805
8409870;-0.05500;67.4375;109;61;0.58877
8409880;-0.05500;67.0625;109;61;0.57949
8409890;-0.07500;66.6875;109;61;0.57045
8409900;0.21000;65.6250;109;61;0.54335
8409910;0.21000;65.6250;109;61;0.54335
8409920;1.09500;65.0000;109;61;0.52821
8409930;0.95000;64.4375;109;61;0.51306
8409940;0.95000;64.4375;109;61;0.51306
8409950;0.07000;63.8750;109;61;0.49792
8409960;-0.05500;63.6250;109;61;0.49060
8409970;-0.05500;63.6250;109;61;0.49060
8409980;-0.12500;62.8750;109;61;0.46984
8409990;-0.13500;62.6250;109;61;0.46325
8410000;-0.13500;62.6250;110;61;0.46325
8410010;-0.14000;62.3750;110;61;0.45665
8410020;-0.14000;61.8750;110;61;0.44640
8410030;-0.13500;61.3125;110;61;0.43541
8410040;-0.13500;61.0000;110;61;0.42955
8410050;-0.13500;60.2500;110;61;0.41807
8410060;-0.13500;60.0000;110;61;0.41221
8410070;-0.13500;60.0000;110;61;0.41221
8410080;-0.12500;59.7500;110;61;0.40073
8410090;-0.12500;60.5625;110;61;0.38974
8410100;-0.12500;60.5625;110;61;0.38974
8410110;-0.11500;65.0000;110;61;0.38022
8410120;-0.11500;65.0000;110;61;0.38022
8410130;-0.10500;69.1250;110;61;0.37680
8410140;-0.09000;83.0625;110;61;0.36337
8410150;-0.09000;83.0625;110;61;0.36337
8410160;-0.08000;86.4375;110;61;0.35849
8410170;-0.06500;88.9375;110;61;0.35385
8410180;-0.02500;93.3750;110;61;0.34017
8410190;-0.00500;94.7500;110;61;0.33578
8410200;-0.00500;96.2500;110;61;0.33187
8410210;0.02000;96.2500;110;61;0.33187
8410220;0.04000;99.6875;110;61;0.32674
8410230;0.07000;101.3125;110;61;0.32381
8410240;0.09917;102.8750;110;61;0.32063
8410250;0.12500;104.2500;110;61;0.31746
8410260;0.14500;106.4375;110;61;0.31160
8410270;0.14000;107.1875;110;61;0.30891
8410280;0.11000;107.8750;110;61;0.30379
8410290;0.01500;109.0000;110;61;0.29890
8410300;-0.02500;109.1250;110;61;0.29646
8410310;-0.02500;109.1250;110;61;0.29646
8410320;-0.07000;109.0625;110;61;0.29426
8410330;-0.08500;108.5625;110;61;0.29084
8410340;-0.08500;108.5625;110;61;0.29084
8410350;-0.09500;107.6250;110;61;0.28718
8410360;-0.09500;107.0000;110;61;0.28645
8410370;-0.09500;107.0000;110;61;0.28645
8410380;-0.09500;103.9375;110;61;0.29597
8410390;-0.09500;102.3750;110;61;0.30501
8410400;-0.09500;102.3750;110;61;0.30501
8410410;-0.10000;95.5000;110;61;0.34652
8410420;-0.10000;95.5000;110;61;0.34652
8410430;-0.09500;90.9375;110;61;0.38535
8410440;-0.09500;89.4375;110;61;0.40684
8410450;-0.09500;89.4375;110;61;0.40684
8410460;-0.09000;87.3750;110;61;0.47009
8410470;-0.09000;87.3750;110;61;0.47009
8410480;-0.08500;86.8750;110;61;0.49011
8410490;-0.08000;86.3750;110;61;0.50940
8410500;-0.07500;85.1250;110;61;0.54579
8410510;-0.07500;84.4375;110;61;0.56288
8410520;-0.07500;83.7500;110;61;0.57705
8410530;-0.07000;81.7500;110;61;0.61709
8410540;-0.06500;81.1250;110;61;0.63077
8410550;-0.06500;81.1250;110;61;0.63077
8410560;-0.06500;80.0000;110;61;0.65543
8410570;-0.05500;79.0000;110;61;0.67643
8410580;-0.05500;79.0000;110;61;0.67643
8410590;-0.05500;78.1250;110;61;0.69402
8410600;-0.05500;77.6250;110;61;0.70134
8410610;-0.05500;77.6250;110;61;0.70134
8410620;-0.05000;76.1875;110;61;0.71306
8410630;-0.04500;75.7500;110;61;0.71624
8410640;-0.04500;75.7500;110;61;0.71624
8410650;-0.04500;74.3750;110;61;0.71893
8410660;-0.04500;73.9375;110;61;0.71722
8410670;-0.04500;73.9375;110;61;0.71722
8410680;-0.02500;73.0000;110;61;0.70940
8410690;-0.01500;72.0625;110;61;0.69548
8410700;-0.01500;72.0625;110;61;0.69548
8410710;-0.00500;71.6250;110;61;0.68669
8410720;-0.00500;70.7500;110;61;0.66789
8410730;-0.02000;69.9375;110;61;0.64689
8410740;-0.02000;69.9375;110;61;0.64689
8410750;-0.02500;69.5625;110;61;0.63980
8410760;-0.03500;69.1250;110;61;0.63419
8410770;-0.05500;68.7500;110;61;0.62564
8410780;-0.06500;68.0625;110;61;0.60513
8410790;-0.04500;67.3125;110;61;0.58364
8410800;-0.07500;66.9375;110;61;0.57289
8410810;-0.07500;66.9375;110;61;0.57289
8410820;0.22500;65.9375;110;61;0.54432
8410830;0.22500;65.9375;110;61;0.54432
8410840;1.08000;65.3125;110;61;0.52259
8410850;0.93000;64.7500;110;61;0.50427
8410860;0.93000;64.7500;110;61;0.50427
8410870;0.41500;64.4375;110;61;0.49621
8410880;0.05000;64.1875;110;61;0.48571
8410890;-0.07000;63.9375;110;61;0.47619
8410900;-0.11500;63.5000;110;61;0.46203
8410910;-0.14500;63.2500;110;61;0.45446
8410920;-0.15500;63.0625;110;61;0.44762
8410930;-0.15500;62.8750;110;61;0.44127
8410940;-0.15500;62.3750;110;61;0.42686
8410950;-0.15500;62.1250;110;61;0.41954
8410960;-0.16000;61.5625;110;61;0.40562
8410970;-0.16000;61.5625;110;61;0.40562
8410980;-0.15500;60.9375;110;61;0.39219
8410990;-0.14500;60.5625;110;61;0.37973
8411000;-0.14500;60.5625;110;61;0.37973
8411010;-0.14500;60.6250;110;61;0.37363
8411020;-0.14000;62.0625;110;61;0.36386
8411030;-0.13500;64.1875;110;61;0.35849
8411040;-0.12500;67.6250;110;61;0.35287
8411050;-0.12000;72.1250;110;61;0.34701
8411060;-0.11500;81.6250;110;61;0.33480
8411070;-0.09500;88.4375;110;61;0.32357
8411080;-0.08500;90.6250;110;61;0.31844
8411090;-0.06500;93.6875;110;61;0.30867
8411100;-0.06500;93.6875;110;61;0.30867
8411110;-0.04500;95.1250;110;61;0.30403
8411120;-0.02000;96.6875;110;61;0.30085
8411130;0.00000;98.3750;110;61;0.29841
8411140;0.06000;103.5000;110;61;0.28767
8411150;0.06000;103.5000;110;61;0.28767
8411160;0.11000;106.2500;110;61;0.28083
8411170;0.13500;108.3750;110;61;0.27424
8411180;0.13500;108.3750;110;61;0.27424
8411190;0.09000;109.6875;110;61;0.26862
8411200;0.04000;110.1875;110;61;0.26593
8411210;0.04000;110.1875;110;61;0.26593
8411220;-0.04500;110.9375;110;61;0.26227
8411230;-0.06500;110.9375;110;61;0.26032
8411240;-0.08000;110.8750;110;61;0.25812
8411250;-0.09500;110.3750;110;61;0.25397
8411260;-0.09500;110.3750;110;61;0.25397
8411270;-0.09500;110.0000;110;61;0.25226
8411280;-0.09500;109.5625;110;61;0.25128
8411290;-0.09500;108.9375;110;61;0.25153
8411300;-0.10000;107.1250;110;61;0.25861
8411310;-0.10000;105.8750;110;61;0.26716
8411320;-0.09500;102.4375;110;61;0.29133
8411330;-0.09500;97.6250;110;61;0.32918
8411340;-0.09500;97.6250;110;61;0.32918
8411350;-0.08500;93.0000;110;61;0.37631
8411360;-0.08500;91.5000;110;61;0.40098
8411370;-0.08500;91.5000;110;61;0.40098
8411380;-0.09000;89.3125;110;61;0.47228
8411390;-0.09000;88.8125;110;61;0.49451
8411400;-0.09000;88.8125;110;61;0.49451
8411410;-0.08500;87.1250;110;61;0.54969
8411420;-0.08500;86.5000;110;61;0.56728
8411430;-0.08000;85.8125;110;61;0.58510
8411440;-0.07500;85.1875;110;61;0.60269
8411450;-0.07500;83.8750;110;61;0.64274
8411460;-0.07500;83.8750;110;61;0.64274
8411470;-0.08000;82.7500;110;61;0.66960
8411480;-0.08000;82.1875;110;61;0.68327
8411490;-0.07500;81.2500;110;61;0.70794
8411500;-0.07500;81.2500;110;61;0.70794
8411510;-0.08000;80.8125;110;61;0.71673
8411520;-0.08000;80.3750;110;61;0.72357
8411530;-0.07500;79.0000;110;61;0.74505
8411540;-0.07500;78.5625;110;61;0.75067
8411550;-0.07500;78.5625;110;61;0.75067
8411560;-0.07500;78.1250;110;61;0.75482
8411570;-0.07500;76.8750;110;61;0.75897
8411580;-0.07500;76.8750;110;61;0.75897
8411590;-0.07500;76.4375;110;61;0.75702
8411600;-0.05500;75.5625;110;61;0.74799
8411610;-0.05500;75.5625;110;61;0.74799
8411620;-0.03500;74.6875;110;61;0.73284
8411630;-0.02500;73.7500;110;61;0.71331
8411640;-0.02500;73.7500;110;61;0.71331
8411650;-0.04000;72.5000;110;61;0.67961
8411660;-0.05000;72.1250;110;61;0.66789
8411670;-0.05000;72.1250;110;61;0.66789
8411680;-0.07500;71.3125;110;61;0.64542
8411690;-0.08500;70.5625;110;61;0.62393
8411700;-0.08500;70.5625;110;61;0.62393
8411710;-0.08000;70.1875;110;61;0.61416
8411720;-0.09500;69.4375;110;61;0.59536
8411730;-0.09500;69.4375;110;61;0.59536
8411740;-0.08500;68.7500;110;61;0.57631
8411750;0.58000;68.1250;110;61;0.55727
8411760;0.58000;68.1250;110;61;0.55727
8411770;0.98000;67.1875;110;61;0.53065
8411780;0.98000;67.1875;110;61;0.53065
8411790;0.07500;66.6250;110;61;0.51404
8411800;-0.07500;66.3125;110;61;0.50598
8411810;-0.07500;66.3125;110;61;0.50598
8411820;-0.14000;65.8125;110;61;0.49231
8411830;-0.16500;65.3125;110;61;0.47814
8411840;-0.17000;65.1250;110;61;0.47131
8411850;-0.17000;65.1250;110;61;0.47131
8411860;-0.16500;64.4375;110;61;0.44982
8411870;-0.16000;64.1875;110;61;0.44249
8411880;-0.16000;64.1875;110;61;0.44249
8411890;-0.17000;63.3750;110;61;0.42515
8411900;-0.17000;63.1875;110;61;0.42002
8411910;-0.17000;63.1875;110;61;0.42002
8411920;-0.16000;63.0625;110;61;0.41563
8411930;-0.15500;64.9375;110;61;0.39878
8411940;-0.15500;64.9375;110;61;0.39878
8411950;-0.14500;67.3750;110;61;0.39292
8411960;-0.13500;75.8750;110;61;0.38193
8411970;-0.13500;75.8750;110;61;0.38193
8411980;-0.12500;85.4375;110;61;0.37143
8411990;-0.12500;89.1875;110;61;0.36630
8412000;-0.11000;92.0000;109;61;0.35995
8412010;-0.09500;94.0625;109;61;0.35433
8412020;-0.08000;97.0625;109;61;0.34847
8412030;-0.06500;98.5625;109;61;0.34383
8412040;-0.02500;102.0625;109;61;0.33626
8412050;-0.02500;102.0625;109;61;0.33626
8412060;0.00000;105.8125;109;61;0.32845
8412070;0.06000;108.9375;109;61;0.32161
8412080;0.06000;108.9375;109;61;0.32161
8412090;0.09500;110.2500;109;61;0.31893
8412100;0.12000;112.3125;109;61;0.31355
8412110;0.12000;113.1875;109;61;0.31209
8412120;0.04000;114.4375;109;61;0.30965
8412130;0.04000;114.4375;109;61;0.30965
8412140;-0.04500;115.3125;109;61;0.30525
8412150;-0.07000;115.3125;109;61;0.30305
8412160;-0.09000;115.2500;109;61;0.30110
8412170;-0.10000;114.8750;109;61;0.29817
8412180;-0.10000;114.8750;109;61;0.29817
8412190;-0.10500;114.1250;109;61;0.29670
8412200;-0.10500;113.5625;109;61;0.29768
8412210;-0.10500;113.5625;109;61;0.29768
8412220;-0.10000;110.6875;109;61;0.31770
8412230;-0.10000;110.6875;109;61;0.31770
8412240;-0.10000;109.2500;109;61;0.32625
8412250;-0.10000;107.5000;109;61;0.33968
8412260;-0.09500;102.9375;109;61;0.38632
8412270;-0.09500;100.3750;109;61;0.40415
8412280;-0.09000;97.8750;109;61;0.42540
8412290;-0.09000;95.8750;109;61;0.45348
8412300;-0.09500;93.4375;109;61;0.49695
8412310;-0.09000;92.7500;109;61;0.51380
8412320;-0.08500;91.6875;109;61;0.55556
8412330;-0.08000;90.6250;109;61;0.58828
8412340;-0.07500;89.9375;109;61;0.60611
8412350;-0.07500;89.9375;109;61;0.60611
8412360;-0.07000;88.5625;109;61;0.64786
8412370;-0.07000;88.5625;109;61;0.64786
8412380;-0.06500;87.1250;109;61;0.67595
8412390;-0.06500;85.7500;109;61;0.70427
8412400;-0.06500;85.1250;109;61;0.71746
8412410;-0.06500;85.1250;109;61;0.71746
8412420;-0.05500;84.0625;109;61;0.73871
8412430;-0.05500;83.0625;109;61;0.75311
8412440;-0.05500;82.6250;109;61;0.76166
8412450;-0.05500;81.6875;109;61;0.77363
8412460;-0.05500;81.2500;109;61;0.77827
8412470;-0.05500;81.2500;109;61;0.77827
8412480;-0.05500;80.3750;109;61;0.78388
8412490;-0.05500;79.4375;109;61;0.78413
8412500;-0.05500;79.0000;109;61;0.78046
8412510;-0.05500;79.0000;109;61;0.78046
8412520;-0.04500;78.0625;109;61;0.77167
8412530;-0.04500;78.0625;109;61;0.77167
8412540;-0.02000;76.7500;109;61;0.74383
8412550;-0.01500;76.3125;109;61;0.73675
8412560;-0.01500;76.3125;109;61;0.73675
8412570;-0.01500;75.0000;109;61;0.69988
8412580;-0.02500;74.5625;109;61;0.69011
8412590;-0.02500;74.5625;109;61;0.69011
8412600;-0.04500;73.7500;109;61;0.66276
8412610;-0.04500;73.7500;109;61;0.66276
8412620;-0.05500;72.6250;109;61;0.63199
8412630;-0.04500;72.2500;109;61;0.61758
8412640;-0.04500;72.2500;109;61;0.61758
8412650;-0.06500;71.1875;109;61;0.58828
8412660;-0.06500;71.1875;109;61;0.58828
8412670;0.03000;70.8750;109;61;0.57485
8412680;0.37000;70.5625;109;61;0.56361
8412690;0.84500;70.3125;109;61;0.55336
8412700;1.06500;69.7500;109;61;0.53529
8412710;0.26500;69.2500;109;61;0.52308
8412720;0.26500;69.2500;109;61;0.52308
8412730;0.01000;69.0000;109;61;0.51355
8412740;-0.11500;68.1250;109;61;0.48913
8412750;-0.11500;68.1250;109;61;0.48913
8412760;-0.13000;67.8125;109;61;0.48181
8412770;-0.13500;67.5000;109;61;0.47497
8412780;-0.13500;66.9375;109;61;0.46154
8412790;-0.13500;66.6250;109;61;0.45177
8412800;-0.14000;66.3125;109;61;0.44029
8412810;-0.14500;65.9375;109;61;0.43248
8412820;-0.14500;65.2500;109;61;0.42027
8412830;-0.14000;64.6250;109;61;0.40855
8412840;-0.14000;64.6250;109;61;0.40855
8412850;-0.12500;65.2500;109;61;0.39243
8412860;-0.12500;65.2500;109;61;0.39243
8412870;-0.11000;69.3750;109;61;0.38193
8412880;-0.10500;73.3125;109;61;0.37680
8412890;-0.10500;73.3125;109;61;0.37680
8412900;-0.09500;87.1875;109;61;0.36435
8412910;-0.08000;90.5625;109;61;0.36044
8412920;-0.08000;90.5625;109;61;0.36044
8412930;-0.05000;96.2500;109;61;0.34847
8412940;-0.03500;97.6250;109;61;0.34481
8412950;-0.03500;97.6250;109;61;0.34481
8412960;-0.01000;99.0625;109;61;0.34139
8412970;0.01000;100.6875;109;61;0.33895
8412980;0.03500;104.2500;109;61;0.33260
8412990;0.06500;106.0000;109;61;0.32991
8413000;0.13000;109.0625;109;61;0.32601
8413010;0.13000;109.0625;109;61;0.32601
8413020;0.16500;112.1875;109;61;0.32137
8413030;0.15500;112.8750;109;61;0.31941
8413040;0.11000;113.5000;109;61;0.31746
8413050;0.06000;114.2500;109;61;0.31355
8413060;0.06000;114.2500;109;61;0.31355
8413070;0.01000;114.4375;109;61;0.31160
8413080;-0.02500;114.5000;109;61;0.30965
8413090;-0.06000;114.0000;109;61;0.30574
8413100;-0.06000;114.0000;109;61;0.30574
8413110;-0.08000;113.1250;109;61;0.30549
8413120;-0.08500;112.5625;109;61;0.30598
8413130;-0.08500;112.5625;109;61;0.30598
8413140;-0.08500;109.8750;109;61;0.31941
8413150;-0.09000;108.5000;109;61;0.32967
8413160;-0.09000;108.5000;109;61;0.32967
8413170;-0.09500;102.3125;109;61;0.37631
8413180;-0.09500;99.6875;109;61;0.39560
8413190;-0.09500;99.6875;109;61;0.39560
8413200;-0.10000;94.8125;109;61;0.43272
8413210;-0.10000;91.8750;109;61;0.46569
8413220;-0.10000;91.8750;109;61;0.46569
8413230;-0.09500;90.3750;109;61;0.50085
8413240;-0.09500;89.8125;109;61;0.51819
8413250;-0.09500;89.8125;109;61;0.51819
8413260;-0.09000;88.0625;109;61;0.56777
8413270;-0.08500;87.3125;109;61;0.58315
8413280;-0.08500;87.3125;109;61;0.58315
8413290;-0.08000;85.1250;109;61;0.62198
8413300;-0.08500;84.4375;109;61;0.63077
8413310;-0.08500;84.4375;109;61;0.63077
8413320;-0.08000;83.8125;109;61;0.64029
8413330;-0.08000;83.1875;109;61;0.64982
8413340;-0.07500;82.0625;109;61;0.66764
8413350;-0.07500;81.0000;109;61;0.68205
8413360;-0.07500;80.4375;109;61;0.68791
8413370;-0.07500;80.4375;109;61;0.68791
8413380;-0.07000;78.9375;109;61;0.69915
8413390;-0.06500;78.4375;109;61;0.69963
8413400;-0.06500;78.4375;109;61;0.69963
8413410;-0.07000;77.9375;109;61;0.69890
8413420;-0.06500;76.4375;109;61;0.69280
8413430;-0.06500;76.4375;109;61;0.69280
8413440;-0.05500;75.4375;109;61;0.68205
8413450;-0.04000;74.5000;109;61;0.66569
8413460;-0.04000;74.5000;109;61;0.66569
8413470;-0.01500;73.5625;109;61;0.64420
8413480;-0.02500;73.1250;109;61;0.63223
8413490;-0.02500;73.1250;109;61;0.63223
8413500;-0.04000;71.8125;109;61;0.59756
8413510;-0.04000;71.8125;109;61;0.59756
8413520;-0.07500;70.8750;109;61;0.57411
8413530;-0.07500;70.0000;109;61;0.55092
8413540;-0.07500;70.0000;109;61;0.55092
8413550;-0.06500;69.5625;109;61;0.53944
8413560;-0.08500;68.7500;109;61;0.51697
8413570;-0.06500;68.0625;109;61;0.49548
8413580;0.19500;67.7500;109;61;0.48547
8413590;0.19500;67.7500;109;61;0.48547
8413600;1.05500;67.0625;109;61;0.46886
8413610;1.05500;67.0625;109;61;0.46886
8413620;0.90000;66.4375;109;61;0.45226
8413630;0.39500;66.1250;109;61;0.44396
8413640;0.03000;65.7500;109;61;0.43541
8413650;-0.07500;65.5000;109;61;0.42711
8413660;-0.12500;64.9375;109;61;0.41123
8413670;-0.14500;64.6875;109;61;0.40342
8413680;-0.15500;64.4375;109;61;0.39585
8413690;-0.15500;64.1875;109;61;0.38828
8413700;-0.15500;63.2500;109;61;0.36996
8413710;-0.15500;63.2500;109;61;0.36996
8413720;-0.15500;62.9375;109;61;0.36410
8413730;-0.15000;61.8750;109;61;0.34530
8413740;-0.15000;61.6250;109;61;0.33919
8413750;-0.15000;61.6250;109;61;0.33919
8413760;-0.14500;61.1875;109;61;0.32723
8413770;-0.14500;61.1875;109;61;0.32723
8413780;-0.14000;61.4375;109;61;0.31551
8413790;-0.13500;64.1875;109;61;0.30501
8413800;-0.13500;64.1875;109;61;0.30501
8413810;-0.13000;67.1875;109;61;0.30134
8413820;-0.12000;76.0000;109;61;0.29206
8413830;-0.10500;80.5000;109;61;0.28718
8413840;-0.07500;87.2500;109;61;0.27814
8413850;-0.07500;87.2500;109;61;0.27814
8413860;-0.06000;90.9375;109;61;0.26984
8413870;-0.02000;93.3750;109;61;0.26203
8413880;0.00500;94.6250;109;61;0.25836
8413890;0.00500;94.6250;109;61;0.25836
8413900;0.06000;99.0000;109;61;0.25104
8413910;0.06000;99.0000;109;61;0.25104
8413920;0.09000;100.3750;109;61;0.24860
8413930;0.12000;101.6250;109;61;0.24615
8413940;0.12500;104.1875;109;61;0.23858
8413950;0.12500;104.1875;109;61;0.23858
8413960;0.09000;104.7500;109;61;0.23614
8413970;0.00000;105.5625;109;61;0.22906
8413980;0.00000;105.5625;109;61;0.22906
8413990;-0.03500;105.6250;109;61;0.22686
8414000;-0.08500;105.4375;109;61;0.22515
8414010;-0.08500;105.4375;109;61;0.22515
8414020;-0.09500;104.8750;109;61;0.22222
8414030;-0.11000;103.6875;109;61;0.21905
8414040;-0.11000;103.6875;109;61;0.21905
8414050;-0.11500;102.8750;109;61;0.21832
8414060;-0.11000;100.4375;109;61;0.22247
8414070;-0.10500;98.6875;109;61;0.22857
8414080;-0.10500;96.5625;109;61;0.23785
8414090;-0.10500;89.6250;109;61;0.28327
8414100;-0.10500;89.6250;109;61;0.28327
8414110;-0.10500;88.0625;109;61;0.30061
8414120;-0.10000;86.4375;109;61;0.34212
8414130;-0.10000;86.4375;109;61;0.34212
8414140;-0.09500;85.2500;109;61;0.40635
8414150;-0.09000;84.7500;109;61;0.42637
8414160;-0.09000;84.7500;109;61;0.42637
8414170;-0.08500;84.1250;109;61;0.44567
8414180;-0.08500;82.7500;109;61;0.48205
8414190;-0.08500;82.0625;109;61;0.49890
8414200;-0.08500;81.3750;109;61;0.51306
8414210;-0.08500;80.7500;109;61;0.52552
8414220;-0.08500;79.6250;109;61;0.55311
8414230;-0.08500;78.6875;109;61;0.57949
8414240;-0.08500;78.6875;109;61;0.57949
8414250;-0.08500;78.1875;109;61;0.59145
8414260;-0.08500;76.8125;109;61;0.62100
8414270;-0.08500;76.8125;109;61;0.62100
8414280;-0.08000;76.3125;109;61;0.62857
8414290;-0.08000;75.8750;109;61;0.63492
8414300;-0.08500;74.5000;109;61;0.64493
8414310;-0.08500;74.5000;109;61;0.64493
8414320;-0.08000;74.0625;109;61;0.64615
8414330;-0.07500;73.6250;109;61;0.64640
8414340;-0.07500;72.8125;109;61;0.64274
8414350;-0.07500;72.3750;109;61;0.63858
8414360;-0.07000;72.0000;109;61;0.63272
8414370;-0.04500;70.7500;109;61;0.60830
8414380;-0.04500;70.7500;109;61;0.60830
8414390;-0.02500;69.9375;109;61;0.59023
8414400;-0.03500;69.5000;109;61;0.58169
8414410;-0.03500;69.5000;109;61;0.58169
8414420;-0.04500;68.6875;109;61;0.56313
8414430;-0.05000;68.2500;109;61;0.55385
8414440;-0.07500;67.8750;109;61;0.54432
8414450;-0.09000;67.5000;109;61;0.53480
8414460;-0.08500;66.7500;109;61;0.51648
8414470;-0.07500;66.3750;109;61;0.50794
8414480;-0.10000;65.6875;109;61;0.49133
8414490;0.02000;65.0000;109;61;0.47619
8414500;0.02000;65.0000;109;61;0.47619
8414510;0.93000;64.3750;109;61;0.46276
8414520;0.93000;64.3750;109;61;0.46276
8414530;0.65000;63.5000;109;61;0.44127
8414540;0.65000;63.5000;109;61;0.44127
8414550;-0.04500;62.9375;109;61;0.42784
8414560;-0.04500;62.9375;109;61;0.42784
8414570;-0.11500;62.6875;109;61;0.42149
8414580;-0.16000;61.9375;109;61;0.40269
8414590;-0.16500;61.6875;109;61;0.39756
8414600;-0.16500;61.6875;109;61;0.39756
8414610;-0.17000;60.9375;109;61;0.38193
8414620;-0.17000;60.6250;109;61;0.37631
8414630;-0.17000;60.6250;109;61;0.37631
8414640;-0.17000;60.0000;109;61;0.36508
8414650;-0.16000;59.3750;109;61;0.35433
8414660;-0.16000;59.3750;109;61;0.35433
8414670;-0.15500;59.0625;109;61;0.34408
8414680;-0.15500;59.0625;109;61;0.34408
8414690;-0.14500;60.6250;109;61;0.32967
8414700;-0.14500;60.6250;109;61;0.32967
8414710;-0.14500;62.8125;109;61;0.32650
8414720;-0.12500;70.8750;109;61;0.31844
8414730;-0.12500;70.8750;109;61;0.31844
8414740;-0.11500;80.2500;109;61;0.30965
8414750;-0.09500;86.9375;109;61;0.30085
8414760;-0.09500;86.9375;109;61;0.30085
8414770;-0.06500;91.8750;109;61;0.28840
8414780;-0.06500;91.8750;109;61;0.28840
8414790;-0.04500;93.1250;109;61;0.28425
8414800;-0.01500;94.5000;109;61;0.28156
8414810;0.04000;99.1875;109;61;0.27399
8414820;0.04000;99.1875;109;61;0.27399
8414830;0.06500;100.6875;109;61;0.27106
8414840;0.10000;102.1250;109;61;0.27643
8414850;0.13334;103.2396;109;61;0.28417
8414860;0.13500;104.3750;109;61;0.28987
8414870;0.07500;105.8750;109;61;0.28913
8414880;0.07500;105.8750;109;61;0.28913
8414890;0.02500;106.3750;109;61;0.28718
8414900;-0.05500;107.1250;109;61;0.28156
8414910;-0.08500;107.1875;109;61;0.28107
8414920;-0.08500;107.1875;109;61;0.28107
8414930;-0.11000;106.7500;109;61;0.27521
8414940;-0.11500;106.3750;109;61;0.27302
8414950;-0.11500;106.3750;109;61;0.27302
8414960;-0.11500;105.8750;109;61;0.27131
8414970;-0.11500;104.3750;109;61;0.27179
8414980;-0.12000;103.2500;109;61;0.27546
8414990;-0.11500;101.8125;109;61;0.28278
8415000;-0.11500;100.0625;109;61;0.29377
8415010;-0.11500;98.0000;109;61;0.30647
8415020;-0.10500;90.8750;109;61;0.36190
8415030;-0.10500;90.8750;109;61;0.36190
8415040;-0.10500;89.1250;109;61;0.38535
8415050;-0.10500;88.0000;109;61;0.40928
8415060;-0.09500;86.3125;109;61;0.47912
8415070;-0.09500;86.3125;109;61;0.47912
8415080;-0.09000;85.3125;109;61;0.52112
8415090;-0.09000;84.1250;109;61;0.55800
8415100;-0.09000;84.1250;109;61;0.55800
8415110;-0.09000;82.8125;109;61;0.58926
8415120;-0.08500;82.1250;109;61;0.60586
8415130;-0.08500;82.1250;109;61;0.60586
8415140;-0.08500;80.3750;109;61;0.65324
8415150;-0.08000;79.8125;109;61;0.66740
8415160;-0.08000;79.8125;109;61;0.66740
8415170;-0.07500;78.4375;109;61;0.70354
8415180;-0.07500;78.4375;109;61;0.70354
8415190;-0.07500;77.5625;109;61;0.72234
8415200;-0.07500;77.1250;109;61;0.72821
8415210;-0.07500;77.1250;109;61;0.72821
8415220;-0.06500;75.8125;109;61;0.74017
8415230;-0.06500;75.4375;109;61;0.74286
8415240;-0.06500;75.4375;109;61;0.74286
8415250;-0.06500;75.0000;109;61;0.74457
8415260;-0.06000;74.1875;109;61;0.74359
8415270;-0.05500;73.8125;109;61;0.74066
8415280;-0.05000;73.3750;109;61;0.73602
8415290;-0.02500;72.1250;109;61;0.71429
8415300;-0.02500;72.1250;109;61;0.71429
8415310;-0.01500;71.3125;109;61;0.69573
8415320;-0.02500;70.9375;109;61;0.68523
8415330;-0.02500;70.9375;109;61;0.68523
8415340;-0.03500;70.0625;109;61;0.66374
8415350;-0.05500;69.2500;109;61;0.64249
8415360;-0.05500;69.2500;109;61;0.64249
8415370;-0.07000;68.8750;109;61;0.63223
8415380;-0.07000;68.0625;109;61;0.61172
8415390;-0.06500;67.3125;109;61;0.59194
8415400;-0.06500;67.3125;109;61;0.59194
8415410;0.03000;66.3125;109;61;0.56581
8415420;0.03000;66.3125;109;61;0.56581
8415430;0.42000;66.0000;109;61;0.55678
8415440;0.91000;65.6875;109;61;0.54774
8415450;0.71000;64.8750;109;61;0.52332
8415460;0.71000;64.8750;109;61;0.52332
8415470;0.21500;64.6250;109;61;0.51551
8415480;-0.01500;64.3125;109;61;0.50794
8415490;-0.09000;64.0625;109;61;0.50061
8415500;-0.11500;63.5000;109;61;0.48718
8415510;-0.13000;63.2500;109;61;0.48181
8415520;-0.13500;63.0000;109;61;0.47570
8415530;-0.14000;62.8125;109;61;0.46960
8415540;-0.14500;62.0625;109;61;0.45055
8415550;-0.15000;61.7500;109;61;0.44420
8415560;-0.15000;61.7500;109;61;0.44420
8415570;-0.14000;60.7500;109;61;0.42589
8415580;-0.14000;60.7500;109;61;0.42589
8415590;-0.13500;60.2500;109;61;0.41441
8415600;-0.12500;60.1875;109;61;0.40977
8415610;-0.12500;60.1875;109;61;0.40977
8415620;-0.11500;62.5625;109;61;0.39560
8415630;-0.11000;65.4375;109;61;0.39048
8415640;-0.11000;65.4375;109;61;0.39048
8415650;-0.08500;79.3125;109;61;0.37582
8415660;-0.07500;83.6250;109;61;0.37118
8415670;-0.06000;87.0000;109;61;0.36654
8415680;-0.04500;89.4375;109;61;0.36215
8415690;-0.04500;89.4375;109;61;0.36215
8415700;-0.01000;93.8125;109;61;0.35189
8415710;0.01000;95.2500;109;61;0.34847
8415720;0.01000;95.2500;109;61;0.34847
8415730;0.06000;100.1875;109;61;0.33748
8415740;0.09000;101.8125;109;61;0.33382
8415750;0.09000;101.8125;109;61;0.33382
8415760;0.14000;104.7500;109;61;0.32698
8415770;0.14500;106.9375;109;61;0.32088
8415780;0.14500;106.9375;109;61;0.32088
8415790;0.08000;108.3125;109;61;0.31551
8415800;0.03000;108.8125;109;61;0.31404
8415810;0.03000;108.8125;109;61;0.31404
8415820;-0.02500;109.3125;109;61;0.31184
8415830;-0.07500;109.4375;109;61;0.30818
8415840;-0.08500;109.3125;109;61;0.30647
8415850;-0.08500;109.3125;109;61;0.30647
8415860;-0.09500;108.3750;109;61;0.30061
8415870;-0.09500;107.8125;109;61;0.29939
8415880;-0.09500;107.1250;109;61;0.29939
8415890;-0.10000;105.2500;109;61;0.30647
8415900;-0.10000;105.2500;109;61;0.30647
8415910;-0.10000;103.8750;109;61;0.31380
8415920;-0.09500;100.1875;109;61;0.33944
8415930;-0.09500;100.1875;109;61;0.33944
8415940;-0.09000;95.3125;109;61;0.37827
8415950;-0.08500;92.9375;109;61;0.40098
8415960;-0.08500;89.6875;109;61;0.44811
8415970;-0.08500;89.6875;109;61;0.49402
8415980;-0.08000;88.3750;109;61;0.49402
8415990;-0.07500;87.9375;109;61;0.51600
8416000;-0.07500;87.5000;110;61;0.53748
8416010;-0.07500;87.0000;110;61;0.55531
8416020;-0.07500;85.7500;110;61;0.58852
8416030;-0.07500;84.2500;110;61;0.62369
8416040;-0.07500;83.5625;110;61;0.64103
8416050;-0.07500;82.3125;110;61;0.67375
8416060;-0.07500;81.6875;110;61;0.68864
8416070;-0.07500;81.6875;110;61;0.68864
8416080;-0.08000;80.5625;110;61;0.71477
8416090;-0.08000;79.6250;110;61;0.73504
8416100;-0.08000;79.6250;110;61;0.73504
8416110;-0.08500;79.1875;110;61;0.74164
8416120;-0.07500;78.3125;110;61;0.75580
8416130;-0.07500;78.3125;110;61;0.75580
8416140;-0.06500;77.0000;110;61;0.77070
8416150;-0.06500;77.0000;110;61;0.77070
8416160;-0.06500;76.5000;110;61;0.77338
8416170;-0.05500;75.0625;110;61;0.77265
8416180;-0.05500;75.0625;110;61;0.77265
8416190;-0.05500;74.5625;110;61;0.76923
8416200;-0.03000;73.6875;110;61;0.75726
8416210;-0.03000;73.6875;110;61;0.75726
8416220;-0.00500;72.5000;110;61;0.72967
8416230;-0.00500;72.1250;110;61;0.71868
8416240;-0.00500;72.1250;110;61;0.71868
8416250;-0.02500;70.8750;110;61;0.68425
8416260;-0.03500;70.4375;110;61;0.67302
8416270;-0.03500;70.4375;110;61;0.67302
8416280;-0.07000;69.5625;110;61;0.65104
8416290;-0.07000;69.5625;110;61;0.65104
8416300;-0.06500;68.7500;110;61;0.63101
8416310;-0.05500;68.3125;110;61;0.62173
8416320;-0.07500;67.5000;110;61;0.60220
8416330;-0.07500;67.5000;110;61;0.60220
8416340;0.56500;66.5000;110;61;0.57436
8416350;0.56500;66.5000;110;61;0.57436
8416360;1.04500;65.8750;110;61;0.55629
8416370;0.58000;65.2500;110;61;0.53895
8416380;0.58000;65.2500;110;61;0.53895
8416390;-0.04500;64.6250;110;61;0.52234
8416400;-0.10500;64.3125;110;61;0.51526
8416410;-0.10500;64.3125;110;61;0.51526
8416420;-0.14500;63.5625;110;61;0.49475
8416430;-0.14500;63.5625;110;61;0.49475
8416440;-0.14500;63.3125;110;61;0.48742
8416450;-0.14500;63.0625;110;61;0.48010
8416460;-0.14000;62.5000;110;61;0.46569
8416470;-0.14500;62.2500;110;61;0.45885
8416480;-0.14500;61.9375;110;61;0.45226
8416490;-0.14000;61.5625;110;61;0.44567
8416500;-0.14000;60.8750;110;61;0.43346
8416510;-0.13500;60.5625;110;61;0.42857
8416520;-0.13000;60.3750;110;61;0.42320
8416530;-0.12500;60.3750;110;61;0.41758
8416540;-0.11500;63.6250;110;61;0.40049
8416550;-0.11500;63.6250;110;61;0.40049
8416560;-0.10500;66.8750;110;61;0.39487
8416570;-0.09500;76.2500;110;61;0.38926
8416580;-0.09000;81.0000;110;61;0.37827
8416590;-0.07500;85.0000;110;61;0.37289
8416600;-0.06500;88.0625;110;61;0.36777
8416610;-0.04500;90.3125;110;61;0.36386
8416620;-0.01000;94.6250;110;61;0.35214
8416630;-0.01000;94.6250;110;61;0.35214
8416640;0.03000;97.8125;110;61;0.34359
8416650;0.05500;101.2500;110;61;0.33529
8416660;0.05500;101.2500;110;61;0.33529
8416670;0.11500;104.3750;110;61;0.32772
8416680;0.11500;104.3750;110;61;0.32772
8416690;0.14000;105.6250;110;61;0.32430
8416700;0.11500;108.1875;110;61;0.31770
8416710;0.11500;108.1875;110;61;0.31770
8416720;0.01500;109.1250;110;61;0.31306
8416730;0.01500;109.1250;110;61;0.31306
8416740;-0.05500;109.8125;110;61;0.30379
8416750;-0.07500;109.8125;110;61;0.30061
8416760;-0.07500;109.8125;110;61;0.30061
8416770;-0.10000;109.2500;110;61;0.29158
8416780;-0.10000;109.2500;110;61;0.29158
8416790;-0.10500;108.1875;110;61;0.28767
8416800;-0.10500;107.4375;110;61;0.28840
8416810;-0.10500;107.4375;110;61;0.28840
8416820;-0.10500;105.5000;110;61;0.29646
8416830;-0.10500;102.6250;110;61;0.31722
8416840;-0.10000;100.5625;110;61;0.33284
8416850;-0.10000;100.5625;110;61;0.33284
8416860;-0.09500;93.0625;110;61;0.39560
8416870;-0.10000;91.1250;110;61;0.41929
8416880;-0.10000;91.1250;110;61;0.41929
8416890;-0.09500;88.4375;110;61;0.47155
8416900;-0.09500;88.0000;110;61;0.48498
8416910;-0.09500;88.0000;110;61;0.48498
8416920;-0.09000;87.0625;110;61;0.52039
8416930;-0.09000;87.0625;110;61;0.52039
8416940;-0.09000;85.8125;110;61;0.55751
8416950;-0.08500;84.5000;110;61;0.59267
8416960;-0.08000;83.8750;110;61;0.60928
8416970;-0.08000;82.6875;110;61;0.64005
8416980;-0.08000;82.1250;110;61;0.65397
8416990;-0.07500;81.5625;110;61;0.66471
8417000;-0.07500;81.5625;110;62;0.66471
8417010;-0.07500;81.0625;110;62;0.67350
8417020;-0.07500;80.0625;110;62;0.69255
8417030;-0.07500;79.6250;110;62;0.70110
8417040;-0.07000;78.6875;110;62;0.71502
8417050;-0.07000;78.6875;110;62;0.71502
8417060;-0.07500;77.8125;110;62;0.72479
8417070;-0.07500;77.3750;110;62;0.72821
8417080;-0.07500;76.9375;110;62;0.73040
8417090;-0.06500;75.6250;110;62;0.72796
8417100;-0.06500;75.6250;110;62;0.72796
8417110;-0.06500;75.1875;110;62;0.72381
8417120;-0.05000;74.7500;110;62;0.71868
8417130;-0.03500;74.3750;110;62;0.71209
8417140;-0.02500;73.5625;110;62;0.69524
8417150;-0.02500;72.7500;110;62;0.67448
8417160;-0.02500;72.7500;110;62;0.67448
8417170;-0.03500;72.3750;110;62;0.66349
8417180;-0.05500;71.1875;110;62;0.63077
8417190;-0.05500;71.1875;110;62;0.63077
8417200;-0.08000;70.8125;110;62;0.62076
8417210;-0.08500;70.5000;110;62;0.61123
8417220;-0.07500;69.4375;110;62;0.58120
8417230;-0.10000;69.1250;110;62;0.57118
8417240;-0.10000;69.1250;110;62;0.57118
8417250;0.19500;68.1875;110;62;0.54212
8417260;0.19500;68.1875;110;62;0.54212
8417270;0.68000;67.8750;110;62;0.53284
8417280;1.03500;67.5625;110;62;0.52405
8417290;0.90500;67.2500;110;62;0.51551
8417300;0.40000;66.7500;110;62;0.49988
8417310;0.03000;66.5000;110;62;0.49328
8417320;-0.08500;66.2500;110;62;0.48620
8417330;-0.14000;66.0625;110;62;0.47888
8417340;-0.16000;65.5625;110;62;0.46422
8417350;-0.17000;65.3125;110;62;0.45714
8417360;-0.17000;64.8750;110;62;0.44298
8417370;-0.17000;64.8750;110;62;0.44298
8417380;-0.16500;64.1250;110;62;0.42320
8417390;-0.16500;64.1250;110;62;0.42320
8417400;-0.16500;63.5000;110;62;0.41368
8417410;-0.16500;63.5000;110;62;0.41368
8417420;-0.16000;62.9375;110;62;0.40293
8417430;-0.15500;62.7500;110;62;0.39145
8417440;-0.15500;62.7500;110;62;0.39145
8417450;-0.15000;62.9375;110;62;0.38559
8417460;-0.14500;68.2500;110;62;0.36947
8417470;-0.13500;72.3750;110;62;0.36459
8417480;-0.13500;72.3750;110;62;0.36459
8417490;-0.12000;86.3750;110;62;0.35189
8417500;-0.12000;86.3750;110;62;0.35189
8417510;-0.09500;92.1250;110;62;0.34579
8417520;-0.08000;93.8750;110;62;0.34188
8417530;-0.08000;93.8750;110;62;0.34188
8417540;-0.04000;98.0000;110;62;0.33040
8417550;-0.04000;98.0000;110;62;0.33040
8417560;0.01000;101.4375;110;62;0.32357
8417570;0.03500;105.0625;110;62;0.31722
8417580;0.03500;105.0625;110;62;0.31722
8417590;0.07000;106.7500;110;62;0.31429
8417600;0.13000;109.5000;110;62;0.31087
8417610;0.13000;109.5000;110;62;0.31087
8417620;0.08500;112.0000;110;62;0.30403
8417630;0.04000;112.5000;110;62;0.30183
8417640;0.04000;112.5000;110;62;0.30183
8417650;-0.05000;113.3750;110;62;0.29646
8417660;-0.08000;113.4375;110;62;0.29426
8417670;-0.08000;113.4375;110;62;0.29426
8417680;-0.10500;113.3125;110;62;0.29011
8417690;-0.10500;113.3125;110;62;0.29011
8417700;-0.11500;112.7500;110;62;0.28791
8417710;-0.11500;112.3125;110;62;0.28840
8417720;-0.12000;111.7500;110;62;0.28913
8417730;-0.12000;109.0000;110;62;0.30379
8417740;-0.11500;107.6875;110;62;0.31502
8417750;-0.11500;107.6875;110;62;0.31502
8417760;-0.11500;106.0000;110;62;0.32967
8417770;-0.10500;99.0625;110;62;0.39023
8417780;-0.10500;96.6250;110;62;0.41294
8417790;-0.10500;94.6875;110;62;0.43297
8417800;-0.10500;94.6875;110;62;0.43297
8417810;-0.10000;93.2500;110;62;0.45104
8417820;-0.09500;91.1875;110;62;0.51160
8417830;-0.09500;91.1875;110;62;0.51160
8417840;-0.09500;90.6875;110;62;0.53138
8417850;-0.09000;90.1875;110;62;0.55067
8417860;-0.08500;88.9375;110;62;0.58755
8417870;-0.08500;88.1875;110;62;0.60513
8417880;-0.08000;87.5000;110;62;0.62198
8417890;-0.07500;85.4375;110;62;0.66520
8417900;-0.07500;85.4375;110;62;0.66520
8417910;-0.07000;84.8125;110;62;0.67521
8417920;-0.06500;84.1875;110;62;0.68620
8417930;-0.06500;82.6250;110;62;0.71697
8417940;-0.06500;82.6250;110;62;0.71697
8417950;-0.06000;81.6250;110;62;0.73284
8417960;-0.05500;81.1875;110;62;0.73919
8417970;-0.05500;80.3125;110;62;0.74896
8417980;-0.05500;80.3125;110;62;0.74896
8417990;-0.05500;79.8750;110;62;0.75189
8418000;-0.06500;79.4375;110;61;0.75263
8418010;-0.06000;78.1250;110;61;0.74945
8418020;-0.06000;78.1250;110;61;0.74945
8418030;-0.05500;77.6875;110;61;0.74628
8418040;-0.03000;76.7500;110;61;0.73553
8418050;-0.03000;76.7500;110;61;0.73553
8418060;-0.02000;75.9375;110;61;0.71941
8418070;-0.01000;75.1250;110;61;0.69963
8418080;-0.01000;75.1250;110;61;0.69963
8418090;-0.02000;74.7500;110;61;0.68864
8418100;-0.02500;73.4375;110;61;0.65739
8418110;-0.02500;73.4375;110;61;0.65739
8418120;-0.04500;73.0000;110;61;0.64664
8418130;-0.05500;71.8125;110;61;0.61490
8418140;-0.05500;71.8125;110;61;0.61490
8418150;-0.04500;71.4375;110;61;0.60440
8418160;-0.06000;71.1250;110;61;0.59414
8418170;-0.06500;70.7500;110;61;0.58413
8418180;0.10000;70.1250;110;61;0.56484
8418190;0.96000;69.4375;110;61;0.54725
8418200;0.96000;69.4375;110;61;0.54725
8418210;1.03000;69.1250;110;61;0.53968
8418220;0.60000;68.5625;110;61;0.52332
8418230;0.15500;68.3125;110;61;0.51526
8418240;-0.02500;68.0000;110;61;0.50745
8418250;-0.09000;67.7500;110;61;0.49988
8418260;-0.13000;66.9375;110;61;0.47888
8418270;-0.13000;66.9375;110;61;0.47888
8418280;-0.14000;66.5000;110;61;0.46593
8418290;-0.14000;66.5000;110;61;0.46593
8418300;-0.14000;65.9375;110;61;0.44884
8418310;-0.14000;65.9375;110;61;0.44884
8418320;-0.14000;65.4375;110;61;0.43785
8418330;-0.13500;64.8125;110;61;0.42662
8418340;-0.13500;64.8125;110;61;0.42662
8418350;-0.13000;64.5625;110;61;0.41563
8418360;-0.12500;64.7500;110;61;0.41026
8418370;-0.12500;64.7500;110;61;0.41026
8418380;-0.11500;69.8750;110;61;0.39414
8418390;-0.10500;74.0000;110;61;0.38999
8418400;-0.10500;74.0000;110;61;0.38999
8418410;-0.09500;88.2500;110;61;0.37778
8418420;-0.09500;88.2500;110;61;0.37778
8418430;-0.07000;94.2500;110;61;0.36923
8418440;-0.05500;96.1875;110;61;0.36508
8418450;-0.05500;96.1875;110;61;0.36508
8418460;-0.02000;100.4375;110;61;0.35336
8418470;-0.02000;100.4375;110;61;0.35336
8418480;0.02000;103.9375;110;61;0.34652
8418490;0.04000;107.5625;110;61;0.34115
8418500;0.04000;107.5625;110;61;0.34115
8418510;0.10500;110.7500;110;61;0.33748
8418520;0.13000;112.0625;110;61;0.33529
8418530;0.13000;112.0625;110;61;0.33529
8418540;0.12000;114.8125;110;61;0.32943
8418550;0.12000;114.8125;110;61;0.32943
8418560;0.03000;115.8125;110;61;0.32601
8418570;-0.01500;116.3750;110;61;0.32332
8418580;-0.01500;116.3750;110;61;0.32332
8418590;-0.06500;116.5000;110;61;0.32210
8418600;-0.06500;116.5000;110;61;0.32210
8418610;-0.08000;116.1875;110;61;0.32161
8418620;-0.09000;115.5000;110;61;0.32137
8418630;-0.09000;115.5000;110;61;0.32137
8418640;-0.09500;114.9375;110;61;0.32210
8418650;-0.10000;112.5000;110;61;0.33675
8418660;-0.10000;112.5000;110;61;0.33675
8418670;-0.10000;111.1875;110;61;0.34750
8418680;-0.09500;107.7500;110;61;0.37851
8418690;-0.09500;107.7500;110;61;0.37851
8418700;-0.09000;102.9375;110;61;0.41245
8418710;-0.09000;100.4375;110;61;0.43248
8418720;-0.09500;98.1250;110;61;0.45372
8418730;-0.09000;96.3125;110;61;0.47546
8418740;-0.09500;94.1875;110;61;0.51770
8418750;-0.10000;93.0000;110;61;0.55727
8418760;-0.10000;92.4375;110;61;0.57607
8418770;-0.10000;92.4375;110;61;0.57607
8418780;-0.09000;90.4375;110;61;0.62882
8418790;-0.09000;90.4375;110;61;0.62882
8418800;-0.08500;89.6250;110;61;0.64274
8418810;-0.08500;88.8125;110;61;0.65446
8418820;-0.07500;86.4375;110;61;0.69328
8418830;-0.07500;86.4375;110;61;0.69328
8418840;-0.07500;85.0625;110;61;0.71600
8418850;-0.07500;83.7500;110;61;0.73504
8418860;-0.07500;83.7500;110;61;0.73504
8418870;-0.07000;82.6250;110;61;0.74969
8418880;-0.07000;82.6250;110;61;0.74969
8418890;-0.06500;81.0000;110;61;0.76068
8418900;-0.06000;80.5000;110;61;0.76264
8418910;-0.06000;80.5000;110;61;0.76264
8418920;-0.05500;79.9375;110;61;0.76386
8418930;-0.05500;79.4375;110;61;0.76435
8418940;-0.05500;77.9375;110;61;0.74823
8418950;-0.05500;77.9375;110;61;0.74823
8418960;-0.05500;77.3750;110;61;0.73993
8418970;-0.04000;76.8750;110;61;0.73138
8418980;-0.02500;75.9375;110;61;0.71160
8418990;-0.01000;75.5000;110;61;0.70037
8419000;0.00000;75.0000;110;61;0.68913
8419010;0.00000;74.5625;110;61;0.67790
8419020;-0.01500;73.1250;110;61;0.64151
8419030;-0.02500;72.6875;110;61;0.62930
8419040;-0.02500;72.6875;110;61;0.62930
8419050;-0.05500;71.3125;110;61;0.59365
8419060;-0.05000;70.8125;110;61;0.58242
8419070;-0.05000;70.8125;110;61;0.58242
8419080;-0.05000;70.3750;110;61;0.57143
8419090;-0.06500;70.0000;110;61;0.56044
8419100;-0.05000;69.1875;110;61;0.54139
8419110;0.15500;68.8125;110;61;0.53162
8419120;1.03500;68.1250;110;61;0.51233
8419130;0.96500;67.5000;110;61;0.49328
8419140;0.96500;67.5000;110;61;0.49328
8419150;0.10000;66.8750;110;61;0.47497
8419160;-0.04500;66.5625;110;61;0.46593
8419170;-0.04500;66.5625;110;61;0.46593
8419180;-0.12000;65.6250;110;61;0.44054
8419190;-0.13500;65.3125;110;61;0.43346
8419200;-0.13500;65.3125;110;61;0.43346
8419210;-0.13500;64.5625;110;61;0.41197
8419220;-0.13500;64.3125;110;61;0.40440
8419230;-0.13500;64.3125;110;61;0.40440
8419240;-0.14500;63.7500;110;61;0.38926
8419250;-0.14500;63.0625;110;61;0.37411
8419260;-0.14500;63.0625;110;61;0.37411
8419270;-0.13500;62.4375;110;61;0.36020
8419280;-0.13500;62.2500;110;61;0.35360
8419290;-0.13500;62.2500;110;61;0.35360
8419300;-0.12500;63.2500;110;61;0.33871
8419310;-0.11500;65.1875;110;61;0.33260
8419320;-0.11500;65.1875;110;61;0.33260
8419330;-0.10500;77.6875;110;61;0.31380
8419340;-0.10000;82.3750;110;61;0.30769
8419350;-0.10000;82.3750;110;61;0.30769
8419360;-0.08000;89.5000;110;61;0.29621
8419370;-0.08000;89.5000;110;61;0.29621
8419380;-0.06500;93.5625;110;61;0.28547
8419390;-0.02000;96.2500;110;61;0.27643
8419400;-0.02000;96.2500;110;61;0.27643
8419410;0.00500;97.6875;110;61;0.27326
8419420;0.05500;102.8125;110;61;0.25958
8419430;0.05500;102.8125;110;61;0.25958
8419440;0.08500;104.4375;110;61;0.25495
8419450;0.12000;105.9375;110;61;0.25055
8419460;0.14500;109.3125;110;61;0.23834
8419470;0.14500;109.3125;110;61;0.23834
8419480;0.08000;110.6875;110;61;0.23150
8419490;0.08000;110.6875;110;61;0.23150
8419500;-0.01500;111.7500;110;61;0.22637
8419510;-0.04500;111.8750;110;61;0.22393
8419520;-0.07000;111.8750;110;61;0.22125
8419530;-0.08500;111.6250;110;61;0.21538
8419540;-0.09500;111.3750;110;61;0.21294
8419550;-0.09500;111.3750;110;61;0.21294
8419560;-0.10500;110.3750;110;61;0.20904
8419570;-0.11000;108.8125;110;61;0.21074
8419580;-0.11000;108.8125;110;61;0.21074
8419590;-0.11000;106.3750;110;61;0.22344
8419600;-0.11000;106.3750;110;61;0.22344
8419610;-0.11000;104.6875;110;61;0.23370
8419620;-0.11500;97.6250;110;61;0.28425
8419630;-0.11500;97.6250;110;61;0.28425
8419640;-0.11500;95.1250;110;61;0.30574
8419650;-0.11000;90.3750;110;61;0.37314
8419660;-0.11000;90.3750;110;61;0.37314
8419670;-0.10000;89.1875;110;61;0.41661
8419680;-0.10000;88.6875;110;61;0.43736
8419690;-0.10000;88.6875;110;61;0.43736
8419700;-0.10000;86.9375;110;61;0.48816
8419710;-0.10000;86.1875;110;61;0.50574
8419720;-0.10000;86.1875;110;61;0.50574
8419730;-0.09500;84.1250;110;61;0.55580
8419740;-0.09500;83.4375;110;61;0.57143
8419750;-0.09000;82.8125;110;61;0.58608
8419760;-0.09000;82.8125;110;61;0.58608
8419770;-0.08500;82.2500;110;61;0.60000
8419780;-0.08500;80.6875;110;61;0.63541
8419790;-0.08500;80.6875;110;61;0.63541
8419800;-0.08500;80.1875;110;61;0.64322
8419810;-0.08500;78.6875;110;61;0.66154
8419820;-0.08500;78.6875;110;61;0.66154
8419830;-0.08500;78.2500;110;61;0.66667
8419840;-0.08500;77.7500;110;61;0.67106
8419850;-0.08500;77.2500;110;61;0.67424
8419860;-0.08500;76.3125;110;61;0.67643
8419870;-0.06500;75.4375;110;61;0.67179
8419880;-0.06500;75.4375;110;61;0.67179
8419890;-0.03500;74.0625;110;61;0.65372
8419900;-0.03500;74.0625;110;61;0.65372
8419910;-0.02500;73.1250;110;61;0.63492
8419920;-0.02500;73.1250;110;61;0.63492
8419930;-0.04500;71.7500;110;61;0.60098
8419940;-0.04500;71.7500;110;61;0.60098
8419950;-0.07500;70.8750;110;61;0.57729
8419960;-0.07500;70.8750;110;61;0.57729
8419970;-0.08500;70.4375;110;61;0.56581
8419980;-0.07000;69.1875;110;61;0.53284
8419990;-0.09000;68.7500;110;61;0.52332
8420000;-0.09000;68.7500;110;61;0.52332
8420010;-0.08500;68.3750;110;61;0.51453
8420020;0.11500;67.6875;110;61;0.49524
8420030;0.59000;67.3125;110;61;0.48571
8420040;1.01500;67.0000;110;61;0.47619
8420050;0.46500;66.0625;110;61;0.44908
8420060;0.46500;66.0625;110;61;0.44908
8420070;0.06000;65.6875;110;61;0.44078
8420080;-0.13500;65.0625;110;61;0.42418
8420090;-0.13500;65.0625;110;61;0.42418
8420100;-0.16000;64.5000;110;61;0.41099
8420110;-0.17500;64.0000;110;61;0.39707
8420120;-0.17500;64.0000;110;61;0.39707
8420130;-0.17000;63.7500;110;61;0.38999
8420140;-0.16000;63.1250;110;61;0.37607
8420150;-0.16000;62.7500;110;61;0.36899
8420160;-0.15500;62.0625;110;61;0.35507
8420170;-0.15500;62.0625;110;61;0.35507
8420180;-0.15500;61.3750;110;61;0.34188
8420190;-0.15500;61.0000;110;61;0.33065
8420200;-0.15500;61.0000;110;61;0.33065
8420210;-0.14500;60.9375;110;61;0.32674
8420220;-0.13500;61.8750;110;61;0.31673
8420230;-0.12000;66.3125;110;61;0.30549
8420240;-0.12000;66.3125;110;61;0.30549
8420250;-0.10500;79.7500;110;61;0.28864
8420260;-0.09500;83.8125;110;61;0.28327
8420270;-0.07500;87.0000;110;61;0.27814
8420280;-0.06000;89.3750;110;61;0.27326
8420290;-0.06000;89.3750;110;61;0.27326
8420300;-0.02500;93.6875;110;61;0.26325
8420310;0.00000;95.0625;110;61;0.25910
8420320;0.00000;95.0625;110;61;0.25910
8420330;0.05000;99.7500;110;61;0.24640
8420340;0.08000;101.3125;110;61;0.24274
8420350;0.08000;101.3125;110;61;0.24274
8420360;0.12500;104.0625;110;61;0.23614
8420370;0.12500;104.0625;110;61;0.23614
8420380;0.12500;106.0625;110;61;0.23004
8420390;0.04000;107.3125;110;61;0.22564
8420400;0.04000;107.3125;110;61;0.22564
8420410;-0.00500;107.6875;110;61;0.22466
8420420;-0.08500;108.1875;110;61;0.21783
8420430;-0.10500;108.0625;110;61;0.21514
8420440;-0.10500;108.0625;110;61;0.21514
8420450;-0.12500;107.1250;110;61;0.20708
8420460;-0.13000;106.6250;110;61;0.20488
8420470;-0.12500;105.9375;110;61;0.20366
8420480;-0.12500;105.1250;110;61;0.20366
8420490;-0.12500;105.1250;110;61;0.20366
8420500;-0.12500;100.8750;110;61;0.21709
8420510;-0.12500;100.8750;110;61;0.21709
8420520;-0.12500;98.6875;110;61;0.22711
8420530;-0.12000;91.5625;110;61;0.27692
8420540;-0.12000;91.5625;110;61;0.27692
8420550;-0.11500;89.8750;110;61;0.29841
8420560;-0.11500;88.0000;110;61;0.34383
8420570;-0.11500;88.0000;110;61;0.34383
8420580;-0.12000;87.0625;110;61;0.38828
8420590;-0.18000;86.0625;110;61;0.42320
8420600;-0.18000;86.0625;110;61;0.42320
8420610;-0.14500;84.0000;110;61;0.47692
8420620;-0.14000;83.3125;110;61;0.49451
8420630;-0.14000;83.3125;110;61;0.49451
8420640;-0.12500;82.0000;110;61;0.52796
8420650;-0.12500;82.0000;110;61;0.52796
8420660;-0.11000;80.7500;110;61;0.55873
8420670;-0.09500;79.7500;110;61;0.58535
8420680;-0.09500;79.7500;110;61;0.58535
8420690;-0.09000;79.3125;110;61;0.59707
8420700;-0.08000;78.0000;110;61;0.62051
8420710;-0.08000;78.0000;110;61;0.62051
8420720;-0.07500;77.6250;110;61;0.62759
8420730;-0.07000;77.1875;110;61;0.63419
8420740;-0.06500;76.2500;110;61;0.64396
8420750;-0.06000;75.3750;110;61;0.64933
8420760;-0.06000;75.3750;110;61;0.64933
8420770;-0.05500;74.9375;110;61;0.65006
8420780;-0.05500;74.0625;110;61;0.64615
8420790;-0.04500;73.6875;110;61;0.64176
8420800;-0.02000;73.2500;110;61;0.63590
8420810;-0.00500;72.8125;110;61;0.62882
8420820;0.00500;71.9375;110;61;0.61099
8420830;0.00000;71.0625;110;61;0.58974
8420840;-0.01000;70.6875;110;61;0.57900
8420850;-0.01000;70.6875;110;61;0.57900
8420860;-0.01500;69.9375;110;61;0.55751
8420870;-0.05000;69.1875;110;61;0.53626
8420880;-0.05000;69.1875;110;61;0.53626
8420890;-0.04500;68.0000;110;61;0.50818
8420900;-0.04500;67.6250;110;61;0.49890
8420910;-0.04500;67.6250;110;61;0.49890
8420920;0.00500;66.8750;110;61;0.48059
8420930;0.35000;66.1875;110;61;0.46276
8420940;0.35000;66.1875;110;61;0.46276
8420950;1.11500;65.6250;110;61;0.44591
8420960;1.11500;65.6250;110;61;0.44591
8420970;0.79500;65.3750;110;61;0.43785
8420980;0.01000;64.5625;110;61;0.42295
8420990;0.01000;64.5625;110;61;0.42295
8421000;-0.07000;64.3125;110;62;0.42906
8421010;-0.12500;63.6875;110;62;0.42027
8421020;-0.12500;63.6875;110;62;0.42027
8421030;-0.13000;63.2500;110;62;0.40855
8421040;-0.13500;63.0625;110;62;0.40244
8421050;-0.13500;63.0625;110;62;0.40244
8421060;-0.13000;62.5000;110;62;0.39072
8421070;-0.13000;62.1875;110;62;0.38486
8421080;-0.13500;61.5000;110;62;0.37314
8421090;-0.13500;61.5000;110;62;0.37314
8421100;-0.13000;60.8750;110;62;0.36484
8421110;-0.12000;60.6875;110;62;0.35507
8421120;-0.11500;61.0000;110;62;0.34969
8421130;-0.11500;61.0000;110;62;0.34969
8421140;-0.10500;63.5625;110;62;0.33895
8421150;-0.10500;66.6875;110;62;0.33358
8421160;-0.09500;71.0625;110;62;0.32845
8421170;-0.08000;85.0000;110;62;0.31404
8421180;-0.08000;85.0000;110;62;0.31404
8421190;-0.06500;88.2500;110;62;0.31062
8421200;-0.03500;92.2500;110;62;0.30452
8421210;-0.03500;92.2500;110;62;0.30452
8421220;0.00500;96.2500;110;62;0.29304
8421230;0.00500;96.2500;110;62;0.29304
8421240;0.03000;97.8750;110;62;0.28938
8421250;0.05500;99.6875;110;62;0.28596
8421260;0.07000;103.2500;110;62;0.27985
8421270;0.10000;106.1875;110;62;0.27399
8421280;0.11500;107.3750;110;62;0.27131
8421290;0.10500;109.0625;110;62;0.26911
8421300;0.10500;109.0625;110;62;0.26911
8421310;0.02000;110.1250;110;62;0.26569
8421320;0.02000;110.1250;110;62;0.26569
8421330;-0.04500;110.6250;110;62;0.25983
8421340;-0.05500;110.6250;110;62;0.25788
8421350;-0.05500;110.6250;110;62;0.25788
8421360;-0.07500;110.2500;110;62;0.25324
8421370;-0.07500;110.2500;110;62;0.25324
8421380;-0.08500;109.0000;110;62;0.24933
8421390;-0.08500;109.0000;110;62;0.24933
8421400;-0.08500;108.3125;110;62;0.25079
8421410;-0.07500;104.6875;110;62;0.26374
8421420;-0.07500;102.8125;110;62;0.27350
8421430;-0.07000;100.6250;110;62;0.28669
8421440;-0.07000;100.6250;110;62;0.28669
8421450;-0.07500;93.1875;110;62;0.34237
8421460;-0.07500;93.1875;110;62;0.34237
8421470;-0.07500;91.3750;110;62;0.36337
8421480;-0.07000;89.3750;110;62;0.40513
8421490;-0.07000;89.3750;110;62;0.40513
8421500;-0.06000;88.0000;110;62;0.45592
8421510;-0.06000;87.5000;110;62;0.47302
8421520;-0.06000;87.5000;110;62;0.47302
8421530;-0.06000;86.8750;110;62;0.48987
8421540;-0.06000;84.8125;110;62;0.53797
8421550;-0.05500;84.1875;110;62;0.55311
8421560;-0.05500;84.1875;110;62;0.55311
8421570;-0.05000;82.3750;110;62;0.59438
8421580;-0.04500;81.8750;110;62;0.60464
8421590;-0.04500;81.3750;110;62;0.61343
8421600;-0.04500;81.3750;110;62;0.61343
8421610;-0.03500;80.0000;110;62;0.64078
8421620;-0.03500;80.0000;110;62;0.64078
8421630;-0.03500;79.5625;110;62;0.64884
8421640;-0.03500;79.1250;110;62;0.65592
8421650;-0.03000;77.7500;110;62;0.67057
8421660;-0.03000;77.7500;110;62;0.67057
8421670;-0.03000;76.8750;110;62;0.67473
8421680;-0.02500;76.4375;110;62;0.67448
8421690;-0.02500;76.4375;110;62;0.67448
8421700;-0.02000;75.5625;110;62;0.66935
8421710;0.00000;74.6250;110;62;0.65958
8421720;0.00000;74.6250;110;62;0.65958
8421730;0.02000;73.3125;110;62;0.63687
8421740;0.01000;72.8750;110;62;0.62784
8421750;0.01000;72.8750;110;62;0.62784
8421760;0.00500;72.5000;110;62;0.61856
8421770;-0.01000;71.3125;110;62;0.59096
8421780;-0.01000;71.3125;110;62;0.59096
8421790;-0.04500;70.5000;110;62;0.57534
8421800;-0.04500;70.5000;110;62;0.57534
8421810;-0.04500;70.0625;110;62;0.56728
8421820;-0.05500;68.9375;110;62;0.54286
8421830;-0.05500;68.9375;110;62;0.54286
8421840;-0.06500;68.5625;110;62;0.53480
8421850;0.55500;67.5625;110;62;0.51038
8421860;1.01500;67.1875;110;62;0.50256
8421870;1.01500;67.1875;110;62;0.50256
8421880;0.60500;66.5625;110;62;0.48742
8421890;0.60500;66.5625;110;62;0.48742
8421900;-0.02500;65.6875;110;62;0.46984
8421910;-0.08500;65.4375;110;62;0.46349
8421920;-0.08500;65.4375;110;62;0.46349
8421930;-0.11500;65.1250;110;62;0.45739
8421940;-0.12500;64.6875;110;62;0.44518
8421950;-0.13500;64.4375;110;62;0.43932
8421960;-0.14000;64.0000;110;62;0.42808
8421970;-0.14000;64.0000;110;62;0.42808
8421980;-0.14000;63.3750;110;62;0.41758
8421990;-0.14000;63.0625;110;62;0.41319
8422000;-0.14000;62.6875;111;62;0.40928
8422010;-0.13500;62.3125;111;62;0.40464
8422020;-0.12500;61.7500;111;62;0.39463
8422030;-0.12000;61.6250;111;62;0.38926
8422040;-0.11500;61.6875;111;62;0.38388
8422050;-0.10500;66.2500;111;62;0.36874
8422060;-0.10500;66.2500;111;62;0.36874
8422070;-0.09500;75.0625;111;62;0.35897
8422080;-0.08000;80.0625;111;62;0.35433
8422090;-0.08000;80.0625;111;62;0.35433
8422100;-0.05500;90.7500;111;62;0.34432
8422110;-0.03500;92.6875;111;62;0.34042
8422120;-0.03500;92.6875;111;62;0.34042
8422130;0.00000;97.1250;111;62;0.32869
8422140;0.00000;97.1250;111;62;0.32869
8422150;0.02000;98.8125;111;62;0.32503
8422160;0.08000;102.5000;111;62;0.31795
8422170;0.08000;102.5000;111;62;0.31795
8422180;0.10500;106.0000;111;62;0.31160
8422190;0.13500;107.5000;111;62;0.30940
8422200;0.16000;108.7500;111;62;0.30818
8422210;0.16000;109.8125;111;62;0.30647
8422220;0.08500;111.8125;111;62;0.30037
8422230;0.03500;112.1875;111;62;0.29841
8422240;-0.00500;112.4375;111;62;0.29646
8422250;-0.03500;112.6250;111;62;0.29255
8422260;-0.03500;112.6250;111;62;0.29255
8422270;-0.06500;112.5625;111;62;0.29011
8422280;-0.08500;112.0625;111;62;0.28571
8422290;-0.08500;112.0625;111;62;0.28571
8422300;-0.08500;111.2500;111;62;0.28449
8422310;-0.08500;109.8125;111;62;0.28498
8422320;-0.08500;109.8125;111;62;0.28498
8422330;-0.08500;108.8125;111;62;0.28767
8422340;-0.09000;104.1875;111;62;0.31306
8422350;-0.09000;101.9375;111;62;0.32772
8422360;-0.09000;101.9375;111;62;0.32772
8422370;-0.08500;94.5625;111;62;0.38388
8422380;-0.08500;92.8750;111;62;0.40195
8422390;-0.08500;92.8750;111;62;0.40195
8422400;-0.08500;91.7500;111;62;0.41880
8422410;-0.08000;91.0000;111;62;0.43663
8422420;-0.07500;89.3750;111;62;0.48938
8422430;-0.07000;88.6875;111;62;0.50598
8422440;-0.07000;88.6875;111;62;0.50598
8422450;-0.06500;86.5625;111;62;0.55287
8422460;-0.06500;85.8125;111;62;0.56752
8422470;-0.06500;85.8125;111;62;0.56752
8422480;-0.06500;85.1250;111;62;0.58169
8422490;-0.05500;83.1875;111;62;0.61270
8422500;-0.05500;83.1875;111;62;0.61270
8422510;-0.05500;82.6250;111;62;0.62295
8422520;-0.05500;81.6250;111;62;0.64225
8422530;-0.05500;81.6250;111;62;0.64225
8422540;-0.05500;80.6875;111;62;0.65861
8422550;-0.05000;80.1875;111;62;0.66545
8422560;-0.05500;79.7500;111;62;0.67155
8422570;-0.05500;79.2500;111;62;0.67668
8422580;-0.05500;78.2500;111;62;0.68400
8422590;-0.05500;77.8125;111;62;0.68523
8422600;-0.05000;76.8750;111;62;0.68474
8422610;-0.05000;76.8750;111;62;0.68474
8422620;-0.04500;76.0000;111;62;0.68059
8422630;-0.03500;75.5000;111;62;0.67643
8422640;-0.02000;75.0625;111;62;0.67106
8422650;0.00000;73.7500;111;62;0.64933
8422660;0.00000;73.7500;111;62;0.64933
8422670;-0.01500;72.8750;111;62;0.63150
8422680;-0.02500;72.4375;111;62;0.62271
8422690;-0.02500;72.4375;111;62;0.62271
8422700;-0.05500;71.1250;111;62;0.59585
8422710;-0.05500;70.6250;111;62;0.58657
8422720;-0.05000;70.1875;111;62;0.57729
8422730;-0.05000;70.1875;111;62;0.57729
8422740;-0.04500;69.3750;111;62;0.55922
8422750;-0.04500;68.6250;111;62;0.54188
8422760;-0.04500;68.6250;111;62;0.54188
8422770;0.24000;68.3125;111;62;0.53382
8422780;1.09000;67.3125;111;62;0.51136
8422790;1.09000;67.3125;111;62;0.51136
8422800;0.92500;67.0000;111;62;0.50525
8422810;0.05000;66.1875;111;62;0.48547
8422820;0.05000;66.1875;111;62;0.48547
8422830;-0.06000;65.8750;111;62;0.47912
8422840;-0.12500;65.4375;111;62;0.46642
8422850;-0.13500;65.0000;111;62;0.45372
8422860;-0.13500;65.0000;111;62;0.45372
8422870;-0.14000;64.7500;111;62;0.44737
8422880;-0.13500;64.5000;111;62;0.44103
8422890;-0.13500;64.3125;111;62;0.43565
8422900;-0.13500;63.6875;111;62;0.42540
8422910;-0.13500;63.0000;111;62;0.41416
8422920;-0.13500;62.6875;111;62;0.40830
8422930;-0.13500;62.6875;111;62;0.40830
8422940;-0.12500;62.3125;111;62;0.39121
8422950;-0.12500;62.6250;111;62;0.38584
8422960;-0.12500;62.6250;111;62;0.38584
8422970;-0.12500;63.5625;111;62;0.38046
8422980;-0.11000;73.7500;111;62;0.36606
8422990;-0.11000;73.7500;111;62;0.36606
8423000;-0.09500;78.8125;111;62;0.36264
8423010;-0.07500;90.6875;111;62;0.34921
8423020;-0.06500;92.9375;111;62;0.34457
8423030;-0.04500;94.6875;111;62;0.34359
8423040;-0.02500;96.1250;111;62;0.34408
8423050;-0.02500;96.1250;111;62;0.34408
8423060;0.01500;101.1875;111;62;0.33504
8423070;0.01500;101.1875;111;62;0.33504
8423080;0.06000;105.0000;111;62;0.32845
8423090;0.09500;108.3125;111;62;0.32381
8423100;0.12500;109.7500;111;62;0.32088
8423110;0.14500;110.9375;111;62;0.31819
8423120;0.14500;110.9375;111;62;0.31819
8423130;0.09500;113.3750;111;62;0.31038
8423140;0.04500;113.8750;111;62;0.30794
8423150;0.04500;113.8750;111;62;0.30794
8423160;-0.04000;114.4375;111;62;0.30256
8423170;-0.06500;114.5000;111;62;0.29719
8423180;-0.06500;114.5000;111;62;0.29719
8423190;-0.04000;114.1875;111;62;0.29451
8423200;-0.04000;114.1875;111;62;0.29451
8423210;-0.00500;113.8750;111;62;0.29280
8423220;0.02000;112.3125;111;62;0.28962
8423230;0.02000;112.3125;111;62;0.28962
8423240;0.02500;111.4375;111;62;0.29182
8423250;0.03000;107.5000;111;62;0.31697
8423260;0.03000;107.5000;111;62;0.31697
8423270;0.03000;105.5000;111;62;0.33260
8423280;0.03000;103.1250;111;62;0.35116
8423290;0.02500;100.5000;111;62;0.36947
8423300;0.02000;95.6875;111;62;0.40904
8423310;0.01500;93.0000;111;62;0.45299
8423320;0.01500;93.0000;111;62;0.45299
8423330;0.02000;91.2500;111;62;0.51575
8423340;0.02000;90.7500;111;62;0.53529
8423350;0.02000;90.1250;111;62;0.55409
8423360;0.02000;89.5000;111;62;0.57216
8423370;0.02000;89.5000;111;62;0.57216
8423380;0.01000;87.4375;111;62;0.62100
8423390;0.01000;86.8125;111;62;0.63321
8423400;0.01000;86.8125;111;62;0.63321
8423410;0.01000;86.1875;111;62;0.64689
8423420;0.01000;84.9375;111;62;0.67424
8423430;0.00000;83.8750;111;62;0.69915
8423440;-0.00500;83.3750;111;62;0.71013
8423450;-0.00500;83.3750;111;62;0.71013
8423460;-0.00500;82.0625;111;62;0.73748
8423470;-0.00500;82.0625;111;62;0.73748
8423480;-0.00500;81.1875;111;62;0.74921
8423490;-0.00500;80.2500;111;62;0.75556
8423500;-0.00500;80.2500;111;62;0.75556
8423510;-0.01500;79.3750;111;62;0.76020
8423520;-0.01500;79.3750;111;62;0.76020
8423530;-0.01500;78.9375;111;62;0.76068
8423540;0.00000;77.6250;111;62;0.75238
8423550;0.00000;77.6250;111;62;0.75238
8423560;0.00000;77.1875;111;62;0.74628
8423570;0.01000;75.8750;111;62;0.72088
8423580;0.01000;75.8750;111;62;0.72088
8423590;0.01000;75.4375;111;62;0.71111
8423600;-0.01000;74.5625;111;62;0.69158
8423610;-0.01000;74.5625;111;62;0.69158
8423620;-0.02000;73.6875;111;62;0.67131
8423630;-0.05500;72.8125;111;62;0.65153
8423640;-0.05500;72.8125;111;62;0.65153
8423650;-0.05500;72.3750;111;62;0.64176
8423660;-0.06500;71.2500;111;62;0.61319
8423670;-0.06500;71.2500;111;62;0.61319
8423680;-0.06500;70.8750;111;62;0.60391
8423690;0.55500;69.8125;111;62;0.57973
8423700;0.55500;69.8125;111;62;0.57973
8423710;1.00000;69.5000;111;62;0.57167
8423720;0.58000;68.8750;111;62;0.55580
8423730;0.58000;68.8750;111;62;0.55580
8423740;0.14000;68.3125;111;62;0.54090
8423750;-0.10000;67.6875;111;62;0.52674
8423760;-0.10000;67.6875;111;62;0.52674
8423770;-0.14500;66.9375;111;62;0.50696
8423780;-0.15500;66.6875;111;62;0.50159
8423790;-0.15500;66.6875;111;62;0.50159
8423800;-0.15500;66.3125;111;62;0.49084
8423810;-0.15500;65.8125;111;62;0.47888
8423820;-0.15500;65.8125;111;62;0.47888
8423830;-0.15000;65.1250;111;62;0.46716
8423840;-0.15000;65.1250;111;62;0.46716
8423850;-0.14500;64.8750;111;62;0.46154
8423860;-0.14500;64.6250;111;62;0.45104
8423870;-0.14500;64.7500;111;62;0.44567
8423880;-0.14000;65.2500;111;62;0.44029
8423890;-0.13500;66.5625;111;62;0.43590
8423900;-0.13500;73.1875;111;62;0.42735
8423910;-0.12500;78.1250;111;62;0.42247
8423920;-0.11500;83.3125;111;62;0.41758
8423930;-0.09500;94.5000;111;62;0.40269
8423940;-0.09500;94.5000;111;62;0.40269
8423950;-0.08500;96.5625;111;62;0.39805
8423960;-0.05500;99.5625;111;62;0.38877
8423970;-0.05500;99.5625;111;62;0.38877
8423980;-0.01500;104.9375;111;62;0.37631
8423990;0.01000;106.8750;111;62;0.37363
8424000;0.01000;106.8750;111;62;0.37363
8424010;0.06500;112.1875;111;62;0.36386
8424020;0.06500;112.1875;111;62;0.36386
8424030;0.10000;113.6250;111;62;0.36068
8424040;0.12000;115.8125;111;62;0.35507
8424050;0.12000;115.8125;111;62;0.35507
8424060;0.05000;117.9375;111;62;0.34823
8424070;0.05000;117.9375;111;62;0.34823
8424080;0.00000;118.3125;111;62;0.34603
8424090;-0.03500;118.5625;111;62;0.34481
8424100;-0.07000;118.6875;111;62;0.34310
8424110;-0.09000;118.6250;111;62;0.34164
8424120;-0.11000;118.1875;111;62;0.33871
8424130;-0.11000;118.1875;111;62;0.33871
8424140;-0.11500;116.6875;111;62;0.33871
8424150;-0.11500;116.6875;111;62;0.33871
8424160;-0.11500;115.9375;111;62;0.34212
8424170;-0.11500;112.4375;111;62;0.36947
8424180;-0.11500;112.4375;111;62;0.36947
8424190;-0.12000;110.6250;111;62;0.38266
8424200;-0.12000;105.9375;111;62;0.41929
8424210;-0.12000;105.9375;111;62;0.41929
8424220;-0.12500;98.5625;111;62;0.48400
8424230;-0.13500;97.1250;111;62;0.50525
8424240;-0.13500;97.1250;111;62;0.50525
8424250;-0.14500;94.8750;111;62;0.56630
8424260;-0.13500;94.3750;111;62;0.58535
8424270;-0.13500;94.3750;111;62;0.58535
8424280;-0.13000;93.1250;111;62;0.61929
8424290;-0.13000;93.1250;111;62;0.61929
8424300;-0.12500;91.7500;111;62;0.64786
8424310;-0.11500;91.0000;111;62;0.66325
8424320;-0.11500;90.2500;111;62;0.67863
8424330;-0.10500;89.5625;111;62;0.69353
8424340;-0.10500;88.2500;111;62;0.72112
8424350;-0.10000;87.6250;111;62;0.73382
8424360;-0.10000;87.0625;111;62;0.74554
8424370;-0.09500;85.5625;111;62;0.77265
8424380;-0.09500;85.5625;111;62;0.77265
8424390;-0.09500;85.0625;111;62;0.77778
8424400;-0.09500;84.6250;111;62;0.78364
8424410;-0.09500;84.1875;111;62;0.78926
8424420;-0.09000;82.8750;111;62;0.80147
8424430;-0.09000;82.8750;111;62;0.80147
8424440;-0.07500;81.9375;111;62;0.80342
8424450;-0.07500;81.9375;111;62;0.80342
8424460;-0.07500;80.9375;111;62;0.79927
8424470;-0.07000;80.5000;111;62;0.79463
8424480;-0.05500;80.0000;111;62;0.78852
8424490;-0.04500;79.5625;111;62;0.78120
8424500;-0.04500;78.6875;111;62;0.76337
8424510;-0.03500;78.2500;111;62;0.75336
8424520;-0.04500;77.7500;111;62;0.74286
8424530;-0.06500;76.4375;111;62;0.70989
8424540;-0.06500;76.4375;111;62;0.70989
8424550;-0.09000;75.5625;111;62;0.68840
8424560;-0.09500;75.1250;111;62;0.67814
8424570;-0.09500;75.1250;111;62;0.67814
8424580;-0.08500;73.8750;111;62;0.65006
8424590;-0.10500;73.5000;111;62;0.64103
8424600;-0.10500;73.5000;111;62;0.64103
8424610;0.19500;72.3750;111;62;0.61441
8424620;0.19500;72.3750;111;62;0.61441
8424630;0.67000;72.0000;111;62;0.60586
8424640;0.83500;71.3750;111;62;0.58950
8424650;0.34000;70.7500;111;62;0.57411
8424660;0.34000;70.7500;111;62;0.57411
8424670;-0.10500;70.0625;111;62;0.55922
8424680;-0.10500;70.0625;111;62;0.55922
8424690;-0.17500;69.2500;111;62;0.54090
8424700;-0.18000;69.0000;111;62;0.53431
8424710;-0.18000;69.0000;111;62;0.53431
8424720;-0.18500;68.8125;111;62;0.52772
8424730;-0.18500;68.6250;111;62;0.52137
8424740;-0.19000;67.8750;111;62;0.50256
8424750;-0.19000;67.8750;111;62;0.50256
8424760;-0.19000;67.5625;111;62;0.49670
8424770;-0.18500;66.7500;111;62;0.48034
8424780;-0.18500;66.7500;111;62;0.48034
8424790;-0.18000;66.6250;111;62;0.47570
8424800;-0.18000;66.7500;111;62;0.47033
8424810;-0.17500;71.5625;111;62;0.45470
8424820;-0.17500;71.5625;111;62;0.45470
8424830;-0.16000;80.5625;111;62;0.44493
8424840;-0.16000;80.5625;111;62;0.44493
8424850;-0.14500;85.4375;111;62;0.44005
8424860;-0.12500;95.5625;111;62;0.42662
8424870;-0.11500;97.4375;111;62;0.42222
8424880;-0.09500;98.8750;111;62;0.41905
8424890;-0.09500;98.8750;111;62;0.41905
8424900;-0.05000;103.6875;111;62;0.40928
8424910;-0.02500;105.5625;111;62;0.40562
8424920;-0.02500;105.5625;111;62;0.40562
8424930;0.03500;111.0000;111;62;0.39512
8424940;0.06500;112.5000;111;62;0.39219
8424950;0.06500;112.5000;111;62;0.39219
8424960;0.11000;114.9375;111;62;0.38681
8424970;0.11000;114.9375;111;62;0.38681
8424980;0.10000;116.5625;111;62;0.38266
8424990;0.07000;117.1875;111;62;0.38144
8425000;-0.02500;117.9375;111;62;0.37851
8425010;-0.02500;117.9375;111;62;0.37851
8425020;-0.06500;118.3125;111;62;0.37558
8425030;-0.11000;118.1250;111;62;0.37192
8425040;-0.11000;118.1250;111;62;0.37192
8425050;-0.12000;117.8750;111;62;0.36996
8425060;-0.12500;116.5000;111;62;0.36679
8425070;-0.12500;116.5000;111;62;0.36679
8425080;-0.12500;115.8125;111;62;0.36801
8425090;-0.12500;112.6250;111;62;0.35018
8425100;-0.12500;112.6250;111;62;0.35018
8425110;-0.12500;111.0625;111;62;0.35702
8425120;-0.12500;109.1250;111;62;0.36874
8425130;-0.12500;106.8750;111;62;0.38413
8425140;-0.12500;101.6250;111;62;0.42076
8425150;-0.12500;97.2500;111;62;0.45958
8425160;-0.11500;95.8125;111;62;0.47863
8425170;-0.11500;94.0625;111;62;0.51233
8425180;-0.11500;93.3750;111;62;0.52601
8425190;-0.11500;93.3750;111;62;0.52601
8425200;-0.10500;92.1875;111;62;0.55653
8425210;-0.10000;90.7500;111;62;0.58706
8425220;-0.10000;90.7500;111;62;0.58706
8425230;-0.09000;89.1875;111;62;0.61563
8425240;-0.09000;89.1875;111;62;0.61563
8425250;-0.08500;88.3750;111;62;0.62906
8425260;-0.07500;86.8750;111;62;0.65372
8425270;-0.07500;85.5625;111;62;0.67473
8425280;-0.07500;85.5625;111;62;0.67473
8425290;-0.07500;84.9375;111;62;0.68205
8425300;-0.07500;83.2500;111;62;0.70134
8425310;-0.07500;83.2500;111;62;0.70134
8425320;-0.07500;82.7500;111;62;0.70720
8425330;-0.07000;81.1875;111;62;0.72063
8425340;-0.07000;81.1875;111;62;0.72063
8425350;-0.06500;80.6875;111;62;0.72283
8425360;-0.06500;80.1250;111;62;0.72405
8425370;-0.06500;79.6250;111;62;0.72405
8425380;-0.06500;78.6250;111;62;0.71966
8425390;-0.05500;78.1250;111;62;0.71502
8425400;-0.04500;77.6250;111;62;0.70940
8425410;-0.02000;76.1250;111;62;0.68523
8425420;-0.02000;76.1250;111;62;0.68523
8425430;-0.01000;75.6875;111;62;0.67473
8425440;-0.02500;74.6875;111;62;0.65153
8425450;-0.02500;74.6875;111;62;0.65153
8425460;-0.02500;73.7500;111;62;0.62759
8425470;-0.04500;73.3125;111;62;0.61587
8425480;-0.07000;72.8750;111;62;0.60440
8425490;-0.06500;71.6250;111;62;0.57338
8425500;-0.06500;71.6250;111;62;0.57338
8425510;-0.06000;71.1875;111;62;0.56288
8425520;-0.09000;70.8125;111;62;0.55238
8425530;0.34500;69.5625;111;62;0.52112
8425540;0.86000;69.2500;111;62;0.51111
8425550;0.86000;69.2500;111;62;0.51111
8425560;0.78500;68.5625;111;62;0.49133
8425570;0.28000;68.0000;111;62;0.47375
8425580;0.28000;68.0000;111;62;0.47375
8425590;-0.00500;67.6875;111;62;0.46667
8425600;-0.08500;67.3750;111;62;0.45885
8425610;-0.14500;66.5000;111;62;0.43394
8425620;-0.14500;66.5000;111;62;0.43394
8425630;-0.15000;65.9375;111;62;0.41807
8425640;-0.14500;65.6875;111;62;0.41050
8425650;-0.14500;65.6875;111;62;0.41050
8425660;-0.14500;64.6875;111;62;0.38926
8425670;-0.14500;64.3125;111;62;0.38242
8425680;-0.14500;64.3125;111;62;0.38242
8425690;-0.14500;63.3125;111;62;0.36630
8425700;-0.14000;63.1250;111;62;0.36020
8425710;-0.14000;63.1250;111;62;0.36020
8425720;-0.13500;63.1875;111;62;0.34774
8425730;-0.13500;65.3125;111;62;0.33553
8425740;-0.12500;68.0625;111;62;0.32943
8425750;-0.12000;72.0000;111;62;0.32357
8425760;-0.11500;76.6875;111;62;0.31795
8425770;-0.11500;76.6875;111;62;0.31795
8425780;-0.09500;88.8125;111;62;0.30476
8425790;-0.09500;88.8125;111;62;0.30476
8425800;-0.06500;93.2500;111;62;0.29646
8425810;-0.04500;96.1250;111;62;0.28767
8425820;-0.04500;96.1250;111;62;0.28767
8425830;-0.04500;96.1250;111;62;0.28767
8425840;0.03000;100.6875;111;62;0.27546
8425850;0.04500;100.6875;111;62;0.27546
8425860;0.07000;103.9375;111;62;0.26813
8425870;0.10000;105.4375;111;62;0.26496
8425880;0.12500;106.7500;111;62;0.26178
8425890;0.13500;107.9375;111;62;0.25983
8425900;0.07500;110.1250;111;62;0.25421
8425910;0.07500;110.1250;111;62;0.25421
8425920;0.02000;110.5000;111;62;0.25177
8425930;-0.05500;110.9375;111;62;0.24396
8425940;-0.05500;110.9375;111;62;0.24396
8425950;-0.08500;110.8125;111;62;0.24151
8425960;-0.11000;110.3125;111;62;0.23614
8425970;-0.12000;109.3750;111;62;0.23272
8425980;-0.12000;109.3750;111;62;0.23272
8425990;-0.12500;108.6875;111;62;0.23272
8426000;-0.12500;106.8125;111;62;0.23346
8426010;-0.12500;106.8125;111;62;0.23346
8426020;-0.12500;101.7500;111;62;0.24982
8426030;-0.12500;101.7500;111;62;0.24982
8426040;-0.12500;99.3750;111;62;0.26203
8426050;-0.12500;92.3125;111;62;0.31551
8426060;-0.12500;92.3125;111;62;0.31551
8426070;-0.12500;90.8750;111;62;0.33700
8426080;-0.12500;89.3750;111;62;0.37460
8426090;-0.12000;88.4375;111;62;0.41392
8426100;-0.12000;88.4375;111;62;0.41392
8426110;-0.11500;87.3125;111;62;0.45250
8426120;-0.11500;87.3125;111;62;0.45250
8426130;-0.11500;86.6875;111;62;0.47082
8426140;-0.11500;84.6250;111;62;0.52234
8426150;-0.11500;84.6250;111;62;0.52234
8426160;-0.11500;84.0000;111;62;0.53871
8426170;-0.11500;82.2500;111;62;0.58071
8426180;-0.11500;82.2500;111;62;0.58071
8426190;-0.11000;81.6875;111;62;0.59072
8426200;-0.10000;80.6875;111;62;0.61270
8426210;-0.10000;80.6875;111;62;0.61270
8426220;-0.10000;79.1875;111;62;0.64176
8426230;-0.10000;78.7500;111;62;0.64982
8426240;-0.10000;78.7500;111;62;0.64982
8426250;-0.09500;77.5625;111;62;0.66764
8426260;-0.09500;77.1250;111;62;0.67106
8426270;-0.09500;77.1250;111;62;0.67106
8426280;-0.09500;76.2500;111;62;0.67228
8426290;-0.09000;75.3125;111;62;0.66911
8426300;-0.09000;75.3125;111;62;0.66911
8426310;-0.07500;74.8750;111;62;0.66520
8426320;-0.05500;74.4375;111;62;0.65983
8426330;-0.04500;74.0000;111;62;0.65299
8426340;-0.04500;72.6250;111;62;0.62613
8426350;-0.06000;72.1875;111;62;0.61612
8426360;-0.06500;71.7500;111;62;0.60586
8426370;-0.06500;71.7500;111;62;0.60586
8426380;-0.09500;70.5625;111;62;0.57778
8426390;-0.09500;70.1250;111;62;0.56899
8426400;-0.09500;70.1250;111;62;0.56899
8426410;-0.09000;68.9375;111;62;0.54115
8426420;-0.09000;68.9375;111;62;0.54115
8426430;-0.08500;68.1250;111;62;0.52308
8426440;0.17500;67.7500;111;62;0.51453
8426450;0.17500;67.7500;111;62;0.51453
8426460;0.68000;67.0625;111;62;0.49890
8426470;0.87000;66.4375;111;62;0.48547
8426480;0.36500;66.1250;111;62;0.47985
8426490;0.36500;66.1250;111;62;0.47985
8426500;-0.11500;65.3750;111;62;0.46129
8426510;-0.16000;65.1250;111;62;0.45495
8426520;-0.16000;65.1250;111;62;0.45495
8426530;-0.19000;64.3750;111;62;0.43516
8426540;-0.19000;64.3750;111;62;0.43516
8426550;-0.19000;64.1250;111;62;0.42857
8426560;-0.19000;63.5625;111;62;0.41514
8426570;-0.19000;62.9375;111;62;0.40317
8426580;-0.19000;62.5625;111;62;0.39829
8426590;-0.19000;62.5625;111;62;0.39829
8426600;-0.10500;97.4375;111;62;0.29719
8426610;-0.10500;97.4375;111;62;0.29719
8426620;-0.10500;97.4375;111;62;0.29719
8426630;-0.10500;97.4375;111;62;0.29719
8426640;-0.10500;97.4375;111;62;0.29719
8426650;-0.10500;97.4375;111;62;0.29719
8426660;-0.10500;97.4375;111;62;0.29719
8426670;-0.10500;97.4375;111;62;0.29719
8426680;-0.07500;88.9375;111;62;0.42222
8426690;-0.07500;88.9375;111;62;0.42222
8426700;-0.07500;88.9375;111;62;0.42222
8426710;-0.07500;88.9375;111;62;0.42222
8426720;-0.07500;88.9375;111;62;0.42222
8426730;-0.07500;88.9375;111;62;0.42222
8426740;-0.07500;88.9375;111;62;0.42222
8426750;-0.07500;88.9375;111;62;0.42222
8426760;-0.07500;88.9375;111;62;0.42222
8426770;-0.07500;88.9375;111;62;0.42222
8426780;-0.07500;88.9375;111;62;0.42222
8426790;-0.07500;88.9375;111;62;0.42222
8426800;-0.07500;88.9375;111;62;0.42222
8426810;-0.07500;88.9375;111;62;0.42222
8426820;-0.07500;88.9375;111;62;0.42222
8426830;-0.07500;88.9375;111;62;0.42222
8426840;-0.07500;88.9375;111;62;0.42222
8426850;-0.07500;88.9375;111;62;0.42222
8426860;-0.07500;88.9375;111;62;0.42222
8426870;-0.07500;88.9375;111;62;0.42222
8426880;-0.07500;88.9375;111;62;0.42222
8426890;-0.07500;88.9375;111;62;0.42222
8426900;-0.07500;88.9375;111;62;0.42222
8426910;-0.07500;88.9375;111;62;0.42222
8426920;-0.07500;88.9375;111;62;0.42222
8426930;-0.07500;88.9375;111;62;0.42222
8426940;-0.07500;88.9375;111;62;0.42222
8426950;-0.07500;88.9375;111;62;0.42222
8426960;-0.07500;88.9375;111;62;0.42222
8426970;-0.07500;88.9375;111;62;0.42222
8426980;-0.07500;88.9375;111;62;0.42222
8426990;-0.07500;88.9375;111;62;0.42222
8427000;-0.07500;88.9375;112;62;0.42222
8427010;-0.07500;88.9375;112;62;0.42222
8427020;-0.07500;87.9375;112;62;0.46447
8427030;-0.07500;86.6250;112;62;0.50379
8427040;-0.07500;86.6250;112;62;0.50379
8427050;-0.07000;85.8750;112;62;0.52259
8427060;-0.06500;84.5000;112;62;0.55873
8427070;-0.06000;83.8125;112;62;0.57582
8427080;-0.05500;83.1875;112;62;0.58974
8427090;-0.06000;82.6250;112;62;0.60195
8427100;-0.06000;81.5000;112;62;0.62857
8427110;-0.05500;80.4375;112;62;0.65421
8427120;-0.05500;80.4375;112;62;0.65421
8427130;-0.05500;79.1875;112;62;0.70085
8427140;-0.05500;78.7500;112;62;0.71429
8427150;-0.05500;78.7500;112;62;0.71429
8427160;-0.04500;77.8750;112;62;0.73284
8427170;-0.04500;77.8750;112;62;0.73284
8427180;-0.04500;77.0000;112;62;0.74310
8427190;-0.04500;76.6250;112;62;0.74457
8427200;-0.04500;76.1875;112;62;0.74554
8427210;-0.03500;74.8750;112;62;0.74090
8427220;-0.03500;74.8750;112;62;0.74090
8427230;-0.01500;74.4375;112;62;0.73578
8427240;0.00000;74.0000;112;62;0.72894
8427250;0.01000;73.5625;112;62;0.72063
8427260;0.01000;72.6875;112;62;0.70110
8427270;0.00000;72.2500;112;62;0.69011
8427280;-0.01500;71.8750;112;62;0.67961
8427290;-0.02000;71.4375;112;62;0.66935
8427300;-0.03500;70.6250;112;62;0.64737
8427310;-0.05500;70.2500;112;62;0.63639
8427320;-0.05500;69.4375;112;62;0.62564
8427330;-0.04500;69.4375;112;62;0.61514
8427340;-0.05000;68.6875;112;62;0.59536
8427350;0.00000;67.9375;112;62;0.57729
8427360;0.35000;67.6250;112;62;0.56874
8427370;0.35000;67.6250;112;62;0.56874
8427380;1.13000;66.6250;112;62;0.54628
8427390;0.84000;66.3750;112;62;0.53895
8427400;0.84000;66.3750;112;62;0.53895
8427410;0.03500;65.5000;112;62;0.51697
8427420;0.03500;65.5000;112;62;0.51697
8427430;-0.09500;65.0625;112;62;0.50256
8427440;-0.11000;64.8125;112;62;0.49524
8427450;-0.11000;64.8125;112;62;0.49524
8427460;-0.12000;64.1250;112;62;0.47326
8427470;-0.12000;63.8750;112;62;0.46691
8427480;-0.12000;63.8750;112;62;0.46691
8427490;-0.11500;63.5625;112;62;0.46129
8427500;-0.11500;62.8125;112;62;0.44762
8427510;-0.11500;62.4375;112;62;0.44078
8427520;-0.11500;62.1250;112;62;0.43394
8427530;-0.11000;61.8125;112;62;0.42735
8427540;-0.11500;61.4375;112;62;0.41490
8427550;-0.11000;61.5000;112;62;0.40879
8427560;-0.11000;62.0000;112;62;0.40293
8427570;-0.10500;69.8125;112;62;0.38730
8427580;-0.09500;74.6250;112;62;0.38364
8427590;-0.09500;74.6250;112;62;0.38364
8427600;-0.09500;79.5625;112;62;0.37924
8427610;-0.07500;90.3125;112;62;0.36532
8427620;-0.07500;90.3125;112;62;0.36532
8427630;-0.06000;92.3750;112;62;0.36068
8427640;-0.02500;95.2500;112;62;0.35214
8427650;-0.02500;95.2500;112;62;0.35214
8427660;-0.00500;98.3125;112;62;0.34457
8427670;0.05000;101.8750;112;62;0.33797
8427680;0.05000;101.8750;112;62;0.33797
8427690;0.08500;103.5625;112;62;0.33602
8427700;0.15000;107.9375;112;62;0.32845
8427710;0.15000;107.9375;112;62;0.32845
8427720;0.14500;109.8750;112;62;0.32332
8427730;0.10500;111.0625;112;62;0.31795
8427740;0.10500;111.0625;112;62;0.31795
8427750;0.00000;111.6875;112;62;0.31282
8427760;-0.03500;111.8750;112;62;0.31038
8427770;-0.03500;111.8750;112;62;0.31038
8427780;-0.07000;111.6250;112;62;0.30672
8427790;-0.08500;111.3125;112;62;0.30476
8427800;-0.08500;111.3125;112;62;0.30476
8427810;-0.09000;109.6875;112;62;0.29988
8427820;-0.09000;109.6875;112;62;0.29988
8427830;-0.09500;108.8750;112;62;0.29988
8427840;-0.09500;107.8750;112;62;0.30208
8427850;-0.09500;103.2500;112;62;0.32650
8427860;-0.09500;101.0000;112;62;0.34164
8427870;-0.09500;101.0000;112;62;0.34164
8427880;-0.09000;95.7500;112;62;0.37460
8427890;-0.09000;91.5625;112;62;0.41734
8427900;-0.09000;91.5625;112;62;0.41734
8427910;-0.08500;89.6875;112;62;0.46349
8427920;-0.08500;89.6875;112;62;0.46349
8427930;-0.07500;88.2500;112;62;0.52869
8427940;-0.07500;88.2500;112;62;0.52869
8427950;-0.07000;87.0000;112;62;0.56947
8427960;-0.07000;86.3125;112;62;0.58877
8427970;-0.07500;84.9375;112;62;0.61856
8427980;-0.07500;84.9375;112;62;0.61856
8427990;-0.07500;84.2500;112;62;0.63394
8428000;-0.07000;83.0000;113;63;0.66496
8428010;-0.07000;83.0000;113;63;0.66496
8428020;-0.07000;81.8125;113;63;0.69328
8428030;-0.07000;80.7500;113;63;0.71868
8428040;-0.07000;80.7500;113;63;0.71868
8428050;-0.07000;79.3125;113;63;0.74896
8428060;-0.07000;79.3125;113;63;0.74896
8428070;-0.06500;78.8750;113;63;0.75702
8428080;-0.06500;77.9375;113;63;0.76557
8428090;-0.06500;77.0000;113;63;0.77241
8428100;-0.06500;77.0000;113;63;0.77241
8428110;-0.06500;76.0000;113;63;0.77582
8428120;-0.06500;76.0000;113;63;0.77582
8428130;-0.05500;74.6875;113;63;0.76996
8428140;-0.05500;74.6875;113;63;0.76996
8428150;-0.03000;73.8125;113;63;0.75800
8428160;-0.02500;73.3750;113;63;0.74994
8428170;-0.01000;72.4375;113;63;0.73187
8428180;-0.01000;72.4375;113;63;0.73187
8428190;-0.01500;71.9375;113;63;0.72186
8428200;-0.03500;71.0625;113;63;0.70012
8428210;-0.03500;71.0625;113;63;0.70012
8428220;-0.06500;69.8125;113;63;0.66618
8428230;-0.07500;69.4375;113;63;0.65470
8428240;-0.07500;69.4375;113;63;0.65470
8428250;-0.06500;68.1875;113;63;0.62149
8428260;-0.07500;67.8125;113;63;0.61074
8428270;-0.07500;67.4375;113;63;0.60098
8428280;0.11500;67.1250;113;63;0.59194
8428290;0.11500;67.1250;113;63;0.59194
8428300;0.57500;66.4375;113;63;0.57216
8428310;1.03500;65.8125;113;63;0.55238
8428320;1.03500;65.8125;113;63;0.55238
8428330;0.56500;65.5000;113;63;0.54286
8428340;-0.05000;64.6250;113;63;0.51575
8428350;-0.05000;64.6250;113;63;0.51575
8428360;-0.10500;64.3750;113;63;0.50720
8428370;-0.13500;64.1250;113;63;0.49890
8428380;-0.15500;63.3750;113;63;0.47814
8428390;-0.15500;63.3750;113;63;0.47814
8428400;-0.15000;63.1250;113;63;0.47057
8428410;-0.15000;62.8125;113;63;0.46300
8428420;-0.15500;62.1875;113;63;0.44786
8428430;-0.16000;61.8125;113;63;0.44029
8428440;-0.16000;61.4375;113;63;0.43297
8428450;-0.15500;61.1250;113;63;0.42564
8428460;-0.15000;60.6875;113;63;0.41148
8428470;-0.14500;60.6875;113;63;0.40464
8428480;-0.13500;61.0625;113;63;0.39927
8428490;-0.12500;62.1250;113;63;0.39463
8428500;-0.11500;67.9375;113;63;0.38364
8428510;-0.10500;77.6250;113;63;0.37241
8428520;-0.10500;77.6250;113;63;0.37241
8428530;-0.08500;89.1875;113;63;0.35556
8428540;-0.07000;91.3125;113;63;0.34994
8428550;-0.07000;91.3125;113;63;0.34994
8428560;-0.05500;92.9375;113;63;0.34457
8428570;-0.03500;94.3125;113;63;0.33944
8428580;-0.00500;97.3750;113;63;0.33284
8428590;0.04000;100.8750;113;63;0.32503
8428600;0.04000;100.8750;113;63;0.32503
8428610;0.06500;102.6250;113;63;0.32088
8428620;0.13000;107.1250;113;63;0.30794
8428630;0.13000;107.1250;113;63;0.30794
8428640;0.15500;108.2500;113;63;0.30403
8428650;0.13000;110.3750;113;63;0.29451
8428660;0.13000;110.3750;113;63;0.29451
8428670;0.08000;110.8125;113;63;0.29206
8428680;0.03000;111.1250;113;63;0.29060
8428690;-0.01500;111.3750;113;63;0.28962
8428700;-0.04500;111.4375;113;63;0.28523
8428710;-0.07000;111.3125;113;63;0.28254
8428720;-0.08000;111.1250;113;63;0.27961
8428730;-0.09000;110.7500;113;63;0.27668
8428740;-0.09500;109.7500;113;63;0.27253
8428750;-0.10500;109.0000;113;63;0.27228
8428760;-0.11000;108.1875;113;63;0.27424
8428770;-0.11000;104.1250;113;63;0.29573
8428780;-0.11000;104.1250;113;63;0.29573
8428790;-0.11000;102.1250;113;63;0.30916
8428800;-0.11000;97.1875;113;63;0.34628
8428810;-0.11000;97.1875;113;63;0.34628
8428820;-0.10500;92.4375;113;63;0.39170
8428830;-0.09500;89.8750;113;63;0.43932
8428840;-0.09500;89.1250;113;63;0.46227
8428850;-0.09500;89.1250;113;63;0.46227
8428860;-0.09500;87.4375;113;63;0.52625
8428870;-0.09500;87.4375;113;63;0.52625
8428880;-0.09500;86.8125;113;63;0.54383
8428890;-0.09500;84.8750;113;63;0.59487
8428900;-0.09500;84.8750;113;63;0.59487
8428910;-0.09000;84.1875;113;63;0.61221
8428920;-0.08500;82.9375;113;63;0.64567
8428930;-0.08500;82.9375;113;63;0.64567
8428940;-0.08500;81.8125;113;63;0.67619
8428950;-0.08000;80.6875;113;63;0.70281
8428960;-0.08000;80.6875;113;63;0.70281
8428970;-0.08000;79.1875;113;63;0.72991
8428980;-0.08000;79.1875;113;63;0.72991
8428990;-0.08500;78.6875;113;63;0.73724
8429000;-0.07500;77.6875;113;63;0.75067
8429010;-0.07500;76.7500;113;63;0.76020
8429020;-0.07500;76.7500;113;63;0.76020
8429030;-0.08000;75.8750;113;63;0.76484
8429040;-0.08000;75.4375;113;63;0.76484
8429050;-0.08000;75.4375;113;63;0.76484
8429060;-0.07000;74.0625;113;63;0.75482
8429070;-0.07000;74.0625;113;63;0.75482
8429080;-0.05500;73.6250;113;63;0.74823
8429090;-0.03000;72.2500;113;63;0.72063
8429100;-0.03000;72.2500;113;63;0.72063
8429110;-0.03500;71.3125;113;63;0.69768
8429120;-0.05000;70.8750;113;63;0.68596
8429130;-0.05000;70.8750;113;63;0.68596
8429140;-0.07000;69.6250;113;63;0.65153
8429150;-0.08500;69.2500;113;63;0.64029
8429160;-0.08500;69.2500;113;63;0.64029
8429170;-0.08500;68.0625;113;63;0.60317
8429180;-0.08500;68.0625;113;63;0.60317
8429190;-0.11000;67.3125;113;63;0.56825
8429200;-0.11000;67.3125;113;63;0.56825
8429210;-0.03500;67.0000;113;63;0.55556
8429220;0.30000;66.3125;113;63;0.53358
8429230;0.80500;65.9375;113;63;0.52357
8429240;0.81500;65.3750;113;63;0.50501
8429250;0.81500;65.3750;113;63;0.50501
8429260;0.31000;64.8750;113;63;0.48718
8429270;0.01000;64.5625;113;63;0.47888
8429280;-0.08500;64.3125;113;63;0.47179
8429290;-0.14500;63.5625;113;63;0.45104
8429300;-0.14500;63.5625;113;63;0.45104
8429310;-0.15500;63.3750;113;63;0.44371
8429320;-0.15500;63.2500;113;63;0.43614
8429330;-0.15500;63.0625;113;63;0.42882
8429340;-0.15000;62.3750;113;63;0.40781
8429350;-0.15000;62.3750;113;63;0.40781
8429360;-0.14500;62.0625;113;63;0.40122
8429370;-0.14500;61.3125;113;63;0.38486
8429380;-0.14500;61.3125;113;63;0.38486
8429390;-0.15000;61.3125;113;63;0.37973
8429400;-0.14500;61.5000;113;63;0.37411
8429410;-0.14000;67.3750;113;63;0.35678
8429420;-0.13500;71.7500;113;63;0.35092
8429430;-0.13500;71.7500;113;63;0.35092
8429440;-0.12500;81.4375;113;63;0.33919
8429450;-0.11500;88.7500;113;63;0.32772
8429460;-0.11500;88.7500;113;63;0.32772
8429470;-0.10000;91.1875;113;63;0.32259
8429480;-0.08500;93.0000;113;63;0.31868
8429490;-0.07000;94.5000;113;63;0.31551
8429500;-0.05000;97.4375;113;63;0.30769
8429510;-0.03000;99.1250;113;63;0.30354
8429520;-0.00500;100.8125;113;63;0.29939
8429530;0.02000;102.6250;113;63;0.29548
8429540;0.07500;107.5625;113;63;0.28498
8429550;0.07500;107.5625;113;63;0.28498
8429560;0.10500;108.8750;113;63;0.28230
8429570;0.12000;109.8750;113;63;0.27961
8429580;0.11000;111.4375;113;63;0.27766
8429590;0.07500;112.0000;113;63;0.27643
8429600;0.03000;112.5000;113;63;0.27473
8429610;-0.05500;112.8750;113;63;0.26911
8429620;-0.05500;112.8750;113;63;0.26911
8429630;-0.09500;112.3750;113;63;0.26569
8429640;-0.10500;112.0625;113;63;0.26398
8429650;-0.10500;112.0625;113;63;0.26398
8429660;-0.11000;110.7500;113;63;0.26203
8429670;-0.11000;110.7500;113;63;0.26203
8429680;-0.11500;109.3125;113;63;0.26740
8429690;-0.11500;107.0625;113;63;0.28230
8429700;-0.11500;107.0625;113;63;0.28230
8429710;-0.11500;103.5000;113;63;0.31087
8429720;-0.11000;101.1875;113;63;0.32967
8429730;-0.11000;101.1875;113;63;0.32967
8429740;-0.11000;94.0000;113;63;0.39707
8429750;-0.11000;94.0000;113;63;0.39707
8429760;-0.11000;92.4375;113;63;0.42051
8429770;-0.11000;90.0000;113;63;0.48181
8429780;-0.11000;90.0000;113;63;0.48181
8429790;-0.11000;89.3750;113;63;0.50159
8429800;-0.10500;88.1875;113;63;0.54164
8429810;-0.10500;88.1875;113;63;0.54164
8429820;-0.10500;86.8750;113;63;0.57973
8429830;-0.10500;86.1875;113;63;0.59731
8429840;-0.10000;84.8125;113;63;0.63028
8429850;-0.10000;84.8125;113;63;0.63028
8429860;-0.09500;83.5000;113;63;0.65983
8429870;-0.08500;82.3125;113;63;0.67985
8429880;-0.08500;82.3125;113;63;0.67985
8429890;-0.09000;81.8125;113;63;0.68987
8429900;-0.09500;80.3750;113;63;0.71893
8429910;-0.09500;80.3750;113;63;0.71893
8429920;-0.09500;79.8750;113;63;0.72698
8429930;-0.09500;78.5000;113;63;0.74554
8429940;-0.09500;78.5000;113;63;0.74554
8429950;-0.09500;78.0625;113;63;0.74969
