RelativeTimeMilliseconds,ECG,ART,ART (Sys),ART (Dia),PPG
9000000,-0.14500,60.3750,113,58,0.40586
9000010,-0.15500,59.8750,113,58,0.39292
9000020,-0.15500,59.8750,113,58,0.39292
9000030,-0.16000,59.3750,113,58,0.38046
9000040,-0.16000,59.3750,113,58,0.38046
9000050,-0.15500,59.1250,113,58,0.37534
9000060,-0.15000,58.4375,113,58,0.36557
9000070,-0.14500,58.0625,113,58,0.35971
9000080,-0.14500,57.7500,113,58,0.35385
9000090,-0.14500,57.5000,113,58,0.34823
9000100,-0.14500,58.7500,113,58,0.33162
9000110,-0.14500,58.7500,113,58,0.33162
9000120,-0.13500,60.7500,113,58,0.32650
9000130,-0.12500,74.1875,113,58,0.31184
9000140,-0.12500,74.1875,113,58,0.31184
9000150,-0.12500,79.2500,113,58,0.30842
9000160,-0.11500,83.6875,113,58,0.30574
9000170,-0.09500,92.4375,113,58,0.29353
9000180,-0.09500,92.4375,113,58,0.29353
9000190,-0.06000,96.3750,113,58,0.28547
9000200,-0.04500,98.3125,113,58,0.28156
9000210,-0.04500,98.3125,113,58,0.28156
9000220,0.00000,104.0625,113,58,0.27106
9000230,0.00000,104.0625,113,58,0.27106
9000240,0.06000,107.3750,113,58,0.26569
9000250,0.09000,110.1250,113,58,0.26276
9000260,0.09000,110.1250,113,58,0.26276
9000270,0.14000,112.0625,113,58,0.25812
9000280,0.14500,112.8125,113,58,0.25568
9000290,0.14500,112.8125,113,58,0.25568
9000300,0.09500,114.0625,113,58,0.24811
9000310,0.04500,114.1875,113,58,0.24542
9000320,-0.00500,114.2500,113,58,0.24298
9000330,-0.00500,114.2500,113,58,0.24298
9000340,-0.04500,113.8750,113,58,0.23834
9000350,-0.09500,113.1875,113,58,0.23810
9000360,-0.10500,112.7500,113,58,0.23907
9000370,-0.10500,112.7500,113,58,0.23907
9000380,-0.11500,110.8125,113,58,0.25519
9000390,-0.11500,109.9375,113,58,0.26716
9000400,-0.11500,109.9375,113,58,0.26716
9000410,-0.11500,106.3125,113,58,0.32039
9000420,-0.11500,106.3125,113,58,0.32039
9000430,-0.11500,102.5000,113,58,0.36386
9000440,-0.11500,102.5000,113,58,0.36386
9000450,-0.11500,94.5625,113,58,0.42027
9000460,-0.11000,92.1875,113,58,0.43932
9000470,-0.11000,92.1875,113,58,0.43932
9000480,-0.10500,89.0625,113,58,0.47643
9000490,-0.10000,87.3750,113,58,0.51282
9000500,-0.10000,87.3750,113,58,0.51282
9000510,-0.10000,86.6250,113,58,0.53138
9000520,-0.10000,85.9375,113,58,0.54823
9000530,-0.09500,83.6875,113,58,0.59194
9000540,-0.09000,83.0000,113,58,0.60269
9000550,-0.09000,82.2500,113,58,0.61197
9000560,-0.08500,81.5625,113,58,0.62198
9000570,-0.08500,81.5625,113,58,0.62198
9000580,-0.08000,80.3750,113,58,0.64127
9000590,-0.08000,79.8125,113,58,0.64982
9000600,-0.08000,79.3125,113,58,0.65763
9000610,-0.08000,77.8125,113,58,0.67619
9000620,-0.08000,77.8125,113,58,0.67619
9000630,-0.07500,77.3750,113,58,0.68034
9000640,-0.07500,76.8750,113,58,0.68376
9000650,-0.07000,76.3750,113,58,0.68547
9000660,-0.07000,75.4375,113,58,0.68645
9000670,-0.07000,74.9375,113,58,0.68620
9000680,-0.06500,74.5000,113,58,0.68523
9000690,-0.06500,73.1250,113,58,0.67521
9000700,-0.06500,73.1250,113,58,0.67521
9000710,-0.07000,72.6875,113,58,0.66911
9000720,-0.06500,72.2500,113,58,0.66154
9000730,-0.06000,71.8125,113,58,0.65275
9000740,-0.04500,70.8750,113,58,0.63297
9000750,-0.03500,70.4375,113,58,0.62320
9000760,-0.02500,70.0000,113,58,0.61368
9000770,-0.02000,69.5000,113,58,0.60366
9000780,-0.02500,68.6875,113,58,0.58315
9000790,-0.04500,68.2500,113,58,0.57314
9000800,-0.06000,67.4375,113,58,0.55336
9000810,-0.06000,67.4375,113,58,0.55336
9000820,-0.08500,66.2500,113,58,0.52552
9000830,-0.07500,65.8125,113,58,0.51673
9000840,-0.06500,65.4375,113,58,0.50916
9000850,-0.06500,65.4375,113,58,0.50916
9000860,-0.08000,64.3750,113,58,0.48742
9000870,0.08500,64.0000,113,58,0.47985
9000880,0.08500,64.0000,113,58,0.47985
9000890,0.96500,63.0625,113,58,0.45812
9000900,0.96500,63.0625,113,58,0.45812
9000910,1.01000,62.7500,113,58,0.45128
9000920,0.13000,62.1875,113,58,0.43785
9000930,0.13000,62.1875,113,58,0.43785
9000940,-0.11500,61.5000,113,58,0.42002
9000950,-0.11500,61.5000,113,58,0.42002
9000960,-0.14500,61.3125,113,58,0.41538
9000970,-0.17000,60.6250,113,58,0.39902
9000980,-0.18000,60.3125,113,58,0.39316
9000990,-0.18000,60.3125,113,58,0.39316
9001000,-0.17000,59.8125,113,58,0.38193
9001010,-0.16500,59.1875,113,58,0.37070
9001020,-0.16000,58.8750,113,58,0.36532
9001030,-0.15500,58.6250,113,58,0.36020
9001040,-0.15500,58.6250,113,58,0.36020
9001050,-0.15000,59.5625,113,58,0.34872
9001060,-0.14500,61.4375,113,58,0.34432
9001070,-0.14500,61.4375,113,58,0.34432
9001080,-0.13500,69.3750,113,58,0.33553
9001090,-0.13500,69.3750,113,58,0.33553
9001100,-0.13000,79.6875,113,58,0.32698
9001110,-0.11500,87.7500,113,58,0.31868
9001120,-0.11500,87.7500,113,58,0.31868
9001130,-0.09500,94.8750,113,58,0.30794
9001140,-0.09500,94.8750,113,58,0.30794
9001150,-0.08500,96.8125,113,58,0.30598
9001160,-0.03500,100.9375,113,58,0.30012
9001170,-0.01500,104.9375,113,58,0.29402
9001180,-0.01500,104.9375,113,58,0.29402
9001190,0.03000,108.4375,113,58,0.28816
9001200,0.03000,108.4375,113,58,0.28816
9001210,0.05500,111.1875,113,58,0.28547
9001220,0.10500,113.1875,113,58,0.27863
9001230,0.10500,113.1875,113,58,0.27863
9001240,0.13000,113.9375,113,58,0.27643
9001250,0.10500,115.4375,113,58,0.27375
9001260,0.10500,115.4375,113,58,0.27375
9001270,0.06000,115.6250,113,58,0.27228
9001280,0.01000,115.7500,113,58,0.27033
9001290,-0.07000,115.3750,113,58,0.26496
9001300,-0.09500,115.0625,113,58,0.26422
9001310,-0.10500,114.6250,113,58,0.26471
9001320,-0.10500,114.6250,113,58,0.26471
9001330,-0.12000,114.0625,113,58,0.26716
9001340,-0.12500,112.6875,113,58,0.27937
9001350,-0.12500,111.8750,113,58,0.28889
9001360,-0.12500,110.9375,113,58,0.30134
9001370,-0.12500,109.8125,113,58,0.31673
9001380,-0.12000,106.8750,113,58,0.35336
9001390,-0.12000,104.9375,113,58,0.37314
9001400,-0.12000,100.0625,113,58,0.41221
9001410,-0.12000,100.0625,113,58,0.41221
9001420,-0.11500,92.6250,113,58,0.46593
9001430,-0.11000,91.1250,113,58,0.48230
9001440,-0.11000,91.1250,113,58,0.48230
9001450,-0.10500,88.5625,113,58,0.52210
9001460,-0.10000,87.8125,113,58,0.53578
9001470,-0.10000,87.8125,113,58,0.53578
9001480,-0.09500,86.3125,113,58,0.56288
9001490,-0.09500,84.8125,113,58,0.58755
9001500,-0.09000,84.1250,113,58,0.59902
9001510,-0.09000,84.1250,113,58,0.59902
9001520,-0.09000,83.4375,113,58,0.60977
9001530,-0.09000,82.7500,113,58,0.61978
9001540,-0.08500,80.8750,113,58,0.64151
9001550,-0.08500,80.3125,113,58,0.64786
9001560,-0.08500,80.3125,113,58,0.64786
9001570,-0.08000,78.8125,113,58,0.66471
9001580,-0.08000,78.8125,113,58,0.66471
9001590,-0.08500,77.8125,113,58,0.67228
9001600,-0.08500,77.8125,113,58,0.67228
9001610,-0.09000,77.3125,113,58,0.67473
9001620,-0.08500,75.8750,113,58,0.67668
9001630,-0.08500,75.8750,113,58,0.67668
9001640,-0.08500,75.3750,113,58,0.67521
9001650,-0.08000,74.9375,113,58,0.67253
9001660,-0.08000,74.0000,113,58,0.66398
9001670,-0.08000,73.5625,113,58,0.65812
9001680,-0.07500,73.1250,113,58,0.65128
9001690,-0.06000,71.7500,113,58,0.62589
9001700,-0.06000,71.7500,113,58,0.62589
9001710,-0.05000,71.3125,113,58,0.61636
9001720,-0.04500,70.8750,113,58,0.60684
9001730,-0.03500,70.3750,113,58,0.59731
9001740,-0.03500,69.5625,113,58,0.57949
9001750,-0.04500,69.1250,113,58,0.57143
9001760,-0.04500,68.6875,113,58,0.56288
9001770,-0.07000,67.5000,113,58,0.53724
9001780,-0.08500,67.1250,113,58,0.52869
9001790,-0.08500,67.1250,113,58,0.52869
9001800,-0.07500,66.7500,113,58,0.52039
9001810,-0.06500,66.3750,113,58,0.51233
9001820,-0.07500,65.6875,113,58,0.49695
9001830,0.01000,65.0000,113,58,0.48254
9001840,0.37500,64.6875,113,58,0.47643
9001850,0.37500,64.6875,113,58,0.47643
9001860,1.00000,63.7500,113,58,0.45885
9001870,1.00000,63.7500,113,58,0.45885
9001880,0.69000,63.5000,113,58,0.45275
9001890,-0.02500,62.7500,113,58,0.43468
9001900,-0.02500,62.7500,113,58,0.43468
9001910,-0.13500,62.2500,113,58,0.42344
9001920,-0.13500,62.2500,113,58,0.42344
9001930,-0.14500,62.0625,113,58,0.41783
9001940,-0.15500,61.3750,113,58,0.40440
9001950,-0.15500,61.3750,113,58,0.40440
9001960,-0.15500,61.1250,113,58,0.40000
9001970,-0.14500,60.2500,113,58,0.38559
9001980,-0.14500,60.2500,113,58,0.38559
9001990,-0.14500,59.9375,113,58,0.38071
9002000,-0.14000,59.6250,113,58,0.37582
9002010,-0.13000,60.5625,113,58,0.36190
9002020,-0.13000,62.4375,113,58,0.35726
9002030,-0.13000,62.4375,113,58,0.35726
9002040,-0.12500,70.1250,113,58,0.34969
9002050,-0.11500,80.5000,113,58,0.34359
9002060,-0.11500,80.5000,113,58,0.34359
9002070,-0.11000,85.0625,113,58,0.33993
9002080,-0.10500,88.7500,113,58,0.33626
9002090,-0.08000,96.1250,113,58,0.32527
9002100,-0.06500,98.0625,113,58,0.32186
9002110,-0.06500,98.0625,113,58,0.32186
9002120,-0.03500,102.1875,113,58,0.31551
9002130,-0.01500,106.2500,113,58,0.31087
9002140,-0.01500,106.2500,113,58,0.31087
9002150,0.01000,108.0625,113,58,0.30965
9002160,0.03500,109.7500,113,58,0.30769
9002170,0.06000,111.2500,113,58,0.30549
9002180,0.11500,114.5625,113,58,0.29890
9002190,0.11500,114.5625,113,58,0.29890
9002200,0.14000,115.3750,113,58,0.29670
9002210,0.14000,117.0000,113,58,0.29060
9002220,0.10000,117.3125,113,58,0.28864
9002230,0.05000,117.5000,113,58,0.28669
9002240,0.00000,117.5625,113,58,0.28596
9002250,0.00000,117.5625,113,58,0.28596
9002260,-0.03500,117.3125,113,58,0.28498
9002270,-0.07500,116.5625,113,58,0.28474
9002280,-0.07500,116.5625,113,58,0.28474
9002290,-0.09500,114.7500,113,58,0.29792
9002300,-0.09500,114.7500,113,58,0.29792
9002310,-0.09500,113.0625,113,58,0.32088
9002320,-0.09500,112.0000,113,58,0.33626
9002330,-0.09500,112.0000,113,58,0.33626
9002340,-0.09500,107.3750,113,58,0.38657
9002350,-0.09500,105.2500,113,58,0.40440
9002360,-0.09500,105.2500,113,58,0.40440
9002370,-0.09500,102.7500,113,58,0.42247
9002380,-0.09500,94.6875,113,58,0.47473
9002390,-0.09500,92.8125,113,58,0.49084
9002400,-0.09500,92.8125,113,58,0.49084
9002410,-0.09000,89.6250,113,58,0.53529
9002420,-0.09000,89.6250,113,58,0.53529
9002430,-0.08500,88.1250,113,58,0.56264
9002440,-0.08500,87.3750,113,58,0.57363
9002450,-0.07500,85.8750,113,58,0.59365
9002460,-0.07500,85.1250,113,58,0.60440
9002470,-0.07500,85.1250,113,58,0.60440
9002480,-0.07500,83.6875,113,58,0.62491
9002490,-0.07500,83.6875,113,58,0.62491
9002500,-0.06500,81.5625,113,58,0.65128
9002510,-0.06500,80.9375,113,58,0.65885
9002520,-0.06500,80.9375,113,58,0.65885
9002530,-0.06000,79.1875,113,58,0.67546
9002540,-0.06000,78.6250,113,58,0.69328
9002550,-0.06000,78.6250,113,58,0.69328
9002560,-0.05500,77.5000,113,58,0.73309
9002570,-0.05500,77.5000,113,58,0.73309
9002580,-0.05500,76.4375,113,58,0.74554
9002590,-0.05500,75.5000,113,58,0.74750
9002600,-0.05500,75.5000,113,58,0.74750
9002610,-0.05500,75.0000,113,58,0.74579
9002620,-0.04500,73.5000,113,58,0.73187
9002630,-0.04500,73.5000,113,58,0.73187
9002640,-0.04500,73.0000,113,58,0.72454
9002650,-0.04500,71.6250,113,58,0.69744
9002660,-0.04500,71.6250,113,58,0.69744
9002670,-0.04000,71.1250,113,58,0.68694
9002680,-0.02500,70.6875,113,58,0.67595
9002690,-0.01500,70.2500,113,58,0.66471
9002700,-0.00500,68.8750,113,58,0.63126
9002710,-0.01000,68.4375,113,58,0.62027
9002720,-0.01000,68.4375,113,58,0.60977
9002730,-0.02000,68.0000,113,58,0.60977
9002740,-0.02500,67.1875,113,58,0.58999
9002750,-0.05000,66.7500,113,58,0.58120
9002760,-0.06500,66.3750,113,58,0.57192
9002770,-0.04500,65.1875,113,58,0.54432
9002780,-0.04500,64.8125,113,58,0.53553
9002790,-0.04500,64.8125,113,58,0.53553
9002800,0.01500,64.1250,113,58,0.51844
9002810,0.34500,63.4375,113,58,0.50208
9002820,0.82500,63.1250,113,58,0.49426
9002830,0.82500,63.1250,113,58,0.49426
9002840,1.06000,62.8125,113,58,0.48645
9002850,0.27500,61.9375,113,58,0.46691
9002860,0.27500,61.9375,113,58,0.46691
9002870,0.01500,61.6250,113,58,0.45983
9002880,-0.10700,61.3000,113,58,0.45072
9002890,-0.14050,60.9813,113,58,0.44098
9002900,-0.13500,60.6875,113,58,0.43199
9002910,-0.14000,60.4375,113,58,0.42515
9002920,-0.14000,60.4375,113,58,0.42515
9002930,-0.13500,59.5625,113,58,0.40610
9002940,-0.13500,59.2500,113,58,0.40122
9002950,-0.13500,59.2500,113,58,0.40122
9002960,-0.13000,58.5625,113,58,0.39170
9002970,-0.13000,58.5625,113,58,0.39170
9002980,-0.12500,58.0000,113,58,0.37460
9002990,-0.12500,58.3125,113,58,0.36899
9003000,-0.12500,58.3125,113,58,0.36899
9003010,-0.11500,65.1250,113,58,0.35287
9003020,-0.10500,69.9375,113,58,0.34750
9003030,-0.09500,75.2500,113,58,0.34212
9003040,-0.09500,75.2500,113,58,0.34212
9003050,-0.08500,88.0000,113,58,0.33138
9003060,-0.07500,90.6875,113,58,0.32723
9003070,-0.06000,92.8750,113,58,0.32308
9003080,-0.04500,94.8125,113,58,0.31893
9003090,-0.04500,94.8125,113,58,0.31893
9003100,-0.01000,100.8125,113,58,0.30672
9003110,0.01000,102.8125,113,58,0.30281
9003120,0.01000,102.8125,113,58,0.30281
9003130,0.07000,108.2500,113,58,0.29231
9003140,0.10000,109.7500,113,58,0.29011
9003150,0.10000,109.7500,113,58,0.29011
9003160,0.12500,111.0000,113,58,0.28889
9003170,0.16500,113.6875,113,58,0.28181
9003180,0.16500,113.6875,113,58,0.28181
9003190,0.15500,114.3125,113,58,0.27937
9003200,0.12000,114.7500,113,58,0.27668
9003210,0.07500,115.1250,113,58,0.27399
9003220,0.02000,115.3750,113,58,0.26886
9003230,-0.05500,115.1875,113,58,0.26349
9003240,-0.05500,115.1875,113,58,0.26349
9003250,-0.08000,114.0000,113,58,0.26374
9003260,-0.08000,114.0000,113,58,0.26374
9003270,-0.08500,113.3750,113,58,0.26642
9003280,-0.08500,111.9375,113,58,0.28010
9003290,-0.08500,111.9375,113,58,0.28010
9003300,-0.09000,108.8125,113,58,0.32674
9003310,-0.09000,108.8125,113,58,0.32674
9003320,-0.09500,105.6250,113,58,0.37021
9003330,-0.09500,101.1250,113,58,0.41587
9003340,-0.09500,101.1250,113,58,0.41587
9003350,-0.09500,95.6250,113,58,0.45348
9003360,-0.09500,95.6250,113,58,0.45348
9003370,-0.08500,89.8750,113,58,0.50916
9003380,-0.08500,89.8750,113,58,0.50916
9003390,-0.07500,88.8750,113,58,0.52723
9003400,-0.07500,88.0000,113,58,0.54481
9003410,-0.07000,85.8125,113,58,0.59389
9003420,-0.07000,85.8125,113,58,0.59389
9003430,-0.06500,84.3125,113,58,0.62344
9003440,-0.06500,83.5625,113,58,0.63516
9003450,-0.06500,83.5625,113,58,0.63516
9003460,-0.06500,82.1250,113,58,0.65592
9003470,-0.06500,81.5000,113,58,0.66716
9003480,-0.06500,80.8750,113,58,0.67814
9003490,-0.06500,79.1875,113,58,0.70672
9003500,-0.06500,79.1875,113,58,0.70672
9003510,-0.06500,78.6875,113,58,0.71477
9003520,-0.06000,77.6250,113,58,0.72796
9003530,-0.06000,77.6250,113,58,0.72796
9003540,-0.06000,76.0625,113,58,0.73944
9003550,-0.06500,75.5625,113,58,0.74042
9003560,-0.06500,75.5625,113,58,0.74042
9003570,-0.06000,74.1250,113,58,0.74017
9003580,-0.06000,73.6875,113,58,0.73797
9003590,-0.06000,73.6875,113,58,0.73797
9003600,-0.05500,72.7500,113,58,0.72894
9003610,-0.05500,72.7500,113,58,0.72894
9003620,-0.05500,71.8125,113,58,0.71429
9003630,-0.04500,71.3125,113,58,0.70525
9003640,-0.03500,70.8750,113,58,0.69548
9003650,-0.02500,70.3750,113,58,0.68596
9003660,-0.01500,69.4375,113,58,0.66593
9003670,-0.00500,69.0000,113,58,0.65519
9003680,-0.01500,68.5625,113,58,0.64444
9003690,-0.03500,67.2500,113,58,0.61270
9003700,-0.03500,67.2500,113,58,0.61270
9003710,-0.07000,66.4375,113,58,0.59292
9003720,-0.06500,66.0625,113,58,0.58339
9003730,-0.06500,66.0625,113,58,0.58339
9003740,-0.05500,64.8750,113,58,0.55629
9003750,-0.08500,64.5000,113,58,0.54872
9003760,-0.08500,64.5000,113,58,0.54872
9003770,0.28500,63.4375,113,58,0.52430
9003780,0.28500,63.4375,113,58,0.52430
9003790,0.77500,63.1250,113,58,0.51624
9003800,0.85500,62.5000,113,58,0.50110
9003810,0.34500,61.8750,113,58,0.48669
9003820,0.34500,61.8750,113,58,0.48669
9003830,0.02000,61.5625,113,58,0.47937
9003840,-0.07500,61.3125,113,58,0.47228
9003850,-0.14500,60.5625,113,58,0.45495
9003860,-0.14500,60.5625,113,58,0.45495
9003870,-0.14500,60.3750,113,58,0.44835
9003880,-0.15000,59.8750,113,58,0.43541
9003890,-0.15000,59.8750,113,58,0.43541
9003900,-0.15500,58.9375,113,58,0.41587
9003910,-0.15000,58.6250,113,58,0.40952
9003920,-0.15000,58.6250,113,58,0.40952
9003930,-0.14500,58.2500,113,58,0.40317
9003940,-0.14500,57.6250,113,58,0.38681
9003950,-0.14500,57.6250,113,58,0.38681
9003960,-0.14000,57.8750,113,58,0.38291
9003970,-0.13000,64.3750,113,58,0.36752
9003980,-0.12000,69.0625,113,58,0.36215
9003990,-0.12000,69.0625,113,58,0.36215
9004000,-0.10500,79.3125,113,58,0.35165
9004010,-0.10500,79.3125,113,58,0.35165
9004020,-0.08500,90.0000,113,58,0.33700
9004030,-0.08500,90.0000,113,58,0.33700
9004040,-0.08000,92.2500,113,58,0.33236
9004050,-0.06500,94.2500,113,58,0.32918
9004060,-0.04500,98.0625,113,58,0.32381
9004070,-0.02000,100.1250,113,58,0.32039
9004080,0.00000,102.1250,113,58,0.31673
9004090,0.03000,104.0625,113,58,0.31331
9004100,0.08000,108.8750,113,58,0.30354
9004110,0.08000,108.8750,113,58,0.30354
9004120,0.13500,111.2500,113,58,0.29719
9004130,0.13500,111.2500,113,58,0.29719
9004140,0.14500,112.9375,113,58,0.29158
9004150,0.10000,113.9375,113,58,0.28938
9004160,0.05000,114.2500,113,58,0.28767
9004170,0.05000,114.2500,113,58,0.28767
9004180,-0.04500,114.3750,113,58,0.28034
9004190,-0.04500,114.3750,113,58,0.28034
9004200,-0.08000,114.1875,113,58,0.27790
9004210,-0.09500,113.8750,113,58,0.27570
9004220,-0.10500,112.9375,113,58,0.27448
9004230,-0.11500,112.3750,113,58,0.27692
9004240,-0.11500,110.9375,113,58,0.29011
9004250,-0.11500,108.8750,113,58,0.31526
9004260,-0.12000,107.6250,113,58,0.33333
9004270,-0.12000,106.1250,113,58,0.35385
9004280,-0.12000,104.3125,113,58,0.37607
9004290,-0.12000,104.3125,113,58,0.37607
9004300,-0.11500,96.8125,113,58,0.44518
9004310,-0.11000,94.1250,113,58,0.46691
9004320,-0.11000,94.1250,113,58,0.46691
9004330,-0.10000,88.8125,113,58,0.52698
9004340,-0.09500,87.9375,113,58,0.54310
9004350,-0.09500,87.9375,113,58,0.54310
9004360,-0.09000,86.5000,113,58,0.57363
9004370,-0.09000,86.5000,113,58,0.57363
9004380,-0.08500,85.0000,113,58,0.60611
9004390,-0.08000,83.5625,113,58,0.63736
9004400,-0.08000,83.5625,113,58,0.63736
9004410,-0.07500,81.4375,113,58,0.67985
9004420,-0.07500,81.4375,113,58,0.67985
9004430,-0.07500,80.7500,113,58,0.69255
9004440,-0.07500,80.1875,113,58,0.70427
9004450,-0.07500,79.6250,113,58,0.71331
9004460,-0.06500,78.5625,113,58,0.72845
9004470,-0.06500,77.6250,113,58,0.74408
9004480,-0.06500,77.6250,113,58,0.74408
9004490,-0.06500,76.1250,113,58,0.76166
9004500,-0.06000,75.6250,113,58,0.76581
9004510,-0.06000,75.6250,113,58,0.76581
9004520,-0.06500,74.6250,113,58,0.77045
9004530,-0.06500,73.6250,113,58,0.76996
9004540,-0.06500,73.6250,113,58,0.76996
9004550,-0.06000,72.7500,113,58,0.76239
9004560,-0.05500,72.2500,113,58,0.75702
9004570,-0.05500,72.2500,113,58,0.75702
9004580,-0.05000,70.8750,113,58,0.73358
9004590,-0.05000,70.8750,113,58,0.73358
9004600,-0.02500,70.0000,113,58,0.70794
9004610,-0.01500,69.0625,113,58,0.67448
9004620,-0.01500,69.0625,113,58,0.67448
9004630,-0.01000,68.1875,113,58,0.64982
9004640,-0.02500,67.7500,113,58,0.63932
9004650,-0.02500,67.7500,113,58,0.63932
9004660,-0.04000,66.5000,113,58,0.61001
9004670,-0.04000,66.5000,113,58,0.61001
9004680,-0.06000,66.0625,113,58,0.60000
9004690,-0.05500,64.9375,113,58,0.57167
9004700,-0.05500,64.9375,113,58,0.57167
9004710,-0.06000,64.1875,113,58,0.55385
9004720,-0.07500,63.8125,113,58,0.54530
9004730,-0.07500,63.8125,113,58,0.54530
9004740,0.50500,62.7500,113,58,0.52210
9004750,0.96500,62.4375,113,58,0.51551
9004760,0.96500,62.4375,113,58,0.51551
9004770,1.06500,62.1250,113,58,0.50867
9004780,0.63000,61.5625,113,58,0.49402
9004790,0.15500,61.2500,113,58,0.48694
9004800,-0.03000,61.0000,113,58,0.47961
9004810,-0.09500,60.7500,113,58,0.47228
9004820,-0.12500,60.2500,113,58,0.45788
9004830,-0.14000,60.0000,113,58,0.45104
9004840,-0.15000,59.5625,113,58,0.43858
9004850,-0.15000,59.5625,113,58,0.43858
9004860,-0.15000,59.0000,113,58,0.42808
9004870,-0.15000,58.6875,113,58,0.42198
9004880,-0.14500,58.3750,113,58,0.41587
9004890,-0.14500,58.0000,113,58,0.40977
9004900,-0.14000,57.3750,113,58,0.39780
9004910,-0.14000,57.2500,113,58,0.39194
9004920,-0.13000,57.7500,113,58,0.38022
9004930,-0.13000,57.7500,113,58,0.38022
9004940,-0.12500,61.6875,113,58,0.37045
9004950,-0.12000,70.7500,113,58,0.36239
9004960,-0.12000,70.7500,113,58,0.36239
9004970,-0.11000,76.0625,113,58,0.35775
9004980,-0.09000,88.1875,113,58,0.34310
9004990,-0.09000,88.1875,113,58,0.34310
9005000,-0.07500,90.6875,113,58,0.33822
9005010,-0.04000,96.6250,113,58,0.32430
9005020,-0.04000,96.6250,113,58,0.32430
9005030,-0.02000,98.6250,113,58,0.32015
9005040,0.03000,102.5625,113,58,0.31380
9005050,0.03000,102.5625,113,58,0.31380
9005060,0.08500,107.6875,113,58,0.30647
9005070,0.08500,107.6875,113,58,0.30647
9005080,0.11000,109.0625,113,58,0.30330
9005090,0.15500,112.0000,113,58,0.29426
9005100,0.15500,112.0000,113,58,0.29426
9005110,0.16000,112.6875,113,58,0.29158
9005120,0.14000,113.2500,113,58,0.28913
9005130,0.09000,113.6875,113,58,0.28669
9005140,0.03500,114.1250,113,58,0.28254
9005150,-0.01500,114.0625,113,58,0.28181
9005160,-0.05000,113.9375,113,58,0.28010
9005170,-0.08000,113.6875,113,58,0.27814
9005180,-0.09500,112.8750,113,58,0.27497
9005190,-0.10500,112.3750,113,58,0.27521
9005200,-0.10500,111.6875,113,58,0.27790
9005210,-0.10500,110.9375,113,58,0.28376
9005220,-0.10500,109.1250,113,58,0.30672
9005230,-0.10500,108.0625,113,58,0.32381
9005240,-0.10500,106.7500,113,58,0.34383
9005250,-0.10500,105.1875,113,58,0.36337
9005260,-0.10500,101.0000,113,58,0.40415
9005270,-0.10000,98.3750,113,58,0.42662
9005280,-0.10000,95.5625,113,58,0.44908
9005290,-0.09500,89.1250,113,58,0.51233
9005300,-0.09500,89.1250,113,58,0.51233
9005310,-0.09500,88.0000,113,58,0.53211
9005320,-0.08500,86.4375,113,58,0.57021
9005330,-0.08500,86.4375,113,58,0.57021
9005340,-0.08500,85.0000,113,58,0.60342
9005350,-0.08000,83.5625,113,58,0.63077
9005360,-0.08000,83.5625,113,58,0.63077
9005370,-0.08000,82.8125,113,58,0.64591
9005380,-0.07500,80.7500,113,58,0.68889
9005390,-0.07500,80.7500,113,58,0.68889
9005400,-0.07500,80.1250,113,58,0.70208
9005410,-0.06500,78.5000,113,58,0.73626
9005420,-0.06500,78.5000,113,58,0.73626
9005430,-0.07000,77.4375,113,58,0.75433
9005440,-0.07000,76.9375,113,58,0.75995
9005450,-0.07000,76.9375,113,58,0.75995
9005460,-0.06500,75.4375,113,58,0.77241
9005470,-0.06500,75.0000,113,58,0.77582
9005480,-0.06500,74.5000,113,58,0.77827
9005490,-0.06500,73.5000,113,58,0.77973
9005500,-0.06500,73.5000,113,58,0.77973
9005510,-0.06000,72.5625,113,58,0.77534
9005520,-0.06000,72.1250,113,58,0.77094
9005530,-0.06000,71.1875,113,58,0.75751
9005540,-0.05500,70.7500,113,58,0.74896
9005550,-0.05500,70.7500,113,58,0.74896
9005560,-0.03500,69.8125,113,58,0.72869
9005570,-0.02500,68.8750,113,58,0.70598
9005580,-0.02500,68.8750,113,58,0.70598
9005590,-0.01000,68.0000,113,58,0.68278
9005600,-0.02000,67.5625,113,58,0.67106
9005610,-0.02000,67.5625,113,58,0.67106
9005620,-0.03000,66.2500,113,58,0.63712
9005630,-0.03000,66.2500,113,58,0.63712
9005640,-0.05500,65.8750,113,58,0.62589
9005650,-0.06500,65.5000,113,58,0.61587
9005660,-0.06500,64.6875,113,58,0.59658
9005670,-0.06500,63.9375,113,58,0.57729
9005680,-0.09500,63.5625,113,58,0.56777
9005690,-0.03000,62.8125,113,58,0.54969
9005700,-0.03000,62.8125,113,58,0.54969
9005710,0.78000,62.1875,113,58,0.53284
9005720,1.09000,61.8750,113,58,0.52454
9005730,1.09000,61.8750,113,58,0.52454
9005740,0.33000,61.0000,113,58,0.50232
9005750,0.33000,61.0000,113,58,0.50232
9005760,-0.07500,60.4375,113,58,0.48767
9005770,-0.12000,59.9375,113,58,0.47253
9005780,-0.12000,59.9375,113,58,0.47253
9005790,-0.14500,59.4375,113,58,0.45788
9005800,-0.15000,59.2500,113,58,0.45055
9005810,-0.15000,59.2500,113,58,0.45055
9005820,-0.15000,58.7500,113,58,0.43614
9005830,-0.14500,58.1250,113,58,0.42295
9005840,-0.14500,57.8125,113,58,0.41734
9005850,-0.14500,57.8125,113,58,0.41734
9005860,-0.14000,56.8750,113,58,0.40049
9005870,-0.14500,56.7500,113,58,0.39438
9005880,-0.14500,56.7500,113,58,0.39438
9005890,-0.14000,56.9375,113,58,0.38803
9005900,-0.13000,59.6250,113,58,0.37558
9005910,-0.12500,62.8750,113,58,0.36947
9005920,-0.11500,72.7500,113,58,0.35800
9005930,-0.11500,72.7500,113,58,0.35800
9005940,-0.09500,86.1250,113,58,0.34554
9005950,-0.08000,89.0625,113,58,0.34139
9005960,-0.08000,89.0625,113,58,0.34139
9005970,-0.05500,95.1875,113,58,0.32772
9005980,-0.04000,97.1250,113,58,0.32332
9005990,-0.04000,97.1250,113,58,0.32332
9006000,0.00000,101.1250,114,58,0.31477
9006010,0.00000,101.1250,114,58,0.31477
9006020,0.03000,104.7500,114,58,0.30672
9006030,0.09000,107.8750,114,58,0.29963
9006040,0.11500,109.1875,114,58,0.29768
9006050,0.11500,109.1875,114,58,0.29768
9006060,0.15000,112.0000,114,58,0.29158
9006070,0.14000,112.6250,114,58,0.28889
9006080,0.14000,112.6250,114,58,0.28889
9006090,0.05000,113.6250,114,58,0.28034
9006100,0.05000,113.6250,114,58,0.28034
9006110,-0.00500,113.6875,114,58,0.27741
9006120,-0.07500,113.5625,114,58,0.27155
9006130,-0.07500,113.5625,114,58,0.27155
9006140,-0.10500,112.5625,114,58,0.26862
9006150,-0.11500,112.0000,114,58,0.27009
9006160,-0.11000,111.3125,114,58,0.27375
9006170,-0.11000,109.5625,114,58,0.29109
9006180,-0.11000,109.5625,114,58,0.29109
9006190,-0.11000,107.3750,114,58,0.32357
9006200,-0.10500,106.0000,114,58,0.34432
9006210,-0.10500,106.0000,114,58,0.34432
9006220,-0.10500,99.8750,114,58,0.41490
9006230,-0.10000,97.1875,114,58,0.43883
9006240,-0.10000,97.1875,114,58,0.43883
9006250,-0.09500,90.0625,114,58,0.49744
9006260,-0.09500,88.6875,114,58,0.51722
9006270,-0.09500,88.6875,114,58,0.51722
9006280,-0.09000,87.6875,114,58,0.53700
9006290,-0.08500,86.8750,114,58,0.55629
9006300,-0.08500,85.4375,114,58,0.59365
9006310,-0.08000,84.6875,114,58,0.61123
9006320,-0.07500,83.8750,114,58,0.62833
9006330,-0.07000,83.1250,114,58,0.64469
9006340,-0.06500,81.7500,114,58,0.67228
9006350,-0.06500,81.0625,114,58,0.68278
9006360,-0.06500,80.4375,114,58,0.69451
9006370,-0.06500,79.8125,114,58,0.70623
9006380,-0.06500,78.6875,114,58,0.72845
9006390,-0.06000,78.1875,114,58,0.73846
9006400,-0.06000,77.6875,114,58,0.74750
9006410,-0.06000,76.2500,114,58,0.76801
9006420,-0.06000,76.2500,114,58,0.76801
9006430,-0.05500,75.3125,114,58,0.77729
9006440,-0.05500,74.8125,114,58,0.77875
9006450,-0.05500,74.8125,114,58,0.77875
9006460,-0.04500,73.4375,114,58,0.77729
9006470,-0.04500,73.4375,114,58,0.77729
9006480,-0.04500,72.9375,114,58,0.77509
9006490,-0.04500,72.5000,114,58,0.77143
9006500,-0.04500,71.5625,114,58,0.75897
9006510,-0.04500,71.1250,114,58,0.75043
9006520,-0.05000,70.6250,114,58,0.74090
9006530,-0.03500,69.3125,114,58,0.70769
9006540,-0.02500,68.8750,114,58,0.69670
9006550,-0.02500,68.8750,114,58,0.69670
9006560,-0.02000,67.9375,114,58,0.67350
9006570,-0.03500,67.1250,114,58,0.65006
9006580,-0.03500,67.1250,114,58,0.65006
9006590,-0.03500,66.6875,114,58,0.63858
9006600,-0.06500,65.9375,114,58,0.61612
9006610,-0.06500,65.9375,114,58,0.61612
9006620,-0.06500,64.7500,114,58,0.58437
9006630,-0.06000,64.3750,114,58,0.57509
9006640,-0.06000,64.3750,114,58,0.57509
9006650,-0.07500,64.0000,114,58,0.56654
9006660,-0.07500,63.2500,114,58,0.53309
9006670,0.11000,62.9375,114,58,0.51966
9006680,0.55500,62.6250,114,58,0.50891
9006690,1.01500,61.7500,114,58,0.48278
9006700,1.01500,61.4375,114,58,0.47497
9006710,0.57000,61.4375,114,58,0.47497
9006720,0.12500,61.1875,114,58,0.46740
9006730,-0.10000,60.4375,114,58,0.44664
9006740,-0.10000,60.4375,114,58,0.44664
9006750,-0.14000,60.0625,114,58,0.43468
9006760,-0.14000,60.0625,114,58,0.43468
9006770,-0.14500,59.3750,114,58,0.41416
9006780,-0.15000,59.1250,114,58,0.40733
9006790,-0.15000,59.1250,114,58,0.40733
9006800,-0.14500,58.5000,114,58,0.39390
9006810,-0.14500,57.9375,114,58,0.38120
9006820,-0.15000,57.6250,114,58,0.37509
9006830,-0.15000,57.6250,114,58,0.37509
9006840,-0.14500,57.5000,114,58,0.36581
9006850,-0.14500,59.3125,114,58,0.35507
9006860,-0.14500,59.3125,114,58,0.35507
9006870,-0.13500,61.9375,114,58,0.34969
9006880,-0.13000,65.9375,114,58,0.34432
9006890,-0.12000,71.0000,114,58,0.33895
9006900,-0.11500,81.0625,114,58,0.32894
9006910,-0.10000,85.0625,114,58,0.32405
9006920,-0.08000,90.7500,114,58,0.31453
9006930,-0.08000,90.7500,114,58,0.31453
9006940,-0.07000,94.7500,114,58,0.30672
9006950,-0.05500,96.7500,114,58,0.30427
9006960,-0.03500,98.7500,114,58,0.30085
9006970,-0.01000,100.7500,114,58,0.29719
9006980,0.05000,106.2500,114,58,0.28645
9006990,0.05000,106.2500,114,58,0.28645
9007000,0.07500,107.8125,114,58,0.28327
9007010,0.10000,109.2500,114,58,0.28034
9007020,0.13000,111.4375,114,58,0.27448
9007030,0.14500,112.3125,114,58,0.27155
9007040,0.15000,113.0625,114,58,0.26984
9007050,0.13000,113.5625,114,58,0.26886
9007060,0.03000,114.3750,114,58,0.26300
9007070,0.03000,114.3750,114,58,0.26300
9007080,-0.05500,114.3750,114,58,0.25861
9007090,-0.08000,113.9375,114,58,0.25421
9007100,-0.08000,113.9375,114,58,0.25421
9007110,-0.10000,113.0000,114,58,0.25324
9007120,-0.10500,112.4375,114,58,0.25592
9007130,-0.10500,112.4375,114,58,0.25592
9007140,-0.10500,110.9375,114,58,0.27033
9007150,-0.10500,110.0000,114,58,0.28132
9007160,-0.10000,108.9375,114,58,0.29621
9007170,-0.10000,107.6875,114,58,0.31453
9007180,-0.10000,102.3125,114,58,0.38071
9007190,-0.10000,99.8750,114,58,0.40391
9007200,-0.10000,99.8750,114,58,0.40391
9007210,-0.10500,92.3750,114,58,0.46911
9007220,-0.10000,90.6875,114,58,0.48962
9007230,-0.10000,90.6875,114,58,0.48962
9007240,-0.10000,88.6250,114,58,0.52234
9007250,-0.09500,87.0625,114,58,0.55678
9007260,-0.09500,87.0625,114,58,0.55678
9007270,-0.09000,86.3750,114,58,0.57387
9007280,-0.09000,85.6250,114,58,0.59072
9007290,-0.08000,83.3750,114,58,0.63785
9007300,-0.08000,83.3750,114,58,0.63785
9007310,-0.08000,82.6875,114,58,0.65226
9007320,-0.07500,81.3125,114,58,0.67863
9007330,-0.06500,80.1250,114,58,0.69915
9007340,-0.06500,80.1250,114,58,0.69915
9007350,-0.06500,79.0000,114,58,0.71380
9007360,-0.06500,78.5000,114,58,0.72137
9007370,-0.06500,78.5000,114,58,0.72137
9007380,-0.07000,77.0625,114,58,0.73944
9007390,-0.07000,77.0625,114,58,0.73944
9007400,-0.06500,76.1250,114,58,0.74676
9007410,-0.06000,75.1875,114,58,0.74994
9007420,-0.06000,75.1875,114,58,0.74994
9007430,-0.06500,74.2500,114,58,0.74725
9007440,-0.06500,73.7500,114,58,0.74335
9007450,-0.06500,73.7500,114,58,0.74335
9007460,-0.06500,72.3750,114,58,0.72576
9007470,-0.06500,72.3750,114,58,0.72576
9007480,-0.06500,71.9375,114,58,0.71746
9007490,-0.05500,70.5000,114,58,0.68742
9007500,-0.05500,70.5000,114,58,0.68742
9007510,-0.04000,70.0000,114,58,0.67619
9007520,-0.03000,69.5625,114,58,0.66471
9007530,-0.02500,69.1250,114,58,0.65324
9007540,-0.02500,68.3125,114,58,0.63126
9007550,-0.04500,67.4375,114,58,0.61099
9007560,-0.04500,67.4375,114,58,0.61099
9007570,-0.04500,67.0000,114,58,0.60049
9007580,-0.07000,65.8750,114,58,0.56972
9007590,-0.07000,65.8750,114,58,0.56972
9007600,-0.06500,65.5625,114,58,0.55995
9007610,-0.06000,64.5625,114,58,0.53114
9007620,-0.06000,64.5625,114,58,0.53114
9007630,-0.08500,64.1875,114,58,0.52210
9007640,0.30000,63.5625,114,58,0.50696
9007650,0.30000,63.5625,114,58,0.50696
9007660,0.77500,63.0000,114,58,0.49133
9007670,0.78000,62.5000,114,58,0.47595
9007680,0.78000,62.5000,114,58,0.47595
9007690,0.28500,62.2500,114,58,0.46838
9007700,-0.08000,61.4375,114,58,0.44615
9007710,-0.08000,61.4375,114,58,0.44615
9007720,-0.13500,61.0000,114,58,0.43223
9007730,-0.13500,61.0000,114,58,0.43223
9007740,-0.14500,60.3125,114,58,0.41490
9007750,-0.14500,60.0625,114,58,0.40904
9007760,-0.14500,60.0625,114,58,0.40904
9007770,-0.14500,59.1875,114,58,0.39048
9007780,-0.14500,58.8750,114,58,0.38437
9007790,-0.14500,58.8750,114,58,0.38437
9007800,-0.14500,58.4375,114,58,0.37192
9007810,-0.14500,58.4375,114,58,0.37192
9007820,-0.13500,58.6875,114,58,0.35995
9007830,-0.13000,61.8125,114,58,0.34994
9007840,-0.12500,65.4375,114,58,0.34628
9007850,-0.12500,65.4375,114,58,0.34628
9007860,-0.12500,75.5000,114,58,0.33748
9007870,-0.11000,84.8125,114,58,0.32796
9007880,-0.11000,84.8125,114,58,0.32796
9007890,-0.10500,88.2500,114,58,0.32332
9007900,-0.09000,95.1875,114,58,0.30989
9007910,-0.09000,95.1875,114,58,0.30989
9007920,-0.07500,97.1875,114,58,0.30574
9007930,-0.04500,103.3750,114,58,0.29524
9007940,-0.04500,103.3750,114,58,0.29524
9007950,-0.02000,105.3125,114,58,0.29353
9007960,0.01000,107.1250,114,58,0.29084
9007970,0.03500,108.6875,114,58,0.28791
9007980,0.06000,111.3750,114,58,0.28181
9007990,0.08500,112.5000,114,58,0.27912
9008000,0.11000,113.4375,114,58,0.27643
9008010,0.12000,115.3750,114,58,0.26960
9008020,0.12000,115.3750,114,58,0.26960
9008030,0.04000,116.0000,114,58,0.26569
9008040,-0.01000,116.1875,114,58,0.26496
9008050,-0.01000,116.1875,114,58,0.26496
9008060,-0.08000,115.9375,114,58,0.25910
9008070,-0.09500,115.6250,114,58,0.25739
9008080,-0.09500,115.6250,114,58,0.25739
9008090,-0.10500,114.1875,114,58,0.26300
9008100,-0.10500,114.1875,114,58,0.26300
9008110,-0.10500,113.4375,114,58,0.27057
9008120,-0.11500,111.6875,114,58,0.29621
9008130,-0.11500,109.3125,114,58,0.33187
9008140,-0.11000,107.8125,114,58,0.34994
9008150,-0.11000,106.0000,114,58,0.37070
9008160,-0.11000,106.0000,114,58,0.37070
9008170,-0.11000,103.8125,114,58,0.39267
9008180,-0.10500,95.8750,114,58,0.45739
9008190,-0.10500,95.8750,114,58,0.45739
9008200,-0.10000,91.9375,114,58,0.49670
9008210,-0.10000,91.9375,114,58,0.49670
9008220,-0.09500,89.2500,114,58,0.55116
9008230,-0.08500,88.5000,114,58,0.56557
9008240,-0.08500,87.7500,114,58,0.57827
9008250,-0.08500,86.3125,114,58,0.60659
9008260,-0.08500,86.3125,114,58,0.60659
9008270,-0.08500,84.9375,114,58,0.63468
9008280,-0.08000,84.2500,114,58,0.64786
9008290,-0.08000,84.2500,114,58,0.64786
9008300,-0.07500,82.1875,114,58,0.68254
9008310,-0.07000,81.5625,114,58,0.69206
9008320,-0.07000,81.0000,114,58,0.70061
9008330,-0.07000,79.9375,114,58,0.71331
9008340,-0.07000,79.9375,114,58,0.71331
9008350,-0.07000,79.4375,114,58,0.71673
9008360,-0.07000,78.9375,114,58,0.72063
9008370,-0.06500,78.4375,114,58,0.72430
9008380,-0.06500,77.3750,114,58,0.72943
9008390,-0.07000,76.8125,114,58,0.73065
9008400,-0.07500,75.8125,114,58,0.72943
9008410,-0.07500,75.8125,114,58,0.72943
9008420,-0.07000,74.3125,114,58,0.71697
9008430,-0.06500,73.7500,114,58,0.71038
9008440,-0.06500,73.7500,114,58,0.71038
9008450,-0.06500,72.1875,114,58,0.68400
9008460,-0.06000,71.6875,114,58,0.67350
9008470,-0.06000,71.6875,114,58,0.67350
9008480,-0.03500,70.7500,114,58,0.65079
9008490,-0.03500,70.7500,114,58,0.65079
9008500,-0.02000,69.3750,114,58,0.61563
9008510,-0.02000,69.3750,114,58,0.61563
9008520,-0.02500,68.9375,114,58,0.60415
9008530,-0.03500,67.6250,114,58,0.57314
9008540,-0.03500,67.6250,114,58,0.57314
9008550,-0.04500,67.1875,114,58,0.56337
9008560,-0.07000,66.8125,114,58,0.55336
9008570,-0.07500,66.3750,114,58,0.54335
9008580,-0.06000,65.1875,114,58,0.51429
9008590,-0.06000,65.1875,114,58,0.51429
9008600,-0.07500,64.8125,114,58,0.50501
9008610,0.08000,63.7500,114,58,0.47839
9008620,0.08000,63.7500,114,58,0.47839
9008630,0.48500,63.5000,114,58,0.46984
9008640,0.92500,63.1875,114,58,0.46276
9008650,0.99000,62.8750,114,58,0.45617
9008660,0.58000,62.1875,114,58,0.44103
9008670,-0.03500,61.6250,114,58,0.42564
9008680,-0.09500,61.3750,114,58,0.41807
9008690,-0.12500,60.9375,114,58,0.40269
9008700,-0.12500,60.9375,114,58,0.40269
9008710,-0.13500,60.6875,114,58,0.39487
9008720,-0.14500,60.4375,114,58,0.38730
9008730,-0.14500,59.6250,114,58,0.36874
9008740,-0.14500,59.3125,114,58,0.36264
9008750,-0.14500,59.0000,114,58,0.35604
9008760,-0.14500,59.0000,114,58,0.35604
9008770,-0.14500,58.6875,114,58,0.34945
9008780,-0.14000,58.0000,114,58,0.32991
9008790,-0.14000,58.0000,114,58,0.32991
9008800,-0.13500,58.1875,114,58,0.32357
9008810,-0.12500,64.1250,114,58,0.30525
9008820,-0.12500,64.1250,114,58,0.30525
9008830,-0.11500,68.6875,114,58,0.29939
9008840,-0.10500,79.0625,114,58,0.29158
9008850,-0.10500,79.0625,114,58,0.29158
9008860,-0.09500,87.3125,114,58,0.28230
9008870,-0.07500,92.5000,114,58,0.27277
9008880,-0.07500,92.5000,114,58,0.27277
9008890,-0.06500,94.5000,114,58,0.26789
9008900,-0.02500,100.6250,114,58,0.25421
9008910,-0.02500,100.6250,114,58,0.25421
9008920,0.00000,102.7500,114,58,0.24982
9008930,0.05000,108.4375,114,58,0.24127
9008940,0.05000,108.4375,114,58,0.24127
9008950,0.08000,110.0625,114,58,0.23858
9008960,0.13000,112.6250,114,58,0.23223
9008970,0.13000,112.6250,114,58,0.23223
9008980,0.15500,114.5000,114,58,0.22613
9008990,0.16000,115.1875,114,58,0.22295
9009000,0.14500,115.7500,114,58,0.21978
9009010,0.10500,116.1250,114,58,0.21661
9009020,0.00500,116.5625,114,58,0.20757
9009030,0.00500,116.5625,114,58,0.20757
9009040,-0.03500,116.5000,114,58,0.20611
9009050,-0.07500,115.5625,114,58,0.20269
9009060,-0.07500,115.5625,114,58,0.20269
9009070,-0.08500,115.0625,114,58,0.20269
9009080,-0.08500,113.6875,114,58,0.21001
9009090,-0.09000,111.9375,114,58,0.23004
9009100,-0.09000,111.9375,114,58,0.23004
9009110,-0.09000,109.5625,114,58,0.26227
9009120,-0.09000,108.0000,114,58,0.28132
9009130,-0.09000,108.0000,114,58,0.28132
9009140,-0.09000,101.3750,114,58,0.33407
9009150,-0.09000,98.5625,114,58,0.35214
9009160,-0.09000,98.5625,114,58,0.35214
9009170,-0.09000,91.6875,114,58,0.40073
9009180,-0.09000,91.6875,114,58,0.40073
9009190,-0.08500,90.4375,114,58,0.41514
9009200,-0.08500,88.6250,114,58,0.44200
9009210,-0.08500,88.6250,114,58,0.44200
9009220,-0.08000,87.1875,114,58,0.46642
9009230,-0.07500,85.7500,114,58,0.48742
9009240,-0.07500,85.7500,114,58,0.48742
9009250,-0.07500,85.0000,114,58,0.49548
9009260,-0.07000,83.5000,114,58,0.51282
9009270,-0.06500,82.1250,114,58,0.52894
9009280,-0.06500,82.1250,114,58,0.52894
9009290,-0.06500,81.5000,114,58,0.53626
9009300,-0.06000,79.7500,114,58,0.55458
9009310,-0.06000,79.7500,114,58,0.55458
9009320,-0.05500,79.2500,114,58,0.55946
9009330,-0.05000,77.6875,114,58,0.56850
9009340,-0.05000,77.1875,114,58,0.57045
9009350,-0.05000,77.1875,114,58,0.57045
9009360,-0.05000,76.1875,114,58,0.57289
9009370,-0.05000,76.1875,114,58,0.57289
9009380,-0.04500,75.1875,114,58,0.57241
9009390,-0.04500,74.2500,114,58,0.56752
9009400,-0.04500,74.2500,114,58,0.56752
9009410,-0.05000,72.9375,114,58,0.55140
9009420,-0.04500,72.4375,114,58,0.54408
9009430,-0.04500,72.4375,114,58,0.54408
9009440,-0.03000,71.4375,114,58,0.52991
9009450,-0.01500,70.5625,114,58,0.51331
9009460,-0.01500,70.5625,114,58,0.51331
9009470,-0.01500,69.6875,114,58,0.49597
9009480,-0.03500,69.1875,114,58,0.48742
9009490,-0.03500,69.1875,114,58,0.48742
9009500,-0.06000,67.9375,114,58,0.46252
9009510,-0.07500,67.5625,114,58,0.45446
9009520,-0.07500,67.5625,114,58,0.45446
9009530,-0.07000,66.3750,114,58,0.43419
9009540,-0.07000,66.3750,114,58,0.43419
9009550,-0.07000,65.9375,114,58,0.42784
9009560,-0.09500,65.5625,114,58,0.42125
9009570,0.21500,64.5000,114,58,0.40147
9009580,0.21500,64.5000,114,58,0.40147
9009590,1.06000,63.8750,114,58,0.38852
9009600,1.06000,63.8750,114,58,0.38852
9009610,0.38500,63.0000,114,58,0.36923
9009620,0.04000,62.6875,114,58,0.36313
9009630,0.04000,62.6875,114,58,0.36313
9009640,-0.11500,62.1250,114,58,0.35433
9009650,-0.14000,61.6250,114,58,0.34432
9009660,-0.14000,61.6250,114,58,0.34432
9009670,-0.15500,61.1875,114,58,0.33382
9009680,-0.15500,61.1875,114,58,0.33382
9009690,-0.15500,60.9375,114,58,0.32845
9009700,-0.15500,60.0000,114,58,0.31233
9009710,-0.15500,60.0000,114,58,0.31233
9009720,-0.15500,59.6875,114,58,0.30720
9009730,-0.14500,58.8750,114,58,0.29524
9009740,-0.14500,58.8750,114,58,0.29524
9009750,-0.14000,58.8125,114,58,0.29133
9009760,-0.13000,60.0000,114,58,0.28254
9009770,-0.13000,60.0000,114,58,0.28254
9009780,-0.12000,70.0000,114,58,0.26935
9009790,-0.12000,70.0000,114,58,0.26935
9009800,-0.11000,80.2500,114,58,0.26105
9009810,-0.10000,88.1875,114,58,0.25299
9009820,-0.10000,88.1875,114,58,0.25299
9009830,-0.08500,91.0625,114,58,0.24908
9009840,-0.06000,95.5000,114,58,0.24493
9009850,-0.06000,95.5000,114,58,0.24493
9009860,-0.04500,99.6250,114,58,0.23956
9009870,0.00000,103.7500,114,58,0.23321
9009880,0.03000,105.7500,114,58,0.23004
9009890,0.06000,109.4375,114,58,0.22418
9009900,0.06000,109.4375,114,58,0.22418
9009910,0.11000,112.3750,114,58,0.21880
9009920,0.14000,113.5625,114,58,0.21636
9009930,0.15000,115.3125,114,58,0.21490
9009940,0.14000,115.9375,114,58,0.21343
9009950,0.14000,115.9375,114,58,0.21343
9009960,0.05000,116.6875,114,58,0.20952
9009970,0.05000,116.6875,114,58,0.20952
9009980,0.00000,116.9375,114,58,0.20513
9009990,-0.07500,116.6875,114,58,0.20073
9010000,-0.07500,116.6875,114,58,0.20073
9010010,-0.09500,116.3750,114,58,0.19878
9010020,-0.10500,115.4375,114,58,0.19683
9010030,-0.10500,114.8750,114,58,0.19805
9010040,-0.11000,114.1250,114,58,0.20147
9010050,-0.11000,113.3125,114,58,0.20708
9010060,-0.11500,109.9375,114,58,0.24054
9010070,-0.11500,109.9375,114,58,0.24054
9010080,-0.11500,108.3750,114,58,0.25690
9010090,-0.11500,101.6250,114,58,0.31209
9010100,-0.11500,101.6250,114,58,0.31209
9010110,-0.11000,98.8125,114,58,0.32967
9010120,-0.10500,96.0625,114,58,0.34628
9010130,-0.10500,93.8125,114,58,0.36166
9010140,-0.10500,90.9375,114,58,0.38584
9010150,-0.10000,90.0000,114,58,0.39707
9010160,-0.09500,89.1875,114,58,0.40806
9010170,-0.09500,88.3750,114,58,0.41856
9010180,-0.09000,86.8125,114,58,0.43761
9010190,-0.08500,85.3125,114,58,0.45446
9010200,-0.08500,85.3125,114,58,0.45446
9010210,-0.07500,83.1875,114,58,0.47546
9010220,-0.08000,82.5000,114,58,0.48132
9010230,-0.08000,82.5000,114,58,0.48132
9010240,-0.07500,81.2500,114,58,0.49011
9010250,-0.07500,80.1875,114,58,0.49744
9010260,-0.07500,80.1875,114,58,0.49744
9010270,-0.07000,79.1250,114,58,0.50354
9010280,-0.07000,79.1250,114,58,0.50354
9010290,-0.07500,78.6250,114,58,0.50623
9010300,-0.07000,77.1875,114,58,0.51136
9010310,-0.07000,77.1875,114,58,0.51136
9010320,-0.07000,76.1875,114,58,0.51160
9010330,-0.07000,76.1875,114,58,0.51160
9010340,-0.07500,75.2500,114,58,0.50965
9010350,-0.07000,74.3125,114,58,0.50476
9010360,-0.07000,74.3125,114,58,0.50476
9010370,-0.07000,73.8750,114,58,0.50085
9010380,-0.05500,72.5000,114,58,0.48547
9010390,-0.05500,72.5000,114,58,0.48547
9010400,-0.03000,71.5625,114,58,0.47277
9010410,-0.02000,70.6250,114,58,0.45983
9010420,-0.02000,70.6250,114,58,0.45983
9010430,-0.02500,69.7500,114,58,0.44957
9010440,-0.04000,69.3125,114,58,0.44420
9010450,-0.04000,69.3125,114,58,0.44420
9010460,-0.06500,68.0625,114,58,0.42686
9010470,-0.06500,68.0625,114,58,0.42686
9010480,-0.08000,67.6875,114,58,0.42125
9010490,-0.07000,66.4375,114,58,0.40537
9010500,-0.07000,66.4375,114,58,0.40537
9010510,-0.06500,66.0625,114,58,0.40049
9010520,-0.09000,65.6875,114,58,0.39585
9010530,-0.07000,65.3125,114,58,0.39121
9010540,0.16500,64.6250,114,58,0.38437
9010550,1.04500,63.9375,114,58,0.37680
9010560,1.04500,63.9375,114,58,0.37680
9010570,0.88500,63.3750,114,58,0.36874
9010580,0.47000,63.0625,114,58,0.36484
9010590,0.07000,62.8125,114,58,0.36093
9010600,-0.11500,62.3125,114,58,0.35287
9010610,-0.11500,62.3125,114,58,0.35287
9010620,-0.14000,61.8125,114,58,0.34481
9010630,-0.15000,61.3750,114,58,0.33944
9010640,-0.15500,61.1250,114,58,0.33626
9010650,-0.15500,61.1250,114,58,0.33626
9010660,-0.15000,60.5625,114,58,0.32967
9010670,-0.15000,60.2500,114,58,0.32601
9010680,-0.14500,59.8750,114,58,0.32234
9010690,-0.14500,59.0000,114,58,0.31160
9010700,-0.14000,58.8750,114,58,0.30794
9010710,-0.14000,58.8750,114,58,0.30794
9010720,-0.13500,59.0625,114,58,0.30427
9010730,-0.13500,59.8750,114,58,0.30061
9010740,-0.13500,65.1250,114,58,0.29646
9010750,-0.12500,75.0000,114,58,0.34432
9010760,-0.12500,75.0000,114,58,0.34432
9010770,-0.10500,88.5000,114,58,0.36117
9010780,-0.09500,91.5000,114,58,0.35922
9010790,-0.09500,91.5000,114,58,0.35922
9010800,-0.06500,96.0625,114,58,0.35311
9010810,-0.06500,96.0625,114,58,0.35311
9010820,-0.04500,100.1875,114,58,0.34628
9010830,-0.02500,102.3125,114,58,0.34457
9010840,0.00000,104.4375,114,58,0.34335
9010850,0.02500,106.5000,114,58,0.34115
9010860,0.05500,110.1875,114,58,0.33553
9010870,0.10500,113.2500,114,58,0.32967
9010880,0.10500,113.2500,114,58,0.32967
9010890,0.15000,116.3750,114,58,0.32234
9010900,0.14500,117.0000,114,58,0.32015
9010910,0.14500,117.0000,114,58,0.32015
9010920,0.06500,117.8750,114,58,0.31575
9010930,0.01000,118.2500,114,58,0.31477
9010940,0.01000,118.2500,114,58,0.31477
9010950,-0.07000,118.0625,114,58,0.31111
9010960,-0.07000,118.0625,114,58,0.31111
9010970,-0.10500,116.9375,114,58,0.30672
9010980,-0.10500,116.9375,114,58,0.30672
9010990,-0.12000,116.3750,114,58,0.30745
9011000,-0.12500,114.8750,114,58,0.31722
9011010,-0.12500,114.8750,114,58,0.31722
9011020,-0.12000,112.8125,114,58,0.34261
9011030,-0.12000,110.0000,114,58,0.37778
9011040,-0.12000,110.0000,114,58,0.37778
9011050,-0.12000,103.3750,114,58,0.44835
9011060,-0.12000,100.5625,114,58,0.47204
9011070,-0.12000,100.5625,114,58,0.47204
9011080,-0.11500,95.3125,114,58,0.51502
9011090,-0.11500,95.3125,114,58,0.51502
9011100,-0.11000,91.0625,114,58,0.56654
9011110,-0.10500,90.1875,114,58,0.58071
9011120,-0.10500,90.1875,114,58,0.58071
9011130,-0.09500,87.8125,114,58,0.61319
9011140,-0.09500,87.0000,114,58,0.62247
9011150,-0.09500,87.0000,114,58,0.62247
9011160,-0.08500,85.4375,114,58,0.63956
9011170,-0.08500,83.9375,114,58,0.65397
9011180,-0.08500,83.9375,114,58,0.65397
9011190,-0.08500,83.3125,114,58,0.66007
9011200,-0.08000,82.6875,114,58,0.66569
9011210,-0.08500,82.0625,114,58,0.67082
9011220,-0.08000,81.0000,114,58,0.67961
9011230,-0.07500,80.5000,114,58,0.68254
9011240,-0.07500,80.0000,114,58,0.68474
9011250,-0.07000,78.4375,114,58,0.69035
9011260,-0.07000,78.4375,114,58,0.69035
9011270,-0.07000,77.9375,114,58,0.69133
9011280,-0.06500,77.0000,114,58,0.69109
9011290,-0.06500,77.0000,114,58,0.69109
9011300,-0.06500,76.0625,114,58,0.68767
9011310,-0.06000,75.5625,114,58,0.68449
9011320,-0.06000,75.1250,114,58,0.68010
9011330,-0.06500,74.6250,114,58,0.67497
9011340,-0.06000,73.6875,114,58,0.66422
9011350,-0.04500,72.7500,114,58,0.64982
9011360,-0.04500,72.7500,114,58,0.64982
9011370,-0.02000,71.3750,114,58,0.62613
9011380,-0.01500,70.9375,114,58,0.61832
9011390,-0.01500,70.9375,114,58,0.61832
9011400,-0.03500,70.0000,114,58,0.60293
9011410,-0.03500,70.0000,114,58,0.60293
9011420,-0.03500,69.1250,114,58,0.58828
9011430,-0.07500,68.3125,114,58,0.57680
9011440,-0.07500,68.3125,114,58,0.57680
9011450,-0.07500,67.8750,114,58,0.57070
9011460,-0.05500,66.6875,114,58,0.55287
9011470,-0.05500,66.6875,114,58,0.55287
9011480,-0.07500,66.3125,114,58,0.54725
9011490,-0.06500,65.9375,114,58,0.54188
9011500,0.14000,65.1875,114,58,0.53187
9011510,0.60500,64.8750,114,58,0.52698
9011520,0.99500,64.2500,114,58,0.51673
9011530,0.52000,63.6250,114,58,0.50916
9011540,0.52000,63.6250,114,58,0.50916
9011550,-0.05500,63.0625,114,58,0.50061
9011560,-0.11000,62.5625,114,58,0.49133
9011570,-0.11000,62.5625,114,58,0.49133
9011580,-0.14500,62.0625,114,58,0.48205
9011590,-0.14500,62.0625,114,58,0.48205
9011600,-0.15000,61.5625,114,58,0.47277
9011610,-0.15000,61.0000,114,58,0.46422
9011620,-0.15000,61.0000,114,58,0.46422
9011630,-0.15000,60.6875,114,58,0.46129
9011640,-0.14500,60.3125,114,58,0.45885
9011650,-0.14500,60.0000,114,58,0.45543
9011660,-0.14500,59.4375,114,58,0.44762
9011670,-0.14500,59.4375,114,58,0.43932
9011680,-0.14500,59.4375,114,58,0.43932
9011690,-0.13500,60.1875,114,58,0.43516
9011700,-0.13000,65.0625,114,58,0.42711
9011710,-0.12500,69.5625,114,58,0.42344
9011720,-0.12000,74.8125,114,58,0.41978
9011730,-0.11500,80.0625,114,58,0.41612
9011740,-0.10500,88.5625,114,58,0.41172
9011750,-0.08000,94.2500,114,58,0.40513
9011760,-0.06500,96.5000,114,58,0.40147
9011770,-0.06500,96.5000,114,58,0.40147
9011780,-0.02500,102.9375,114,58,0.39121
9011790,-0.02500,102.9375,114,58,0.39121
9011800,-0.00500,105.0625,114,58,0.38828
9011810,0.05000,110.9375,114,58,0.38022
9011820,0.08000,112.5625,114,58,0.37900
9011830,0.11000,114.0625,114,58,0.37827
9011840,0.11000,114.0625,114,58,0.37827
9011850,0.15000,117.3125,114,58,0.37192
9011860,0.15500,118.0625,114,58,0.36947
9011870,0.13000,118.5625,114,58,0.36728
9011880,0.08000,118.9375,114,58,0.36484
9011890,0.08000,118.9375,114,58,0.36484
9011900,-0.02000,119.3125,114,58,0.35775
9011910,-0.05500,119.1875,114,58,0.35556
9011920,-0.08500,118.9375,114,58,0.35360
9011930,-0.09500,118.0625,114,58,0.35409
9011940,-0.09500,118.0625,114,58,0.35409
9011950,-0.10500,117.4375,114,58,0.35482
9011960,-0.11000,116.7500,114,58,0.35726
9011970,-0.11500,114.0000,114,58,0.38999
9011980,-0.12000,112.6875,114,58,0.41001
9011990,-0.12000,112.6875,114,58,0.41001
9012000,-0.12000,109.4375,114,58,0.44762
9012010,-0.12000,104.8125,114,58,0.49548
9012020,-0.12000,104.8125,114,58,0.49548
9012030,-0.11500,99.0625,114,58,0.53553
9012040,-0.11500,99.0625,114,58,0.53553
9012050,-0.11000,92.8125,114,58,0.58999
9012060,-0.11000,92.8125,114,58,0.58999
9012070,-0.10500,90.8750,114,58,0.61954
9012080,-0.10500,90.8750,114,58,0.61954
9012090,-0.10000,90.0000,114,58,0.63248
9012100,-0.09500,88.3750,114,58,0.65495
9012110,-0.09000,87.5625,114,58,0.66471
9012120,-0.09000,86.8125,114,58,0.67350
9012130,-0.08000,84.6250,114,58,0.69206
9012140,-0.08500,83.9375,114,58,0.69768
9012150,-0.08500,83.3125,114,58,0.70305
9012160,-0.08500,83.3125,114,58,0.70305
9012170,-0.07500,81.5625,114,58,0.71600
9012180,-0.07500,81.0625,114,58,0.71917
9012190,-0.07500,81.0625,114,58,0.71917
9012200,-0.07000,80.0625,114,58,0.72430
9012210,-0.07000,80.0625,114,58,0.72430
9012220,-0.07500,78.5625,114,58,0.72674
9012230,-0.07500,78.0625,114,58,0.72625
9012240,-0.07500,78.0625,114,58,0.72625
9012250,-0.07500,77.5625,114,58,0.72552
9012260,-0.07500,76.1250,114,58,0.71893
9012270,-0.07500,76.1250,114,58,0.71893
9012280,-0.07000,75.6250,114,58,0.71502
9012290,-0.07000,74.1875,114,58,0.69768
9012300,-0.07000,74.1875,114,58,0.69768
9012310,-0.05000,73.3125,114,58,0.68278
9012320,-0.05000,73.3125,114,58,0.68278
9012330,-0.02500,71.9375,114,58,0.66081
9012340,-0.02000,71.4375,114,58,0.65299
9012350,-0.02000,71.4375,114,58,0.65299
9012360,-0.04000,70.5000,114,58,0.63761
9012370,-0.04000,70.5000,114,58,0.63761
9012380,-0.04500,69.6875,114,58,0.62271
9012390,-0.08000,68.8125,114,58,0.60879
9012400,-0.08000,68.4375,114,58,0.60244
9012410,-0.08000,68.4375,114,58,0.60244
9012420,-0.07000,67.6250,114,58,0.59048
9012430,-0.09500,66.8750,114,58,0.58144
9012440,-0.09500,66.8750,114,58,0.58144
9012450,-0.07000,66.5625,114,58,0.57705
9012460,0.19000,65.8750,114,58,0.56728
9012470,0.67000,65.5625,114,58,0.56215
9012480,0.94000,64.9375,114,58,0.55214
9012490,0.43500,64.3750,114,58,0.54261
9012500,0.05000,64.0625,114,58,0.53822
9012510,0.05000,64.0625,114,58,0.53822
9012520,-0.07500,63.8125,114,58,0.53382
9012530,-0.14000,63.1250,114,58,0.52332
9012540,-0.14000,63.1250,114,58,0.52332
9012550,-0.15000,62.9375,114,58,0.51917
9012560,-0.15500,62.4375,114,58,0.51038
9012570,-0.15500,62.4375,114,58,0.51038
9012580,-0.15500,61.8125,114,58,0.50183
9012590,-0.15500,61.5000,114,58,0.49744
9012600,-0.15500,61.1875,114,58,0.49328
9012610,-0.14500,60.8750,114,58,0.48889
9012620,-0.14000,60.4375,114,58,0.47741
9012630,-0.14000,60.4375,114,58,0.47741
9012640,-0.13000,62.0625,114,58,0.47179
9012650,-0.12500,68.3750,114,58,0.46447
9012660,-0.12500,68.3750,114,58,0.46447
9012670,-0.12500,73.3125,114,58,0.46032
9012680,-0.12000,78.6250,114,58,0.45617
9012690,-0.11500,83.6250,114,58,0.45226
9012700,-0.09500,94.1250,114,58,0.44103
9012710,-0.08500,96.4375,114,58,0.43761
9012720,-0.08500,96.4375,114,58,0.43761
9012730,-0.05500,102.9375,114,58,0.43101
9012740,-0.05500,102.9375,114,58,0.43101
9012750,-0.03500,105.1875,114,58,0.42808
9012760,0.01000,109.3750,114,58,0.42222
9012770,0.01000,109.3750,114,58,0.42222
9012780,0.03000,113.0625,114,58,0.41636
9012790,0.06000,116.0000,114,58,0.40195
9012800,0.06000,116.0000,114,58,0.40195
9012810,0.08000,117.1250,114,58,0.38559
9012820,0.09500,119.5000,114,58,0.36679
9012830,0.09500,119.5000,114,58,0.36679
9012840,0.06000,119.9375,114,58,0.36532
9012850,0.01000,120.3125,114,58,0.36313
9012860,-0.04500,120.5000,114,58,0.35800
9012870,-0.08500,120.4375,114,58,0.35531
9012880,-0.11500,120.1875,114,58,0.35263
9012890,-0.13500,119.8750,114,58,0.35018
9012900,-0.15500,118.9375,114,58,0.34847
9012910,-0.15500,118.3125,114,58,0.35043
9012920,-0.15500,117.5625,114,58,0.35556
9012930,-0.14500,116.6875,114,58,0.36361
9012940,-0.14500,114.6250,114,58,0.39145
9012950,-0.13500,113.3750,114,58,0.41245
9012960,-0.13500,111.8125,114,58,0.43712
9012970,-0.12500,105.0000,114,58,0.52088
9012980,-0.12500,105.0000,114,58,0.52088
9012990,-0.09000,99.2500,114,58,0.57314
9013000,-0.09000,99.2500,115,58,0.57314
9013010,-0.07500,96.8125,115,58,0.60098
9013020,-0.05500,93.5625,115,58,0.64029
9013030,-0.05000,91.7500,115,58,0.66642
9013040,-0.04500,91.7500,115,58,0.66642
9013050,-0.03500,90.9375,115,58,0.67937
9013060,-0.03500,89.3750,115,58,0.70403
9013070,-0.04500,87.8125,115,58,0.72576
9013080,-0.04500,87.8125,115,58,0.72576
9013090,-0.05500,87.0625,115,58,0.73504
9013100,-0.05500,85.6250,115,58,0.75433
9013110,-0.06000,84.9375,115,58,0.76020
9013120,-0.06000,84.3125,115,58,0.76606
9013130,-0.06500,82.6250,115,58,0.77875
9013140,-0.06500,82.6250,115,58,0.77875
9013150,-0.06500,81.6250,115,58,0.78535
9013160,-0.06500,81.0625,115,58,0.78828
9013170,-0.06500,81.0625,115,58,0.78828
9013180,-0.06500,80.0625,115,58,0.79316
9013190,-0.06000,79.5625,115,58,0.79487
9013200,-0.06000,79.0625,115,58,0.79536
9013210,-0.05500,78.5625,115,58,0.79463
9013220,-0.05500,77.1250,115,58,0.78584
9013230,-0.05500,77.1250,115,58,0.78584
9013240,-0.05500,76.6250,115,58,0.77998
9013250,-0.05500,75.1875,115,58,0.75751
9013260,-0.05500,75.1875,115,58,0.75751
9013270,-0.05500,74.7500,115,58,0.75116
9013280,-0.03500,74.3125,115,58,0.74286
9013290,-0.02000,73.8125,115,58,0.73114
9013300,-0.00500,72.4375,115,58,0.70159
9013310,-0.00500,72.4375,115,58,0.70159
9013320,-0.01000,72.0000,115,58,0.69353
9013330,-0.02500,70.7500,115,58,0.67057
9013340,-0.02500,70.7500,115,58,0.67057
9013350,-0.06000,69.8750,115,58,0.65714
9013360,-0.06500,69.5000,115,58,0.65079
9013370,-0.06500,69.5000,115,58,0.65079
9013380,-0.04500,68.3750,115,58,0.63053
9013390,-0.06000,68.0000,115,58,0.62271
9013400,-0.06000,68.0000,115,58,0.62271
9013410,0.11000,66.8750,115,58,0.60366
9013420,0.11000,66.8750,115,58,0.60366
9013430,0.94500,66.2500,115,58,0.59365
9013440,0.94500,66.2500,115,58,0.59365
9013450,0.58500,65.4375,115,58,0.57753
9013460,0.14000,65.1875,115,58,0.57192
9013470,0.14000,65.1875,115,58,0.57192
9013480,-0.09500,64.6250,115,58,0.56068
9013490,-0.09500,64.6250,115,58,0.56068
9013500,-0.14000,64.0000,115,58,0.54383
9013510,-0.14500,63.7500,115,58,0.53919
9013520,-0.14500,63.7500,115,58,0.53919
9013530,-0.15000,62.9375,115,58,0.52576
9013540,-0.15000,62.9375,115,58,0.52576
9013550,-0.14500,62.6250,115,58,0.52063
9013560,-0.14500,61.6250,115,58,0.50476
9013570,-0.14500,61.4375,115,58,0.49915
9013580,-0.14000,61.4375,115,58,0.49377
9013590,-0.14000,61.4375,115,58,0.49377
9013600,-0.13500,63.0000,115,58,0.48376
9013610,-0.13500,63.0000,115,58,0.48376
9013620,-0.13000,69.1875,115,58,0.47546
9013630,-0.12500,74.0625,115,58,0.47253
9013640,-0.11500,79.4375,115,58,0.46886
9013650,-0.10500,84.5000,115,58,0.46447
9013660,-0.09500,92.3750,115,58,0.45519
9013670,-0.08500,95.1875,115,58,0.45079
9013680,-0.08000,97.5625,115,58,0.44640
9013690,-0.06500,99.6875,115,58,0.44225
9013700,-0.05500,104.0625,115,58,0.43419
9013710,-0.03500,106.3125,115,58,0.43028
9013720,-0.01000,108.5000,115,58,0.42759
9013730,0.01000,110.6250,115,58,0.42564
9013740,0.04000,114.3125,115,58,0.42002
9013750,0.09500,117.2500,115,58,0.41416
9013760,0.12000,118.4375,115,58,0.41123
9013770,0.12000,118.4375,115,58,0.41123
9013780,0.14500,120.2500,115,58,0.40513
9013790,0.14500,120.8750,115,58,0.40220
9013800,0.12000,121.3750,115,58,0.39927
9013810,0.08000,121.7500,115,58,0.39634
9013820,-0.01500,122.0625,115,58,0.39145
9013830,-0.01500,122.0625,115,58,0.39145
9013840,-0.04500,121.9375,115,58,0.38926
9013850,-0.08500,120.8125,115,58,0.38755
9013860,-0.08500,120.8125,115,58,0.38755
9013870,-0.09500,119.6250,115,58,0.40024
9013880,-0.09500,119.6250,115,58,0.40024
9013890,-0.10500,116.9375,115,58,0.45177
9013900,-0.10500,116.9375,115,58,0.45177
9013910,-0.10500,115.6875,115,58,0.47668
9013920,-0.10500,114.2500,115,58,0.50012
9013930,-0.10500,112.5625,115,58,0.52308
9013940,-0.10500,108.1250,115,58,0.57485
9013950,-0.10500,105.3125,115,58,0.60000
9013960,-0.09500,99.6250,115,58,0.64567
9013970,-0.09500,99.6250,115,58,0.64567
9013980,-0.09500,95.6875,115,58,0.68425
9013990,-0.09500,93.5625,115,58,0.71722
9014000,-0.09500,93.5625,115,59,0.71722
9014010,-0.09000,92.7500,115,59,0.73211
9014020,-0.08500,90.5000,115,59,0.76557
9014030,-0.08500,90.5000,115,59,0.76557
9014040,-0.08000,89.7500,115,59,0.77705
9014050,-0.08000,88.9375,115,59,0.78852
9014060,-0.08000,87.4375,115,59,0.81001
9014070,-0.07500,86.0625,115,59,0.82906
9014080,-0.07500,86.0625,115,59,0.82906
9014090,-0.06500,84.0625,115,59,0.85348
9014100,-0.06500,83.5000,115,59,0.86056
9014110,-0.06500,83.5000,115,59,0.86056
9014120,-0.06500,82.4375,115,59,0.86886
9014130,-0.06500,81.3750,115,59,0.87766
9014140,-0.06500,81.3750,115,59,0.87766
9014150,-0.06000,80.8750,115,59,0.88181
9014160,-0.06500,80.3750,115,59,0.88523
9014170,-0.06500,78.8125,115,59,0.88913
9014180,-0.06500,78.8125,115,59,0.88913
9014190,-0.06500,78.3125,115,59,0.88791
9014200,-0.06500,77.8750,115,59,0.88498
9014210,-0.06000,77.3750,115,59,0.88034
9014220,-0.05500,76.4375,115,59,0.86740
9014230,-0.05000,75.5000,115,59,0.85153
9014240,-0.04000,75.0000,115,59,0.84274
9014250,-0.03500,74.0625,115,59,0.82491
9014260,-0.03500,74.0625,115,59,0.82491
9014270,-0.01500,73.1875,115,59,0.80684
9014280,-0.02000,72.7500,115,59,0.79805
9014290,-0.02000,72.7500,115,59,0.79805
9014300,-0.03500,71.5000,115,59,0.77314
9014310,-0.05500,71.0625,115,59,0.76557
9014320,-0.05500,71.0625,115,59,0.76557
9014330,-0.06500,69.8750,115,59,0.74310
9014340,-0.06000,69.5000,115,59,0.73553
9014350,-0.06000,69.5000,115,59,0.73553
9014360,-0.06500,68.8125,115,59,0.72088
9014370,-0.06500,68.8125,115,59,0.72088
9014380,0.14500,67.7500,115,59,0.70012
9014390,0.57500,67.3750,115,59,0.69328
9014400,0.57500,67.3750,115,59,0.69328
9014410,0.91500,66.4375,115,59,0.67448
9014420,0.91500,66.4375,115,59,0.67448
9014430,0.47500,66.1250,115,59,0.66838
9014440,0.09000,65.7500,115,59,0.66203
9014450,-0.10500,64.8125,115,59,0.64249
9014460,-0.10500,64.8125,115,59,0.64249
9014470,-0.14000,64.2500,115,59,0.62930
9014480,-0.14000,64.2500,115,59,0.62930
9014490,-0.14000,63.9375,115,59,0.62247
9014500,-0.14000,63.0000,115,59,0.60171
9014510,-0.14500,62.6250,115,59,0.59585
9014520,-0.14500,62.6250,115,59,0.59585
9014530,-0.13500,61.6250,115,59,0.57924
9014540,-0.13500,61.3750,115,59,0.57314
9014550,-0.13500,61.3750,115,59,0.57314
9014560,-0.12500,61.6875,115,59,0.56020
9014570,-0.12500,61.6875,115,59,0.56020
9014580,-0.12500,65.0625,115,59,0.54774
9014590,-0.12000,68.8125,115,59,0.54164
9014600,-0.10500,79.0000,115,59,0.52991
9014610,-0.10500,79.0000,115,59,0.52991
9014620,-0.10000,88.3125,115,59,0.52088
9014630,-0.09500,91.8125,115,59,0.51600
9014640,-0.08500,94.6875,115,59,0.51087
9014650,-0.07000,97.0625,115,59,0.50549
9014660,-0.03500,103.8125,115,59,0.48987
9014670,-0.03500,103.8125,115,59,0.48987
9014680,0.00500,108.1875,115,59,0.48010
9014690,0.00500,108.1875,115,59,0.48010
9014700,0.03000,112.1250,115,59,0.47106
9014710,0.06000,113.8750,115,59,0.46667
9014720,0.08500,115.3750,115,59,0.46374
9014730,0.11000,116.6875,115,59,0.46129
9014740,0.14000,118.8125,115,59,0.45372
9014750,0.16500,119.6250,115,59,0.44933
9014760,0.16500,120.3125,115,59,0.44493
9014770,0.10000,121.5000,115,59,0.43199
9014780,0.04500,121.5625,115,59,0.42808
9014790,0.04500,121.5625,115,59,0.42808
9014800,-0.03500,121.3750,115,59,0.42051
9014810,-0.03500,121.3750,115,59,0.42051
9014820,-0.06000,120.7500,115,59,0.41807
9014830,-0.08000,119.6250,115,59,0.39487
9014840,-0.08500,119.0000,115,59,0.36215
9014850,-0.08500,119.0000,115,59,0.36215
9014860,-0.08500,116.3125,115,59,0.37094
9014870,-0.08500,116.3125,115,59,0.37094
9014880,-0.08500,113.7500,115,59,0.41368
9014890,-0.08500,110.0625,115,59,0.46422
9014900,-0.08500,110.0625,115,59,0.46422
9014910,-0.09000,104.9375,115,59,0.51038
9014920,-0.09000,104.9375,115,59,0.51038
9014930,-0.08500,102.0000,115,59,0.52894
9014940,-0.08500,94.7500,115,59,0.58706
9014950,-0.08500,94.7500,115,59,0.58706
9014960,-0.08500,93.4375,115,59,0.60537
9014970,-0.08500,90.8125,115,59,0.65617
9014980,-0.08500,90.8125,115,59,0.65617
9014990,-0.08000,90.0625,115,59,0.67179
9015000,-0.06500,88.5625,116,59,0.70085
9015010,-0.06500,88.5625,116,59,0.70085
9015020,-0.06500,87.0625,116,59,0.72161
9015030,-0.06000,85.5000,116,59,0.74457
9015040,-0.06000,85.5000,116,59,0.74457
9015050,-0.05500,84.8125,116,59,0.75629
9015060,-0.05500,82.8125,116,59,0.78901
9015070,-0.05500,82.8125,116,59,0.78901
9015080,-0.05500,82.2500,116,59,0.79878
9015090,-0.05500,80.6250,116,59,0.82393
9015100,-0.05500,80.6250,116,59,0.82393
9015110,-0.05500,80.0625,116,59,0.83077
9015120,-0.05500,79.5625,116,59,0.83492
9015130,-0.05500,79.0625,116,59,0.83736
9015140,-0.05500,78.0625,116,59,0.84274
9015150,-0.05500,77.5000,116,59,0.84396
9015160,-0.05500,77.0000,116,59,0.84371
9015170,-0.04500,75.5625,116,59,0.83419
9015180,-0.04500,75.5625,116,59,0.83419
9015190,-0.04500,75.0625,116,59,0.82784
9015200,-0.03000,74.0625,116,59,0.81172
9015210,-0.03000,74.0625,116,59,0.81172
9015220,-0.00500,72.6250,116,59,0.78315
9015230,-0.00500,72.1875,116,59,0.77314
9015240,-0.00500,72.1875,116,59,0.77314
9015250,-0.02000,70.8125,116,59,0.74310
9015260,-0.02500,70.3750,116,59,0.73333
9015270,-0.04500,69.8750,116,59,0.72357
9015280,-0.06000,69.4375,116,59,0.71355
9015290,-0.06000,69.4375,116,59,0.71355
9015300,-0.05500,68.1250,116,59,0.68449
9015310,-0.05500,68.1250,116,59,0.68449
9015320,-0.07500,67.3750,116,59,0.66716
9015330,-0.03500,66.6250,116,59,0.65006
9015340,-0.03500,66.6250,116,59,0.65006
9015350,0.24500,66.2500,116,59,0.64151
9015360,1.06500,65.5000,116,59,0.62466
9015370,1.06500,65.5000,116,59,0.62466
9015380,0.86500,64.8750,116,59,0.60781
9015390,0.03500,64.2500,116,59,0.59072
9015400,0.03500,64.2500,116,59,0.59072
9015410,-0.11500,63.4375,116,59,0.56703
9015420,-0.11500,63.4375,116,59,0.56703
9015430,-0.13500,63.1875,116,59,0.55922
9015440,-0.14500,62.9375,116,59,0.55116
9015450,-0.15000,62.6250,116,59,0.54310
9015460,-0.15500,62.0625,116,59,0.52674
9015470,-0.15500,61.7500,116,59,0.51868
9015480,-0.15500,61.4375,116,59,0.51038
9015490,-0.15000,61.1250,116,59,0.50232
9015500,-0.15000,60.5000,116,59,0.48620
9015510,-0.14500,60.2500,116,59,0.47839
9015520,-0.14500,60.1875,116,59,0.47179
9015530,-0.14500,60.4375,116,59,0.46545
9015540,-0.14000,63.5000,116,59,0.45153
9015550,-0.13500,66.9375,116,59,0.44420
9015560,-0.13500,71.6875,116,59,0.43712
9015570,-0.11500,86.5000,116,59,0.41563
9015580,-0.10500,90.1250,116,59,0.40855
9015590,-0.09000,93.1250,116,59,0.40171
9015600,-0.07500,95.5000,116,59,0.39487
9015610,-0.06000,99.8125,116,59,0.38486
9015620,-0.06000,99.8125,116,59,0.38486
9015630,-0.04500,101.9375,116,59,0.37973
9015640,-0.02500,104.0625,116,59,0.37436
9015650,0.03000,109.9375,116,59,0.35775
9015660,0.03000,109.9375,116,59,0.35775
9015670,0.08500,113.0625,116,59,0.34725
9015680,0.11500,114.3750,116,59,0.34212
9015690,0.11500,114.3750,116,59,0.34212
9015700,0.15500,117.1250,116,59,0.32894
9015710,0.14500,117.7500,116,59,0.32625
9015720,0.14500,117.7500,116,59,0.32625
9015730,0.05500,118.6250,116,59,0.31429
9015740,0.00500,118.6250,116,59,0.30989
9015750,0.00500,118.6250,116,59,0.30989
9015760,-0.06000,118.3125,116,59,0.30159
9015770,-0.06000,118.3125,116,59,0.30159
9015780,-0.07500,117.6250,116,59,0.29548
9015790,-0.09500,116.5000,116,59,0.29646
9015800,-0.09500,116.5000,116,59,0.29646
9015810,-0.10500,115.8125,116,59,0.30232
9015820,-0.11500,114.0625,116,59,0.32283
9015830,-0.11500,111.5000,116,59,0.36044
9015840,-0.11500,109.8125,116,59,0.38486
9015850,-0.11500,109.8125,116,59,0.38486
9015860,-0.11000,102.6875,116,59,0.46593
9015870,-0.11000,102.6875,116,59,0.46593
9015880,-0.10500,97.0000,116,59,0.51746
9015890,-0.10500,97.0000,116,59,0.51746
9015900,-0.10500,92.9375,116,59,0.56459
9015910,-0.10000,90.7500,116,59,0.60024
9015920,-0.09500,89.9375,116,59,0.61856
9015930,-0.09500,88.3750,116,59,0.65592
9015940,-0.09000,87.6250,116,59,0.67424
9015950,-0.09000,87.6250,116,59,0.67424
9015960,-0.08500,86.0625,116,59,0.70940
9015970,-0.08500,86.0625,116,59,0.70940
9015980,-0.08500,83.8750,116,59,0.75751
9015990,-0.08000,83.2500,116,59,0.77241
9016000,-0.08000,83.2500,116,59,0.77241
9016010,-0.08000,81.4375,116,59,0.80488
9016020,-0.08000,81.4375,116,59,0.80488
9016030,-0.08000,80.3750,116,59,0.82491
9016040,-0.07500,79.8750,116,59,0.83492
9016050,-0.07500,79.8750,116,59,0.83492
9016060,-0.07000,78.3125,116,59,0.86007
9016070,-0.07000,77.8125,116,59,0.86618
9016080,-0.07000,77.8125,116,59,0.86618
9016090,-0.07000,76.3125,116,59,0.87595
9016100,-0.07000,75.8125,116,59,0.87473
9016110,-0.07000,75.8125,116,59,0.87473
9016120,-0.07000,75.3750,116,59,0.87131
9016130,-0.07000,73.9375,116,59,0.85543
9016140,-0.07000,73.9375,116,59,0.85543
9016150,-0.07500,73.5000,116,59,0.84762
9016160,-0.07000,73.0000,116,59,0.83834
9016170,-0.06000,72.5000,116,59,0.82833
9016180,-0.03500,71.1250,116,59,0.79438
9016190,-0.02500,70.6250,116,59,0.78291
9016200,-0.02500,70.6250,116,59,0.78291
9016210,-0.03500,70.1875,116,59,0.77143
9016220,-0.05000,68.8750,116,59,0.73822
9016230,-0.06000,68.4375,116,59,0.72698
9016240,-0.06000,68.4375,116,59,0.72698
9016250,-0.08000,68.0000,116,59,0.71575
9016260,-0.07500,66.8125,116,59,0.68352
9016270,-0.07000,66.4375,116,59,0.67326
9016280,-0.08500,66.0625,116,59,0.66325
9016290,-0.08500,66.0625,116,59,0.66325
9016300,-0.09500,65.3125,116,59,0.64347
9016310,0.06500,65.0000,116,59,0.63443
9016320,0.48500,64.6250,116,59,0.62564
9016330,1.03500,63.6875,116,59,0.59780
9016340,1.03500,63.6875,116,59,0.59780
9016350,0.61000,63.3750,116,59,0.58877
9016360,0.14000,63.1250,116,59,0.58022
9016370,-0.11500,62.3125,116,59,0.55458
9016380,-0.11500,62.3125,116,59,0.55458
9016390,-0.14500,62.0625,116,59,0.54579
9016400,-0.16000,61.8125,116,59,0.53700
9016410,-0.17000,61.0625,116,59,0.51282
9016420,-0.17000,61.0625,116,59,0.51282
9016430,-0.17500,60.4375,116,59,0.49646
9016440,-0.17000,60.0625,116,59,0.48816
9016450,-0.17000,60.0625,116,59,0.48816
9016460,-0.17000,59.4375,116,59,0.47179
9016470,-0.16500,59.1250,116,59,0.45592
9016480,-0.16500,59.1250,116,59,0.45592
9016490,-0.16000,61.6875,116,59,0.43223
9016500,-0.15500,64.7500,116,59,0.42564
9016510,-0.15500,64.7500,116,59,0.42564
9016520,-0.14500,74.4375,116,59,0.41245
9016530,-0.13500,84.3750,116,59,0.39780
9016540,-0.13500,84.3750,116,59,0.39780
9016550,-0.11500,91.5000,116,59,0.38339
9016560,-0.11500,91.5000,116,59,0.38339
9016570,-0.10500,94.0625,116,59,0.37656
9016580,-0.07500,100.5000,116,59,0.35678
9016590,-0.05500,102.6250,116,59,0.35067
9016600,-0.05500,102.6250,116,59,0.35067
9016610,-0.00500,108.4375,116,59,0.33651
9016620,0.02500,110.1250,116,59,0.33187
9016630,0.02500,110.1250,116,59,0.33187
9016640,0.06000,111.6875,116,59,0.32698
9016650,0.09000,113.0000,116,59,0.32186
9016660,0.12000,115.1250,116,59,0.31160
9016670,0.14000,115.9375,116,59,0.30672
9016680,0.14000,116.5625,116,59,0.30183
9016690,0.07500,117.5625,116,59,0.28840
9016700,0.07500,117.5625,116,59,0.28840
9016710,0.02500,117.6250,116,59,0.28523
9016720,-0.06500,117.3750,116,59,0.27937
9016730,-0.09000,116.6875,116,59,0.27253
9016740,-0.09000,116.6875,116,59,0.27253
9016750,-0.11500,115.6875,116,59,0.27131
9016760,-0.12500,115.0000,116,59,0.27546
9016770,-0.12500,115.0000,116,59,0.27546
9016780,-0.12500,113.3750,116,59,0.29744
9016790,-0.12500,111.0625,116,59,0.33797
9016800,-0.12500,111.0625,116,59,0.33797
9016810,-0.12500,109.5625,116,59,0.36361
9016820,-0.11500,103.0000,116,59,0.43785
9016830,-0.11500,100.0625,116,59,0.46496
9016840,-0.11500,100.0625,116,59,0.46496
9016850,-0.11500,97.1875,116,59,0.49158
9016860,-0.11000,91.2500,116,59,0.56703
9016870,-0.11000,91.2500,116,59,0.56703
9016880,-0.10500,89.5625,116,59,0.59170
9016890,-0.10000,88.0000,116,59,0.58339
9016900,-0.10000,88.0000,116,59,0.58339
9016910,-0.09000,86.4375,116,59,0.59927
9016920,-0.09000,86.4375,116,59,0.59927
9016930,-0.08500,85.6875,116,59,0.61172
9016940,-0.07500,83.5000,116,59,0.65372
9016950,-0.07500,83.5000,116,59,0.65372
9016960,-0.07500,82.8125,116,59,0.66740
9016970,-0.08000,82.2500,116,59,0.68059
9016980,-0.07500,80.4375,116,59,0.71526
9016990,-0.07500,80.4375,116,59,0.71526
9017000,-0.07500,79.9375,117,59,0.72527
9017010,-0.07500,79.4375,117,59,0.73431
9017020,-0.07500,78.3750,117,59,0.74457
9017030,-0.07500,77.8750,117,59,0.74969
9017040,-0.07500,77.3750,117,59,0.75458
9017050,-0.07500,76.8750,117,59,0.75873
9017060,-0.07000,75.9375,117,59,0.76386
9017070,-0.07500,75.4375,117,59,0.76410
9017080,-0.07500,74.9375,117,59,0.76288
9017090,-0.07500,74.4375,117,59,0.75971
9017100,-0.07000,73.4375,117,59,0.74823
9017110,-0.06500,73.0000,117,59,0.74017
9017120,-0.04500,72.0625,117,59,0.72186
9017130,-0.03000,71.1250,117,59,0.70134
9017140,-0.02000,70.6875,117,59,0.69060
9017150,-0.01000,70.2500,117,59,0.68010
9017160,-0.01000,70.2500,117,59,0.68010
9017170,-0.03000,68.8750,117,59,0.64884
9017180,-0.03000,68.8750,117,59,0.64884
9017190,-0.05000,68.0000,117,59,0.62833
9017200,-0.07000,67.6250,117,59,0.61807
9017210,-0.07000,67.6250,117,59,0.61807
9017220,-0.07500,66.4375,117,59,0.58974
9017230,-0.06500,66.0625,117,59,0.57998
9017240,-0.08500,65.6250,117,59,0.57045
9017250,-0.09000,64.8750,117,59,0.55189
9017260,-0.09000,64.8750,117,59,0.55189
9017270,0.49500,64.1875,117,59,0.53382
9017280,0.49500,64.1875,117,59,0.53382
9017290,0.95500,63.8750,117,59,0.50818
9017300,1.05500,63.2500,117,59,0.50818
9017310,0.61500,62.9375,117,59,0.50085
9017320,-0.05000,62.3125,117,59,0.48669
9017330,-0.05000,62.3125,117,59,0.48669
9017340,-0.14000,61.5000,117,59,0.46447
9017350,-0.14000,61.5000,117,59,0.46447
9017360,-0.16000,61.0625,117,59,0.44933
9017370,-0.16000,60.5625,117,59,0.43419
9017380,-0.16000,60.5625,117,59,0.43419
9017390,-0.16000,60.2500,117,59,0.42662
9017400,-0.16000,59.8750,117,59,0.41880
9017410,-0.16000,59.5625,117,59,0.41099
9017420,-0.15500,58.9375,117,59,0.39829
9017430,-0.14500,58.5625,117,59,0.38413
9017440,-0.14500,58.5625,117,59,0.38413
9017450,-0.14000,58.7500,117,59,0.37680
9017460,-0.13500,64.5000,117,59,0.35580
9017470,-0.13500,64.5000,117,59,0.35580
9017480,-0.11500,74.3125,117,59,0.34286
9017490,-0.10500,84.1875,117,59,0.33040
9017500,-0.10500,84.1875,117,59,0.33040
9017510,-0.09000,91.1250,117,59,0.32137
9017520,-0.08000,93.6250,117,59,0.31673
9017530,-0.08000,93.6250,117,59,0.31673
9017540,-0.04500,100.0000,117,59,0.30110
9017550,-0.04500,100.0000,117,59,0.30110
9017560,-0.02500,102.0625,117,59,0.29573
9017570,0.02000,107.8125,117,59,0.28034
9017580,0.04500,109.5000,117,59,0.27546
9017590,0.04500,109.5000,117,59,0.27546
9017600,0.10000,112.3125,117,59,0.26716
9017610,0.10000,112.3125,117,59,0.26716
9017620,0.12500,114.4375,117,59,0.26129
9017630,0.15000,115.9375,117,59,0.25397
9017640,0.15000,115.9375,117,59,0.25397
9017650,0.13000,116.4375,117,59,0.25006
9017660,0.02500,117.0000,117,59,0.23883
9017670,-0.02500,116.9375,117,59,0.23516
9017680,-0.02500,116.9375,117,59,0.23516
9017690,-0.08000,116.1250,117,59,0.22686
9017700,-0.08000,116.1250,117,59,0.22686
9017710,-0.09500,115.6250,117,59,0.22662
9017720,-0.11000,114.3125,117,59,0.23199
9017730,-0.11000,114.3125,117,59,0.23199
9017740,-0.11000,112.5625,117,59,0.24884
9017750,-0.10500,111.5625,117,59,0.26300
9017760,-0.10500,108.8750,117,59,0.30183
9017770,-0.10500,105.0000,117,59,0.34896
9017780,-0.10500,105.0000,117,59,0.34896
9017790,-0.09500,99.6250,117,59,0.39805
9017800,-0.09500,99.6250,117,59,0.39805
9017810,-0.10000,96.8125,117,59,0.41880
9017820,-0.10000,92.3125,117,59,0.45739
9017830,-0.10000,90.9375,117,59,0.47790
9017840,-0.09500,89.8750,117,59,0.49817
9017850,-0.09000,89.0625,117,59,0.51795
9017860,-0.08500,87.5625,117,59,0.55629
9017870,-0.07500,86.0625,117,59,0.59219
9017880,-0.07500,86.0625,117,59,0.59219
9017890,-0.07500,85.3125,117,59,0.60904
9017900,-0.07500,83.0625,117,59,0.65397
9017910,-0.07500,83.0625,117,59,0.65397
9017920,-0.08500,81.7500,117,59,0.67643
9017930,-0.08500,80.5625,117,59,0.70061
9017940,-0.08500,80.0000,117,59,0.71160
9017950,-0.08500,80.0000,117,59,0.71160
9017960,-0.08500,79.0000,117,59,0.73114
9017970,-0.08500,79.0000,117,59,0.73114
9017980,-0.09000,78.0000,117,59,0.74628
9017990,-0.08500,77.5000,117,59,0.75238
9018000,-0.08500,77.0000,117,60,0.75751
9018010,-0.08500,76.5000,117,60,0.75971
9018020,-0.08000,75.0000,117,60,0.75995
9018030,-0.08000,75.0000,117,60,0.75995
9018040,-0.07500,74.5625,117,60,0.75824
9018050,-0.06500,73.1250,117,60,0.74212
9018060,-0.06500,73.1250,117,60,0.74212
9018070,-0.06500,72.6250,117,60,0.73382
9018080,-0.05500,72.1875,117,60,0.72430
9018090,-0.04500,71.6875,117,60,0.71404
9018100,-0.01500,70.3750,117,60,0.68034
9018110,-0.01500,70.3750,117,60,0.68034
9018120,-0.00500,69.5000,117,60,0.65788
9018130,-0.02000,69.5000,117,60,0.65788
9018140,-0.03500,68.6250,117,60,0.63443
9018150,-0.04500,68.2500,117,60,0.62271
9018160,-0.08500,67.3750,117,60,0.59976
9018170,-0.08500,67.3750,117,60,0.59976
9018180,-0.08000,66.5000,117,60,0.57827
9018190,-0.07500,66.0625,117,60,0.56801
9018200,-0.09500,65.3125,117,60,0.54921
9018210,-0.09500,65.3125,117,60,0.54921
9018220,-0.06500,64.6250,117,60,0.53211
9018230,0.66500,63.9375,117,60,0.51404
9018240,0.66500,63.9375,117,60,0.51404
9018250,1.03500,63.5625,117,60,0.50501
9018260,0.43500,62.6875,117,60,0.47863
9018270,0.43500,62.6875,117,60,0.47863
9018280,0.05000,62.4375,117,60,0.46984
9018290,-0.07500,62.1250,117,60,0.46129
9018300,-0.12500,61.6250,117,60,0.44444
9018310,-0.15500,61.1250,117,60,0.43053
9018320,-0.15500,61.1250,117,60,0.43053
9018330,-0.16000,60.3750,117,60,0.40781
9018340,-0.16000,60.3750,117,60,0.40781
9018350,-0.16000,60.0625,117,60,0.39976
9018360,-0.16000,59.6875,117,60,0.39194
9018370,-0.16000,59.3750,117,60,0.38413
9018380,-0.16000,58.6875,117,60,0.36899
9018390,-0.16000,58.5000,117,60,0.36166
9018400,-0.15500,58.5000,117,60,0.35433
9018410,-0.15000,62.5000,117,60,0.33700
9018420,-0.14500,66.3750,117,60,0.33065
9018430,-0.13500,71.3750,117,60,0.32430
9018440,-0.13500,71.3750,117,60,0.32430
9018450,-0.12000,86.2500,117,60,0.30525
9018460,-0.11500,89.7500,117,60,0.29890
9018470,-0.10500,92.5625,117,60,0.29280
9018480,-0.09500,94.9375,117,60,0.28694
9018490,-0.09500,94.9375,117,60,0.28694
9018500,-0.05500,101.1250,117,60,0.27228
9018510,-0.05500,101.1250,117,60,0.27228
9018520,-0.03500,103.1250,117,60,0.26935
9018530,-0.01000,105.1250,117,60,0.26545
9018540,0.01000,108.7500,117,60,0.25665
9018550,0.04000,110.3750,117,60,0.25226
9018560,0.07000,111.7500,117,60,0.24786
9018570,0.09500,113.0000,117,60,0.24371
9018580,0.12500,114.9375,117,60,0.23590
9018590,0.14000,115.6250,117,60,0.23223
9018600,0.11000,116.6250,117,60,0.22662
9018610,0.05500,117.0625,117,60,0.22222
9018620,0.05500,117.0625,117,60,0.22222
9018630,-0.04500,117.0000,117,60,0.21563
9018640,-0.07500,116.7500,117,60,0.21221
9018650,-0.07500,116.7500,117,60,0.21221
9018660,-0.09500,116.0000,117,60,0.20733
9018670,-0.11000,115.5000,117,60,0.20684
9018680,-0.11500,114.8750,117,60,0.20904
9018690,-0.12500,112.3750,117,60,0.23785
9018700,-0.12500,112.3750,117,60,0.23785
9018710,-0.12500,111.3125,117,60,0.25324
9018720,-0.12500,110.0000,117,60,0.27057
9018730,-0.12500,108.4375,117,60,0.29182
9018740,-0.12500,104.3125,117,60,0.34017
9018750,-0.12500,98.9375,117,60,0.39023
9018760,-0.12500,98.9375,117,60,0.39023
9018770,-0.11500,92.2500,117,60,0.46081
9018780,-0.11500,92.2500,117,60,0.46081
9018790,-0.11500,91.0000,117,60,0.48303
9018800,-0.10500,89.1875,117,60,0.52283
9018810,-0.10500,89.1875,117,60,0.52283
9018820,-0.10500,87.7500,117,60,0.55629
9018830,-0.09500,86.2500,117,60,0.59243
9018840,-0.09500,85.5000,117,60,0.61026
9018850,-0.09000,84.1250,117,60,0.64420
9018860,-0.09000,84.1250,117,60,0.64420
9018870,-0.08500,82.7500,117,60,0.67424
9018880,-0.08500,82.7500,117,60,0.67424
9018890,-0.09000,80.9375,117,60,0.71184
9018900,-0.08500,80.4375,117,60,0.72015
9018910,-0.08500,80.4375,117,60,0.72015
9018920,-0.08500,79.5000,117,60,0.73358
9018930,-0.08500,78.5000,117,60,0.73797
9018940,-0.08500,78.5000,117,60,0.73797
9018950,-0.07500,77.5000,117,60,0.74335
9018960,-0.07500,77.0625,117,60,0.74579
9018970,-0.07500,77.0625,117,60,0.74579
9018980,-0.07500,76.0625,117,60,0.74725
9018990,-0.07500,75.5625,117,60,0.74603
9019000,-0.07000,75.1250,117,60,0.74310
9019010,-0.06500,74.6250,117,60,0.73846
9019020,-0.06500,73.1875,117,60,0.71722
9019030,-0.05500,72.7500,117,60,0.70794
9019040,-0.05500,72.7500,117,60,0.70794
9019050,-0.03500,71.3750,117,60,0.67717
9019060,-0.02500,70.9375,117,60,0.66618
9019070,-0.02500,70.9375,117,60,0.66618
9019080,-0.02500,70.0000,117,60,0.64396
9019090,-0.04000,69.1875,117,60,0.62271
9019100,-0.04000,69.1875,117,60,0.62271
9019110,-0.06000,68.3750,117,60,0.60391
9019120,-0.06000,68.3750,117,60,0.60391
9019130,-0.07500,67.1875,117,60,0.57558
9019140,-0.07000,66.8125,117,60,0.56630
9019150,-0.07000,66.8125,117,60,0.56630
9019160,-0.06500,66.4375,117,60,0.55702
9019170,-0.09000,66.0625,117,60,0.54799
9019180,-0.07000,65.3125,117,60,0.53016
9019190,0.15500,65.0000,117,60,0.52161
9019200,0.60000,64.6875,117,60,0.51331
9019210,1.00000,64.3750,117,60,0.50598
9019220,0.95500,63.8125,117,60,0.49206
9019230,0.47000,63.5000,117,60,0.48474
9019240,0.06500,63.2500,117,60,0.47717
9019250,-0.11500,62.5625,117,60,0.45446
9019260,-0.11500,62.5625,117,60,0.45446
9019270,-0.14500,62.3125,117,60,0.44713
9019280,-0.16500,61.8750,117,60,0.43248
9019290,-0.16500,61.4375,117,60,0.41832
9019300,-0.16500,61.4375,117,60,0.41832
9019310,-0.16000,60.8750,117,60,0.40708
9019320,-0.16000,60.8750,117,60,0.40708
9019330,-0.15500,59.9375,117,60,0.38901
9019340,-0.15500,59.7500,117,60,0.38266
9019350,-0.15500,59.7500,117,60,0.38266
9019360,-0.15000,59.8125,117,60,0.37656
9019370,-0.15000,60.3125,117,60,0.37045
9019380,-0.14000,68.5625,117,60,0.35287
9019390,-0.14000,68.5625,117,60,0.35287
9019400,-0.13500,73.6875,117,60,0.34725
9019410,-0.12000,88.0625,117,60,0.33480
9019420,-0.12000,88.0625,117,60,0.33480
9019430,-0.11500,91.3750,117,60,0.33016
9019440,-0.10000,94.0000,117,60,0.32552
9019450,-0.07500,100.3125,117,60,0.31087
9019460,-0.07500,100.3125,117,60,0.31087
9019470,-0.05500,102.3750,117,60,0.30647
9019480,-0.03500,104.5000,117,60,0.30208
9019490,-0.01500,106.5000,117,60,0.29792
9019500,0.01000,110.1875,117,60,0.29133
9019510,0.07000,113.0625,117,60,0.28645
9019520,0.07000,113.0625,117,60,0.28645
9019530,0.09500,114.2500,117,60,0.28352
9019540,0.14000,116.8125,117,60,0.27521
9019550,0.14000,116.8125,117,60,0.27521
9019560,0.14000,117.3750,117,60,0.27253
9019570,0.11000,117.8125,117,60,0.27009
9019580,0.06500,118.3750,117,60,0.26496
9019590,-0.03500,118.3750,117,60,0.25958
9019600,-0.03500,118.3750,117,60,0.25958
9019610,-0.07000,118.1875,117,60,0.25788
9019620,-0.08500,117.4375,117,60,0.25641
9019630,-0.10000,116.9375,117,60,0.25665
9019640,-0.11000,116.3750,117,60,0.25910
9019650,-0.11500,115.6875,117,60,0.26422
9019660,-0.11500,114.0000,117,60,0.28523
9019670,-0.11500,113.0000,117,60,0.30085
9019680,-0.11000,111.7500,117,60,0.31917
9019690,-0.11000,110.2500,117,60,0.33993
9019700,-0.11000,103.8750,117,60,0.40098
9019710,-0.11000,103.8750,117,60,0.40098
9019720,-0.10500,98.2500,117,60,0.44298
9019730,-0.10500,93.7500,117,60,0.48474
9019740,-0.10500,93.7500,117,60,0.48474
9019750,-0.10500,91.3750,117,60,0.52479
9019760,-0.10500,90.5625,117,60,0.54383
9019770,-0.10500,90.5625,117,60,0.54383
9019780,-0.09500,88.4375,117,60,0.59805
9019790,-0.09500,87.6875,117,60,0.61490
9019800,-0.09500,87.6875,117,60,0.61490
9019810,-0.09000,85.5625,117,60,0.65324
9019820,-0.09000,85.5625,117,60,0.65324
9019830,-0.09000,84.8125,117,60,0.66667
9019840,-0.08500,83.5000,117,60,0.69231
9019850,-0.08500,82.3125,117,60,0.71477
9019860,-0.08500,82.3125,117,60,0.71477
9019870,-0.08500,81.2500,117,60,0.73333
9019880,-0.08500,80.6875,117,60,0.74115
9019890,-0.08500,80.6875,117,60,0.74115
9019900,-0.08500,79.6250,117,60,0.75165
9019910,-0.08000,79.1250,117,60,0.75385
9019920,-0.08000,78.0625,117,60,0.75897
9019930,-0.07500,77.0625,117,60,0.76093
9019940,-0.07500,77.0625,117,60,0.76093
9019950,-0.07500,76.0625,117,60,0.75726
9019960,-0.07500,75.5625,117,60,0.75311
9019970,-0.07500,75.5625,117,60,0.75311
9019980,-0.07500,74.6875,117,60,0.74042
9019990,-0.07500,73.7500,117,60,0.72259
9020000,-0.07500,73.7500,117,60,0.72259
9020010,-0.06500,73.2500,117,60,0.71282
9020020,-0.05000,72.3125,117,60,0.69133
9020030,-0.04000,71.8750,117,60,0.67985
9020040,-0.03500,71.4375,117,60,0.66813
9020050,-0.02500,71.0000,117,60,0.65641
9020060,-0.03500,69.7500,117,60,0.62320
9020070,-0.03500,69.7500,117,60,0.62320
9020080,-0.04000,69.3125,117,60,0.61270
9020090,-0.05500,68.9375,117,60,0.60244
9020100,-0.07000,68.1875,117,60,0.58266
9020110,-0.07500,67.7500,117,60,0.57363
9020120,-0.06500,67.0000,117,60,0.55433
9020130,-0.06500,67.0000,117,60,0.55433
9020140,-0.08000,66.0000,117,60,0.52698
9020150,0.10500,65.6250,117,60,0.51819
9020160,0.10500,65.6250,117,60,0.51819
9020170,0.93000,64.7500,117,60,0.49304
9020180,0.95000,64.5000,117,60,0.48498
9020190,0.95000,64.5000,117,60,0.48498
9020200,0.12000,64.0000,117,60,0.46960
9020210,-0.04500,63.5000,117,60,0.45592
9020220,-0.04500,63.5000,117,60,0.45592
9020230,-0.12500,63.0000,117,60,0.44127
9020240,-0.12500,63.0000,117,60,0.44127
9020250,-0.13500,62.8125,117,60,0.43419
9020260,-0.14000,62.3750,117,60,0.42051
9020270,-0.14500,62.1250,117,60,0.41368
9020280,-0.14500,61.8125,117,60,0.40684
9020290,-0.14000,61.5625,117,60,0.40000
9020300,-0.13000,60.6250,117,60,0.38242
9020310,-0.13000,60.6250,117,60,0.38242
9020320,-0.12500,60.4375,117,60,0.37656
9020330,-0.12000,62.0625,117,60,0.35897
9020340,-0.12000,62.0625,117,60,0.35897
9020350,-0.11500,64.4375,117,60,0.35311
9020360,-0.11000,73.3125,117,60,0.34212
9020370,-0.11000,73.3125,117,60,0.34212
9020380,-0.10500,83.7500,117,60,0.33187
9020390,-0.08500,91.5625,117,60,0.32234
9020400,-0.08500,91.5625,117,60,0.32234
9020410,-0.08500,94.3125,117,60,0.31893
9020420,-0.07000,98.6875,117,60,0.31233
9020430,-0.06000,100.6875,117,60,0.30842
9020440,-0.04500,102.7500,117,60,0.30452
9020450,-0.01000,108.5625,117,60,0.29280
9020460,-0.01000,108.5625,117,60,0.29280
9020470,0.04000,111.7500,117,60,0.28547
9020480,0.04000,111.7500,117,60,0.28547
9020490,0.06000,113.0625,117,60,0.28205
9020500,0.09000,115.2500,117,60,0.27643
9020510,0.12000,116.1250,117,60,0.27497
9020520,0.14500,116.8750,117,60,0.27302
9020530,0.12500,118.3750,117,60,0.26642
9020540,0.12500,118.3750,117,60,0.26642
9020550,0.08000,118.5625,117,60,0.26398
9020560,0.00000,118.6875,117,60,0.26154
9020570,0.00000,118.6875,117,60,0.26154
9020580,-0.03500,118.5625,117,60,0.25665
9020590,-0.07500,118.0625,117,60,0.25324
9020600,-0.07500,118.0625,117,60,0.25324
9020610,-0.08500,117.6250,117,60,0.25372
9020620,-0.09000,115.7500,117,60,0.26886
9020630,-0.09000,115.7500,117,60,0.26886
9020640,-0.09500,114.9375,117,60,0.27985
9020650,-0.09500,111.4375,117,60,0.33260
9020660,-0.09500,111.4375,117,60,0.33260
9020670,-0.09500,107.8750,117,60,0.37753
9020680,-0.09500,107.8750,117,60,0.37753
9020690,-0.09000,105.5625,117,60,0.40073
9020700,-0.08500,97.2500,117,60,0.46496
9020710,-0.08500,97.2500,117,60,0.46496
9020720,-0.08000,93.3125,117,60,0.50085
9020730,-0.08000,91.1875,117,60,0.53895
9020740,-0.08000,91.1875,117,60,0.53895
9020750,-0.07000,89.5625,117,60,0.57607
9020760,-0.06500,88.8125,117,60,0.59389
9020770,-0.06500,88.8125,117,60,0.59389
9020780,-0.06000,87.3125,117,60,0.62808
9020790,-0.05500,85.8125,117,60,0.65934
9020800,-0.05500,85.8125,117,60,0.65934
9020810,-0.05500,83.6250,117,60,0.69304
9020820,-0.05500,83.6250,117,60,0.69304
9020830,-0.05500,83.0000,117,60,0.70281
9020840,-0.05500,81.7500,117,60,0.72234
9020850,-0.05500,81.7500,117,60,0.72234
9020860,-0.05000,80.5625,117,60,0.73895
9020870,-0.04500,80.0625,117,60,0.74579
9020880,-0.04500,79.5000,117,60,0.75165
9020890,-0.05000,77.8750,117,60,0.76288
9020900,-0.05000,77.8750,117,60,0.76288
9020910,-0.04500,77.3750,117,60,0.76337
9020920,-0.04500,76.8750,117,60,0.76215
9020930,-0.04000,76.3750,117,60,0.76068
9020940,-0.04000,75.3125,117,60,0.75458
9020950,-0.03500,74.8750,117,60,0.74921
9020960,-0.02500,73.4375,117,60,0.72430
9020970,-0.02500,73.4375,117,60,0.72430
9020980,-0.01500,73.0000,117,60,0.71331
9020990,-0.00500,72.5000,117,60,0.69817
9021000,0.00000,72.0000,117,60,0.68059
9021010,0.00000,70.6250,117,60,0.64078
9021020,0.00000,70.6250,117,60,0.64078
9021030,-0.01000,70.1250,117,60,0.62882
9021040,-0.03000,69.2500,117,60,0.60562
9021050,-0.03000,69.2500,117,60,0.60562
9021060,-0.05000,68.3750,117,60,0.58315
9021070,-0.05500,68.0000,117,60,0.57216
9021080,-0.05500,67.5625,117,60,0.56142
9021090,-0.06500,66.3750,117,60,0.53089
9021100,-0.06500,66.3750,117,60,0.53089
9021110,-0.05500,65.9375,117,60,0.52210
9021120,0.62000,65.1875,117,60,0.50501
9021130,0.62000,65.1875,117,60,0.50501
9021140,1.01500,64.5000,117,60,0.48742
9021150,0.98000,64.1250,117,60,0.47863
9021160,0.50500,63.8125,117,60,0.46984
9021170,-0.04000,62.8750,117,60,0.44493
9021180,-0.04000,62.8750,117,60,0.44493
9021190,-0.09500,62.6250,117,60,0.43712
9021200,-0.13500,62.1250,117,60,0.42247
9021210,-0.14000,61.5625,117,60,0.40952
9021220,-0.14000,61.5625,117,60,0.40952
9021230,-0.14000,61.0625,117,60,0.39560
9021240,-0.14000,60.7500,117,60,0.38852
9021250,-0.14000,60.7500,117,60,0.38852
9021260,-0.14000,59.6875,117,60,0.36777
9021270,-0.14000,59.6875,117,60,0.36777
9021280,-0.13500,59.3750,117,60,0.36093
9021290,-0.13500,59.4375,117,60,0.34090
9021300,-0.13500,59.4375,117,60,0.34090
9021310,-0.13000,60.3750,117,60,0.33578
9021320,-0.12500,62.5000,117,60,0.33138
9021330,-0.11500,76.1875,117,60,0.31526
9021340,-0.10500,81.2500,117,60,0.30989
9021350,-0.10500,81.2500,117,60,0.30989
9021360,-0.09500,85.6875,117,60,0.30452
9021370,-0.07000,94.6250,117,60,0.28889
9021380,-0.07000,94.6250,117,60,0.28889
9021390,-0.03500,98.7500,117,60,0.27912
9021400,-0.03500,98.7500,117,60,0.27912
9021410,0.01000,104.6875,117,60,0.26935
9021420,0.04000,106.5000,117,60,0.26569
9021430,0.04000,106.5000,117,60,0.26569
9021440,0.06000,108.2500,117,60,0.26178
9021450,0.09000,109.7500,117,60,0.25812
9021460,0.11500,112.3750,117,60,0.25128
9021470,0.14000,113.4375,117,60,0.24786
9021480,0.16000,114.3125,117,60,0.24469
9021490,0.16500,115.0625,117,60,0.24151
9021500,0.13500,116.0000,117,60,0.23516
9021510,0.03000,116.4375,117,60,0.23223
9021520,0.03000,116.4375,117,60,0.23223
9021530,-0.01500,116.5000,117,60,0.23004
9021540,-0.05000,116.3125,117,60,0.22466
9021550,-0.07500,116.0625,117,60,0.22198
9021560,-0.08500,115.6875,117,60,0.22002
9021570,-0.09000,115.1875,117,60,0.21954
9021580,-0.09000,113.8750,117,60,0.22515
9021590,-0.09500,113.1250,117,60,0.23248
9021600,-0.09500,112.1875,117,60,0.24347
9021610,-0.09000,111.1250,117,60,0.25641
9021620,-0.08500,108.3125,117,60,0.28938
9021630,-0.08500,106.5000,117,60,0.31038
9021640,-0.09000,104.2500,117,60,0.33260
9021650,-0.09000,96.0000,117,60,0.40147
9021660,-0.09000,96.0000,117,60,0.40147
9021670,-0.08500,93.6250,117,60,0.42369
9021680,-0.08000,90.6250,117,60,0.46569
9021690,-0.08000,90.6250,117,60,0.46569
9021700,-0.07500,88.9375,117,60,0.50598
9021710,-0.08000,88.1875,117,60,0.52234
9021720,-0.08000,87.4375,117,60,0.53675
9021730,-0.08000,86.6875,117,60,0.55287
9021740,-0.08000,85.1250,117,60,0.58510
9021750,-0.08000,83.6875,117,60,0.61563
9021760,-0.08000,83.6875,117,60,0.61563
9021770,-0.07500,83.0000,117,60,0.62979
9021780,-0.07500,81.0625,117,60,0.66642
9021790,-0.07000,80.5000,117,60,0.67668
9021800,-0.07000,80.5000,117,60,0.67668
9021810,-0.06500,79.9375,117,60,0.68400
9021820,-0.06500,78.3750,117,60,0.70159
9021830,-0.06500,78.3750,117,60,0.70159
9021840,-0.06500,77.8750,117,60,0.70720
9021850,-0.06500,77.3750,117,60,0.71184
9021860,-0.06000,76.3750,117,60,0.71795
9021870,-0.05500,75.3750,117,60,0.71893
9021880,-0.05500,75.3750,117,60,0.71893
9021890,-0.05000,74.0000,117,60,0.70916
9021900,-0.05000,74.0000,117,60,0.70916
9021910,-0.04000,73.0000,117,60,0.69524
9021920,-0.02500,72.5625,117,60,0.68645
9021930,-0.02500,72.5625,117,60,0.68645
9021940,0.00000,71.1250,117,60,0.65446
9021950,0.00000,71.1250,117,60,0.65446
9021960,0.00500,70.6250,117,60,0.64274
9021970,-0.01500,69.2500,117,60,0.60684
9021980,-0.01500,69.2500,117,60,0.60684
9021990,-0.02000,68.8125,117,60,0.59512
9022000,-0.04000,68.3750,117,60,0.58364
9022010,-0.05500,67.9375,117,60,0.57338
9022020,-0.05500,67.0625,117,60,0.55336
9022030,-0.05500,66.2500,117,60,0.53260
9022040,-0.05500,66.2500,117,60,0.53260
9022050,-0.08500,65.8750,117,60,0.52234
9022060,-0.05000,65.1250,117,60,0.50330
9022070,0.70000,64.4375,117,60,0.48547
9022080,0.70000,64.4375,117,60,0.48547
9022090,1.06500,64.0625,117,60,0.47668
9022100,0.41500,63.1250,117,60,0.45250
9022110,0.41500,63.1250,117,60,0.45250
9022120,0.05000,62.8125,117,60,0.44591
9022130,-0.11000,62.0000,117,60,0.42418
9022140,-0.11000,62.0000,117,60,0.42418
9022150,-0.13500,61.7500,117,60,0.41661
9022160,-0.14500,61.5000,117,60,0.40904
9022170,-0.14500,61.2500,117,60,0.40195
9022180,-0.15000,60.7500,117,60,0.38779
9022190,-0.14500,60.1875,117,60,0.37363
9022200,-0.14500,59.8125,117,60,0.36801
9022210,-0.14500,59.8125,117,60,0.36801
9022220,-0.14500,58.8125,117,60,0.35140
9022230,-0.14000,58.6250,117,60,0.34530
9022240,-0.14000,58.6250,117,60,0.34530
9022250,-0.13000,60.6875,117,60,0.32698
9022260,-0.12500,63.3750,117,60,0.32112
9022270,-0.12500,63.3750,117,60,0.32112
9022280,-0.11000,72.6250,117,60,0.30989
9022290,-0.11000,72.6250,117,60,0.30989
9022300,-0.10500,82.8750,117,60,0.29915
9022310,-0.08500,90.1875,117,60,0.29158
9022320,-0.07000,92.8125,117,60,0.28742
9022330,-0.07000,92.8125,117,60,0.28742
9022340,-0.03000,99.0625,117,60,0.27399
9022350,-0.01000,101.1250,117,60,0.26960
9022360,0.01500,103.0625,117,60,0.26545
9022370,0.01500,103.0625,117,60,0.26545
9022380,0.04000,106.6875,117,60,0.25714
9022390,0.09500,109.8125,117,60,0.24957
9022400,0.09500,109.8125,117,60,0.24957
9022410,0.14500,113.3125,117,60,0.24371
9022420,0.16500,114.1250,117,60,0.24127
9022430,0.15500,114.7500,117,60,0.23858
9022440,0.15500,114.7500,117,60,0.23858
9022450,0.07000,115.6875,117,60,0.22979
9022460,0.07000,115.6875,117,60,0.22979
9022470,-0.02500,115.7500,117,60,0.22442
9022480,-0.02500,115.7500,117,60,0.22442
9022490,-0.05500,115.6250,117,60,0.22149
9022500,-0.08500,114.6250,117,60,0.21661
9022510,-0.08500,114.6250,117,60,0.21661
9022520,-0.09500,114.0625,117,60,0.21783
9022530,-0.11000,111.9375,117,60,0.23370
9022540,-0.11000,111.9375,117,60,0.23370
9022550,-0.11000,110.9375,117,60,0.24567
9022560,-0.11000,109.7500,117,60,0.26105
9022570,-0.11000,108.3125,117,60,0.27961
9022580,-0.11000,102.0625,117,60,0.34652
9022590,-0.11500,99.2500,117,60,0.37021
9022600,-0.11500,99.2500,117,60,0.37021
9022610,-0.10500,91.8125,117,60,0.43053
9022620,-0.10500,91.8125,117,60,0.43053
9022630,-0.09500,89.3750,117,60,0.47179
9022640,-0.09500,88.5625,117,60,0.49206
9022650,-0.09000,87.0625,117,60,0.53114
9022660,-0.09000,86.3125,117,60,0.54969
9022670,-0.09000,86.3125,117,60,0.54969
9022680,-0.08000,84.8125,117,60,0.58462
9022690,-0.08000,83.3750,117,60,0.61636
9022700,-0.07500,82.7500,117,60,0.62857
9022710,-0.07500,82.1250,117,60,0.63883
9022720,-0.07500,82.1250,117,60,0.63883
9022730,-0.07500,80.3125,117,60,0.67228
9022740,-0.07500,80.3125,117,60,0.67228
9022750,-0.07500,79.7500,117,60,0.68230
9022760,-0.07000,78.6875,117,60,0.69939
9022770,-0.07000,78.6875,117,60,0.69939
9022780,-0.06500,77.1875,117,60,0.71722
9022790,-0.06500,76.6875,117,60,0.72112
9022800,-0.06500,76.6875,117,60,0.72112
9022810,-0.06500,75.1250,117,60,0.72234
9022820,-0.06500,74.6250,117,60,0.72137
9022830,-0.06500,74.6250,117,60,0.72137
9022840,-0.06500,74.1875,117,60,0.71893
9022850,-0.05500,72.6875,117,60,0.70305
9022860,-0.05500,72.6875,117,60,0.70305
9022870,-0.05500,72.2500,117,60,0.69451
9022880,-0.04500,71.7500,117,60,0.68474
9022890,-0.03000,71.3125,117,60,0.67399
9022900,-0.01000,69.9375,117,60,0.63907
9022910,-0.01500,69.4375,117,60,0.62784
9022920,-0.02500,69.0000,117,60,0.61612
9022930,-0.02500,69.0000,117,60,0.61612
9022940,-0.04500,67.6875,117,60,0.58022
9022950,-0.06500,67.2500,117,60,0.56874
9022960,-0.06500,67.2500,117,60,0.56874
9022970,-0.06500,66.0625,117,60,0.53626
9022980,-0.06500,66.0625,117,60,0.53626
9022990,-0.07500,65.3125,117,60,0.51600
9023000,-0.07500,65.3125,117,60,0.51600
9023010,-0.07500,64.9375,117,60,0.50720
9023020,0.13500,64.1875,117,60,0.49084
9023030,0.59500,63.8125,117,60,0.48230
9023040,1.02500,63.5000,117,60,0.48132
9023050,1.01500,63.1250,117,60,0.48425
9023060,0.52500,62.5000,117,60,0.47668
9023070,0.10000,62.1875,117,60,0.47033
9023080,-0.09500,61.6250,117,60,0.45665
9023090,-0.12500,61.1250,117,60,0.44347
9023100,-0.14000,60.8750,117,60,0.43785
9023110,-0.14500,60.6250,117,60,0.43150
9023120,-0.14500,60.6250,117,60,0.43150
9023130,-0.14500,59.8750,117,60,0.41099
9023140,-0.14500,59.5625,117,60,0.40415
9023150,-0.14500,59.5625,117,60,0.40415
9023160,-0.13500,58.8750,117,60,0.39121
9023170,-0.13500,58.8750,117,60,0.39121
9023180,-0.13500,58.2500,117,60,0.37827
9023190,-0.13500,58.0625,117,60,0.37216
9023200,-0.13500,58.1250,117,60,0.36606
9023210,-0.13500,58.6875,117,60,0.36117
9023220,-0.13500,63.0000,117,60,0.35214
9023230,-0.12500,67.1875,117,60,0.34676
9023240,-0.12000,77.6250,117,60,0.33626
9023250,-0.12000,77.6250,117,60,0.33626
9023260,-0.11000,86.5000,117,60,0.32601
9023270,-0.09500,89.8125,117,60,0.32088
9023280,-0.08500,92.5000,117,60,0.31600
9023290,-0.06500,94.7500,117,60,0.31136
9023300,-0.02500,100.8750,117,60,0.30085
9023310,-0.00500,102.8750,117,60,0.29768
9023320,0.02000,104.8125,117,60,0.29402
9023330,0.02000,104.8125,117,60,0.29402
9023340,0.08500,109.6875,117,60,0.28352
9023350,0.08500,109.6875,117,60,0.28352
9023360,0.11000,111.0000,117,60,0.28010
9023370,0.14000,112.1250,117,60,0.27692
9023380,0.15500,113.8750,117,60,0.27082
9023390,0.15500,114.5000,117,60,0.26789
9023400,0.12500,115.0000,117,60,0.26520
9023410,0.02000,115.6250,117,60,0.26081
9023420,0.02000,115.6250,117,60,0.26081
9023430,-0.06000,115.4375,117,60,0.25617
9023440,-0.08500,115.2500,117,60,0.25372
9023450,-0.08500,115.2500,117,60,0.25372
9023460,-0.09500,114.4375,117,60,0.25031
9023470,-0.10500,113.8750,117,60,0.25055
9023480,-0.10500,112.4375,117,60,0.25836
9023490,-0.10500,112.4375,117,60,0.25836
9023500,-0.10500,110.6250,117,60,0.27839
9023510,-0.10000,108.0625,117,60,0.30916
9023520,-0.10000,108.0625,117,60,0.30916
9023530,-0.09500,106.3125,117,60,0.32943
9023540,-0.09500,99.1250,117,60,0.39878
9023550,-0.09500,99.1250,117,60,0.39878
9023560,-0.09500,96.2500,117,60,0.42247
9023570,-0.09500,90.1875,117,60,0.49011
9023580,-0.09500,90.1875,117,60,0.49011
9023590,-0.09500,88.3125,117,60,0.53187
9023600,-0.09000,87.5625,117,60,0.54921
9023610,-0.09000,87.5625,117,60,0.54921
9023620,-0.08500,85.3125,117,60,0.59878
9023630,-0.08000,84.6250,117,60,0.61587
9023640,-0.08000,84.6250,117,60,0.61587
9023650,-0.07500,82.5000,117,60,0.66276
9023660,-0.07500,81.8125,117,60,0.67668
9023670,-0.07000,81.1875,117,60,0.68938
9023680,-0.07000,80.6875,117,60,0.70110
9023690,-0.07000,80.6875,117,60,0.70110
9023700,-0.07000,79.1250,117,60,0.72625
9023710,-0.07000,79.1250,117,60,0.72625
9023720,-0.07000,78.1250,117,60,0.73968
9023730,-0.07500,77.1250,117,60,0.75067
9023740,-0.07500,77.1250,117,60,0.75067
9023750,-0.06500,76.1250,117,60,0.75726
9023760,-0.06500,75.5625,117,60,0.75897
9023770,-0.06500,75.5625,117,60,0.75897
9023780,-0.06500,74.0625,117,60,0.75580
9023790,-0.06500,73.5625,117,60,0.75165
9023800,-0.06500,73.5625,117,60,0.75165
9023810,-0.06500,73.0625,117,60,0.74579
9023820,-0.06000,72.1250,117,60,0.72991
9023830,-0.04000,71.1875,117,60,0.70989
9023840,-0.03000,70.7500,117,60,0.69866
9023850,-0.03000,70.7500,117,60,0.69866
9023860,-0.02500,69.3125,117,60,0.66252
9023870,-0.04000,68.8750,117,60,0.65031
9023880,-0.04000,68.8750,117,60,0.65031
9023890,-0.05500,67.5000,117,60,0.61538
9023900,-0.07500,67.0625,117,60,0.60513
9023910,-0.07500,67.0625,117,60,0.60513
9023920,-0.08000,66.6875,117,60,0.59463
9023930,-0.07500,66.3125,117,60,0.58413
9023940,-0.08500,65.1250,117,60,0.55311
9023950,-0.08500,65.1250,117,60,0.55311
9023960,0.11000,64.3750,117,60,0.53407
9023970,0.11000,64.3750,117,60,0.53407
9023980,0.55500,63.6875,117,60,0.51600
9023990,1.00000,63.3750,117,60,0.50720
9024000,1.01000,63.0625,117,60,0.49841
9024010,0.55500,62.7500,117,60,0.49084
9024020,0.11000,62.1875,117,60,0.47692
9024030,-0.05500,61.8750,117,60,0.46960
9024040,-0.14000,61.3125,117,60,0.45446
9024050,-0.15500,60.8750,117,60,0.43956
9024060,-0.15500,60.8750,117,60,0.43956
9024070,-0.16000,60.3750,117,60,0.42515
9024080,-0.16000,60.1250,117,60,0.41807
9024090,-0.16000,60.1250,117,60,0.41807
9024100,-0.15500,59.1250,117,60,0.40024
9024110,-0.15500,59.1250,117,60,0.40024
9024120,-0.15500,58.4375,117,60,0.38828
9024130,-0.15500,58.4375,117,60,0.38828
9024140,-0.15500,58.0625,117,60,0.37558
9024150,-0.14500,58.9375,117,60,0.36337
9024160,-0.14500,60.7500,117,60,0.35751
9024170,-0.14500,60.7500,117,60,0.35751
9024180,-0.13500,73.6875,117,60,0.34090
9024190,-0.12500,79.0000,117,60,0.33553
9024200,-0.12500,79.0000,117,60,0.33553
9024210,-0.10500,90.6250,117,60,0.32357
9024220,-0.10500,90.6250,117,60,0.32357
9024230,-0.08000,95.1875,117,60,0.31429
9024240,-0.08000,95.1875,117,60,0.31429
9024250,-0.06000,97.1875,117,60,0.30989
9024260,-0.01500,103.2500,117,60,0.29719
9024270,-0.01500,103.2500,117,60,0.29719
9024280,0.01000,105.1250,117,60,0.29328
9024290,0.04000,106.8750,117,60,0.28962
9024300,0.07000,109.9375,117,60,0.28400
9024310,0.10000,111.1875,117,60,0.28230
9024320,0.12000,112.3125,117,60,0.27985
9024330,0.14000,113.1875,117,60,0.27741
9024340,0.11000,115.0625,117,60,0.26911
9024350,0.11000,115.0625,117,60,0.26911
9024360,0.06000,115.3750,117,60,0.26642
9024370,-0.04000,115.6250,117,60,0.25812
9024380,-0.04000,115.6250,117,60,0.25812
9024390,-0.07500,115.5000,117,60,0.25568
9024400,-0.09500,115.2500,117,60,0.25324
9024410,-0.11000,114.8750,117,60,0.25226
9024420,-0.11500,113.2500,117,60,0.25617
9024430,-0.12000,112.5000,117,60,0.26178
9024440,-0.12000,111.6875,117,60,0.27082
9024450,-0.12000,109.5000,117,60,0.29963
9024460,-0.12000,109.5000,117,60,0.29963
9024470,-0.12000,108.0625,117,60,0.31893
9024480,-0.11500,104.2500,117,60,0.36410
9024490,-0.11500,99.0000,117,60,0.40952
9024500,-0.11500,99.0000,117,60,0.40952
9024510,-0.11500,96.1250,117,60,0.42930
9024520,-0.11500,91.5625,117,60,0.47277
9024530,-0.11000,89.1875,117,60,0.51600
9024540,-0.11000,89.1875,117,60,0.51600
9024550,-0.10500,87.6250,117,60,0.55727
9024560,-0.09500,86.8750,117,60,0.57705
9024570,-0.09500,86.8750,117,60,0.57705
9024580,-0.09000,84.6875,117,60,0.63199
9024590,-0.08500,84.0000,117,60,0.64860
9024600,-0.08500,84.0000,117,60,0.64860
9024610,-0.08500,83.3125,117,60,0.66178
9024620,-0.08500,82.0000,117,60,0.68498
9024630,-0.08500,80.7500,117,60,0.70940
9024640,-0.08500,80.7500,117,60,0.70940
9024650,-0.08500,80.1875,117,60,0.72063
9024660,-0.08500,78.6250,117,60,0.74799
9024670,-0.08500,78.1250,117,60,0.75482
9024680,-0.08000,77.6875,117,60,0.76068
9024690,-0.07500,76.6875,117,60,0.76752
9024700,-0.08000,76.1875,117,60,0.76825
9024710,-0.08000,76.1875,117,60,0.76825
9024720,-0.08000,75.7500,117,60,0.76899
9024730,-0.07500,75.2500,117,60,0.76899
9024740,-0.07500,73.8125,117,60,0.76093
9024750,-0.07500,73.8125,117,60,0.76093
9024760,-0.07500,73.3750,117,60,0.75507
9024770,-0.06500,72.9375,117,60,0.74750
9024780,-0.04000,71.5625,117,60,0.71697
9024790,-0.03500,71.0625,117,60,0.70501
9024800,-0.03500,71.0625,117,60,0.70501
9024810,-0.02500,70.6250,117,60,0.69328
9024820,-0.03500,69.6875,117,60,0.66984
9024830,-0.05000,68.7500,117,60,0.64493
9024840,-0.05000,68.7500,117,60,0.64493
9024850,-0.05500,68.3750,117,60,0.63272
9024860,-0.07500,67.5625,117,60,0.60928
9024870,-0.08500,67.1250,117,60,0.59780
9024880,-0.08000,66.7500,117,60,0.58657
9024890,-0.07000,66.3125,117,60,0.57582
9024900,-0.08500,65.5625,117,60,0.55604
9024910,-0.09500,65.1875,117,60,0.54750
9024920,0.47000,64.5000,117,60,0.52943
9024930,0.47000,64.5000,117,60,0.52943
9024940,0.93000,63.8750,117,60,0.51160
9024950,1.04000,63.6250,117,60,0.50305
9024960,0.62500,63.3125,117,60,0.49499
9024970,-0.04000,62.4375,117,60,0.47131
9024980,-0.04000,62.4375,117,60,0.47131
9024990,-0.13500,61.9375,117,60,0.45714
9025000,-0.13500,61.9375,117,60,0.45714
9025010,-0.15000,61.7500,117,60,0.45128
9025020,-0.15500,61.2500,117,60,0.43761
9025030,-0.15500,60.8125,117,60,0.42369
9025040,-0.15500,60.8125,117,60,0.42369
9025050,-0.15000,60.5000,117,60,0.41685
9025060,-0.15000,59.8125,117,60,0.40317
9025070,-0.15000,59.4375,117,60,0.39658
9025080,-0.14500,58.8750,117,60,0.38291
9025090,-0.14500,58.8750,117,60,0.38291
9025100,-0.14500,59.1250,117,60,0.36947
9025110,-0.13500,62.1875,117,60,0.35971
9025120,-0.13500,62.1875,117,60,0.35971
9025130,-0.13000,65.7500,117,60,0.35433
9025140,-0.11500,81.1250,117,60,0.33871
9025150,-0.11500,81.1250,117,60,0.33871
9025160,-0.11000,85.5625,117,60,0.33382
9025170,-0.09000,94.3750,117,60,0.31990
9025180,-0.09000,94.3750,117,60,0.31990
9025190,-0.07500,96.4375,117,60,0.31551
9025200,-0.04500,100.5000,117,60,0.30989
9025210,-0.04500,100.5000,117,60,0.30989
9025220,-0.02500,104.4375,117,60,0.30305
9025230,0.00000,106.2500,117,60,0.29939
9025240,0.02500,107.9375,117,60,0.29597
9025250,0.05000,109.5000,117,60,0.29255
9025260,0.08000,112.0625,117,60,0.28645
9025270,0.11000,113.0625,117,60,0.28352
9025280,0.13000,113.9375,117,60,0.28083
9025290,0.14000,114.6250,117,60,0.27839
9025300,0.12500,115.7500,117,60,0.27521
9025310,0.08500,116.0625,117,60,0.27448
9025320,0.03500,116.3125,117,60,0.27302
9025330,-0.01000,116.3750,117,60,0.27106
9025340,-0.05000,116.2500,117,60,0.26667
9025350,-0.07500,116.0625,117,60,0.26447
9025360,-0.09500,115.3125,117,60,0.26227
9025370,-0.09500,115.3125,117,60,0.26227
9025380,-0.10000,114.1250,117,60,0.26716
9025390,-0.10500,112.5000,117,60,0.28254
9025400,-0.10500,112.5000,117,60,0.28254
9025410,-0.11000,111.5000,117,60,0.29377
9025420,-0.11000,107.1875,117,60,0.34799
9025430,-0.11000,107.1875,117,60,0.34799
9025440,-0.11500,105.1250,117,60,0.37021
9025450,-0.11500,97.0625,117,60,0.43907
9025460,-0.11500,97.0625,117,60,0.43907
9025470,-0.11500,92.4375,117,60,0.48327
9025480,-0.11000,91.0000,117,60,0.50452
9025490,-0.11000,91.0000,117,60,0.50452
9025500,-0.10500,89.1250,117,60,0.54286
9025510,-0.10500,88.4375,117,60,0.55824
9025520,-0.10500,87.7500,117,60,0.57534
9025530,-0.10000,87.0625,117,60,0.59267
9025540,-0.09500,85.6875,117,60,0.62662
9025550,-0.09000,85.0000,117,60,0.64249
9025560,-0.08500,84.2500,117,60,0.65763
9025570,-0.08000,82.2500,117,60,0.69744
9025580,-0.08000,82.2500,117,60,0.69744
9025590,-0.08000,81.6250,117,60,0.70891
9025600,-0.08000,81.0625,117,60,0.71722
9025610,-0.08000,80.5000,117,60,0.72357
9025620,-0.07500,79.5000,117,60,0.73797
9025630,-0.07500,78.5000,117,60,0.74969
9025640,-0.07500,77.9375,117,60,0.75385
9025650,-0.07000,77.0000,117,60,0.75922
9025660,-0.07000,77.0000,117,60,0.75922
9025670,-0.07000,76.5000,117,60,0.76020
9025680,-0.06500,75.5000,117,60,0.75824
9025690,-0.06500,74.5000,117,60,0.75018
9025700,-0.06500,74.5000,117,60,0.75018
9025710,-0.06000,73.5625,117,60,0.73651
9025720,-0.05500,73.0625,117,60,0.72796
9025730,-0.05500,73.0625,117,60,0.72796
9025740,-0.03500,71.6875,117,60,0.69621
9025750,-0.02500,71.1875,117,60,0.68425
9025760,-0.02500,71.1875,117,60,0.68425
9025770,-0.02000,70.7500,117,60,0.67204
9025780,-0.03500,69.4375,117,60,0.63565
9025790,-0.03500,69.0000,117,60,0.62466
9025800,-0.03500,69.0000,117,60,0.62466
9025810,-0.07000,67.8125,117,60,0.59243
9025820,-0.07500,67.3750,117,60,0.58169
9025830,-0.07500,67.3750,117,60,0.58169
9025840,-0.06500,67.0000,117,60,0.57143
9025850,-0.08000,65.8750,117,60,0.54164
9025860,-0.08000,65.8750,117,60,0.54164
9025870,0.14500,65.1875,117,60,0.52283
9025880,0.58500,64.8750,117,60,0.51380
9025890,0.58500,64.8750,117,60,0.51380
9025900,0.93000,63.9375,117,60,0.49060
9025910,0.48000,63.6875,117,60,0.48327
9025920,0.48000,63.6875,117,60,0.48327
9025930,-0.05500,62.8750,117,60,0.46105
9025940,-0.10500,62.6875,117,60,0.45372
9025950,-0.10500,62.6875,117,60,0.45372
9025960,-0.14500,62.2500,117,60,0.43932
9025970,-0.14500,62.2500,117,60,0.43932
9025980,-0.14500,61.8125,117,60,0.42515
9025990,-0.14500,61.3125,117,60,0.41221
9026000,-0.14500,61.3125,117,60,0.41221
9026010,-0.14500,61.0000,117,60,0.40708
9026020,-0.14500,60.3125,117,60,0.39536
9026030,-0.14500,60.0000,117,60,0.38950
9026040,-0.14500,59.7500,117,60,0.38364
9026050,-0.14000,60.6875,117,60,0.36606
9026060,-0.13500,62.5625,117,60,0.36044
9026070,-0.13500,62.5625,117,60,0.36044
9026080,-0.13500,65.8125,117,60,0.35507
9026090,-0.13000,70.4375,117,60,0.34969
9026100,-0.12500,81.0625,117,60,0.34042
9026110,-0.11500,85.6250,117,60,0.33700
9026120,-0.10500,89.4375,117,60,0.33284
9026130,-0.10000,92.4375,117,60,0.32845
9026140,-0.08500,97.0625,117,60,0.31990
9026150,-0.07500,99.0625,117,60,0.31575
9026160,-0.03500,103.1250,117,60,0.30794
9026170,-0.03500,103.1250,117,60,0.30794
9026180,0.01000,108.7500,117,60,0.29744
9026190,0.01000,108.7500,117,60,0.29744
9026200,0.06000,111.6875,117,60,0.29353
9026210,0.09000,113.9375,117,60,0.28840
9026220,0.11500,114.8750,117,60,0.28571
9026230,0.13500,115.6875,117,60,0.28327
9026240,0.13500,115.6875,117,60,0.28327
9026250,0.11500,117.2500,117,60,0.27643
9026260,0.07000,117.5000,117,60,0.27424
9026270,0.07000,117.5000,117,60,0.27424
9026280,-0.02500,117.6250,117,60,0.26984
9026290,-0.05500,117.4375,117,60,0.26667
9026300,-0.05500,117.4375,117,60,0.26667
9026310,-0.09000,116.7500,117,60,0.26667
9026320,-0.09000,116.7500,117,60,0.26667
9026330,-0.09500,114.9375,117,60,0.27619
9026340,-0.09500,114.1250,117,60,0.28498
9026350,-0.09500,114.1250,117,60,0.28498
9026360,-0.09500,112.1875,117,60,0.31258
9026370,-0.09500,112.1875,117,60,0.31258
9026380,-0.09500,109.3750,117,60,0.35189
9026390,-0.10000,105.2500,117,60,0.39463
9026400,-0.09500,102.6875,117,60,0.41392
9026410,-0.09500,97.0625,117,60,0.45690
9026420,-0.09500,97.0625,117,60,0.45690
9026430,-0.09500,92.8125,117,60,0.50037
9026440,-0.09500,91.5000,117,60,0.52137
9026450,-0.09500,91.5000,117,60,0.52137
9026460,-0.08000,88.9375,117,60,0.58120
9026470,-0.07500,88.1875,117,60,0.59976
9026480,-0.07500,88.1875,117,60,0.59976
9026490,-0.07500,86.0625,117,60,0.64811
9026500,-0.07500,85.3125,117,60,0.65958
9026510,-0.07500,85.3125,117,60,0.65958
9026520,-0.07500,83.8750,117,60,0.68547
9026530,-0.07000,82.5000,117,60,0.70965
9026540,-0.07000,82.5000,117,60,0.70965
9026550,-0.07000,81.2500,117,60,0.72991
9026560,-0.07000,80.6250,117,60,0.73871
9026570,-0.07000,80.6250,117,60,0.73871
9026580,-0.06000,78.9375,117,60,0.75849
9026590,-0.06000,78.9375,117,60,0.75849
9026600,-0.05500,78.3750,117,60,0.76142
9026610,-0.05500,76.6875,117,60,0.76532
9026620,-0.05500,76.6875,117,60,0.76532
9026630,-0.05500,76.1250,117,60,0.76557
9026640,-0.05000,75.6250,117,60,0.76435
9026650,-0.05000,75.1250,117,60,0.76190
9026660,-0.04500,74.1250,117,60,0.75238
9026670,-0.05000,73.1250,117,60,0.73724
9026680,-0.05000,73.1250,117,60,0.73724
9026690,-0.04500,72.6250,117,60,0.72747
9026700,-0.02500,71.1250,117,60,0.69475
9026710,-0.02500,71.1250,117,60,0.69475
9026720,-0.01500,70.6250,117,60,0.68254
9026730,-0.01500,69.2500,117,60,0.64469
9026740,-0.01500,69.2500,117,60,0.64469
9026750,-0.02500,68.8125,117,60,0.63223
9026760,-0.04000,68.0000,117,60,0.60806
9026770,-0.04000,68.0000,117,60,0.60806
9026780,-0.05500,67.1250,117,60,0.58510
9026790,-0.05500,66.7500,117,60,0.57387
9026800,-0.04500,66.3750,117,60,0.56410
9026810,-0.04500,65.9375,117,60,0.55507
9026820,-0.04000,64.7500,117,60,0.52601
9026830,0.22500,64.3750,117,60,0.51624
9026840,0.22500,64.3750,117,60,0.51624
9026850,1.03000,63.3750,117,60,0.48864
9026860,1.03000,63.3750,117,60,0.48864
9026870,0.88000,63.0625,117,60,0.47985
9026880,0.05500,62.5000,117,60,0.46300
9026890,0.05500,62.5000,117,60,0.46300
9026900,-0.05500,61.9375,117,60,0.44933
9026910,-0.12500,61.4375,117,60,0.43443
9026920,-0.14000,61.1875,117,60,0.42686
9026930,-0.14000,60.6875,117,60,0.41221
9026940,-0.14000,60.4375,117,60,0.40488
9026950,-0.14000,60.4375,117,60,0.40488
9026960,-0.14000,59.8125,117,60,0.39096
9026970,-0.14000,59.8125,117,60,0.39096
9026980,-0.13500,58.8125,117,60,0.37094
9026990,-0.13500,58.8125,117,60,0.37094
9027000,-0.13500,58.5000,117,60,0.36557
9027010,-0.13000,59.2500,117,60,0.34994
9027020,-0.13000,59.2500,117,60,0.34994
9027030,-0.12500,64.1250,117,60,0.33919
9027040,-0.12000,68.6250,117,60,0.33382
9027050,-0.12000,68.6250,117,60,0.33382
9027060,-0.10500,83.8750,117,60,0.31819
9027070,-0.10500,83.8750,117,60,0.31819
9027080,-0.09500,87.7500,117,60,0.31306
9027090,-0.07000,95.2500,117,60,0.30159
9027100,-0.07000,95.2500,117,60,0.30159
9027110,-0.05500,97.2500,117,60,0.29792
9027120,-0.04000,99.2500,117,60,0.29402
9027130,-0.01500,101.2500,117,60,0.29011
9027140,0.01000,105.0000,117,60,0.27546
9027150,0.03500,106.6875,117,60,0.26960
9027160,0.06000,108.2500,117,60,0.26496
9027170,0.09000,109.6250,117,60,0.26081
9027180,0.14500,112.7500,117,60,0.25055
9027190,0.16000,113.5000,117,60,0.24884
9027200,0.16000,113.5000,117,60,0.24884
9027210,0.12000,115.0000,117,60,0.24347
9027220,0.12000,115.0000,117,60,0.24347
9027230,0.01500,115.3750,117,60,0.23858
9027240,0.01500,115.3750,117,60,0.23858
9027250,-0.03000,115.4375,117,60,0.23590
9027260,-0.06000,115.1250,117,60,0.23126
9027270,-0.09000,114.3750,117,60,0.22833
9027280,-0.09000,114.3750,117,60,0.22833
9027290,-0.09500,113.8750,117,60,0.22882
9027300,-0.10000,111.6875,117,60,0.24444
9027310,-0.10000,111.6875,117,60,0.24444
9027320,-0.10500,109.5625,117,60,0.27009
9027330,-0.10500,106.5000,117,60,0.30794
9027340,-0.10500,106.5000,117,60,0.30794
9027350,-0.10000,104.5000,117,60,0.32991
9027360,-0.09500,99.3750,117,60,0.37656
9027370,-0.09500,99.3750,117,60,0.37656
9027380,-0.09000,91.8125,117,60,0.44591
9027390,-0.08500,90.3125,117,60,0.46496
9027400,-0.08500,89.1875,117,60,0.48230
9027410,-0.08500,89.1875,117,60,0.48230
9027420,-0.08500,87.5625,117,60,0.52015
9027430,-0.08500,86.1250,117,60,0.55775
9027440,-0.08500,85.3750,117,60,0.57558
9027450,-0.08000,84.0000,117,60,0.60904
9027460,-0.08000,83.3125,117,60,0.62442
9027470,-0.08000,83.3125,117,60,0.62442
9027480,-0.08000,81.9375,117,60,0.65299
9027490,-0.08000,80.6875,117,60,0.67204
9027500,-0.08000,80.6875,117,60,0.67204
9027510,-0.07500,79.5625,117,60,0.69011
9027520,-0.07500,79.5625,117,60,0.69011
9027530,-0.07000,79.0625,117,60,0.69841
9027540,-0.06500,77.5625,117,60,0.71770
9027550,-0.06500,77.5625,117,60,0.71770
9027560,-0.06000,77.0625,117,60,0.72186
9027570,-0.06500,75.5000,117,60,0.72821
9027580,-0.06500,75.5000,117,60,0.72821
9027590,-0.06000,74.9375,117,60,0.72796
9027600,-0.05500,73.9375,117,60,0.72186
9027610,-0.05500,73.9375,117,60,0.72186
9027620,-0.05500,73.0000,117,60,0.71160
9027630,-0.04500,72.0625,117,60,0.69621
9027640,-0.04500,72.0625,117,60,0.69621
9027650,-0.03500,71.5625,117,60,0.68645
9027660,-0.02500,70.6250,117,60,0.66398
9027670,-0.01000,70.1875,117,60,0.65201
9027680,-0.02500,69.2500,117,60,0.62686
9027690,-0.02500,69.2500,117,60,0.62686
9027700,-0.03500,68.3125,117,60,0.60415
9027710,-0.04500,67.8750,117,60,0.59267
9027720,-0.06500,67.4375,117,60,0.58095
9027730,-0.07000,66.1875,117,60,0.54725
9027740,-0.06500,65.7500,117,60,0.53651
9027750,-0.06500,65.7500,117,60,0.53651
9027760,-0.07000,65.3750,117,60,0.52601
9027770,-0.09500,64.9375,117,60,0.51600
9027780,0.00500,64.2500,117,60,0.49670
9027790,0.86500,63.5625,117,60,0.47937
9027800,1.06000,63.2500,117,60,0.47179
9027810,0.73500,62.6250,117,60,0.45568
9027820,0.73500,62.6250,117,60,0.45568
9027830,0.23500,62.3125,117,60,0.44762
9027840,-0.09000,61.7500,117,60,0.43175
9027850,-0.09000,61.7500,117,60,0.43175
9027860,-0.14000,61.0625,117,60,0.40952
9027870,-0.14000,61.0625,117,60,0.40952
9027880,-0.14500,60.8125,117,60,0.40220
9027890,-0.15000,60.5625,117,60,0.39487
9027900,-0.15500,59.9375,117,60,0.38364
9027910,-0.15500,59.6250,117,60,0.37753
9027920,-0.15500,59.3125,117,60,0.37118
9027930,-0.15000,58.3125,117,60,0.35189
9027940,-0.14500,58.1250,117,60,0.34554
9027950,-0.14500,58.1250,117,60,0.33944
9027960,-0.14000,58.4375,117,60,0.33358
9027970,-0.14000,58.4375,117,60,0.33358
9027980,-0.13500,61.9375,117,60,0.32186
9027990,-0.12500,70.7500,117,60,0.31160
9028000,-0.12500,70.7500,117,60,0.31160
9028010,-0.10500,85.3750,117,60,0.29890
9028020,-0.10500,85.3750,117,60,0.29890
9028030,-0.10000,88.8125,117,60,0.29426
9028040,-0.08500,91.5625,117,60,0.28962
9028050,-0.07500,93.8125,117,60,0.28523
9028060,-0.03500,99.6875,117,60,0.27228
9028070,-0.03500,99.6875,117,60,0.27228
9028080,-0.01500,101.6250,117,60,0.26838
9028090,0.03500,106.8125,117,60,0.25983
9028100,0.06500,108.2500,117,60,0.25714
9028110,0.06500,108.2500,117,60,0.25714
9028120,0.09000,109.5000,117,60,0.25421
9028130,0.14000,112.3750,117,60,0.24542
9028140,0.14000,112.3750,117,60,0.24542
9028150,0.14500,113.0625,117,60,0.24298
9028160,0.08500,113.9375,117,60,0.23810
9028170,0.08500,113.9375,117,60,0.23810
9028180,0.03000,114.3125,117,60,0.23321
9028190,-0.02500,114.3750,117,60,0.23077
9028200,-0.05500,114.2500,117,60,0.22930
9028210,-0.07500,114.0625,117,60,0.22833
9028220,-0.10500,112.8125,117,60,0.22442
9028230,-0.10500,112.8125,117,60,0.22442
9028240,-0.11500,111.5000,117,60,0.22882
9028250,-0.11500,109.6875,117,60,0.24567
9028260,-0.11500,108.5625,117,60,0.25958
9028270,-0.11500,108.5625,117,60,0.25958
9028280,-0.11500,105.5000,117,60,0.29719
9028290,-0.12000,101.0625,117,60,0.33626
9028300,-0.12000,98.3125,117,60,0.35849
9028310,-0.12000,98.3125,117,60,0.35849
9028320,-0.12000,95.4375,117,60,0.38169
9028330,-0.12000,92.8125,117,60,0.40513
9028340,-0.11500,89.3125,117,60,0.45055
9028350,-0.11000,88.3125,117,60,0.47253
9028360,-0.10500,87.5625,117,60,0.49377
9028370,-0.09500,86.8125,117,60,0.51453
9028380,-0.09500,84.6875,117,60,0.57241
9028390,-0.09500,84.6875,117,60,0.57241
9028400,-0.09000,83.2500,117,60,0.60024
9028410,-0.08500,81.8750,117,60,0.62882
9028420,-0.08500,81.8750,117,60,0.62882
9028430,-0.08500,80.6875,117,60,0.65592
9028440,-0.08500,80.6875,117,60,0.65592
9028450,-0.08500,80.0625,117,60,0.66813
9028460,-0.07500,78.5000,117,60,0.69866
9028470,-0.07500,78.5000,117,60,0.69866
9028480,-0.07500,78.0000,117,60,0.70647
9028490,-0.07500,76.5625,117,60,0.71941
9028500,-0.07500,76.5625,117,60,0.71941
9028510,-0.07500,76.0625,117,60,0.72210
9028520,-0.07500,75.5625,117,60,0.72430
9028530,-0.07000,75.0625,117,60,0.72552
9028540,-0.06500,73.5625,117,60,0.72210
9028550,-0.06500,73.5625,117,60,0.72210
9028560,-0.06500,73.0625,117,60,0.71819
9028570,-0.06000,71.7500,117,60,0.69646
9028580,-0.06000,71.7500,117,60,0.69646
9028590,-0.04500,70.8125,117,60,0.67692
9028600,-0.03500,70.3125,117,60,0.66569
9028610,-0.03500,70.3125,117,60,0.66569
9028620,-0.01500,68.9375,117,60,0.62906
9028630,-0.02500,68.5000,117,60,0.61661
9028640,-0.02500,68.5000,117,60,0.61661
9028650,-0.04000,67.1250,117,60,0.58022
9028660,-0.04000,67.1250,117,60,0.58022
9028670,-0.06500,66.6875,117,60,0.56850
9028680,-0.07500,66.2500,117,60,0.55727
9028690,-0.07000,65.8750,117,60,0.54628
9028700,-0.06500,65.0625,117,60,0.52747
9028710,-0.10000,64.3750,117,60,0.50842
9028720,0.01000,64.0000,117,60,0.49890
9028730,0.01000,64.0000,117,60,0.49890
9028740,0.86500,63.0000,117,60,0.47253
9028750,0.86500,63.0000,117,60,0.47253
9028760,0.73500,62.3750,117,60,0.45568
9028770,0.73500,62.3750,117,60,0.45568
9028780,0.23500,61.8125,117,60,0.43980
9028790,-0.01000,61.5625,117,60,0.43321
9028800,-0.12500,61.0000,117,60,0.42051
9028810,-0.12500,61.0000,117,60,0.42051
9028820,-0.14500,60.5000,117,60,0.40659
9028830,-0.15500,60.3125,117,60,0.39951
9028840,-0.15500,60.0625,117,60,0.39243
9028850,-0.15500,59.8125,117,60,0.38559
9028860,-0.14500,59.2500,117,60,0.37216
9028870,-0.14000,58.8750,117,60,0.36557
9028880,-0.14000,58.5625,117,60,0.35897
9028890,-0.14000,58.1875,117,60,0.35263
9028900,-0.14000,57.8750,117,60,0.33822
9028910,-0.14000,57.8750,117,60,0.33822
9028920,-0.13500,60.0625,117,60,0.32723
9028930,-0.12500,67.3125,117,60,0.31600
9028940,-0.12500,67.3125,117,60,0.31600
9028950,-0.10500,77.8750,117,60,0.30549
9028960,-0.10500,82.6875,117,60,0.30061
9028970,-0.09500,89.9375,117,60,0.29133
9028980,-0.08500,92.4375,117,60,0.28791
9028990,-0.08500,92.4375,117,60,0.28791
9029000,-0.06000,96.5625,117,60,0.28181
9029010,-0.04000,100.4375,117,60,0.27375
9029020,-0.04000,100.4375,117,60,0.27375
9029030,0.00000,104.1875,117,60,0.26569
9029040,0.00000,104.1875,117,60,0.26569
9029050,0.06500,108.8750,117,60,0.25543
9029060,0.09000,110.1875,117,60,0.25226
9029070,0.09000,110.1875,117,60,0.25226
9029080,0.12500,111.3125,117,60,0.24933
9029090,0.15000,113.6250,117,60,0.24396
9029100,0.15000,113.6250,117,60,0.24396
9029110,0.13000,114.0625,117,60,0.24200
9029120,0.04000,114.6250,117,60,0.23736
9029130,-0.01500,114.6875,117,60,0.23223
9029140,-0.01500,114.6875,117,60,0.23223
9029150,-0.08000,114.3750,117,60,0.22735
9029160,-0.08000,114.3750,117,60,0.22735
9029170,-0.10500,113.0625,117,60,0.23101
9029180,-0.10500,113.0625,117,60,0.23101
9029190,-0.11000,112.4375,117,60,0.24347
9029200,-0.11000,111.6875,117,60,0.25324
9029210,-0.11500,110.8125,117,60,0.26300
9029220,-0.11500,107.1250,117,60,0.30623
9029230,-0.11500,107.1250,117,60,0.30623
9029240,-0.11500,105.3750,117,60,0.32601
9029250,-0.11000,98.0625,117,60,0.39438
9029260,-0.11000,98.0625,117,60,0.39438
9029270,-0.11000,95.2500,117,60,0.41783
9029280,-0.10500,90.7500,117,60,0.46300
9029290,-0.10500,88.4375,117,60,0.49890
9029300,-0.10500,88.4375,117,60,0.49890
9029310,-0.09500,87.0000,117,60,0.53626
9029320,-0.09000,86.2500,117,60,0.55507
9029330,-0.09000,86.2500,117,60,0.55507
9029340,-0.08000,84.1250,117,60,0.60781
9029350,-0.08000,84.1250,117,60,0.60781
9029360,-0.07500,83.3750,117,60,0.62393
9029370,-0.07500,82.7500,117,60,0.63932
9029380,-0.07000,81.5000,117,60,0.66667
9029390,-0.07000,80.8750,117,60,0.67668
9029400,-0.07000,80.3125,117,60,0.68474
9029410,-0.06500,78.8125,117,60,0.71038
9029420,-0.06500,78.3125,117,60,0.71770
9029430,-0.06500,78.3125,117,60,0.71770
9029440,-0.06500,77.3750,117,60,0.72991
9029450,-0.06000,76.3750,117,60,0.73748
9029460,-0.06000,76.3750,117,60,0.73748
9029470,-0.06500,75.8750,117,60,0.73944
9029480,-0.06000,75.3750,117,60,0.73993
9029490,-0.06000,74.8750,117,60,0.73944
9029500,-0.05500,73.9375,117,60,0.73309
9029510,-0.05500,73.4375,117,60,0.72845
9029520,-0.04500,72.5000,117,60,0.71600
9029530,-0.04500,71.5000,117,60,0.69817
9029540,-0.04000,71.0000,117,60,0.68767
9029550,-0.04000,71.0000,117,60,0.68767
9029560,-0.02000,70.0625,117,60,0.66422
9029570,-0.01500,69.1875,117,60,0.63956
9029580,-0.01500,69.1875,117,60,0.63956
9029590,-0.02000,68.7500,117,60,0.62808
9029600,-0.03500,67.8750,117,60,0.60611
9029610,-0.03500,67.8750,117,60,0.60611
9029620,-0.07000,66.5625,117,60,0.57241
9029630,-0.06500,66.1875,117,60,0.56190
9029640,-0.06500,66.1875,117,60,0.56190
9029650,-0.05500,65.0625,117,60,0.53114
9029660,-0.07500,64.6875,117,60,0.52161
9029670,-0.04500,64.3125,117,60,0.51209
9029680,0.21500,64.0000,117,60,0.50281
9029690,0.21500,64.0000,117,60,0.50281
9029700,1.07000,63.0000,117,60,0.48034
9029710,0.94000,62.6875,117,60,0.47277
9029720,0.43500,62.3750,117,60,0.46496
9029730,0.06000,61.8125,117,60,0.45006
9029740,0.06000,61.8125,117,60,0.45006
9029750,-0.11000,61.3125,117,60,0.43516
9029760,-0.13500,61.1250,117,60,0.42784
9029770,-0.13500,61.1250,117,60,0.42784
9029780,-0.15500,60.4375,117,60,0.40708
9029790,-0.16000,60.1250,117,60,0.40171
9029800,-0.16000,60.1250,117,60,0.40171
9029810,-0.16000,59.8750,117,60,0.39560
9029820,-0.15500,58.8750,117,60,0.37680
9029830,-0.15500,58.5000,117,60,0.37045
9029840,-0.15500,58.5000,117,60,0.37045
9029850,-0.14500,58.1875,117,60,0.35214
9029860,-0.14000,58.8125,117,60,0.34628
9029870,-0.14000,58.8125,117,60,0.34628
9029880,-0.13500,60.3750,117,60,0.34066
9029890,-0.13500,72.9375,117,60,0.32723
9029900,-0.12500,78.3125,117,60,0.32283
9029910,-0.12500,78.3125,117,60,0.32283
