cp,st,dt,sw10,dw10,sw10+dw10,dw10/sw10,sw25,dw25,sw25+dw25,dw25/sw25,sw33,dw33,sw33+dw33,dw33/sw33,sw50,dw50,sw50+dw50,dw50/sw50,sw66,dw66,sw66+dw66,dw66/sw66,sw75,dw75,sw75+dw75,dw75/sw75,sys,dia,
900,280,610,240,530,770,2.2083,220,390,610,1.7727,190,340,530,1.7895,160,240,400,1.5,150,180,330,1.2,120,140,260,1.1667,105,62
880,290,600,280,480,760,1.7143,230,360,590,1.5652,220,330,550,1.5,180,240,420,1.3333,150,180,330,1.2,140,130,270,0.92857,105,62
900,280,610,230,510,740,2.2174,210,380,590,1.8095,210,330,540,1.5714,180,240,420,1.3333,130,170,300,1.3077,120,140,260,1.1667,106,62
880,290,600,260,480,740,1.8462,230,370,600,1.6087,220,320,540,1.4545,180,220,400,1.2222,140,160,300,1.1429,120,130,250,1.0833,106,62
890,280,600,300,500,800,1.6667,240,370,610,1.5417,220,330,550,1.5,200,220,420,1.1,150,160,310,1.0667,120,130,250,1.0833,106,62
880,290,600,250,460,710,1.84,230,350,580,1.5217,220,290,510,1.3182,190,220,410,1.1579,150,150,300,1,120,120,240,1,106,62
900,280,610,240,620,860,2.5833,220,410,630,1.8636,200,370,570,1.85,170,260,430,1.5294,140,180,320,1.2857,120,130,250,1.0833,106,62
900,290,590,260,510,770,1.9615,230,380,610,1.6522,210,310,520,1.4762,180,230,410,1.2778,140,150,290,1.0714,140,110,250,0.78571,106,62
890,310,600,280,490,770,1.75,250,380,630,1.52,220,330,550,1.5,190,220,410,1.1579,170,170,340,1,130,130,260,1,106,62
890,290,600,250,520,770,2.08,220,380,600,1.7273,210,330,540,1.5714,180,230,410,1.2778,140,160,300,1.1429,140,120,260,0.85714,106,62
890,290,590,250,470,720,1.88,220,350,570,1.5909,220,310,530,1.4091,190,230,420,1.2105,140,160,300,1.1429,120,130,250,1.0833,107,62
890,300,630,320,510,830,1.5938,250,380,630,1.52,240,330,570,1.375,190,240,430,1.2632,150,180,330,1.2,140,130,270,0.92857,106,62
900,260,560,240,530,770,2.2083,210,390,600,1.8571,190,340,530,1.7895,160,230,390,1.4375,130,170,300,1.3077,110,140,250,1.2727,106,62
900,340,620,260,580,840,2.2308,220,400,620,1.8182,210,350,560,1.6667,190,240,430,1.2632,160,170,330,1.0625,140,130,270,0.92857,106,62
890,280,610,250,490,740,1.96,230,370,600,1.6087,210,310,520,1.4762,180,230,410,1.2778,150,150,300,1,120,120,240,1,105,62
890,280,610,250,470,720,1.88,220,350,570,1.5909,220,320,540,1.4545,170,220,390,1.2941,140,160,300,1.1429,120,120,240,1,106,62
890,280,610,250,530,780,2.12,220,400,620,1.8182,200,330,530,1.65,180,230,410,1.2778,150,170,320,1.1333,120,140,260,1.1667,106,62
900,280,620,240,470,710,1.9583,210,350,560,1.6667,210,300,510,1.4286,180,220,400,1.2222,150,180,330,1.2,110,140,250,1.2727,106,62
2710,280,640,300,490,790,1.6333,250,360,610,1.44,230,330,560,1.4348,190,230,420,1.2105,170,170,340,1,140,140,280,1,106,62
890,2070,600,2030,610,2640,0.30049,1780,610,2390,0.3427,1580,540,2120,0.34177,1330,350,1680,0.26316,1020,230,1250,0.22549,750,170,920,0.22667,105,62
910,290,600,250,490,740,1.96,220,380,600,1.7273,220,330,550,1.5,170,250,420,1.4706,150,170,320,1.1333,120,130,250,1.0833,106,61
890,310,600,270,540,810,2,240,400,640,1.6667,220,350,570,1.5909,190,260,450,1.3684,160,180,340,1.125,130,140,270,1.0769,106,62
910,290,620,310,500,810,1.6129,260,360,620,1.3846,240,300,540,1.25,200,200,400,1,160,120,280,0.75,130,70,200,0.53846,106,62
880,290,600,310,480,790,1.5484,250,350,600,1.4,250,320,570,1.28,200,230,430,1.15,160,150,310,0.9375,150,120,270,0.8,106,62
890,280,610,240,620,860,2.5833,210,480,690,2.2857,210,410,620,1.9524,180,250,430,1.3889,140,180,320,1.2857,130,140,270,1.0769,106,62
900,280,620,240,550,790,2.2917,210,410,620,1.9524,200,360,560,1.8,180,250,430,1.3889,150,170,320,1.1333,120,140,260,1.1667,106,62
910,280,620,270,530,800,1.963,240,400,640,1.6667,220,340,560,1.5455,200,250,450,1.25,150,180,330,1.2,120,150,270,1.25,106,62
900,290,600,260,480,740,1.8462,220,360,580,1.6364,210,320,530,1.5238,190,220,410,1.1579,160,160,320,1,130,110,240,0.84615,107,62
900,300,600,260,500,760,1.9231,240,360,600,1.5,210,310,520,1.4762,180,230,410,1.2778,160,150,310,0.9375,130,130,260,1,108,62
910,300,610,320,490,810,1.5313,270,390,660,1.4444,250,330,580,1.32,200,240,440,1.2,170,170,340,1,160,130,290,0.8125,107,62
890,300,590,250,450,700,1.8,230,340,570,1.4783,220,300,520,1.3636,180,220,400,1.2222,150,150,300,1,130,120,250,0.92308,107,62
900,300,600,260,610,870,2.3462,230,440,670,1.913,210,370,580,1.7619,180,250,430,1.3889,150,150,300,1,130,110,240,0.84615,107,62
890,300,600,260,470,730,1.8077,230,360,590,1.5652,210,310,520,1.4762,200,220,420,1.1,160,150,310,0.9375,140,120,260,0.85714,108,62
910,290,610,250,480,730,1.92,230,380,610,1.6522,210,330,540,1.5714,180,230,410,1.2778,150,170,320,1.1333,120,120,240,1,108,62
900,300,600,250,520,770,2.08,240,380,620,1.5833,220,320,540,1.4545,190,230,420,1.2105,150,160,310,1.0667,120,130,250,1.0833,108,63
900,300,610,260,510,770,1.9615,220,370,590,1.6818,220,320,540,1.4545,190,230,420,1.2105,150,160,310,1.0667,140,130,270,0.92857,108,63
910,290,630,310,490,800,1.5806,260,350,610,1.3462,230,320,550,1.3913,200,230,430,1.15,170,170,340,1,140,120,260,0.85714,108,63
900,280,620,240,540,780,2.25,210,390,600,1.8571,210,340,550,1.619,170,240,410,1.4118,140,160,300,1.1429,130,130,260,1,108,63
900,280,620,240,630,870,2.625,220,460,680,2.0909,200,380,580,1.9,170,270,440,1.5882,130,190,320,1.4615,110,140,250,1.2727,108,63
900,280,630,240,500,740,2.0833,220,380,600,1.7273,210,320,530,1.5238,180,230,410,1.2778,150,170,320,1.1333,120,120,240,1,108,63
910,270,620,260,480,740,1.8462,230,370,600,1.6087,220,320,540,1.4545,180,230,410,1.2778,150,170,320,1.1333,120,140,260,1.1667,108,63
910,290,610,250,520,770,2.08,230,380,610,1.6522,220,330,550,1.5,190,230,420,1.2105,160,160,320,1,120,120,240,1,108,63
910,300,610,280,490,770,1.75,230,380,610,1.6522,220,330,550,1.5,190,220,410,1.1579,160,150,310,0.9375,130,120,250,0.92308,108,63
900,300,620,320,470,790,1.4688,240,360,600,1.5,230,300,530,1.3043,200,220,420,1.1,170,160,330,0.94118,150,110,260,0.73333,108,63
900,280,610,240,530,770,2.2083,220,390,610,1.7727,210,340,550,1.619,170,230,400,1.3529,150,160,310,1.0667,130,130,260,1,107,62
910,290,600,250,610,860,2.44,220,430,650,1.9545,220,370,590,1.6818,180,270,450,1.5,150,170,320,1.1333,140,130,270,0.92857,107,62
900,310,620,250,490,740,1.96,230,370,600,1.6087,210,320,530,1.5238,200,220,420,1.1,160,170,330,1.0625,130,120,250,0.92308,107,62
880,280,610,280,470,750,1.6786,230,340,570,1.4783,220,290,510,1.3182,200,200,400,1,160,140,300,0.875,130,110,240,0.84615,107,62
920,270,630,240,550,790,2.2917,210,400,610,1.9048,190,340,530,1.7895,160,250,410,1.5625,130,190,320,1.4615,110,140,250,1.2727,107,62
910,290,630,310,500,810,1.6129,260,380,640,1.4615,230,320,550,1.3913,200,260,460,1.3,160,180,340,1.125,150,140,290,0.93333,107,62
890,280,620,250,480,730,1.92,220,360,580,1.6364,200,310,510,1.55,180,230,410,1.2778,140,150,290,1.0714,120,120,240,1,106,61
900,270,520,250,530,780,2.12,210,390,600,1.8571,210,340,550,1.619,180,240,420,1.3333,150,160,310,1.0667,120,120,240,1,106,61
910,380,620,250,570,820,2.28,220,410,630,1.8636,210,350,560,1.6667,170,250,420,1.4706,140,170,310,1.2143,130,140,270,1.0769,105,61
900,290,590,260,460,720,1.7692,240,340,580,1.4167,210,300,510,1.4286,190,220,410,1.1579,170,150,320,0.88235,140,120,260,0.85714,106,61
910,310,600,260,450,710,1.7308,230,350,580,1.5217,220,310,530,1.4091,200,220,420,1.1,170,160,330,0.94118,130,110,240,0.84615,106,61
880,310,600,270,490,760,1.8148,250,350,600,1.4,230,310,540,1.3478,190,210,400,1.1053,180,150,330,0.83333,150,120,270,0.8,106,61
920,280,630,300,480,780,1.6,260,360,620,1.3846,240,300,540,1.25,210,220,430,1.0476,170,150,320,0.88235,130,120,250,0.92308,106,61
900,290,600,240,530,770,2.2083,210,380,590,1.8095,210,330,540,1.5714,180,230,410,1.2778,140,160,300,1.1429,130,130,260,1,106,61
880,300,610,250,620,870,2.48,230,520,750,2.2609,210,400,610,1.9048,200,230,430,1.15,150,160,310,1.0667,130,120,250,0.92308,105,61
920,270,620,240,500,740,2.0833,200,380,580,1.9,190,320,510,1.6842,170,240,410,1.4118,140,180,320,1.2857,110,150,260,1.3636,105,61
890,300,610,270,520,790,1.9259,240,390,630,1.625,230,320,550,1.3913,200,220,420,1.1,160,150,310,0.9375,140,130,270,0.92857,106,61
920,280,610,250,520,770,2.08,210,380,590,1.8095,200,320,520,1.6,180,240,420,1.3333,150,180,330,1.2,120,140,260,1.1667,106,62
900,310,610,280,500,780,1.7857,250,370,620,1.48,220,300,520,1.3636,200,210,410,1.05,160,150,310,0.9375,130,110,240,0.84615,106,62
890,290,270,310,270,580,0.87097,260,270,530,1.0385,230,270,500,1.1739,220,220,440,1,180,150,330,0.83333,150,120,270,0.8,105,61
900,620,620,540,570,1110,1.0556,380,400,780,1.0526,200,350,550,1.75,170,240,410,1.4118,140,170,310,1.2143,110,120,230,1.0909,105,61
900,280,610,260,620,880,2.3846,230,490,720,2.1304,210,420,630,2,170,310,480,1.8235,140,170,310,1.2143,140,130,270,0.92857,105,61
910,290,620,250,490,740,1.96,220,370,590,1.6818,210,310,520,1.4762,180,220,400,1.2222,150,170,320,1.1333,130,140,270,1.0769,105,61
890,290,590,260,470,730,1.8077,230,400,630,1.7391,230,340,570,1.4783,190,240,430,1.2632,160,160,320,1,130,120,250,0.92308,105,61
920,300,620,250,510,760,2.04,230,390,620,1.6957,200,330,530,1.65,170,240,410,1.4118,150,160,310,1.0667,120,130,250,1.0833,106,62
910,300,620,320,500,820,1.5625,250,370,620,1.48,230,330,560,1.4348,200,240,440,1.2,160,160,320,1,150,130,280,0.86667,105,62
880,290,590,270,520,790,1.9259,240,360,600,1.5,220,310,530,1.4091,190,230,420,1.2105,160,160,320,1,140,120,260,0.85714,105,61
950,290,610,240,540,780,2.25,210,400,610,1.9048,210,340,550,1.619,170,230,400,1.3529,150,160,310,1.0667,130,130,260,1,105,61
860,340,570,300,470,770,1.5667,260,340,600,1.3077,250,300,550,1.2,210,200,410,0.95238,180,140,320,0.77778,180,110,290,0.61111,105,61
890,290,620,250,460,710,1.84,230,360,590,1.5652,220,310,530,1.4091,180,230,410,1.2778,150,160,310,1.0667,130,130,260,1,105,61
910,270,620,240,460,700,1.9167,210,370,580,1.7619,200,320,520,1.6,170,240,410,1.4118,140,170,310,1.2143,130,140,270,1.0769,105,61
890,290,620,240,560,800,2.3333,230,390,620,1.6957,200,340,540,1.7,180,230,410,1.2778,150,160,310,1.0667,120,140,260,1.1667,106,62
930,270,650,290,480,770,1.6552,240,370,610,1.5417,210,330,540,1.5714,180,240,420,1.3333,150,180,330,1.2,120,140,260,1.1667,106,62
890,280,600,250,510,760,2.04,220,370,590,1.6818,210,320,530,1.5238,180,220,400,1.2222,150,150,300,1,130,120,250,0.92308,106,62
890,290,620,260,540,800,2.0769,230,400,630,1.7391,220,350,570,1.5909,180,230,410,1.2778,140,170,310,1.2143,120,120,240,1,106,62
900,270,610,240,540,780,2.25,210,400,610,1.9048,190,340,530,1.7895,160,250,410,1.5625,140,170,310,1.2143,120,130,250,1.0833,106,62
900,290,610,250,490,740,1.96,220,370,590,1.6818,210,320,530,1.5238,180,220,400,1.2222,140,160,300,1.1429,130,130,260,1,106,62
910,290,600,250,450,700,1.8,220,330,550,1.5,210,270,480,1.2857,180,190,370,1.0556,150,140,290,0.93333,120,120,240,1,107,62
890,310,620,260,480,740,1.8462,240,350,590,1.4583,230,300,530,1.3043,190,210,400,1.1053,160,150,310,0.9375,140,120,260,0.85714,106,62
890,270,630,290,470,760,1.6207,250,380,630,1.52,230,350,580,1.5217,190,230,420,1.2105,160,160,320,1,140,130,270,0.92857,106,62
900,260,610,240,560,800,2.3333,210,410,620,1.9524,200,350,550,1.75,160,250,410,1.5625,130,180,310,1.3846,120,130,250,1.0833,106,62
900,290,620,250,510,760,2.04,220,390,610,1.7727,200,320,520,1.6,190,230,420,1.2105,140,150,290,1.0714,120,120,240,1,106,62
900,280,610,270,620,890,2.2963,240,450,690,1.875,230,380,610,1.6522,200,250,450,1.25,160,180,340,1.125,130,140,270,1.0769,106,62
870,290,590,260,480,740,1.8462,230,360,590,1.5652,210,320,530,1.5238,180,230,410,1.2778,150,150,300,1,130,120,250,0.92308,106,62
910,280,620,240,490,730,2.0417,210,370,580,1.7619,190,320,510,1.6842,170,220,390,1.2941,140,160,300,1.1429,110,130,240,1.1818,106,62
910,290,650,310,510,820,1.6452,230,400,630,1.7391,210,350,560,1.6667,170,260,430,1.5294,150,180,330,1.2,130,150,280,1.1538,107,62
890,260,610,240,490,730,2.0417,220,370,590,1.6818,190,310,500,1.6316,160,230,390,1.4375,140,160,300,1.1429,110,120,230,1.0909,106,62
900,280,590,240,530,770,2.2083,210,380,590,1.8095,200,320,520,1.6,170,230,400,1.3529,140,160,300,1.1429,120,120,240,1,106,62
890,310,590,260,520,780,2,220,360,580,1.6364,220,320,540,1.4545,190,220,410,1.1579,150,150,300,1,130,110,240,0.84615,106,62
890,300,590,250,460,710,1.84,230,350,580,1.5217,210,310,520,1.4762,180,220,400,1.2222,150,160,310,1.0667,130,110,240,0.84615,106,62
900,300,610,250,530,780,2.12,230,390,620,1.6957,200,330,530,1.65,180,240,420,1.3333,150,160,310,1.0667,130,130,260,1,106,62
890,290,610,270,450,720,1.6667,230,350,580,1.5217,230,280,510,1.2174,180,210,390,1.1667,160,150,310,0.9375,140,120,260,0.85714,107,62
900,280,630,300,490,790,1.6333,250,370,620,1.48,240,320,560,1.3333,190,220,410,1.1579,150,160,310,1.0667,140,130,270,0.92857,107,62
900,270,620,230,630,860,2.7391,200,450,650,2.25,200,380,580,1.9,160,260,420,1.625,130,170,300,1.3077,100,140,240,1.4,106,62
900,280,610,240,500,740,2.0833,210,380,590,1.8095,210,330,540,1.5714,180,240,420,1.3333,150,170,320,1.1333,120,120,240,1,106,62
900,290,610,270,490,760,1.8148,220,390,610,1.7727,220,350,570,1.5909,190,240,430,1.2632,160,170,330,1.0625,130,120,250,0.92308,106,62
890,290,600,260,470,730,1.8077,240,350,590,1.4583,220,300,520,1.3636,180,220,400,1.2222,150,140,290,0.93333,120,110,230,0.91667,107,62
890,290,620,250,540,790,2.16,220,380,600,1.7273,200,330,530,1.65,170,230,400,1.3529,140,170,310,1.2143,130,140,270,1.0769,107,62
870,270,600,230,440,670,1.913,210,320,530,1.5238,190,280,470,1.4737,170,200,370,1.1765,150,130,280,0.86667,130,100,230,0.76923,107,62
920,270,620,290,480,770,1.6552,240,360,600,1.5,220,320,540,1.4545,180,230,410,1.2778,150,170,320,1.1333,120,130,250,1.0833,107,62
880,300,600,240,610,850,2.5417,230,470,700,2.0435,200,390,590,1.95,170,270,440,1.5882,150,180,330,1.2,140,130,270,0.92857,107,62
910,280,620,240,510,750,2.125,210,380,590,1.8095,210,320,530,1.5238,170,230,400,1.3529,140,160,300,1.1429,120,130,250,1.0833,107,62
900,290,610,270,490,760,1.8148,240,380,620,1.5833,220,330,550,1.5,180,240,420,1.3333,160,170,330,1.0625,120,140,260,1.1667,107,62
900,290,610,260,480,740,1.8462,210,370,580,1.7619,210,320,530,1.5238,180,220,400,1.2222,150,150,300,1,130,130,260,1,107,62
900,290,320,250,330,580,1.32,220,320,540,1.4545,210,320,530,1.5238,180,220,400,1.2222,150,150,300,1,130,120,250,0.92308,108,62
900,580,620,600,500,1100,0.83333,550,390,940,0.70909,550,340,890,0.61818,550,240,790,0.43636,160,160,320,1,130,130,260,1,108,62
890,280,630,260,470,730,1.8077,230,350,580,1.5217,210,310,520,1.4762,180,230,410,1.2778,140,150,290,1.0714,120,120,240,1,107,62
900,260,610,240,620,860,2.5833,210,450,660,2.1429,200,380,580,1.9,160,260,420,1.625,130,180,310,1.3846,130,140,270,1.0769,107,62
900,290,630,230,500,730,2.1739,220,370,590,1.6818,190,330,520,1.7368,170,240,410,1.4118,140,160,300,1.1429,120,130,250,1.0833,107,62
890,270,620,250,480,730,1.92,220,370,590,1.6818,210,320,530,1.5238,180,230,410,1.2778,150,180,330,1.2,120,140,260,1.1667,107,62
910,270,620,240,520,760,2.1667,210,380,590,1.8095,200,340,540,1.7,160,250,410,1.5625,140,170,310,1.2143,110,130,240,1.1818,108,62
900,290,600,240,470,710,1.9583,220,350,570,1.5909,200,320,520,1.6,180,230,410,1.2778,150,160,310,1.0667,120,130,250,1.0833,108,63
920,300,640,320,490,810,1.5313,250,370,620,1.48,220,320,540,1.4545,190,240,430,1.2632,150,170,320,1.1333,140,140,280,1,108,63
890,280,550,250,490,740,1.96,230,360,590,1.5652,210,310,520,1.4762,180,220,400,1.2222,150,150,300,1,130,110,240,0.84615,108,63
900,340,610,270,600,870,2.2222,230,420,650,1.8261,220,340,560,1.5455,190,240,430,1.2632,160,160,320,1,130,130,260,1,108,63
920,290,630,240,480,720,2,220,360,580,1.6364,210,330,540,1.5714,170,230,400,1.3529,140,160,300,1.1429,120,120,240,1,108,63
890,290,600,250,460,710,1.84,220,340,560,1.5455,220,290,510,1.3182,170,220,390,1.2941,130,150,280,1.1538,130,110,240,0.84615,109,63
910,290,620,250,530,780,2.12,220,390,610,1.7727,200,340,540,1.7,170,230,400,1.3529,140,170,310,1.2143,120,140,260,1.1667,109,63
910,290,620,260,440,700,1.6923,230,330,560,1.4348,210,290,500,1.381,180,210,390,1.1667,150,140,290,0.93333,130,130,260,1,109,63
910,290,630,310,480,790,1.5484,240,350,590,1.4583,230,300,530,1.3043,200,220,420,1.1,160,150,310,0.9375,130,120,250,0.92308,109,63
910,280,610,240,620,860,2.5833,220,510,730,2.3182,210,370,580,1.7619,180,240,420,1.3333,140,170,310,1.2143,130,120,250,0.92308,108,63
900,300,610,260,500,760,1.9231,240,370,610,1.5417,220,320,540,1.4545,180,230,410,1.2778,150,160,310,1.0667,140,110,250,0.78571,108,62
910,290,630,270,540,810,2,230,390,620,1.6957,210,330,540,1.5714,190,240,430,1.2632,160,160,320,1,140,120,260,0.85714,108,62
880,280,610,250,480,730,1.92,230,350,580,1.5217,220,310,530,1.4091,190,220,410,1.1579,150,140,290,0.93333,140,110,250,0.78571,108,62
930,270,620,230,510,740,2.2174,210,390,600,1.8571,200,340,540,1.7,160,230,390,1.4375,140,180,320,1.2857,110,140,250,1.2727,109,63
900,310,630,330,500,830,1.5152,240,380,620,1.5833,240,320,560,1.3333,200,230,430,1.15,170,150,320,0.88235,150,110,260,0.73333,108,62
910,270,620,270,470,740,1.7407,230,350,580,1.5217,220,300,520,1.3636,190,220,410,1.1579,150,160,310,1.0667,130,130,260,1,107,62
880,290,600,260,600,860,2.3077,220,410,630,1.8636,220,350,570,1.5909,180,230,410,1.2778,150,150,300,1,130,120,250,0.92308,107,62
920,280,640,240,530,770,2.2083,200,400,600,2,190,350,540,1.8421,160,250,410,1.5625,130,180,310,1.3846,100,150,250,1.5,107,62
910,280,610,260,490,750,1.8846,230,380,610,1.6522,210,320,530,1.5238,180,240,420,1.3333,160,170,330,1.0625,140,130,270,0.92857,107,62
900,300,610,250,520,770,2.08,220,370,590,1.6818,210,330,540,1.5714,180,220,400,1.2222,150,150,300,1,130,120,250,0.92308,107,62
920,290,630,260,510,770,1.9615,230,360,590,1.5652,200,320,520,1.6,180,220,400,1.2222,140,150,290,1.0714,120,130,250,1.0833,108,62
920,290,640,310,490,800,1.5806,270,380,650,1.4074,230,310,540,1.3478,200,240,440,1.2,160,160,320,1,140,130,270,0.92857,108,62
890,280,610,250,500,750,2,220,380,600,1.7273,220,320,540,1.4545,190,220,410,1.1579,140,150,290,1.0714,130,110,240,0.84615,107,62
900,280,620,240,630,870,2.625,210,450,660,2.1429,200,380,580,1.9,170,260,430,1.5294,140,180,320,1.2857,110,150,260,1.3636,107,62
910,280,620,240,520,760,2.1667,210,400,610,1.9048,210,340,550,1.619,170,240,410,1.4118,130,170,300,1.3077,120,140,260,1.1667,107,62
910,290,620,260,480,740,1.8462,230,370,600,1.6087,220,330,550,1.5,190,240,430,1.2632,150,170,320,1.1333,130,140,270,1.0769,107,62
910,290,600,250,550,800,2.2,220,380,600,1.7273,210,320,530,1.5238,190,230,420,1.2105,160,160,320,1,120,130,250,1.0833,107,62
920,310,640,250,470,720,1.88,220,370,590,1.6818,210,310,520,1.4762,180,240,420,1.3333,150,160,310,1.0667,120,130,250,1.0833,107,62
920,280,650,300,510,810,1.7,300,370,670,1.2333,240,330,570,1.375,210,240,450,1.1429,180,170,350,0.94444,150,140,290,0.93333,106,62
2750,270,630,240,500,740,2.0833,220,390,610,1.7727,200,340,540,1.7,180,240,420,1.3333,140,170,310,1.2143,130,120,250,0.92308,106,62
890,2120,630,2100,640,2740,0.30476,1950,640,2590,0.32821,1550,640,2190,0.4129,810,510,1320,0.62963,110,270,380,2.4545,50,190,240,3.8,106,62
940,260,660,230,670,900,2.913,200,550,750,2.75,200,440,640,2.2,170,290,460,1.7059,150,190,340,1.2667,140,140,280,1,106,62
900,280,650,300,540,840,1.8,300,380,680,1.2667,270,320,590,1.1852,210,210,420,1,190,180,370,0.94737,170,180,350,1.0588,107,62
940,250,670,230,540,770,2.3478,190,420,610,2.2105,180,360,540,2,160,250,410,1.5625,140,170,310,1.2143,120,140,260,1.1667,106,62
910,270,660,220,530,750,2.4091,200,420,620,2.1,200,380,580,1.9,170,240,410,1.4118,160,160,320,1,130,120,250,0.92308,106,62
830,250,660,220,670,890,3.0455,210,510,720,2.4286,190,450,640,2.3684,160,300,460,1.875,150,190,340,1.2667,120,140,260,1.1667,107,62
1040,170,750,150,690,840,4.6,120,630,750,5.25,120,560,680,4.6667,100,460,560,4.6,80,20,100,0.25,60,20,80,0.33333,108,62
930,290,620,260,590,850,2.2692,230,440,670,1.913,230,400,630,1.7391,200,280,480,1.4,170,200,370,1.1765,140,130,270,0.92857,109,62
910,310,620,270,560,830,2.0741,240,440,680,1.8333,240,390,630,1.625,190,290,480,1.5263,170,180,350,1.0588,140,150,290,1.0714,109,63
920,290,650,310,550,860,1.7742,310,440,750,1.4194,310,370,680,1.1935,260,280,540,1.0769,230,190,420,0.82609,210,150,360,0.71429,109,63
930,270,640,260,530,790,2.0385,230,410,640,1.7826,220,350,570,1.5909,180,270,450,1.5,150,180,330,1.2,120,140,260,1.1667,109,63
920,290,630,260,640,900,2.4615,230,640,870,2.7826,220,520,740,2.3636,190,390,580,2.0526,160,270,430,1.6875,140,200,340,1.4286,109,63
910,290,610,270,500,770,1.8519,240,390,630,1.625,220,360,580,1.6364,190,270,460,1.4211,160,180,340,1.125,130,130,260,1,109,63
920,300,630,270,530,800,1.963,220,420,640,1.9091,220,370,590,1.6818,190,270,460,1.4211,150,180,330,1.2,130,140,270,1.0769,110,63
940,290,640,260,550,810,2.1154,230,420,650,1.8261,220,360,580,1.6364,180,270,450,1.5,140,190,330,1.3571,120,140,260,1.1667,111,63
900,300,630,320,500,820,1.5625,280,410,690,1.4643,260,370,630,1.4231,210,250,460,1.1905,170,170,340,1,160,130,290,0.8125,110,63
920,270,620,270,500,770,1.8519,220,390,610,1.7727,210,340,550,1.619,180,260,440,1.4444,150,180,330,1.2,120,150,270,1.25,110,63
910,300,640,260,510,770,1.9615,220,400,620,1.8182,210,350,560,1.6667,180,250,430,1.3889,150,170,320,1.1333,140,130,270,0.92857,110,63
920,270,640,230,650,880,2.8261,220,560,780,2.5455,220,460,680,2.0909,190,330,520,1.7368,140,220,360,1.5714,130,160,290,1.2308,110,63
900,280,640,260,520,780,2,220,410,630,1.8636,220,360,580,1.6364,170,250,420,1.4706,150,170,320,1.1333,120,140,260,1.1667,110,63
950,260,660,240,520,760,2.1667,200,400,600,2,200,350,550,1.75,160,260,420,1.625,120,190,310,1.5833,110,140,250,1.2727,110,63
910,290,630,260,560,820,2.1538,220,410,630,1.8636,220,350,570,1.5909,180,260,440,1.4444,150,190,340,1.2667,120,150,270,1.25,110,63
940,280,650,300,510,810,1.7,260,400,660,1.5385,240,350,590,1.4583,210,250,460,1.1905,160,200,360,1.25,130,150,280,1.1538,109,63
910,290,630,260,550,810,2.1154,240,420,660,1.75,210,360,570,1.7143,180,260,440,1.4444,150,180,330,1.2,120,140,260,1.1667,109,63
930,280,630,250,640,890,2.56,220,570,790,2.5909,220,460,680,2.0909,180,280,460,1.5556,140,190,330,1.3571,130,140,270,1.0769,109,62
920,300,620,270,510,780,1.8889,240,400,640,1.6667,220,340,560,1.5455,190,250,440,1.3158,150,180,330,1.2,140,130,270,0.92857,109,62
900,300,620,270,590,860,2.1852,240,420,660,1.75,240,370,610,1.5417,190,270,460,1.4211,160,170,330,1.0625,130,130,260,1,109,62
940,280,640,250,550,800,2.2,220,410,630,1.8636,210,370,580,1.7619,180,260,440,1.4444,130,200,330,1.5385,110,160,270,1.4545,109,63
920,300,640,300,530,830,1.7667,240,410,650,1.7083,230,360,590,1.5652,190,260,450,1.3684,170,180,350,1.0588,140,150,290,1.0714,108,62
900,280,630,270,510,780,1.8889,230,390,620,1.6957,230,330,560,1.4348,190,230,420,1.2105,160,160,320,1,150,130,280,0.86667,108,62
930,270,630,230,590,820,2.5652,210,440,650,2.0952,190,370,560,1.9474,160,280,440,1.75,130,180,310,1.3846,120,140,260,1.1667,107,62
910,300,620,250,630,880,2.52,220,470,690,2.1364,220,400,620,1.8182,180,300,480,1.6667,150,220,370,1.4667,140,180,320,1.2857,107,61
930,290,640,250,510,760,2.04,220,380,600,1.7273,210,340,550,1.619,180,250,430,1.3889,150,170,320,1.1333,120,140,260,1.1667,107,61
920,290,620,260,460,720,1.7692,220,350,570,1.5909,220,320,540,1.4545,180,250,430,1.3889,160,160,320,1,140,120,260,0.85714,108,62
920,300,630,270,520,790,1.9259,230,380,610,1.6522,230,330,560,1.4348,180,240,420,1.3333,160,160,320,1,140,130,270,0.92857,108,62
920,290,640,310,470,780,1.5161,270,350,620,1.2963,240,310,550,1.2917,210,230,440,1.0952,160,160,320,1,140,130,270,0.92857,108,62
920,280,650,250,570,820,2.28,220,420,640,1.9091,210,360,570,1.7143,180,260,440,1.4444,140,170,310,1.2143,120,130,250,1.0833,107,61
920,270,640,250,590,840,2.36,220,440,660,2,210,360,570,1.7143,180,260,440,1.4444,150,190,340,1.2667,130,150,280,1.1538,106,61
920,280,630,250,630,880,2.52,210,440,650,2.0952,210,390,600,1.8571,180,280,460,1.5556,150,190,340,1.2667,130,150,280,1.1538,106,61
920,290,620,250,510,760,2.04,230,390,620,1.6957,230,330,560,1.4348,180,230,410,1.2778,150,160,310,1.0667,130,130,260,1,106,61
920,300,630,280,470,750,1.6786,240,360,600,1.5,230,290,520,1.2609,190,200,390,1.0526,150,120,270,0.8,130,80,210,0.61538,106,61
930,290,650,270,530,800,1.963,240,410,650,1.7083,230,360,590,1.5652,180,260,440,1.4444,160,170,330,1.0625,130,140,270,1.0769,107,61
900,280,640,300,490,790,1.6333,240,360,600,1.5,220,310,530,1.4091,190,230,420,1.2105,150,160,310,1.0667,130,130,260,1,106,61
930,260,640,240,570,810,2.375,220,410,630,1.8636,200,370,570,1.85,170,250,420,1.4706,140,190,330,1.3571,110,140,250,1.2727,106,61
910,290,620,260,630,890,2.4231,220,430,650,1.9545,210,340,550,1.619,180,250,430,1.3889,140,160,300,1.1429,120,130,250,1.0833,106,61
920,290,630,250,500,750,2,220,380,600,1.7273,220,330,550,1.5,180,240,420,1.3333,130,170,300,1.3077,130,140,270,1.0769,106,61
920,290,630,250,530,780,2.12,230,400,630,1.7391,220,350,570,1.5909,180,240,420,1.3333,140,160,300,1.1429,140,130,270,0.92857,107,61
930,290,640,260,470,730,1.8077,220,360,580,1.6364,220,330,550,1.5,170,240,410,1.4118,140,170,310,1.2143,120,120,240,1,107,61
940,290,640,310,510,820,1.6452,270,400,670,1.4815,230,330,560,1.4348,200,230,430,1.15,160,170,330,1.0625,140,130,270,0.92857,107,61
1830,300,620,260,630,890,2.4231,230,490,720,2.1304,230,420,650,1.8261,190,290,480,1.5263,160,190,350,1.1875,150,140,290,0.93333,107,61
910,1210,630,1040,510,1550,0.49038,830,380,1210,0.45783,760,350,1110,0.46053,210,260,470,1.2381,160,180,340,1.125,140,150,290,1.0714,106,61
920,280,620,250,490,740,1.96,220,380,600,1.7273,200,320,520,1.6,180,240,420,1.3333,140,160,300,1.1429,120,130,250,1.0833,107,61
880,300,580,260,470,730,1.8077,240,360,600,1.5,220,330,550,1.5,190,220,410,1.1579,160,150,310,0.9375,140,120,260,0.85714,107,62
930,300,640,250,510,760,2.04,220,390,610,1.7727,220,330,550,1.5,190,230,420,1.2105,140,180,320,1.2857,120,130,250,1.0833,107,61
930,290,640,310,460,770,1.4839,230,340,570,1.4783,230,310,540,1.3478,190,230,420,1.2105,150,160,310,1.0667,130,120,250,0.92308,106,61
910,290,630,250,550,800,2.2,230,410,640,1.7826,210,340,550,1.619,190,240,430,1.2632,160,160,320,1,130,140,270,1.0769,106,61
930,280,630,240,530,770,2.2083,230,390,620,1.6957,210,340,550,1.619,190,260,450,1.3684,140,170,310,1.2143,130,140,270,1.0769,106,61
910,300,630,250,540,790,2.16,240,390,630,1.625,210,330,540,1.5714,180,240,420,1.3333,160,160,320,1,130,130,260,1,106,61
940,280,630,260,530,790,2.0385,230,400,630,1.7391,210,340,550,1.619,180,250,430,1.3889,150,180,330,1.2,120,150,270,1.25,106,61
910,310,620,280,460,740,1.6429,250,330,580,1.32,230,280,510,1.2174,200,210,410,1.05,170,130,300,0.76471,140,100,240,0.71429,106,61
930,290,640,310,520,830,1.6774,250,400,650,1.6,240,330,570,1.375,200,260,460,1.3,160,180,340,1.125,130,140,270,1.0769,107,61
920,290,640,260,650,910,2.5,230,440,670,1.913,210,380,590,1.8095,180,280,460,1.5556,150,170,320,1.1333,120,140,260,1.1667,105,61
930,280,630,250,560,810,2.24,220,420,640,1.9091,220,370,590,1.6818,170,250,420,1.4706,140,170,310,1.2143,140,140,280,1,105,61
910,300,620,270,520,790,1.9259,230,390,620,1.6957,220,340,560,1.5455,200,240,440,1.2,150,170,320,1.1333,130,140,270,1.0769,105,60
930,290,640,250,500,750,2,210,380,590,1.8095,210,330,540,1.5714,170,250,420,1.4706,140,170,310,1.2143,120,130,250,1.0833,105,60
940,290,650,270,560,830,2.0741,230,400,630,1.7391,230,350,580,1.5217,180,260,440,1.4444,150,180,330,1.2,130,140,270,1.0769,106,61
910,290,640,270,520,790,1.9259,240,390,630,1.625,230,340,570,1.4783,200,240,440,1.2,160,160,320,1,140,130,270,0.92857,106,61
3700,270,660,290,530,820,1.8276,250,410,660,1.64,230,360,590,1.5652,190,260,450,1.3684,160,190,350,1.1875,130,150,280,1.1538,105,60
930,3040,660,3000,670,3670,0.22333,2470,670,3140,0.27126,2050,670,2720,0.32683,1070,490,1560,0.45794,270,280,550,1.037,180,180,360,1,105,60
930,270,670,290,500,790,1.7241,220,350,570,1.5909,220,330,550,1.5,190,320,510,1.6842,160,190,350,1.1875,150,150,300,1,106,60
950,260,690,260,580,840,2.2308,220,460,680,2.0909,210,410,620,1.9524,180,290,470,1.6111,150,190,340,1.2667,150,150,300,1,105,60
940,260,670,280,520,800,1.8571,240,490,730,2.0417,220,470,690,2.1364,190,320,510,1.6842,170,200,370,1.1765,160,160,320,1,105,60
940,270,670,250,560,810,2.24,220,440,660,2,200,380,580,1.9,180,260,440,1.4444,170,160,330,0.94118,150,130,280,0.86667,105,60
940,270,660,250,670,920,2.68,220,490,710,2.2273,220,430,650,1.9545,190,300,490,1.5789,160,180,340,1.125,140,140,280,1,105,60
940,280,650,250,590,840,2.36,240,450,690,1.875,220,410,630,1.8636,190,280,470,1.4737,160,190,350,1.1875,140,140,280,1,106,60
940,290,630,260,590,850,2.2692,240,440,680,1.8333,220,390,610,1.7727,190,280,470,1.4737,160,190,350,1.1875,140,140,280,1,106,60
920,310,660,330,550,880,1.6667,270,450,720,1.6667,250,390,640,1.56,240,290,530,1.2083,200,190,390,0.95,200,150,350,0.75,107,61
930,260,670,280,540,820,1.9286,260,430,690,1.6538,240,370,610,1.5417,200,280,480,1.4,160,190,350,1.1875,140,160,300,1.1429,107,61
940,260,660,230,670,900,2.913,210,670,880,3.1905,200,570,770,2.85,180,380,560,2.1111,150,240,390,1.6,130,180,310,1.3846,107,61
940,280,640,250,630,880,2.52,240,470,710,1.9583,220,410,630,1.8636,190,290,480,1.5263,150,180,330,1.2,140,150,290,1.0714,107,61
930,300,630,250,570,820,2.28,240,460,700,1.9167,220,400,620,1.8182,200,320,520,1.6,170,190,360,1.1176,130,140,270,1.0769,107,61
940,300,640,270,600,870,2.2222,220,440,660,2,220,390,610,1.7727,190,270,460,1.4211,150,200,350,1.3333,130,150,280,1.1538,108,61
930,300,640,270,510,780,1.8889,250,430,680,1.72,230,420,650,1.8261,210,300,510,1.4286,170,220,390,1.2941,140,150,290,1.0714,108,62
930,290,670,310,550,860,1.7742,260,440,700,1.6923,240,390,630,1.625,210,280,490,1.3333,170,210,380,1.2353,140,160,300,1.1429,108,62
940,260,610,240,520,760,2.1667,210,410,620,1.9524,200,350,550,1.75,170,270,440,1.5882,140,190,330,1.3571,110,140,250,1.2727,108,61
920,330,640,320,650,970,2.0313,240,530,770,2.2083,230,460,690,2,200,310,510,1.55,170,210,380,1.2353,140,150,290,1.0714,108,61
950,280,640,250,570,820,2.28,220,440,660,2,200,390,590,1.95,180,280,460,1.5556,140,200,340,1.4286,120,160,280,1.3333,108,61
920,310,630,260,590,850,2.2692,240,440,680,1.8333,210,390,600,1.8571,180,270,450,1.5,150,180,330,1.2,130,150,280,1.1538,108,61
960,290,660,260,580,840,2.2308,230,450,680,1.9565,210,380,590,1.8095,170,290,460,1.7059,150,200,350,1.3333,110,160,270,1.4545,108,62
1860,300,1570,320,1410,1730,4.4063,300,1260,1560,4.2,270,1160,1430,4.2963,240,760,1000,3.1667,190,230,420,1.2105,160,80,240,0.5,109,62
920,290,630,260,640,900,2.4615,230,560,790,2.4348,210,490,700,2.3333,180,340,520,1.8889,150,180,330,1.2,130,140,270,1.0769,108,62
940,290,650,260,570,830,2.1923,210,440,650,2.0952,210,380,590,1.8095,180,270,450,1.5,140,190,330,1.3571,120,150,270,1.25,108,61
920,290,630,270,510,780,1.8889,240,410,650,1.7083,230,360,590,1.5652,190,270,460,1.4211,160,190,350,1.1875,130,150,280,1.1538,108,61
950,290,630,250,590,840,2.36,220,430,650,1.9545,220,370,590,1.6818,170,260,430,1.5294,150,180,330,1.2,110,150,260,1.3636,108,62
920,320,630,270,520,790,1.9259,240,400,640,1.6667,230,340,570,1.4783,190,240,430,1.2632,160,160,320,1,140,130,270,0.92857,108,62
940,290,640,310,520,830,1.6774,260,390,650,1.5,240,350,590,1.4583,220,250,470,1.1364,180,180,360,1,140,140,280,1,108,62
930,300,640,260,550,810,2.1154,240,420,660,1.75,220,360,580,1.6364,180,260,440,1.4444,150,170,320,1.1333,120,140,260,1.1667,107,61
930,290,620,250,630,880,2.52,220,490,710,2.2273,210,400,610,1.9048,190,280,470,1.4737,160,200,360,1.25,130,150,280,1.1538,107,61
950,310,640,260,510,770,1.9615,220,400,620,1.8182,220,340,560,1.5455,190,250,440,1.3158,160,170,330,1.0625,140,140,280,1,107,61
920,310,610,280,480,760,1.7143,250,360,610,1.44,250,330,580,1.32,210,230,440,1.0952,170,160,330,0.94118,150,130,280,0.86667,107,61
930,310,630,270,550,820,2.037,240,410,650,1.7083,230,350,580,1.5217,190,240,430,1.2632,160,170,330,1.0625,130,130,260,1,107,61
950,300,670,320,530,850,1.6563,270,400,670,1.4815,240,350,590,1.4583,200,250,450,1.25,160,200,360,1.25,140,150,290,1.0714,107,61
920,280,630,270,510,780,1.8889,240,390,630,1.625,210,330,540,1.5714,190,240,430,1.2632,160,160,320,1,130,130,260,1,106,61
920,290,630,250,640,890,2.56,220,540,760,2.4545,220,450,670,2.0455,170,260,430,1.5294,140,170,310,1.2143,120,140,260,1.1667,106,61
930,290,650,250,540,790,2.16,220,400,620,1.8182,220,370,590,1.6818,180,270,450,1.5,130,190,320,1.4615,120,150,270,1.25,106,61
950,280,640,260,560,820,2.1538,230,420,650,1.8261,210,370,580,1.7619,180,270,450,1.5,140,190,330,1.3571,120,160,280,1.3333,106,61
940,310,640,250,590,840,2.36,230,410,640,1.7826,220,360,580,1.6364,180,260,440,1.4444,150,180,330,1.2,130,140,270,1.0769,107,61
940,300,640,270,520,790,1.9259,240,380,620,1.5833,220,340,560,1.5455,190,250,440,1.3158,150,160,310,1.0667,140,130,270,0.92857,107,61
940,300,660,320,500,820,1.5625,280,390,670,1.3929,260,340,600,1.3077,210,240,450,1.1429,180,170,350,0.94444,150,140,290,0.93333,106,61
940,280,620,260,590,850,2.2692,230,420,650,1.8261,210,370,580,1.7619,180,270,450,1.5,160,180,340,1.125,120,130,250,1.0833,106,61
920,320,620,260,630,890,2.4231,240,460,700,1.9167,230,400,630,1.7391,180,280,460,1.5556,150,190,340,1.2667,120,140,260,1.1667,105,60
930,300,640,270,510,780,1.8889,230,400,630,1.7391,220,340,560,1.5455,180,250,430,1.3889,160,160,320,1,130,130,260,1,106,60
920,290,620,270,490,760,1.8148,230,380,610,1.6522,220,320,540,1.4545,180,240,420,1.3333,160,170,330,1.0625,130,140,270,1.0769,106,61
940,300,640,260,550,810,2.1154,230,410,640,1.7826,210,360,570,1.7143,180,260,440,1.4444,150,190,340,1.2667,120,140,260,1.1667,105,60
950,300,650,320,540,860,1.6875,260,410,670,1.5769,240,360,600,1.5,210,290,500,1.381,160,200,360,1.25,130,160,290,1.2308,105,60
930,300,640,250,500,750,2,230,380,610,1.6522,210,350,560,1.6667,180,250,430,1.3889,150,180,330,1.2,120,130,250,1.0833,105,60
930,290,510,250,520,770,2.08,240,410,650,1.7083,210,350,560,1.6667,190,250,440,1.3158,160,180,340,1.125,130,130,260,1,104,60
930,420,630,270,620,890,2.2963,230,440,670,1.913,210,380,590,1.8095,200,280,480,1.4,150,190,340,1.2667,140,150,290,1.0714,104,60
930,300,640,250,500,750,2,220,390,610,1.7727,210,340,550,1.619,190,260,450,1.3684,140,190,330,1.3571,120,140,260,1.1667,104,60
950,290,640,270,500,770,1.8519,240,390,630,1.625,210,340,550,1.619,180,230,410,1.2778,160,170,330,1.0625,130,140,270,1.0769,104,60
870,310,640,280,520,800,1.8571,250,380,630,1.52,230,320,550,1.3913,210,230,440,1.0952,160,150,310,0.9375,150,120,270,0.8,105,60
990,230,720,250,570,820,2.28,210,450,660,2.1429,190,400,590,2.1053,150,310,460,2.0667,130,230,360,1.7692,90,200,290,2.2222,105,60
920,270,630,240,620,860,2.5833,230,430,660,1.8696,210,380,590,1.8095,180,270,450,1.5,150,170,320,1.1333,120,140,260,1.1667,104,60
940,290,640,250,650,900,2.6,210,540,750,2.5714,200,470,670,2.35,180,330,510,1.8333,150,260,410,1.7333,130,190,320,1.4615,104,59
930,300,630,270,510,780,1.8889,230,390,620,1.6957,220,340,560,1.5455,180,250,430,1.3889,160,170,330,1.0625,130,140,270,1.0769,104,59
930,300,630,260,500,760,1.9231,230,370,600,1.6087,230,340,570,1.4783,190,260,450,1.3684,160,180,340,1.125,140,150,290,1.0714,104,60
940,300,630,270,510,780,1.8889,240,390,630,1.625,220,330,550,1.5,190,240,430,1.2632,150,180,330,1.2,130,130,260,1,104,60
940,310,660,330,510,840,1.5455,260,390,650,1.5,250,350,600,1.4,210,240,450,1.1429,170,170,340,1,160,140,300,0.875,104,60
920,280,640,240,550,790,2.2917,220,410,630,1.8636,200,350,550,1.75,170,250,420,1.4706,150,180,330,1.2,130,130,260,1,103,59
940,280,640,250,560,810,2.24,220,410,630,1.8636,210,360,570,1.7143,170,270,440,1.5882,150,190,340,1.2667,120,140,260,1.1667,103,59
930,300,630,260,640,900,2.4615,240,480,720,2,230,400,630,1.7391,190,280,470,1.4737,160,200,360,1.25,150,150,300,1,103,59
1850,300,1530,270,1260,1530,4.6667,240,970,1210,4.0417,240,840,1080,3.5,200,330,530,1.65,160,160,320,1,150,130,280,0.86667,103,59
920,320,640,270,510,780,1.8889,240,390,630,1.625,240,330,570,1.375,210,230,440,1.0952,170,160,330,0.94118,140,140,280,1,103,59
930,280,640,300,490,790,1.6333,260,360,620,1.3846,240,320,560,1.3333,210,210,420,1,160,160,320,1,130,140,270,1.0769,103,59
930,290,630,250,560,810,2.24,230,410,640,1.7826,220,360,580,1.6364,170,240,410,1.4118,150,170,320,1.1333,140,140,280,1,103,59
920,300,630,270,640,910,2.3704,240,520,760,2.1667,220,450,670,2.0455,190,240,430,1.2632,150,170,320,1.1333,140,130,270,0.92857,103,59
930,290,640,260,490,750,1.8846,230,390,620,1.6957,230,330,560,1.4348,190,240,430,1.2632,160,170,330,1.0625,130,130,260,1,104,59
910,290,620,280,550,830,1.9643,250,420,670,1.68,240,340,580,1.4167,190,250,440,1.3158,160,170,330,1.0625,140,140,280,1,104,60
920,290,620,250,520,770,2.08,220,380,600,1.7273,220,330,550,1.5,190,240,430,1.2632,140,170,310,1.2143,120,140,260,1.1667,105,60
930,300,650,320,510,830,1.5938,260,400,660,1.5385,230,340,570,1.4783,210,250,460,1.1905,160,180,340,1.125,140,140,280,1,104,60
930,280,650,240,660,900,2.75,230,490,720,2.1304,210,430,640,2.0476,190,300,490,1.5789,160,190,350,1.1875,140,150,290,1.0714,104,60
950,280,630,250,560,810,2.24,220,410,630,1.8636,220,360,580,1.6364,190,260,450,1.3684,160,180,340,1.125,120,130,250,1.0833,104,60
890,320,590,290,460,750,1.5862,260,350,610,1.3462,250,310,560,1.24,210,210,420,1,180,150,330,0.83333,150,110,260,0.73333,104,60
900,300,620,250,500,750,2,220,390,610,1.7727,220,340,560,1.5455,180,260,440,1.4444,150,170,320,1.1333,120,140,260,1.1667,105,60
920,280,620,250,460,710,1.84,210,350,560,1.6667,200,300,500,1.5,160,220,380,1.375,130,170,300,1.3077,110,140,250,1.2727,106,61
930,300,630,270,520,790,1.9259,240,390,630,1.625,230,340,570,1.4783,190,240,430,1.2632,150,170,320,1.1333,140,140,280,1,105,61
910,300,630,320,500,820,1.5625,250,410,660,1.64,240,350,590,1.4583,200,260,460,1.3,160,180,340,1.125,130,140,270,1.0769,105,60
920,280,640,230,600,830,2.6087,210,420,630,2,190,380,570,2,160,280,440,1.75,130,190,320,1.4615,110,150,260,1.3636,105,60
940,280,630,230,570,800,2.4783,210,430,640,2.0476,200,380,580,1.9,160,270,430,1.6875,130,200,330,1.5385,110,150,260,1.3636,105,60
910,310,630,300,640,940,2.1333,250,450,700,1.8,240,390,630,1.625,200,280,480,1.4,160,190,350,1.1875,140,140,280,1,105,60
930,280,630,260,550,810,2.1154,230,400,630,1.7391,210,340,550,1.619,180,240,420,1.3333,150,180,330,1.2,120,150,270,1.25,105,60
920,300,630,280,470,750,1.6786,250,360,610,1.44,230,320,550,1.3913,200,230,430,1.15,160,160,320,1,140,130,270,0.92857,106,61
940,290,650,310,520,830,1.6774,250,390,640,1.56,240,340,580,1.4167,210,250,460,1.1905,160,180,340,1.125,140,140,280,1,105,60
910,290,620,260,630,890,2.4231,230,430,660,1.8696,230,350,580,1.5217,180,250,430,1.3889,150,160,310,1.0667,130,120,250,0.92308,104,60
920,290,620,260,530,790,2.0385,230,400,630,1.7391,220,340,560,1.5455,190,240,430,1.2632,140,180,320,1.2857,140,130,270,0.92857,104,60
910,300,630,260,510,770,1.9615,230,400,630,1.7391,220,350,570,1.5909,180,240,420,1.3333,160,160,320,1,130,130,260,1,104,60
920,280,620,240,510,750,2.125,230,380,610,1.6522,210,330,540,1.5714,170,260,430,1.5294,140,170,310,1.2143,130,140,270,1.0769,105,60
930,300,630,250,540,790,2.16,220,420,640,1.9091,200,360,560,1.8,180,260,440,1.4444,140,180,320,1.2857,130,150,280,1.1538,105,60
930,300,630,260,520,780,2,240,390,630,1.625,210,320,530,1.5238,180,250,430,1.3889,150,170,320,1.1333,140,130,270,0.92857,105,60
900,300,610,320,490,810,1.5313,260,370,630,1.4231,250,320,570,1.28,210,240,450,1.1429,180,160,340,0.88889,150,130,280,0.86667,105,60
920,290,620,240,630,870,2.625,220,490,710,2.2273,200,420,620,2.1,170,290,460,1.7059,140,210,350,1.5,120,150,270,1.25,104,60
930,300,640,250,540,790,2.16,230,400,630,1.7391,210,350,560,1.6667,190,260,450,1.3684,140,170,310,1.2143,120,140,260,1.1667,104,60
910,290,610,270,490,760,1.8148,250,380,630,1.52,220,320,540,1.4545,200,240,440,1.2,160,170,330,1.0625,140,130,270,0.92857,104,60
910,300,610,270,520,790,1.9259,240,390,630,1.625,210,330,540,1.5714,190,240,430,1.2632,170,170,340,1,130,140,270,1.0769,105,60
940,300,630,270,480,750,1.7778,230,350,580,1.5217,230,300,530,1.3043,200,240,440,1.2,150,170,320,1.1333,130,140,270,1.0769,105,60
920,310,610,330,490,820,1.4848,270,370,640,1.3704,250,320,570,1.28,220,230,450,1.0455,180,170,350,0.94444,170,130,300,0.76471,105,60
890,310,610,260,620,880,2.3846,230,370,600,1.6087,220,320,540,1.4545,190,230,420,1.2105,160,170,330,1.0625,130,120,250,0.92308,104,60
930,280,640,250,560,810,2.24,220,410,630,1.8636,200,360,560,1.8,180,260,440,1.4444,140,190,330,1.3571,120,140,260,1.1667,104,60
910,290,620,270,510,780,1.8889,240,400,640,1.6667,220,350,570,1.5909,190,250,440,1.3158,160,160,320,1,140,130,270,0.92857,104,60
910,290,630,260,480,740,1.8462,230,360,590,1.5652,210,310,520,1.4762,180,240,420,1.3333,150,170,320,1.1333,120,130,250,1.0833,104,60
890,280,620,250,540,790,2.16,220,410,630,1.8636,210,350,560,1.6667,170,250,420,1.4706,140,170,310,1.2143,120,130,250,1.0833,104,60
950,270,660,240,510,750,2.125,210,380,590,1.8095,190,340,530,1.7895,160,250,410,1.5625,130,180,310,1.3846,110,150,260,1.3636,105,60
910,290,640,310,490,800,1.5806,250,370,620,1.48,240,330,570,1.375,200,240,440,1.2,180,170,350,0.94444,140,120,260,0.85714,105,60
910,270,630,250,640,890,2.56,210,520,730,2.4762,200,430,630,2.15,170,290,460,1.7059,140,180,320,1.2857,120,140,260,1.1667,104,60
710,280,630,250,520,770,2.08,220,400,620,1.8182,200,350,550,1.75,180,240,420,1.3333,150,180,330,1.2,120,140,260,1.1667,104,60
1120,80,830,70,730,800,10.429,40,640,680,16,20,620,640,31,20,520,540,26,20,460,480,23,20,440,460,22,104,60
910,290,600,260,520,780,2,230,390,620,1.6957,220,330,550,1.5,180,230,410,1.2778,160,160,320,1,130,120,250,0.92308,104,60
910,310,600,270,530,800,1.963,240,390,630,1.625,220,330,550,1.5,200,220,420,1.1,160,170,330,1.0625,140,120,260,0.85714,105,60
900,310,610,330,500,830,1.5152,250,400,650,1.6,230,340,570,1.4783,200,250,450,1.25,160,170,330,1.0625,140,130,270,0.92857,105,60
910,290,620,250,490,740,1.96,230,380,610,1.6522,210,310,520,1.4762,170,240,410,1.4118,150,170,320,1.1333,120,140,260,1.1667,104,60
900,290,620,260,590,850,2.2692,210,420,630,2,210,370,580,1.7619,180,260,440,1.4444,140,180,320,1.2857,130,140,270,1.0769,104,60
900,280,610,240,540,780,2.25,220,400,620,1.8182,210,340,550,1.619,180,250,430,1.3889,150,180,330,1.2,120,140,260,1.1667,104,60
910,290,620,250,490,740,1.96,220,380,600,1.7273,220,340,560,1.5455,180,240,420,1.3333,140,170,310,1.2143,140,120,260,0.85714,104,60
910,290,610,260,550,810,2.1154,230,400,630,1.7391,200,340,540,1.7,180,250,430,1.3889,150,170,320,1.1333,120,130,250,1.0833,105,60
910,300,600,270,470,740,1.7407,230,390,620,1.6957,230,330,560,1.4348,200,220,420,1.1,150,150,300,1,140,120,260,0.85714,105,61
900,310,610,330,480,810,1.4545,260,360,620,1.3846,240,310,550,1.2917,200,230,430,1.15,170,160,330,0.94118,140,120,260,0.85714,104,61
890,290,620,250,520,770,2.08,230,380,610,1.6522,200,330,530,1.65,170,240,410,1.4118,140,160,300,1.1429,130,130,260,1,104,60
910,270,600,250,610,860,2.44,220,420,640,1.9091,220,350,570,1.5909,180,240,420,1.3333,160,170,330,1.0625,130,120,250,0.92308,104,60
890,310,600,260,490,750,1.8846,230,370,600,1.6087,220,320,540,1.4545,190,210,400,1.1053,160,160,320,1,130,110,240,0.84615,104,60
900,290,620,270,490,760,1.8148,230,370,600,1.6087,210,330,540,1.5714,180,240,420,1.3333,150,180,330,1.2,130,150,280,1.1538,104,60
910,280,600,260,520,780,2,220,380,600,1.7273,210,340,550,1.619,180,240,420,1.3333,150,170,320,1.1333,120,140,260,1.1667,105,60
900,310,620,260,510,770,1.9615,220,390,610,1.7727,220,330,550,1.5,180,240,420,1.3333,150,160,310,1.0667,130,120,250,0.92308,105,61
920,280,630,300,490,790,1.6333,250,370,620,1.48,240,330,570,1.375,210,250,460,1.1905,170,170,340,1,140,140,280,1,105,61
890,290,490,260,500,760,1.9231,230,440,670,1.913,220,380,600,1.7273,200,270,470,1.35,160,180,340,1.125,130,140,270,1.0769,104,61
900,400,610,260,620,880,2.3846,230,450,680,1.9565,210,400,610,1.9048,180,280,460,1.5556,160,180,340,1.125,130,150,280,1.1538,104,61
910,290,610,250,540,790,2.16,230,410,640,1.7826,220,360,580,1.6364,200,260,460,1.3,160,190,350,1.1875,120,150,270,1.25,105,61
900,300,600,270,480,750,1.7778,250,360,610,1.44,220,320,540,1.4545,200,230,430,1.15,170,160,330,0.94118,140,110,250,0.78571,105,61
900,300,600,260,550,810,2.1154,240,420,660,1.75,220,370,590,1.6818,200,250,450,1.25,160,180,340,1.125,140,130,270,0.92857,106,61
900,300,620,320,490,810,1.5313,300,370,670,1.2333,270,320,590,1.1852,220,200,420,0.90909,190,130,320,0.68421,140,120,260,0.85714,105,61
900,280,610,250,480,730,1.92,230,370,600,1.6087,210,320,530,1.5238,180,230,410,1.2778,150,160,310,1.0667,120,140,260,1.1667,105,61
900,290,600,250,610,860,2.44,220,480,700,2.1818,210,400,610,1.9048,180,240,420,1.3333,150,160,310,1.0667,120,110,230,0.91667,105,61
890,300,610,250,540,790,2.16,240,400,640,1.6667,220,350,570,1.5909,180,250,430,1.3889,150,160,310,1.0667,120,130,250,1.0833,106,61
890,280,600,260,500,760,1.9231,230,390,620,1.6957,210,340,550,1.619,180,250,430,1.3889,140,170,310,1.2143,130,130,260,1,106,61
910,290,600,250,480,730,1.92,230,360,590,1.5652,210,320,530,1.5238,170,240,410,1.4118,140,170,310,1.2143,120,120,240,1,107,62
850,310,610,260,530,790,2.0385,230,390,620,1.6957,220,330,550,1.5,190,240,430,1.2632,150,160,310,1.0667,140,130,270,0.92857,108,62
950,240,660,260,540,800,2.0769,230,430,660,1.8696,200,370,570,1.85,170,270,440,1.5882,120,200,320,1.6667,110,180,290,1.6364,107,62
900,290,620,250,510,760,2.04,210,380,590,1.8095,210,340,550,1.619,180,240,420,1.3333,130,170,300,1.3077,110,120,230,1.0909,107,62
900,280,600,240,610,850,2.5417,230,480,710,2.087,210,390,600,1.8571,180,280,460,1.5556,150,150,300,1,130,120,250,0.92308,107,62
890,300,610,250,570,820,2.28,220,400,620,1.8182,210,350,560,1.6667,180,240,420,1.3333,150,160,310,1.0667,140,130,270,0.92857,107,62
900,280,610,300,480,780,1.6,250,380,630,1.52,220,320,540,1.4545,190,240,430,1.2632,160,160,320,1,140,110,250,0.78571,107,62
890,290,600,250,610,860,2.44,240,440,680,1.8333,220,360,580,1.6364,190,260,450,1.3684,160,180,340,1.125,130,130,260,1,108,63
890,290,620,260,490,750,1.8846,220,370,590,1.6818,210,320,530,1.5238,170,220,390,1.2941,140,160,300,1.1429,130,130,260,1,108,63
910,270,620,290,480,770,1.6552,270,360,630,1.3333,240,300,540,1.25,210,230,440,1.0952,160,160,320,1,140,130,270,0.92857,108,63
890,290,620,250,570,820,2.28,220,410,630,1.8636,200,350,550,1.75,170,250,420,1.4706,130,170,300,1.3077,120,130,250,1.0833,107,62
900,270,620,240,630,870,2.625,210,480,690,2.2857,210,410,620,1.9524,180,310,490,1.7222,150,230,380,1.5333,110,190,300,1.7273,107,62
900,280,610,260,490,750,1.8846,220,370,590,1.6818,210,330,540,1.5714,190,220,410,1.1579,150,160,310,1.0667,130,120,250,0.92308,107,62
910,290,610,310,450,760,1.4516,240,360,600,1.5,230,340,570,1.4783,190,230,420,1.2105,160,160,320,1,140,130,270,0.92857,107,62
890,300,600,260,610,870,2.3462,240,420,660,1.75,220,350,570,1.5909,190,240,430,1.2632,170,160,330,0.94118,140,130,270,0.92857,108,63
890,290,620,310,510,820,1.6452,240,400,640,1.6667,220,330,550,1.5,200,240,440,1.2,170,150,320,0.88235,140,110,250,0.78571,107,63
600,270,580,290,460,750,1.5862,240,360,600,1.5,220,310,530,1.4091,190,230,420,1.2105,150,170,320,1.1333,130,130,260,1,107,63
1200,20,910,20,900,920,45,20,710,730,35.5,20,660,680,33,20,550,570,27.5,20,490,510,24.5,20,450,470,22.5,107,63
900,290,610,250,590,840,2.36,220,420,640,1.9091,200,360,560,1.8,170,260,430,1.5294,110,160,270,1.4545,90,120,210,1.3333,107,63
890,290,600,250,460,710,1.84,230,360,590,1.5652,210,310,520,1.4762,180,220,400,1.2222,150,160,310,1.0667,130,120,250,0.92308,107,62
900,290,600,260,480,740,1.8462,230,350,580,1.5217,210,290,500,1.381,180,210,390,1.1667,140,170,310,1.2143,130,120,250,0.92308,107,62
890,300,600,260,480,740,1.8462,230,350,580,1.5217,220,290,510,1.3182,190,220,410,1.1579,160,150,310,0.9375,140,110,250,0.78571,108,63
920,290,630,310,490,800,1.5806,260,440,700,1.6923,230,400,630,1.7391,200,290,490,1.45,160,200,360,1.25,140,150,290,1.0714,107,63
870,290,610,270,480,750,1.7778,240,370,610,1.5417,210,310,520,1.4762,200,220,420,1.1,160,160,320,1,130,110,240,0.84615,107,63
910,260,620,240,530,770,2.2083,200,390,590,1.95,200,340,540,1.7,170,250,420,1.4706,130,170,300,1.3077,110,140,250,1.2727,106,62
890,290,600,250,610,860,2.44,220,520,740,2.3636,200,420,620,2.1,190,290,480,1.5263,160,190,350,1.1875,150,150,300,1,106,62
890,290,600,260,470,730,1.8077,230,350,580,1.5217,210,310,520,1.4762,190,220,410,1.1579,150,150,300,1,130,130,260,1,106,62
890,290,600,260,550,810,2.1154,220,350,570,1.5909,210,280,490,1.3333,180,200,380,1.1111,150,120,270,0.8,140,90,230,0.64286,107,62
880,290,610,280,470,750,1.6786,230,390,620,1.6957,230,330,560,1.4348,180,240,420,1.3333,150,170,320,1.1333,140,120,260,0.85714,107,63
920,270,650,290,480,770,1.6552,290,370,660,1.2759,250,360,610,1.44,200,260,460,1.3,170,190,360,1.1176,150,150,300,1,107,62
880,270,600,250,610,860,2.44,220,410,630,1.8636,200,360,560,1.8,190,240,430,1.2632,140,170,310,1.2143,130,120,250,0.92308,106,62
900,280,580,240,500,740,2.0833,210,370,580,1.7619,210,320,530,1.5238,180,240,420,1.3333,150,160,310,1.0667,120,130,250,1.0833,106,62
880,320,590,310,600,910,1.9355,250,500,750,2,250,420,670,1.68,200,270,470,1.35,170,180,350,1.0588,140,140,280,1,106,62
860,290,590,250,480,730,1.92,210,370,580,1.7619,200,320,520,1.6,170,230,400,1.3529,140,160,300,1.1429,120,130,250,1.0833,107,62
930,270,630,240,470,710,1.9583,210,370,580,1.7619,190,320,510,1.6842,150,230,380,1.5333,120,160,280,1.3333,100,130,230,1.3,107,63
900,300,610,250,480,730,1.92,230,350,580,1.5217,210,290,500,1.381,180,210,390,1.1667,150,140,290,0.93333,130,120,250,0.92308,107,63
890,290,620,310,450,760,1.4516,310,340,650,1.0968,250,280,530,1.12,220,220,440,1,170,160,330,0.94118,160,130,290,0.8125,106,62
900,270,610,230,510,740,2.2174,220,380,600,1.7273,200,340,540,1.7,180,240,420,1.3333,140,150,290,1.0714,120,130,250,1.0833,106,62
890,290,470,250,480,730,1.92,220,410,630,1.8636,210,360,570,1.7143,190,240,430,1.2632,150,160,310,1.0667,130,140,270,1.0769,106,62
880,420,600,360,530,890,1.4722,240,390,630,1.625,230,340,570,1.4783,190,250,440,1.3158,170,160,330,0.94118,140,130,270,0.92857,106,62
870,280,570,260,560,820,2.1538,210,370,580,1.7619,210,310,520,1.4762,180,220,400,1.2222,150,140,290,0.93333,120,120,240,1,106,62
900,300,610,270,470,740,1.7407,240,360,600,1.5,230,310,540,1.3478,190,220,410,1.1579,160,160,320,1,130,110,240,0.84615,107,62
910,290,620,310,510,820,1.6452,240,390,630,1.625,220,340,560,1.5455,190,240,430,1.2632,160,170,330,1.0625,140,130,270,0.92857,106,62
890,290,610,250,460,710,1.84,220,350,570,1.5909,210,290,500,1.381,180,210,390,1.1667,150,140,290,0.93333,130,110,240,0.84615,105,61
900,280,620,240,530,770,2.2083,230,390,620,1.6957,200,330,530,1.65,180,240,420,1.3333,140,160,300,1.1429,120,120,240,1,105,61
900,280,600,260,590,850,2.2692,220,420,640,1.9091,210,330,540,1.5714,180,240,420,1.3333,160,160,320,1,130,130,260,1,105,61
890,300,600,260,480,740,1.8462,230,360,590,1.5652,230,310,540,1.3478,190,220,410,1.1579,160,160,320,1,130,120,250,0.92308,105,61
890,290,630,250,610,860,2.44,220,380,600,1.7273,220,330,550,1.5,180,230,410,1.2778,160,150,310,0.9375,130,120,250,0.92308,106,62
890,260,610,250,450,700,1.8,220,340,560,1.5455,200,300,500,1.5,170,200,370,1.1765,140,150,290,1.0714,120,110,230,0.91667,106,62
930,280,630,300,500,800,1.6667,270,390,660,1.4444,240,340,580,1.4167,210,240,450,1.1429,160,180,340,1.125,130,130,260,1,105,61
870,300,600,260,610,870,2.3462,230,440,670,1.913,230,370,600,1.6087,180,250,430,1.3889,150,170,320,1.1333,150,130,280,0.86667,105,61
910,270,610,230,530,760,2.3043,210,400,610,1.9048,200,340,540,1.7,170,240,410,1.4118,140,170,310,1.2143,110,140,250,1.2727,104,61
880,300,610,260,500,760,1.9231,240,370,610,1.5417,210,330,540,1.5714,180,230,410,1.2778,160,150,310,0.9375,130,120,250,0.92308,105,61
900,270,610,250,480,730,1.92,220,370,590,1.6818,210,310,520,1.4762,180,220,400,1.2222,140,160,300,1.1429,130,140,270,1.0769,106,62
900,290,600,260,500,760,1.9231,230,390,620,1.6957,220,320,540,1.4545,190,230,420,1.2105,140,160,300,1.1429,120,130,250,1.0833,106,62
880,300,590,250,480,730,1.92,230,350,580,1.5217,220,300,520,1.3636,190,220,410,1.1579,160,150,310,0.9375,130,120,250,0.92308,106,62
920,290,630,310,480,790,1.5484,260,360,620,1.3846,230,310,540,1.3478,210,220,430,1.0476,160,170,330,1.0625,130,140,270,1.0769,106,62
880,290,600,240,610,850,2.5417,220,510,730,2.3182,200,410,610,2.05,180,290,470,1.6111,160,180,340,1.125,130,130,260,1,105,61
900,280,620,240,520,760,2.1667,210,370,580,1.7619,200,330,530,1.65,160,240,400,1.5,130,160,290,1.2308,120,130,250,1.0833,105,61
900,280,620,250,490,740,1.96,220,390,610,1.7727,210,340,550,1.619,180,250,430,1.3889,140,170,310,1.2143,120,150,270,1.25,105,61
920,280,620,240,470,710,1.9583,210,360,570,1.7143,200,310,510,1.55,170,220,390,1.2941,150,150,300,1,120,120,240,1,106,61
740,300,600,280,450,730,1.6071,250,350,600,1.4,240,310,550,1.2917,200,220,420,1.1,160,140,300,0.875,150,110,260,0.73333,106,62
1050,140,770,140,690,830,4.9286,100,600,700,6,90,560,650,6.2222,70,480,550,6.8571,50,50,100,1,40,50,90,1.25,106,62
890,280,600,300,460,760,1.5333,230,340,570,1.4783,230,300,530,1.3043,200,220,420,1.1,150,150,300,1,130,120,250,0.92308,106,62
900,290,610,270,620,890,2.2963,230,460,690,2,200,400,600,2,170,270,440,1.5882,140,170,310,1.2143,120,140,260,1.1667,105,61
900,290,620,240,560,800,2.3333,230,400,630,1.7391,200,350,550,1.75,180,250,430,1.3889,150,170,320,1.1333,130,130,260,1,105,61
900,280,610,250,480,730,1.92,230,370,600,1.6087,210,310,520,1.4762,170,220,390,1.2941,130,150,280,1.1538,110,120,230,1.0909,105,61
890,290,600,260,560,820,2.1538,220,390,610,1.7727,210,320,530,1.5238,180,230,410,1.2778,140,160,300,1.1429,120,120,240,1,106,61
910,290,620,240,440,680,1.8333,230,320,550,1.3913,200,270,470,1.35,180,230,410,1.2778,140,160,300,1.1429,120,120,240,1,106,62
900,290,620,310,490,800,1.5806,270,390,660,1.4444,250,340,590,1.36,210,230,440,1.0952,180,170,350,0.94444,150,120,270,0.8,106,62
880,280,620,250,630,880,2.52,220,380,600,1.7273,200,310,510,1.55,170,220,390,1.2941,140,170,310,1.2143,120,120,240,1,105,61
930,260,640,230,510,740,2.2174,200,390,590,1.95,200,340,540,1.7,170,240,410,1.4118,120,180,300,1.5,120,130,250,1.0833,105,61
890,290,600,260,490,750,1.8846,230,360,590,1.5652,230,320,550,1.3913,190,220,410,1.1579,170,160,330,0.94118,140,110,250,0.78571,105,61
900,290,620,260,470,730,1.8077,220,360,580,1.6364,220,320,540,1.4545,180,220,400,1.2222,140,160,300,1.1429,140,120,260,0.85714,105,61
900,280,610,260,620,880,2.3846,230,390,620,1.6957,210,330,540,1.5714,180,240,420,1.3333,150,170,320,1.1333,120,140,260,1.1667,105,61
880,290,590,270,440,710,1.6296,230,320,550,1.3913,230,280,510,1.2174,180,180,360,1,150,120,270,0.8,130,90,220,0.69231,106,61
920,290,640,310,490,800,1.5806,260,370,630,1.4231,200,320,520,1.6,200,240,440,1.2,150,180,330,1.2,140,130,270,0.92857,106,61
900,280,620,230,630,860,2.7391,210,520,730,2.4762,200,440,640,2.2,170,240,410,1.4118,140,170,310,1.2143,110,130,240,1.1818,105,61
890,280,600,250,530,780,2.12,220,370,590,1.6818,200,340,540,1.7,190,230,420,1.2105,160,150,310,0.9375,130,120,250,0.92308,105,61
900,290,610,270,560,830,2.0741,240,410,650,1.7083,210,350,560,1.6667,180,250,430,1.3889,150,160,310,1.0667,140,120,260,0.85714,105,61
910,290,610,240,480,720,2,230,360,590,1.5652,200,310,510,1.55,170,230,400,1.3529,140,150,290,1.0714,120,120,240,1,106,61
910,300,600,260,590,850,2.2692,240,390,630,1.625,220,340,560,1.5455,180,240,420,1.3333,160,160,320,1,130,130,260,1,106,61
900,310,610,290,480,770,1.6552,260,360,620,1.3846,240,300,540,1.25,200,200,400,1,170,140,310,0.82353,160,110,270,0.6875,106,61
890,290,630,310,470,780,1.5161,250,350,600,1.4,230,300,530,1.3043,190,220,410,1.1579,150,150,300,1,140,120,260,0.85714,106,61
910,260,610,230,620,850,2.6957,200,470,670,2.35,190,400,590,2.1053,170,290,460,1.7059,130,190,320,1.4615,110,140,250,1.2727,105,61
900,300,620,260,560,820,2.1538,230,410,640,1.7826,220,350,570,1.5909,190,240,430,1.2632,160,170,330,1.0625,130,120,250,0.92308,105,61
890,280,630,250,480,730,1.92,220,380,600,1.7273,210,340,550,1.619,180,240,420,1.3333,150,160,310,1.0667,130,130,260,1,105,61
910,260,630,230,500,730,2.1739,200,370,570,1.85,190,320,510,1.6842,160,240,400,1.5,130,170,300,1.3077,120,140,260,1.1667,106,61
910,280,650,250,540,790,2.16,220,380,600,1.7273,200,330,530,1.65,180,240,420,1.3333,140,170,310,1.2143,130,130,260,1,106,61
930,260,630,280,510,790,1.8214,250,410,660,1.64,230,360,590,1.5652,200,260,460,1.3,160,180,340,1.125,140,130,270,0.92857,106,61
890,300,600,250,460,710,1.84,230,350,580,1.5217,210,300,510,1.4286,180,200,380,1.1111,150,140,290,0.93333,130,120,250,0.92308,105,61
890,290,610,240,620,860,2.5833,220,430,650,1.9545,210,360,570,1.7143,180,240,420,1.3333,150,160,310,1.0667,120,120,240,1,105,61
910,280,630,230,500,730,2.1739,210,390,600,1.8571,190,330,520,1.7368,160,230,390,1.4375,130,170,300,1.3077,110,140,250,1.2727,105,61
920,280,630,260,490,750,1.8846,220,380,600,1.7273,210,330,540,1.5714,180,230,410,1.2778,140,160,300,1.1429,120,140,260,1.1667,105,61
890,290,610,270,620,890,2.2963,220,390,610,1.7727,220,330,550,1.5,190,240,430,1.2632,160,150,310,0.9375,130,130,260,1,106,61
920,280,630,250,470,720,1.88,220,360,580,1.6364,200,310,510,1.55,170,220,390,1.2941,150,160,310,1.0667,120,130,250,1.0833,106,61
930,290,630,310,470,780,1.5161,270,350,620,1.2963,250,310,560,1.24,210,210,420,1,170,150,320,0.88235,150,120,270,0.8,106,61
890,300,610,260,580,840,2.2308,230,410,640,1.7826,200,350,550,1.75,180,230,410,1.2778,150,170,320,1.1333,120,120,240,1,106,61
920,280,640,250,650,900,2.6,220,470,690,2.1364,210,390,600,1.8571,170,270,440,1.5882,150,190,340,1.2667,130,160,290,1.2308,106,61
920,280,620,260,490,750,1.8846,220,360,580,1.6364,220,320,540,1.4545,170,240,410,1.4118,140,160,300,1.1429,120,130,250,1.0833,106,61
910,300,620,280,460,740,1.6429,250,340,590,1.36,220,290,510,1.3182,200,210,410,1.05,180,150,330,0.83333,140,120,260,0.85714,107,61
910,290,610,250,590,840,2.36,240,370,610,1.5417,210,320,530,1.5238,190,230,420,1.2105,160,150,310,0.9375,140,130,270,0.92857,107,62
910,300,630,320,510,830,1.5938,250,380,630,1.52,240,320,560,1.3333,200,220,420,1.1,170,170,340,1,140,120,260,0.85714,106,61
910,280,630,300,470,770,1.5667,230,360,590,1.5652,220,310,530,1.4091,180,220,400,1.2222,140,160,300,1.1429,140,130,270,0.92857,106,61
910,280,620,240,630,870,2.625,220,490,710,2.2273,200,330,530,1.65,170,240,410,1.4118,130,160,290,1.2308,120,130,250,1.0833,106,61
890,290,630,240,550,790,2.2917,220,390,610,1.7727,200,350,550,1.75,170,250,420,1.4706,150,170,320,1.1333,120,140,260,1.1667,106,61
630,260,530,240,480,720,2,210,360,570,1.7143,190,320,510,1.6842,170,240,410,1.4118,140,170,310,1.2143,120,130,250,1.0833,106,61
1210,100,910,110,730,840,6.6364,110,640,750,5.8182,110,580,690,5.2727,110,500,610,4.5455,110,460,570,4.1818,110,420,530,3.8182,106,61
870,300,600,270,520,790,1.9259,250,370,620,1.48,230,320,550,1.3913,200,220,420,1.1,170,140,310,0.82353,140,110,250,0.78571,106,61
970,270,670,290,540,830,1.8621,290,420,710,1.4483,230,360,590,1.5652,180,250,430,1.3889,150,190,340,1.2667,130,150,280,1.1538,107,61
890,300,600,260,520,780,2,230,370,600,1.6087,220,310,530,1.4091,190,220,410,1.1579,160,140,300,0.875,130,100,230,0.76923,106,61
900,290,610,260,620,880,2.3846,220,490,710,2.2273,210,410,620,1.9524,180,280,460,1.5556,140,160,300,1.1429,130,120,250,0.92308,105,61
910,290,620,240,510,750,2.125,230,390,620,1.6957,200,340,540,1.7,170,240,410,1.4118,140,170,310,1.2143,120,140,260,1.1667,105,61
900,290,610,280,480,760,1.7143,240,390,630,1.625,230,350,580,1.5217,200,240,440,1.2,150,170,320,1.1333,130,130,260,1,105,61
910,290,610,250,610,860,2.44,210,410,620,1.9524,200,340,540,1.7,170,240,410,1.4118,130,170,300,1.3077,120,130,250,1.0833,106,61
910,300,630,250,490,740,1.96,220,370,590,1.6818,200,320,520,1.6,170,230,400,1.3529,150,170,320,1.1333,120,140,260,1.1667,106,61
920,280,650,300,470,770,1.5667,300,360,660,1.2,230,300,530,1.3043,200,220,420,1.1,160,170,330,1.0625,140,140,280,1,106,61
920,270,630,230,560,790,2.4348,210,400,610,1.9048,190,340,530,1.7895,170,240,410,1.4118,150,170,320,1.1333,120,130,250,1.0833,106,61
910,290,620,260,630,890,2.4231,220,460,680,2.0909,210,390,600,1.8571,180,270,450,1.5,130,170,300,1.3077,110,130,240,1.1818,105,61
900,290,620,270,480,750,1.7778,230,350,580,1.5217,220,300,520,1.3636,190,210,400,1.1053,160,160,320,1,140,120,260,0.85714,106,61
930,280,610,280,450,730,1.6071,250,330,580,1.32,220,300,520,1.3636,200,220,420,1.1,150,170,320,1.1333,140,140,280,1,106,61
900,320,610,260,530,790,2.0385,240,360,600,1.5,230,300,530,1.3043,190,210,400,1.1053,160,150,310,0.9375,140,120,260,0.85714,107,61
930,290,640,310,510,820,1.6452,240,400,640,1.6667,240,360,600,1.5,190,260,450,1.3684,150,180,330,1.2,150,140,290,0.93333,106,61
900,290,630,260,470,730,1.8077,230,350,580,1.5217,220,310,530,1.4091,180,220,400,1.2222,170,140,310,0.82353,140,120,260,0.85714,106,61
910,270,630,240,540,780,2.25,220,380,600,1.7273,200,330,530,1.65,180,240,420,1.3333,140,160,300,1.1429,120,110,230,0.91667,106,61
900,280,610,260,620,880,2.3846,230,440,670,1.913,220,370,590,1.6818,190,250,440,1.3158,160,170,330,1.0625,140,130,270,0.92857,106,61
870,290,620,250,480,730,1.92,230,370,600,1.6087,220,320,540,1.4545,200,230,430,1.15,150,150,300,1,140,110,250,0.78571,106,61
950,250,660,220,510,730,2.3182,190,380,570,2,170,330,500,1.9412,140,240,380,1.7143,110,170,280,1.5455,100,140,240,1.4,106,61
900,290,620,250,480,730,1.92,230,370,600,1.6087,220,300,520,1.3636,180,210,390,1.1667,160,160,320,1,130,130,260,1,107,61
930,280,650,300,480,780,1.6,300,350,650,1.1667,250,310,560,1.24,200,230,430,1.15,170,170,340,1,140,150,290,1.0714,106,61
900,280,620,250,540,790,2.16,230,380,610,1.6522,200,340,540,1.7,170,240,410,1.4118,140,170,310,1.2143,120,120,240,1,105,61
920,280,420,240,430,670,1.7917,210,400,610,1.9048,210,350,560,1.6667,180,230,410,1.2778,150,170,320,1.1333,110,140,250,1.2727,105,61
900,500,610,330,500,830,1.5152,230,370,600,1.6087,230,320,550,1.3913,180,230,410,1.2778,150,150,300,1,150,120,270,0.8,105,61
920,290,660,250,500,750,2,220,380,600,1.7273,200,320,520,1.6,190,230,420,1.2105,160,150,310,0.9375,130,130,260,1,106,61
910,260,620,250,470,720,1.88,230,350,580,1.5217,200,300,500,1.5,180,200,380,1.1111,150,140,290,0.93333,130,110,240,0.84615,107,61
930,290,640,280,500,780,1.7857,230,390,620,1.6957,230,330,560,1.4348,200,230,430,1.15,150,150,300,1,130,120,250,0.92308,106,61
890,290,620,310,460,770,1.4839,260,340,600,1.3077,240,290,530,1.2083,210,210,420,1,180,140,320,0.77778,160,120,280,0.75,106,61
910,270,630,240,550,790,2.2917,220,390,610,1.7727,190,350,540,1.8421,160,240,400,1.5,140,170,310,1.2143,120,120,240,1,106,61
910,280,620,250,630,880,2.52,210,520,730,2.4762,200,440,640,2.2,170,300,470,1.7647,140,180,320,1.2857,120,130,250,1.0833,106,61
900,290,620,250,500,750,2,230,380,610,1.6522,210,330,540,1.5714,180,230,410,1.2778,150,170,320,1.1333,120,120,240,1,106,61
900,280,610,270,440,710,1.6296,230,390,620,1.6957,220,330,550,1.5,190,220,410,1.1579,170,160,330,0.94118,130,120,250,0.92308,107,61
910,290,630,260,510,770,1.9615,220,380,600,1.7273,210,320,530,1.5238,180,220,400,1.2222,150,160,310,1.0667,120,130,250,1.0833,107,61
930,280,620,300,500,800,1.6667,250,380,630,1.52,220,330,550,1.5,190,240,430,1.2632,160,170,330,1.0625,130,140,270,1.0769,107,61
900,310,610,270,620,890,2.2963,230,440,670,1.913,220,370,590,1.6818,190,250,440,1.3158,160,180,340,1.125,130,130,260,1,106,61
900,290,620,250,530,780,2.12,220,390,610,1.7727,210,320,530,1.5238,180,230,410,1.2778,140,150,290,1.0714,120,130,250,1.0833,106,61
910,280,640,240,510,750,2.125,210,380,590,1.8095,190,340,530,1.7895,160,230,390,1.4375,130,170,300,1.3077,100,140,240,1.4,106,61
930,270,640,240,480,720,2,210,380,590,1.8095,200,330,530,1.65,170,230,400,1.3529,140,170,310,1.2143,110,140,250,1.2727,107,61
910,290,630,250,530,780,2.12,240,380,620,1.5833,210,320,530,1.5238,190,220,410,1.1579,160,170,330,1.0625,130,140,270,1.0769,107,61
920,280,640,250,480,730,1.92,220,350,570,1.5909,210,300,510,1.4286,180,220,400,1.2222,140,160,300,1.1429,130,130,260,1,106,61
910,280,640,300,470,770,1.5667,300,390,690,1.3,270,360,630,1.3333,210,260,470,1.2381,170,180,350,1.0588,140,140,280,1,106,61
900,270,640,220,570,790,2.5909,210,400,610,1.9048,190,360,550,1.8947,160,260,420,1.625,130,170,300,1.3077,100,150,250,1.5,106,61
930,260,600,220,590,810,2.6818,190,30,220,0.15789,190,10,200,0.052632,160,10,170,0.0625,120,10,130,0.083333,110,10,120,0.090909,106,61
920,330,640,330,650,980,1.9697,240,480,720,2,230,410,640,1.7826,200,280,480,1.4,160,200,360,1.25,140,150,290,1.0714,106,61
920,280,620,250,470,720,1.88,230,360,590,1.5652,200,300,500,1.5,190,210,400,1.1053,160,150,310,0.9375,120,120,240,1,106,61
920,300,610,270,450,720,1.6667,250,340,590,1.36,230,290,520,1.2609,200,200,400,1,170,140,310,0.82353,140,100,240,0.71429,106,61
920,310,640,330,510,840,1.5455,250,390,640,1.56,240,330,570,1.375,200,250,450,1.25,170,170,340,1,160,130,290,0.8125,107,61
890,280,620,240,550,790,2.2917,230,380,610,1.6522,210,340,550,1.619,170,230,400,1.3529,160,150,310,0.9375,120,110,230,0.91667,106,61
920,270,640,240,520,760,2.1667,200,400,600,2,180,340,520,1.8889,170,250,420,1.4706,130,180,310,1.3846,110,140,250,1.2727,105,60
920,280,640,240,560,800,2.3333,220,420,640,1.9091,200,370,570,1.85,170,250,420,1.4706,140,160,300,1.1429,130,140,270,1.0769,105,60
920,280,630,260,490,750,1.8846,220,370,590,1.6818,210,320,530,1.5238,180,240,420,1.3333,150,170,320,1.1333,130,120,250,0.92308,106,60
930,290,620,250,520,770,2.08,220,380,600,1.7273,210,330,540,1.5714,180,220,400,1.2222,150,160,310,1.0667,130,120,250,0.92308,107,61
900,310,610,260,510,770,1.9615,230,370,600,1.6087,220,310,530,1.4091,200,210,410,1.05,150,160,310,1.0667,150,120,270,0.8,107,61
930,290,650,310,470,780,1.5161,250,360,610,1.44,250,310,560,1.24,200,220,420,1.1,160,160,320,1,150,130,280,0.86667,107,61
920,280,620,250,630,880,2.52,230,450,680,1.9565,210,370,580,1.7619,180,260,440,1.4444,150,170,320,1.1333,130,120,250,0.92308,106,61
910,300,610,260,520,780,2,230,380,610,1.6522,210,330,540,1.5714,190,220,410,1.1579,160,140,300,0.875,130,110,240,0.84615,106,60
910,300,620,270,480,750,1.7778,240,370,610,1.5417,220,330,550,1.5,210,230,440,1.0952,160,180,340,1.125,140,140,280,1,106,60
910,290,610,250,500,750,2,240,360,600,1.5,210,310,520,1.4762,200,230,430,1.15,150,150,300,1,130,120,250,0.92308,107,61
910,300,620,250,510,760,2.04,220,370,590,1.6818,210,320,530,1.5238,180,240,420,1.3333,140,170,310,1.2143,130,130,260,1,107,61
930,290,650,310,520,830,1.6774,240,410,650,1.7083,220,360,580,1.6364,190,240,430,1.2632,160,170,330,1.0625,140,140,280,1,107,61
910,280,630,270,500,770,1.8519,220,370,590,1.6818,220,320,540,1.4545,190,230,420,1.2105,150,150,300,1,130,130,260,1,106,61
920,280,620,240,530,770,2.2083,210,390,600,1.8571,200,330,530,1.65,170,230,400,1.3529,140,160,300,1.1429,130,120,250,0.92308,106,61
900,300,620,260,530,790,2.0385,240,380,620,1.5833,210,320,530,1.5238,190,230,420,1.2105,150,150,300,1,130,130,260,1,106,61
920,280,610,250,540,790,2.16,210,380,590,1.8095,210,330,540,1.5714,180,240,420,1.3333,150,160,310,1.0667,140,130,270,0.92857,107,61
900,310,610,250,530,780,2.12,240,370,610,1.5417,220,310,530,1.4091,190,230,420,1.2105,150,150,300,1,130,120,250,0.92308,107,61
920,290,630,250,440,690,1.76,220,340,560,1.5455,220,280,500,1.2727,170,210,380,1.2353,140,140,280,1,120,110,230,0.91667,107,61
920,290,640,310,480,790,1.5484,250,360,610,1.44,230,320,550,1.3913,210,240,450,1.1429,170,160,330,0.94118,150,140,290,0.93333,107,61
920,280,640,230,650,880,2.8261,220,490,710,2.2273,190,410,600,2.1579,180,270,450,1.5,130,160,290,1.2308,120,130,250,1.0833,107,61
910,280,620,250,530,780,2.12,220,390,610,1.7727,210,330,540,1.5714,180,220,400,1.2222,140,160,300,1.1429,130,130,260,1,107,61
910,290,620,260,480,740,1.8462,230,380,610,1.6522,220,330,550,1.5,200,230,430,1.15,150,150,300,1,130,110,240,0.84615,107,61
910,290,620,260,460,720,1.7692,240,350,590,1.4583,210,310,520,1.4762,180,220,400,1.2222,150,150,300,1,130,120,250,0.92308,108,61
900,290,620,260,590,850,2.2692,220,390,610,1.7727,210,330,540,1.5714,180,240,420,1.3333,150,170,320,1.1333,130,120,250,0.92308,108,62
930,280,650,240,490,730,2.0417,210,360,570,1.7143,210,300,510,1.4286,170,230,400,1.3529,140,160,300,1.1429,130,140,270,1.0769,108,62
900,280,620,300,460,760,1.5333,250,350,600,1.4,230,290,520,1.2609,210,200,410,0.95238,180,150,330,0.83333,150,120,270,0.8,108,61
900,280,630,250,640,890,2.56,210,420,630,2,190,370,560,1.9474,180,250,430,1.3889,140,170,310,1.2143,110,120,230,1.0909,108,61
910,270,630,250,520,770,2.08,220,390,610,1.7727,200,340,540,1.7,170,250,420,1.4706,140,170,310,1.2143,120,120,240,1,108,61
910,280,610,270,490,760,1.8148,230,380,610,1.6522,220,330,550,1.5,200,220,420,1.1,160,160,320,1,130,130,260,1,108,61
900,300,610,270,570,840,2.1111,230,390,620,1.6957,210,310,520,1.4762,190,230,420,1.2105,150,150,300,1,140,120,260,0.85714,109,61
900,290,610,250,490,740,1.96,220,350,570,1.5909,220,300,520,1.3636,190,210,400,1.1053,160,150,310,0.9375,130,130,260,1,109,62
920,290,630,310,520,830,1.6774,230,400,630,1.7391,220,340,560,1.5455,200,250,450,1.25,150,170,320,1.1333,140,140,280,1,108,62
890,290,610,240,470,710,1.9583,210,360,570,1.7143,200,300,500,1.5,170,220,390,1.2941,150,160,310,1.0667,110,130,240,1.1818,108,62
910,280,630,230,560,790,2.4348,210,410,620,1.9524,190,340,530,1.7895,160,250,410,1.5625,130,180,310,1.3846,110,140,250,1.2727,108,61
910,280,620,250,550,800,2.2,230,400,630,1.7391,200,340,540,1.7,170,240,410,1.4118,140,160,300,1.1429,120,130,250,1.0833,108,61
910,290,600,260,470,730,1.8077,230,360,590,1.5652,220,320,540,1.4545,190,240,430,1.2632,160,160,320,1,140,130,270,0.92857,110,62
890,310,600,250,610,860,2.44,240,400,640,1.6667,210,330,540,1.5714,180,240,420,1.3333,150,160,310,1.0667,130,130,260,1,110,62
900,290,590,260,470,730,1.8077,230,340,570,1.4783,210,310,520,1.4762,180,210,390,1.1667,150,150,300,1,130,120,250,0.92308,109,62
940,310,330,330,280,610,0.84848,330,270,600,0.81818,330,260,590,0.78788,250,260,510,1.04,190,250,440,1.3158,160,170,330,1.0625,109,62
1790,610,500,580,510,1090,0.87931,580,510,1090,0.87931,520,510,1030,0.98077,520,380,900,0.73077,140,230,370,1.6429,120,170,290,1.4167,109,62
1810,1290,1510,1300,1500,2800,1.1538,1280,1310,2590,1.0234,1280,1250,2530,0.97656,1270,1140,2410,0.89764,1160,1080,2240,0.93103,770,700,1470,0.90909,109,62
910,300,620,250,550,800,2.2,230,400,630,1.7391,220,320,540,1.4545,190,240,430,1.2632,140,150,290,1.0714,130,120,250,0.92308,109,62
910,290,640,310,500,810,1.6129,240,370,610,1.5417,230,310,540,1.3478,200,200,400,1,170,140,310,0.82353,140,120,260,0.85714,110,62
900,270,620,290,470,760,1.6207,250,360,610,1.44,220,300,520,1.3636,190,220,410,1.1579,150,150,300,1,120,130,250,1.0833,110,62
910,280,630,230,640,870,2.7826,220,480,700,2.1818,190,380,570,2,180,240,420,1.3333,140,160,300,1.1429,120,120,240,1,109,62
890,280,620,250,560,810,2.24,220,410,630,1.8636,210,350,560,1.6667,170,230,400,1.3529,140,160,300,1.1429,140,130,270,0.92857,109,62
920,270,630,250,520,770,2.08,220,400,620,1.8182,220,340,560,1.5455,190,240,430,1.2632,140,170,310,1.2143,130,130,260,1,110,62
900,290,600,260,470,730,1.8077,230,350,580,1.5217,230,290,520,1.2609,190,200,390,1.0526,160,150,310,0.9375,150,110,260,0.73333,110,62
900,300,610,250,510,760,2.04,230,370,600,1.6087,220,300,520,1.3636,190,220,410,1.1579,150,140,290,0.93333,130,110,240,0.84615,110,62
910,290,640,310,500,810,1.6129,270,390,660,1.4444,240,340,580,1.4167,210,240,450,1.1429,170,170,340,1,150,120,270,0.8,111,62
900,270,610,240,480,720,2,210,370,580,1.7619,210,320,530,1.5238,170,220,390,1.2941,130,170,300,1.3077,130,120,250,0.92308,110,62
890,290,620,240,630,870,2.625,210,430,640,2.0476,200,340,540,1.7,180,250,430,1.3889,150,150,300,1,120,120,240,1,109,62
920,270,640,250,530,780,2.12,200,390,590,1.95,200,330,530,1.65,170,230,400,1.3529,140,170,310,1.2143,120,130,250,1.0833,109,62
910,280,620,270,460,730,1.7037,240,370,610,1.5417,210,310,520,1.4762,190,220,410,1.1579,160,160,320,1,150,130,280,0.86667,110,62
910,290,600,260,530,790,2.0385,230,360,590,1.5652,210,310,520,1.4762,200,230,430,1.15,150,140,290,0.93333,130,110,240,0.84615,111,63
890,310,610,260,480,740,1.8462,240,350,590,1.4583,230,290,520,1.2609,190,210,400,1.1053,160,150,310,0.9375,150,120,270,0.8,111,63
920,280,640,300,490,790,1.6333,250,360,610,1.44,230,310,540,1.3478,190,230,420,1.2105,150,150,300,1,130,130,260,1,110,63
920,280,630,240,550,790,2.2917,220,400,620,1.8182,190,340,530,1.7895,160,240,400,1.5,130,160,290,1.2308,110,140,250,1.2727,110,63
890,290,610,260,620,880,2.3846,240,440,680,1.8333,220,380,600,1.7273,180,250,430,1.3889,150,160,310,1.0667,120,120,240,1,110,62
930,280,620,250,500,750,2,220,380,600,1.7273,210,320,530,1.5238,180,240,420,1.3333,140,160,300,1.1429,130,140,270,1.0769,110,62
890,310,600,290,430,720,1.4828,240,320,560,1.3333,240,280,520,1.1667,190,210,400,1.1053,160,140,300,0.875,140,120,260,0.85714,111,62
900,290,600,260,560,820,2.1538,220,380,600,1.7273,210,330,540,1.5714,180,220,400,1.2222,140,160,300,1.1429,130,130,260,1,111,63
940,300,640,260,520,780,2,230,410,640,1.7826,220,340,560,1.5455,170,240,410,1.4118,150,180,330,1.2,120,130,250,1.0833,111,63
880,300,610,320,440,760,1.375,240,330,570,1.375,240,290,530,1.2083,210,200,410,0.95238,180,140,320,0.77778,140,110,250,0.78571,110,63
920,270,620,230,520,750,2.2609,210,390,600,1.8571,200,320,520,1.6,160,230,390,1.4375,140,150,290,1.0714,110,130,240,1.1818,110,62
900,300,620,270,630,900,2.3333,230,430,660,1.8696,230,360,590,1.5652,180,240,420,1.3333,160,160,320,1,140,120,260,0.85714,110,62
880,280,620,250,490,740,1.96,220,370,590,1.6818,210,320,530,1.5238,190,210,400,1.1053,160,150,310,0.9375,130,120,250,0.92308,110,62
940,260,640,220,490,710,2.2273,190,380,570,2,190,330,520,1.7368,160,240,400,1.5,120,180,300,1.5,110,130,240,1.1818,111,63
920,300,620,260,520,780,2,230,370,600,1.6087,210,320,530,1.5238,180,220,400,1.2222,140,160,300,1.1429,130,120,250,0.92308,111,63
930,300,630,320,460,780,1.4375,300,360,660,1.2,260,300,560,1.1538,210,210,420,1,180,170,350,0.94444,150,130,280,0.86667,111,63
890,300,610,250,550,800,2.2,230,380,610,1.6522,220,330,550,1.5,190,230,420,1.2105,150,160,310,1.0667,140,120,260,0.85714,110,62
930,280,420,240,430,670,1.7917,200,370,570,1.85,200,310,510,1.55,170,240,410,1.4118,140,160,300,1.1429,130,120,250,0.92308,110,62
890,510,610,270,530,800,1.963,230,370,600,1.6087,210,320,530,1.5238,190,220,410,1.1579,170,140,310,0.82353,130,120,250,0.92308,110,62
910,280,670,240,480,720,2,220,370,590,1.6818,210,320,530,1.5238,180,240,420,1.3333,150,160,310,1.0667,130,130,260,1,111,62
930,240,620,230,470,700,2.0435,210,350,560,1.6667,200,290,490,1.45,180,220,400,1.2222,130,150,280,1.1538,120,120,240,1,111,62
850,310,620,260,480,740,1.8462,240,350,590,1.4583,220,300,520,1.3636,190,210,400,1.1053,150,140,290,0.93333,150,110,260,0.73333,111,62
970,230,700,250,510,760,2.04,250,410,660,1.64,190,340,530,1.7895,160,260,420,1.625,110,200,310,1.8182,100,170,270,1.7,110,62
900,270,630,240,530,770,2.2083,210,380,590,1.8095,200,330,530,1.65,170,230,400,1.3529,140,170,310,1.2143,130,130,260,1,110,62
920,270,630,250,640,890,2.56,220,490,710,2.2273,200,430,630,2.15,170,310,480,1.8235,140,170,310,1.2143,110,140,250,1.2727,110,62
890,290,600,260,480,740,1.8462,230,350,580,1.5217,200,320,520,1.6,180,230,410,1.2778,140,150,290,1.0714,120,130,250,1.0833,110,62
860,290,610,280,430,710,1.5357,230,380,610,1.6522,220,300,520,1.3636,200,220,420,1.1,160,140,300,0.875,140,110,250,0.78571,110,62
950,250,650,210,570,780,2.7143,200,30,230,0.15,170,10,180,0.058824,140,10,150,0.071429,110,10,120,0.090909,90,10,100,0.11111,111,62
920,300,640,320,500,820,1.5625,240,390,630,1.625,240,330,570,1.375,210,250,460,1.1905,160,170,330,1.0625,150,120,270,0.8,110,62
890,280,620,250,520,770,2.08,220,380,600,1.7273,200,330,530,1.65,180,220,400,1.2222,140,160,300,1.1429,130,130,260,1,110,62
910,270,630,230,520,750,2.2609,210,380,590,1.8095,180,320,500,1.7778,170,240,410,1.4118,130,170,300,1.3077,110,120,230,1.0909,110,62
910,280,630,230,560,790,2.4348,210,400,610,1.9048,190,360,550,1.8947,160,250,410,1.5625,130,180,310,1.3846,90,130,220,1.4444,110,62
920,280,630,250,490,740,1.96,220,370,590,1.6818,200,320,520,1.6,180,220,400,1.2222,150,170,320,1.1333,120,140,260,1.1667,110,62
910,290,610,250,460,710,1.84,240,340,580,1.4167,220,290,510,1.3182,180,200,380,1.1111,150,140,290,0.93333,130,110,240,0.84615,111,62
900,300,610,260,480,740,1.8462,230,360,590,1.5652,230,300,530,1.3043,190,210,400,1.1053,160,150,310,0.9375,130,120,250,0.92308,111,62
920,290,640,310,460,770,1.4839,280,380,660,1.3571,240,340,580,1.4167,200,230,430,1.15,170,170,340,1,140,140,280,1,110,62
920,280,630,240,520,760,2.1667,210,380,590,1.8095,200,330,530,1.65,170,230,400,1.3529,140,160,300,1.1429,130,130,260,1,110,62
900,290,610,250,510,760,2.04,230,380,610,1.6522,210,320,530,1.5238,200,210,410,1.05,170,150,320,0.88235,130,100,230,0.76923,110,62
900,290,620,270,630,900,2.3333,240,450,690,1.875,220,390,610,1.7727,200,270,470,1.35,160,180,340,1.125,150,130,280,0.86667,110,62
880,280,620,240,460,700,1.9167,230,350,580,1.5217,210,300,510,1.4286,180,220,400,1.2222,140,160,300,1.1429,130,130,260,1,110,62
950,260,650,210,490,700,2.3333,190,380,570,2,170,310,480,1.8235,150,230,380,1.5333,120,180,300,1.5,110,150,260,1.3636,111,62
920,300,630,270,510,780,1.8889,240,390,630,1.625,220,330,550,1.5,200,230,430,1.15,160,150,310,0.9375,150,120,270,0.8,111,63
910,290,620,310,470,780,1.5161,240,340,580,1.4167,220,290,510,1.3182,190,220,410,1.1579,160,150,310,0.9375,130,130,260,1,111,63
910,290,620,240,510,750,2.125,220,380,600,1.7273,210,310,520,1.4762,190,220,410,1.1579,150,160,310,1.0667,120,110,230,0.91667,111,63
920,290,640,260,650,910,2.5,220,430,650,1.9545,210,330,540,1.5714,180,240,420,1.3333,150,140,290,0.93333,130,130,260,1,111,63
910,280,620,250,490,740,1.96,220,370,590,1.6818,210,300,510,1.4286,180,220,400,1.2222,150,160,310,1.0667,140,120,260,0.85714,111,63
900,290,630,250,490,740,1.96,220,360,580,1.6364,210,310,520,1.4762,180,210,390,1.1667,150,150,300,1,130,120,250,0.92308,112,63
930,270,640,240,470,710,1.9583,210,350,560,1.6667,190,300,490,1.5789,170,230,400,1.3529,150,160,310,1.0667,120,130,250,1.0833,112,63
920,290,640,310,500,810,1.6129,270,370,640,1.3704,240,320,560,1.3333,200,230,430,1.15,170,160,330,0.94118,150,130,280,0.86667,112,63
900,280,620,250,620,870,2.48,220,420,640,1.9091,200,350,550,1.75,190,250,440,1.3158,150,170,320,1.1333,140,140,280,1,111,63
920,280,630,250,530,780,2.12,220,380,600,1.7273,200,330,530,1.65,170,230,400,1.3529,130,160,290,1.2308,120,130,250,1.0833,111,62
900,290,620,250,490,740,1.96,230,370,600,1.6087,220,330,550,1.5,180,240,420,1.3333,150,150,300,1,130,110,240,0.84615,111,62
920,280,610,250,470,720,1.88,230,360,590,1.5652,210,300,510,1.4286,170,220,390,1.2941,150,160,310,1.0667,130,130,260,1,111,62
890,310,600,270,480,750,1.7778,240,380,620,1.5833,220,320,540,1.4545,190,220,410,1.1579,160,140,300,0.875,140,120,260,0.85714,112,63
930,290,650,250,500,750,2,220,360,580,1.6364,200,320,520,1.6,170,220,390,1.2941,140,170,310,1.2143,120,140,260,1.1667,111,63
920,280,590,300,450,750,1.5,250,340,590,1.36,240,290,530,1.2083,210,200,410,0.95238,160,160,320,1,150,130,280,0.86667,111,62
900,330,610,260,600,860,2.3077,230,410,640,1.7826,210,350,560,1.6667,180,250,430,1.3889,150,160,310,1.0667,130,130,260,1,111,62
920,290,630,240,530,770,2.2083,210,390,600,1.8571,210,340,550,1.619,170,230,400,1.3529,150,170,320,1.1333,120,120,240,1,110,62
900,290,620,260,480,740,1.8462,230,370,600,1.6087,200,310,510,1.55,170,210,380,1.2353,130,150,280,1.1538,110,110,220,1,111,62
920,280,620,250,510,760,2.04,210,370,580,1.7619,210,330,540,1.5714,180,220,400,1.2222,130,160,290,1.2308,120,130,250,1.0833,111,62
900,300,620,260,440,700,1.6923,230,320,550,1.3913,210,260,470,1.2381,180,180,360,1,150,150,300,1,130,120,250,0.92308,111,63
930,280,660,300,520,820,1.7333,240,400,640,1.6667,220,350,570,1.5909,190,260,450,1.3684,150,180,330,1.2,130,150,280,1.1538,111,62
900,270,630,240,500,740,2.0833,210,340,550,1.619,210,290,500,1.381,180,210,390,1.1667,140,160,300,1.1429,120,130,250,1.0833,110,62
930,270,640,240,520,760,2.1667,220,380,600,1.7273,200,320,520,1.6,180,240,420,1.3333,140,160,300,1.1429,130,130,260,1,110,62
900,290,610,260,510,770,1.9615,230,390,620,1.6957,220,320,540,1.4545,200,230,430,1.15,150,150,300,1,140,120,260,0.85714,110,62
910,290,620,250,480,730,1.92,230,370,600,1.6087,220,320,540,1.4545,190,210,400,1.1053,150,150,300,1,130,120,250,0.92308,111,62
920,290,610,250,500,750,2,220,370,590,1.6818,210,310,520,1.4762,170,220,390,1.2941,150,160,310,1.0667,120,130,250,1.0833,111,62
910,310,620,260,460,720,1.7692,240,330,570,1.375,230,300,530,1.3043,190,200,390,1.0526,170,140,310,0.82353,130,110,240,0.84615,111,62
920,290,650,310,490,800,1.5806,240,360,600,1.5,220,310,530,1.4091,190,220,410,1.1579,160,160,320,1,140,140,280,1,110,62
920,270,630,240,640,880,2.6667,210,450,660,2.1429,200,380,580,1.9,170,270,440,1.5882,140,190,330,1.3571,110,140,250,1.2727,110,62
920,290,630,240,540,780,2.25,220,390,610,1.7727,210,340,550,1.619,180,230,410,1.2778,140,170,310,1.2143,130,140,270,1.0769,110,62
910,290,290,250,290,540,1.16,230,290,520,1.2609,210,290,500,1.381,180,230,410,1.2778,160,150,310,0.9375,130,120,250,0.92308,110,62
920,620,620,470,480,950,1.0213,470,360,830,0.76596,470,310,780,0.65957,180,230,410,1.2778,140,150,290,1.0714,120,120,240,1,111,62
930,300,620,260,560,820,2.1538,230,390,620,1.6957,220,330,550,1.5,180,230,410,1.2778,150,160,310,1.0667,140,130,270,0.92857,111,62
920,310,630,280,500,780,1.7857,240,380,620,1.5833,230,330,560,1.4348,200,230,430,1.15,170,140,310,0.82353,150,120,270,0.8,111,62
910,290,630,280,470,750,1.6786,230,350,580,1.5217,220,310,530,1.4091,190,210,400,1.1053,150,140,290,0.93333,140,110,250,0.78571,110,62
920,280,630,250,610,860,2.44,220,420,640,1.9091,200,360,560,1.8,190,240,430,1.2632,150,170,320,1.1333,130,120,250,0.92308,110,61
890,290,620,260,550,810,2.1154,240,400,640,1.6667,230,330,560,1.4348,190,240,430,1.2632,160,160,320,1,150,110,260,0.73333,110,61
940,270,640,250,510,760,2.04,210,380,590,1.8095,190,340,530,1.7895,160,250,410,1.5625,140,170,310,1.2143,110,140,250,1.2727,110,61
920,300,620,260,520,780,2,230,360,590,1.5652,210,310,520,1.4762,200,220,420,1.1,170,150,320,0.88235,140,120,260,0.85714,111,62
920,300,620,260,450,710,1.7308,240,330,570,1.375,220,280,500,1.2727,190,210,400,1.1053,160,140,300,0.875,150,110,260,0.73333,111,62
920,300,630,320,480,800,1.5,260,350,610,1.3462,240,310,550,1.2917,210,220,430,1.0476,180,160,340,0.88889,160,110,270,0.6875,110,62
910,290,630,250,640,890,2.56,220,390,610,1.7727,200,330,530,1.65,170,230,400,1.3529,150,170,320,1.1333,120,130,250,1.0833,110,61
