cp,st,dt,sw10,dw10,sw10+dw10,dw10/sw10,sw25,dw25,sw25+dw25,dw25/sw25,sw33,dw33,sw33+dw33,dw33/sw33,sw50,dw50,sw50+dw50,dw50/sw50,sw66,dw66,sw66+dw66,dw66/sw66,sw75,dw75,sw75+dw75,dw75/sw75,sys,dia,
850,230,630,190,600,790,3.1579,170,380,550,2.2353,160,290,450,1.8125,140,200,340,1.4286,120,150,270,1.25,100,120,220,1.2,104,57
850,220,650,240,520,760,2.1667,190,390,580,2.0526,180,350,530,1.9444,140,230,370,1.6429,130,160,290,1.2308,120,130,250,1.0833,104,58
830,200,660,180,580,760,3.2222,160,380,540,2.375,140,270,410,1.9286,120,180,300,1.5,110,140,250,1.2727,90,120,210,1.3333,104,58
860,170,640,150,550,700,3.6667,130,370,500,2.8462,120,290,410,2.4167,100,190,290,1.9,80,150,230,1.875,70,120,190,1.7143,103,58
830,220,600,200,610,810,3.05,170,460,630,2.7059,170,320,490,1.8824,140,190,330,1.3571,130,130,260,1,110,110,220,1,103,58
850,230,630,190,610,800,3.2105,160,400,560,2.5,160,330,490,2.0625,140,210,350,1.5,120,150,270,1.25,100,130,230,1.3,104,58
840,220,640,210,450,660,2.1429,170,340,510,2,170,290,460,1.7059,140,200,340,1.4286,130,150,280,1.1538,110,130,240,1.1818,104,58
890,200,670,220,490,710,2.2273,170,330,500,1.9412,160,260,420,1.625,130,190,320,1.4615,110,140,250,1.2727,100,120,220,1.2,104,58
860,220,610,180,620,800,3.4444,160,400,560,2.5,150,300,450,2,140,200,340,1.4286,120,140,260,1.1667,100,120,220,1.2,103,58
870,250,630,190,470,660,2.4737,150,310,460,2.0667,150,250,400,1.6667,130,180,310,1.3846,120,140,260,1.1667,110,110,220,1,103,58
850,240,630,200,640,840,3.2,180,480,660,2.6667,170,340,510,2,140,210,350,1.5,130,150,280,1.1538,110,120,230,1.0909,103,58
860,220,650,240,500,740,2.0833,190,370,560,1.9474,170,300,470,1.7647,150,220,370,1.4667,130,160,290,1.2308,120,140,260,1.1667,104,58
870,210,660,230,500,730,2.1739,230,350,580,1.5217,180,340,520,1.8889,150,230,380,1.5333,130,160,290,1.2308,110,130,240,1.1818,104,58
860,210,640,180,580,760,3.2222,160,370,530,2.3125,150,280,430,1.8667,130,200,330,1.5385,110,150,260,1.3636,100,130,230,1.3,103,58
860,220,630,190,540,730,2.8421,160,350,510,2.1875,150,270,420,1.8,130,190,320,1.4615,110,150,260,1.3636,100,120,220,1.2,103,58
850,230,630,210,640,850,3.0476,180,510,690,2.8333,170,390,560,2.2941,140,220,360,1.5714,130,160,290,1.2308,110,130,240,1.1818,104,58
870,220,660,240,510,750,2.125,170,360,530,2.1176,170,300,470,1.7647,140,210,350,1.5,120,160,280,1.3333,110,130,240,1.1818,104,58
870,210,640,230,450,680,1.9565,180,280,460,1.5556,170,230,400,1.3529,140,170,310,1.2143,120,130,250,1.0833,110,120,230,1.0909,104,58
860,230,650,180,540,720,3,160,340,500,2.125,150,280,430,1.8667,130,190,320,1.4615,110,140,250,1.2727,100,120,220,1.2,104,58
870,210,650,180,660,840,3.6667,150,380,530,2.5333,140,290,430,2.0714,120,200,320,1.6667,100,160,260,1.6,90,130,220,1.4444,104,58
880,220,640,180,650,830,3.6111,160,400,560,2.5,150,320,470,2.1333,130,210,340,1.6154,110,170,280,1.5455,90,130,220,1.4444,104,58
910,240,700,260,520,780,2,180,370,550,2.0556,170,300,470,1.7647,150,210,360,1.4,130,160,290,1.2308,120,130,250,1.0833,105,59
870,210,650,230,530,760,2.3043,160,360,520,2.25,160,290,450,1.8125,130,200,330,1.5385,120,150,270,1.25,100,130,230,1.3,105,59
870,220,670,180,580,760,3.2222,160,380,540,2.375,150,290,440,1.9333,130,190,320,1.4615,110,150,260,1.3636,100,120,220,1.2,105,59
880,200,660,180,670,850,3.7222,150,460,610,3.0667,140,370,510,2.6429,120,240,360,2,100,180,280,1.8,90,130,220,1.4444,105,59
880,220,660,190,670,860,3.5263,170,400,570,2.3529,150,320,470,2.1333,140,210,350,1.5,120,170,290,1.4167,100,130,230,1.3,105,59
1760,220,670,240,500,740,2.0833,220,430,650,1.9545,180,360,540,2,150,230,380,1.5333,130,160,290,1.2308,120,130,250,1.0833,105,59
870,1090,660,860,580,1440,0.67442,630,360,990,0.57143,310,290,600,0.93548,130,200,330,1.5385,110,150,260,1.3636,100,120,220,1.2,105,59
870,210,650,180,660,840,3.6667,170,380,550,2.2353,160,290,450,1.8125,130,200,330,1.5385,120,150,270,1.25,100,130,230,1.3,105,59
900,220,690,200,490,690,2.45,170,330,500,1.9412,160,260,420,1.625,140,180,320,1.2857,120,140,260,1.1667,110,120,230,1.0909,105,59
910,210,700,210,480,690,2.2857,170,320,490,1.8824,160,260,420,1.625,140,180,320,1.2857,110,140,250,1.2727,100,120,220,1.2,105,59
890,210,680,200,540,740,2.7,160,370,530,2.3125,150,290,440,1.9333,130,200,330,1.5385,110,160,270,1.4545,90,130,220,1.4444,105,59
890,210,670,180,680,860,3.7778,160,560,720,3.5,140,380,520,2.7143,130,200,330,1.5385,110,160,270,1.4545,90,130,220,1.4444,104,58
870,220,630,190,640,830,3.3684,170,400,570,2.3529,160,310,470,1.9375,150,210,360,1.4,120,150,270,1.25,110,120,230,1.0909,104,58
860,240,670,200,550,750,2.75,180,380,560,2.1111,170,300,470,1.7647,140,200,340,1.4286,120,150,270,1.25,110,120,230,1.0909,105,58
890,190,690,210,520,730,2.4762,170,350,520,2.0588,160,290,450,1.8125,140,200,340,1.4286,120,150,270,1.25,90,130,220,1.4444,105,58
890,200,670,170,530,700,3.1176,150,350,500,2.3333,140,280,420,2,120,200,320,1.6667,100,150,250,1.5,90,130,220,1.4444,104,58
870,220,640,180,560,740,3.1111,170,370,540,2.1765,150,290,440,1.9333,140,200,340,1.4286,120,160,280,1.3333,100,130,230,1.3,104,58
850,230,630,190,570,760,3,170,350,520,2.0588,150,280,430,1.8667,140,190,330,1.3571,120,140,260,1.1667,110,120,230,1.0909,104,58
860,220,650,190,490,680,2.5789,170,390,560,2.2941,160,320,480,2,140,220,360,1.5714,110,170,280,1.5455,100,130,230,1.3,104,58
890,210,670,230,510,740,2.2174,170,340,510,2,160,280,440,1.75,130,200,330,1.5385,120,150,270,1.25,100,130,230,1.3,104,58
860,220,640,180,510,690,2.8333,160,330,490,2.0625,150,270,420,1.8,130,200,330,1.5385,110,150,260,1.3636,90,130,220,1.4444,104,58
860,220,640,180,650,830,3.6111,160,400,560,2.5,150,310,460,2.0667,130,200,330,1.5385,110,150,260,1.3636,100,130,230,1.3,104,58
870,220,640,180,590,770,3.2778,160,410,570,2.5625,150,310,460,2.0667,130,210,340,1.6154,110,160,270,1.4545,100,130,230,1.3,104,58
850,230,640,250,470,720,1.88,190,360,550,1.8947,170,310,480,1.8235,150,220,370,1.4667,120,170,290,1.4167,120,140,260,1.1667,105,58
880,210,670,180,530,710,2.9444,160,410,570,2.5625,150,330,480,2.2,130,210,340,1.6154,110,150,260,1.3636,90,130,220,1.4444,105,59
880,210,660,180,520,700,2.8889,160,310,470,1.9375,140,250,390,1.7857,130,180,310,1.3846,110,140,250,1.2727,90,120,210,1.3333,104,59
850,220,640,190,590,780,3.1053,170,380,550,2.2353,160,300,460,1.875,130,210,340,1.6154,120,150,270,1.25,100,120,220,1.2,105,59
860,210,640,180,650,830,3.6111,160,410,570,2.5625,150,300,450,2,130,200,330,1.5385,110,160,270,1.4545,100,130,230,1.3,105,59
860,220,650,190,580,770,3.0526,160,400,560,2.5,160,330,490,2.0625,130,220,350,1.6923,120,160,280,1.3333,110,140,250,1.2727,105,59
880,210,660,230,490,720,2.1304,180,320,500,1.7778,160,270,430,1.6875,140,200,340,1.4286,110,150,260,1.3636,100,120,220,1.2,105,59
870,220,670,200,520,720,2.6,170,320,490,1.8824,150,260,410,1.7333,130,210,340,1.6154,110,150,260,1.3636,100,120,220,1.2,105,59
860,200,650,170,660,830,3.8824,150,430,580,2.8667,140,330,470,2.3571,130,210,340,1.6154,100,160,260,1.6,90,130,220,1.4444,105,59
870,210,640,180,630,810,3.5,150,380,530,2.5333,150,310,460,2.0667,120,200,320,1.6667,110,150,260,1.3636,100,130,230,1.3,105,59
870,230,660,200,500,700,2.5,170,330,500,1.9412,160,280,440,1.75,140,200,340,1.4286,120,150,270,1.25,100,120,220,1.2,105,59
860,210,680,200,470,670,2.35,170,330,500,1.9412,150,280,430,1.8667,130,200,330,1.5385,110,160,270,1.4545,100,130,230,1.3,105,59
900,180,700,150,590,740,3.9333,130,410,540,3.1538,120,310,430,2.5833,110,220,330,2,90,170,260,1.8889,70,150,220,2.1429,105,59
870,200,640,180,410,590,2.2778,160,260,420,1.625,130,220,350,1.6923,130,170,300,1.3077,110,130,240,1.1818,90,110,200,1.2222,105,58
860,230,650,210,490,700,2.3333,170,340,510,2,160,280,440,1.75,130,200,330,1.5385,120,150,270,1.25,100,130,230,1.3,105,58
930,210,720,180,530,710,2.9444,150,370,520,2.4667,140,300,440,2.1429,120,220,340,1.8333,100,170,270,1.7,90,150,240,1.6667,105,59
880,210,660,180,480,660,2.6667,160,310,470,1.9375,150,250,400,1.6667,130,190,320,1.4615,110,150,260,1.3636,100,120,220,1.2,105,59
880,220,670,180,540,720,3,160,340,500,2.125,150,270,420,1.8,130,190,320,1.4615,110,150,260,1.3636,100,120,220,1.2,105,58
900,210,670,170,550,720,3.2353,150,340,490,2.2667,140,270,410,1.9286,120,190,310,1.5833,110,150,260,1.3636,80,130,210,1.625,105,58
870,230,650,190,530,720,2.7895,170,330,500,1.9412,160,260,420,1.625,130,180,310,1.3846,120,140,260,1.1667,100,120,220,1.2,105,58
930,220,710,210,510,720,2.4286,170,350,520,2.0588,160,290,450,1.8125,140,200,340,1.4286,120,150,270,1.25,110,130,240,1.1818,105,59
880,220,660,180,490,670,2.7222,160,310,470,1.9375,150,250,400,1.6667,130,190,320,1.4615,120,150,270,1.25,100,130,230,1.3,105,59
880,220,660,190,460,650,2.4211,170,290,460,1.7059,160,250,410,1.5625,140,170,310,1.2143,120,130,250,1.0833,110,110,220,1,105,59
880,220,640,190,530,720,2.7895,170,290,460,1.7059,150,250,400,1.6667,130,180,310,1.3846,120,150,270,1.25,100,120,220,1.2,105,58
920,240,690,190,490,680,2.5789,160,330,490,2.0625,160,260,420,1.625,130,190,320,1.4615,120,140,260,1.1667,100,130,230,1.3,105,58
920,230,700,210,490,700,2.3333,170,330,500,1.9412,170,280,450,1.6471,140,210,350,1.5,130,150,280,1.1538,110,130,240,1.1818,105,59
880,220,660,210,510,720,2.4286,170,360,530,2.1176,160,290,450,1.8125,140,200,340,1.4286,120,150,270,1.25,110,130,240,1.1818,105,59
780,220,670,190,680,870,3.5789,170,390,560,2.2941,150,310,460,2.0667,130,210,340,1.6154,120,160,280,1.3333,100,130,230,1.3,105,59
970,110,750,70,760,830,10.857,50,560,610,11.2,40,470,510,11.75,40,330,370,8.25,20,280,300,14,20,250,270,12.5,105,58
880,220,670,190,500,690,2.6316,160,330,490,2.0625,160,260,420,1.625,130,190,320,1.4615,120,150,270,1.25,100,130,230,1.3,105,58
930,210,710,230,500,730,2.1739,200,390,590,1.95,170,370,540,2.1765,150,240,390,1.6,120,170,290,1.4167,110,140,250,1.2727,105,59
860,220,650,180,550,730,3.0556,160,350,510,2.1875,150,290,440,1.9333,130,200,330,1.5385,110,150,260,1.3636,100,130,230,1.3,105,59
890,210,630,180,480,660,2.6667,160,320,480,2,150,260,410,1.7333,130,190,320,1.4615,110,150,260,1.3636,100,120,220,1.2,105,58
880,260,650,210,660,870,3.1429,170,410,580,2.4118,160,320,480,2,140,210,350,1.5,120,150,270,1.25,110,130,240,1.1818,105,58
900,230,690,200,500,700,2.5,170,340,510,2,160,270,430,1.6875,140,190,330,1.3571,120,150,270,1.25,110,120,230,1.0909,105,58
940,210,720,220,510,730,2.3182,160,330,490,2.0625,150,260,410,1.7333,130,190,320,1.4615,110,140,250,1.2727,100,110,210,1.1,106,59
870,220,660,190,540,730,2.8421,160,340,500,2.125,160,260,420,1.625,130,190,320,1.4615,120,140,260,1.1667,100,120,220,1.2,105,58
900,210,680,180,640,820,3.5556,150,390,540,2.6,150,320,470,2.1333,120,190,310,1.5833,110,150,260,1.3636,90,130,220,1.4444,105,58
890,220,660,190,550,740,2.8947,160,350,510,2.1875,160,280,440,1.75,130,190,320,1.4615,120,150,270,1.25,100,130,230,1.3,105,58
910,230,690,250,530,780,2.12,180,410,590,2.2778,180,330,510,1.8333,150,210,360,1.4,130,160,290,1.2308,110,130,240,1.1818,105,58
950,220,710,240,610,850,2.5417,210,440,650,2.0952,170,360,530,2.1176,150,230,380,1.5333,130,170,300,1.3077,110,130,240,1.1818,105,58
860,240,630,200,640,840,3.2,170,640,810,3.7647,160,640,800,4,140,270,410,1.9286,120,140,260,1.1667,110,110,220,1,105,58
890,230,670,170,680,850,4,170,680,850,4,160,460,620,2.875,140,240,380,1.7143,110,170,280,1.5455,100,140,240,1.4,105,58
900,220,670,190,510,700,2.6842,150,350,500,2.3333,150,290,440,1.9333,130,210,340,1.6154,110,160,270,1.4545,90,140,230,1.5556,105,58
920,230,690,250,470,720,1.88,250,320,570,1.28,200,250,450,1.25,160,170,330,1.0625,130,130,260,1,130,110,240,0.84615,105,58
880,230,660,250,530,780,2.12,170,380,550,2.2353,170,330,500,1.9412,140,230,370,1.6429,120,170,290,1.4167,110,140,250,1.2727,105,58
860,220,640,180,650,830,3.6111,170,650,820,3.8235,150,420,570,2.8,130,190,320,1.4615,120,140,260,1.1667,100,120,220,1.2,104,58
860,220,630,190,580,770,3.0526,160,360,520,2.25,150,290,440,1.9333,130,200,330,1.5385,110,150,260,1.3636,100,130,230,1.3,104,58
850,230,630,190,640,830,3.3684,170,400,570,2.3529,160,320,480,2,130,210,340,1.6154,110,160,270,1.4545,100,130,230,1.3,105,58
860,220,650,240,500,740,2.0833,200,360,560,1.8,170,300,470,1.7647,140,210,350,1.5,130,160,290,1.2308,110,130,240,1.1818,105,58
850,210,640,200,500,700,2.5,160,340,500,2.125,160,280,440,1.75,130,200,330,1.5385,120,140,260,1.1667,100,120,220,1.2,104,58
850,210,640,170,560,730,3.2941,150,350,500,2.3333,140,270,410,1.9286,130,190,320,1.4615,110,150,260,1.3636,90,130,220,1.4444,104,58
840,210,620,180,540,720,3,160,350,510,2.1875,150,290,440,1.9333,130,200,330,1.5385,110,150,260,1.3636,100,130,230,1.3,104,58
830,220,610,190,600,790,3.1579,170,360,530,2.1176,160,290,450,1.8125,140,200,340,1.4286,120,150,270,1.25,100,120,220,1.2,104,58
850,220,650,240,510,750,2.125,170,370,540,2.1765,170,310,480,1.8235,140,210,350,1.5,120,160,280,1.3333,100,130,230,1.3,104,58
880,200,670,180,490,670,2.7222,150,320,470,2.1333,140,270,410,1.9286,120,200,320,1.6667,100,160,260,1.6,90,130,220,1.4444,104,58
850,210,640,180,520,700,2.8889,160,330,490,2.0625,150,260,410,1.7333,130,180,310,1.3846,110,130,240,1.1818,100,110,210,1.1,104,58
880,210,650,170,570,740,3.3529,140,360,500,2.5714,140,280,420,2,120,200,320,1.6667,100,150,250,1.5,90,140,230,1.5556,104,58
840,230,620,190,590,780,3.1053,160,370,530,2.3125,150,290,440,1.9333,140,200,340,1.4286,110,150,260,1.3636,110,120,230,1.0909,104,58
910,220,700,240,530,770,2.2083,180,390,570,2.1667,160,320,480,2,140,220,360,1.5714,110,160,270,1.4545,100,140,240,1.4,105,59
830,210,600,180,480,660,2.6667,160,320,480,2,140,260,400,1.8571,130,190,320,1.4615,100,140,240,1.4,100,120,220,1.2,104,59
870,230,650,180,490,670,2.7222,160,330,490,2.0625,150,260,410,1.7333,130,180,310,1.3846,110,140,250,1.2727,100,120,220,1.2,104,59
840,220,620,190,590,780,3.1053,160,360,520,2.25,160,270,430,1.6875,140,190,330,1.3571,120,140,260,1.1667,110,130,240,1.1818,104,59
860,220,640,180,650,830,3.6111,160,420,580,2.625,150,330,480,2.2,130,220,350,1.6923,110,170,280,1.5455,90,140,230,1.5556,104,59
860,220,650,240,500,740,2.0833,170,360,530,2.1176,170,290,460,1.7059,130,200,330,1.5385,130,160,290,1.2308,110,120,230,1.0909,105,59
870,210,660,230,500,730,2.1739,180,380,560,2.1111,160,300,460,1.875,140,200,340,1.4286,120,140,260,1.1667,110,120,230,1.0909,105,59
880,210,660,180,550,730,3.0556,150,350,500,2.3333,150,270,420,1.8,120,190,310,1.5833,110,150,260,1.3636,90,120,210,1.3333,105,59
870,220,650,190,570,760,3,160,360,520,2.25,150,280,430,1.8667,130,190,320,1.4615,110,150,260,1.3636,100,120,220,1.2,105,59
870,220,640,180,650,830,3.6111,150,460,610,3.0667,140,370,510,2.6429,140,220,360,1.5714,110,160,270,1.4545,100,130,230,1.3,105,59
870,230,660,250,520,770,2.08,180,370,550,2.0556,170,300,470,1.7647,140,210,350,1.5,120,160,280,1.3333,110,130,240,1.1818,105,59
880,210,670,200,480,680,2.4,160,300,460,1.875,150,240,390,1.6,130,180,310,1.3846,110,150,260,1.3636,90,130,220,1.4444,105,59
870,210,650,180,560,740,3.1111,160,350,510,2.1875,150,270,420,1.8,130,190,320,1.4615,110,150,260,1.3636,100,120,220,1.2,105,59
840,220,620,190,630,820,3.3158,160,350,510,2.1875,150,270,420,1.8,130,190,320,1.4615,110,150,260,1.3636,110,120,230,1.0909,105,59
1750,220,1540,180,1360,1540,7.5556,160,960,1120,6,150,780,930,5.2,130,220,350,1.6923,110,160,270,1.4545,100,140,240,1.4,105,59
880,210,650,230,520,750,2.2609,230,300,530,1.3043,180,240,420,1.3333,140,190,330,1.3571,130,140,270,1.0769,120,120,240,1,105,59
850,230,620,190,630,820,3.3158,170,530,700,3.1176,160,410,570,2.5625,140,230,370,1.6429,120,150,270,1.25,100,120,220,1.2,105,59
820,230,620,190,630,820,3.3158,160,610,770,3.8125,160,490,650,3.0625,150,210,360,1.4,120,150,270,1.25,110,110,220,1,105,59
860,200,650,170,480,650,2.8235,150,330,480,2.2,140,270,410,1.9286,130,200,330,1.5385,90,160,250,1.7778,90,130,220,1.4444,105,59
850,210,660,230,630,860,2.7391,200,480,680,2.4,180,390,570,2.1667,140,240,380,1.7143,120,180,300,1.5,110,150,260,1.3636,106,59
860,190,650,180,480,660,2.6667,160,310,470,1.9375,150,260,410,1.7333,120,180,300,1.5,110,140,250,1.2727,90,120,210,1.3333,105,59
860,210,640,180,590,770,3.2778,160,350,510,2.1875,150,270,420,1.8,130,190,320,1.4615,110,140,250,1.2727,100,120,220,1.2,105,59
850,220,630,180,580,760,3.2222,160,380,540,2.375,160,300,460,1.875,130,210,340,1.6154,110,150,260,1.3636,100,140,240,1.4,105,59
860,220,650,180,480,660,2.6667,160,320,480,2,150,260,410,1.7333,130,190,320,1.4615,110,150,260,1.3636,100,130,230,1.3,105,59
850,210,640,230,490,720,2.1304,190,430,620,2.2632,170,350,520,2.0588,150,230,380,1.5333,120,160,280,1.3333,110,140,250,1.2727,105,59
860,210,650,180,470,650,2.6111,160,320,480,2,150,260,410,1.7333,120,190,310,1.5833,110,150,260,1.3636,90,130,220,1.4444,106,59
850,210,630,180,500,680,2.7778,160,320,480,2,150,250,400,1.6667,130,180,310,1.3846,110,140,250,1.2727,100,120,220,1.2,106,59
850,220,620,180,630,810,3.5,150,420,570,2.8,150,320,470,2.1333,120,210,330,1.75,100,150,250,1.5,90,130,220,1.4444,106,59
850,230,620,190,500,690,2.6316,160,320,480,2,160,260,420,1.625,130,190,320,1.4615,120,140,260,1.1667,110,120,230,1.0909,106,60
880,230,660,250,490,740,1.96,180,340,520,1.8889,170,280,450,1.6471,140,210,350,1.5,120,160,280,1.3333,110,130,240,1.1818,107,60
880,220,660,180,480,660,2.6667,160,300,460,1.875,150,250,400,1.6667,130,190,320,1.4615,110,140,250,1.2727,100,120,220,1.2,107,60
880,220,550,170,490,660,2.8824,160,330,490,2.0625,150,260,410,1.7333,130,180,310,1.3846,110,140,250,1.2727,90,120,210,1.3333,107,60
880,330,650,190,570,760,3,160,370,530,2.3125,150,290,440,1.9333,130,200,330,1.5385,120,150,270,1.25,100,130,230,1.3,107,60
840,230,650,200,540,740,2.7,170,340,510,2,160,270,430,1.6875,140,190,330,1.3571,130,140,270,1.0769,110,120,230,1.0909,107,60
970,190,760,210,550,760,2.619,140,380,520,2.7143,130,310,440,2.3846,110,230,340,2.0909,90,170,260,1.8889,70,140,210,2,108,61
880,210,670,180,500,680,2.7778,160,320,480,2,150,260,410,1.7333,130,190,320,1.4615,110,150,260,1.3636,100,120,220,1.2,108,61
880,210,650,180,580,760,3.2222,160,360,520,2.25,140,280,420,2,130,190,320,1.4615,110,140,250,1.2727,100,120,220,1.2,108,60
880,230,660,180,600,780,3.3333,160,390,550,2.4375,150,300,450,2,130,200,330,1.5385,100,160,260,1.6,100,130,230,1.3,108,60
880,220,670,180,520,700,2.8889,160,370,530,2.3125,150,280,430,1.8667,140,200,340,1.4286,110,170,280,1.5455,100,130,230,1.3,109,61
910,210,700,230,530,760,2.3043,170,360,530,2.1176,160,290,450,1.8125,130,210,340,1.6154,100,160,260,1.6,100,150,250,1.5,108,60
900,210,690,170,510,680,3,160,330,490,2.0625,150,260,410,1.7333,130,180,310,1.3846,110,140,250,1.2727,90,120,210,1.3333,108,60
890,210,670,180,540,720,3,150,350,500,2.3333,150,270,420,1.8,130,190,320,1.4615,110,150,260,1.3636,100,120,220,1.2,108,60
890,220,660,190,580,770,3.0526,160,350,510,2.1875,150,280,430,1.8667,130,200,330,1.5385,120,150,270,1.25,100,130,230,1.3,108,60
880,230,670,190,500,690,2.6316,170,340,510,2,160,280,440,1.75,140,190,330,1.3571,120,140,260,1.1667,110,130,240,1.1818,108,60
930,210,720,230,530,760,2.3043,170,360,530,2.1176,160,290,450,1.8125,130,200,330,1.5385,120,160,280,1.3333,100,130,230,1.3,108,60
880,210,670,180,680,860,3.7778,150,420,570,2.8,140,280,420,2,120,200,320,1.6667,100,160,260,1.6,90,130,220,1.4444,107,60
880,210,670,180,490,670,2.7222,150,320,470,2.1333,140,260,400,1.8571,130,190,320,1.4615,110,150,260,1.3636,100,120,220,1.2,107,59
890,210,670,180,580,760,3.2222,160,360,520,2.25,150,280,430,1.8667,130,200,330,1.5385,110,170,280,1.5455,100,130,230,1.3,107,59
920,220,720,240,610,850,2.5417,190,430,620,2.2632,180,350,530,1.9444,150,230,380,1.5333,130,160,290,1.2308,110,140,250,1.2727,107,59
940,200,710,220,520,740,2.3636,170,360,530,2.1176,150,300,450,2,140,200,340,1.4286,110,150,260,1.3636,110,130,240,1.1818,107,59
860,230,640,200,650,850,3.25,170,650,820,3.8235,170,510,680,3,140,280,420,2,120,170,290,1.4167,110,140,250,1.2727,107,59
870,220,640,190,560,750,2.9474,160,360,520,2.25,150,280,430,1.8667,140,200,340,1.4286,110,150,260,1.3636,110,130,240,1.1818,106,59
880,230,640,190,540,730,2.8421,170,360,530,2.1176,160,290,450,1.8125,140,210,350,1.5,120,160,280,1.3333,100,130,230,1.3,106,59
870,240,650,260,510,770,1.9615,190,360,550,1.8947,180,310,490,1.7222,150,210,360,1.4,130,160,290,1.2308,120,120,240,1,107,59
880,220,650,210,530,740,2.5238,170,360,530,2.1176,160,290,450,1.8125,140,200,340,1.4286,120,150,270,1.25,100,130,230,1.3,106,59
860,230,640,190,520,710,2.7368,170,350,520,2.0588,160,280,440,1.75,130,190,320,1.4615,120,140,260,1.1667,110,120,230,1.0909,106,59
890,220,630,190,530,720,2.7895,170,350,520,2.0588,160,280,440,1.75,140,190,330,1.3571,120,150,270,1.25,110,120,230,1.0909,106,59
850,260,620,220,630,850,2.8636,200,430,630,2.15,190,330,520,1.7368,160,200,360,1.25,140,150,290,1.0714,120,110,230,0.91667,106,59
900,230,690,250,530,780,2.12,190,370,560,1.9474,170,310,480,1.8235,150,210,360,1.4,130,160,290,1.2308,120,130,250,1.0833,106,59
1780,210,680,190,500,690,2.6316,160,350,510,2.1875,150,300,450,2,140,220,360,1.5714,110,160,270,1.4545,100,140,240,1.4,107,59
880,1100,550,920,560,1480,0.6087,410,420,830,1.0244,230,330,560,1.4348,190,210,400,1.1053,150,160,310,1.0667,110,130,240,1.1818,107,59
840,330,610,210,620,830,2.9524,180,420,600,2.3333,170,290,460,1.7059,150,180,330,1.2,130,130,260,1,120,110,230,0.91667,107,59
880,230,670,250,530,780,2.12,180,370,550,2.0556,170,290,460,1.7059,140,200,340,1.4286,130,150,280,1.1538,110,130,240,1.1818,107,59
880,210,660,230,490,720,2.1304,180,300,480,1.6667,170,250,420,1.4706,140,170,310,1.2143,130,110,240,0.84615,110,80,190,0.72727,107,59
880,220,640,190,490,680,2.5789,170,340,510,2,150,280,430,1.8667,130,190,320,1.4615,110,130,240,1.1818,100,110,210,1.1,107,59
870,240,640,200,650,850,3.25,170,570,740,3.3529,160,440,600,2.75,140,210,350,1.5,120,150,270,1.25,110,130,240,1.1818,107,59
860,230,640,200,620,820,3.1,170,400,570,2.3529,160,320,480,2,140,210,350,1.5,120,160,280,1.3333,100,130,230,1.3,107,59
920,220,700,240,610,850,2.5417,210,440,650,2.0952,180,360,540,2,150,230,380,1.5333,130,160,290,1.2308,110,140,250,1.2727,107,60
870,220,650,190,500,690,2.6316,170,330,500,1.9412,160,270,430,1.6875,140,190,330,1.3571,120,140,260,1.1667,100,120,220,1.2,107,60
890,220,630,190,530,720,2.7895,170,370,540,2.1765,160,290,450,1.8125,140,190,330,1.3571,120,140,260,1.1667,110,120,230,1.0909,106,59
850,260,620,220,630,850,2.8636,190,400,590,2.1053,180,310,490,1.7222,150,190,340,1.2667,140,130,270,0.92857,120,120,240,1,106,59
870,230,650,180,610,790,3.3889,170,390,560,2.2941,160,320,480,2,140,210,350,1.5,120,150,270,1.25,110,130,240,1.1818,106,59
880,220,670,240,490,730,2.0417,240,340,580,1.4167,190,320,510,1.6842,150,240,390,1.6,130,160,290,1.2308,120,140,260,1.1667,107,60
890,210,680,180,520,700,2.8889,160,350,510,2.1875,140,280,420,2,130,200,330,1.5385,110,150,260,1.3636,100,120,220,1.2,106,60
890,210,570,190,550,740,2.8947,160,370,530,2.3125,150,290,440,1.9333,130,200,330,1.5385,110,150,260,1.3636,100,120,220,1.2,106,60
860,320,620,240,630,870,2.625,190,470,660,2.4737,170,360,530,2.1176,150,220,370,1.4667,120,160,280,1.3333,120,130,250,1.0833,106,60
850,240,640,200,560,760,2.8,180,380,560,2.1111,170,300,470,1.7647,150,200,350,1.3333,130,150,280,1.1538,110,120,230,1.0909,107,60
880,210,660,230,480,710,2.087,200,310,510,1.55,180,250,430,1.3889,150,170,320,1.1333,120,110,230,0.91667,110,80,190,0.72727,107,60
870,220,640,190,500,690,2.6316,170,330,500,1.9412,150,270,420,1.8,140,200,340,1.4286,120,140,260,1.1667,110,110,220,1,107,60
870,230,630,190,640,830,3.3684,170,420,590,2.4706,160,290,450,1.8125,140,200,340,1.4286,110,150,260,1.3636,100,120,220,1.2,107,60
860,240,610,200,620,820,3.1,170,370,540,2.1765,170,290,460,1.7059,150,190,340,1.2667,130,140,270,1.0769,120,120,240,1,107,60
860,250,660,200,520,720,2.6,180,360,540,2,170,290,460,1.7059,150,200,350,1.3333,120,150,270,1.25,110,120,230,1.0909,107,60
890,200,680,220,510,730,2.3182,190,360,550,1.8947,170,290,460,1.7059,150,210,360,1.4,130,160,290,1.2308,110,140,250,1.2727,108,60
880,210,660,170,520,690,3.0588,160,350,510,2.1875,150,280,430,1.8667,140,200,340,1.4286,110,150,260,1.3636,100,120,220,1.2,108,60
870,220,640,180,650,830,3.6111,160,460,620,2.875,150,370,520,2.4667,140,250,390,1.7857,110,190,300,1.7273,100,160,260,1.6,108,60
860,230,630,200,640,840,3.2,170,400,570,2.3529,170,300,470,1.7647,140,210,350,1.5,130,150,280,1.1538,110,130,240,1.1818,108,60
860,230,650,220,500,720,2.2727,180,390,570,2.1667,170,330,500,1.9412,150,220,370,1.4667,120,160,280,1.3333,110,130,240,1.1818,109,61
890,210,680,230,520,750,2.2609,180,370,550,2.0556,170,290,460,1.7059,140,210,350,1.5,120,160,280,1.3333,110,130,240,1.1818,109,61
890,210,670,180,560,740,3.1111,160,360,520,2.25,130,290,420,2.2308,130,200,330,1.5385,110,160,270,1.4545,100,120,220,1.2,109,61
870,220,630,200,640,840,3.2,170,430,600,2.5294,160,340,500,2.125,140,210,350,1.5,110,150,260,1.3636,110,130,240,1.1818,109,61
850,240,620,190,630,820,3.3158,170,400,570,2.3529,160,320,480,2,140,200,340,1.4286,120,160,280,1.3333,100,120,220,1.2,109,61
870,230,650,220,500,720,2.2727,180,350,530,1.9444,160,280,440,1.75,140,190,330,1.3571,120,150,270,1.25,110,130,240,1.1818,110,61
880,220,670,240,520,760,2.1667,180,360,540,2,170,280,450,1.6471,140,200,340,1.4286,130,150,280,1.1538,110,120,230,1.0909,110,61
860,210,640,180,600,780,3.3333,160,340,500,2.125,150,280,430,1.8667,140,190,330,1.3571,110,140,250,1.2727,100,120,220,1.2,109,61
860,220,640,180,560,740,3.1111,160,370,530,2.3125,150,290,440,1.9333,130,200,330,1.5385,110,150,260,1.3636,100,130,230,1.3,109,61
840,220,620,190,630,820,3.3158,170,400,570,2.3529,160,320,480,2,140,200,340,1.4286,120,150,270,1.25,100,120,220,1.2,110,61
870,220,660,200,520,720,2.6,170,370,540,2.1765,160,310,470,1.9375,140,210,350,1.5,120,160,280,1.3333,100,130,230,1.3,110,61
870,210,650,230,500,730,2.1739,180,350,530,1.9444,170,290,460,1.7059,140,200,340,1.4286,130,150,280,1.1538,110,120,230,1.0909,110,61
870,220,640,190,490,680,2.5789,160,300,460,1.875,150,230,380,1.5333,130,180,310,1.3846,120,140,260,1.1667,100,110,210,1.1,110,61
860,230,630,190,560,750,2.9474,170,360,530,2.1176,160,280,440,1.75,140,190,330,1.3571,110,150,260,1.3636,100,120,220,1.2,109,61
850,230,630,190,640,830,3.3684,170,410,580,2.4118,160,330,490,2.0625,130,210,340,1.6154,120,150,270,1.25,100,130,230,1.3,109,61
860,220,660,190,520,710,2.7368,170,380,550,2.2353,160,320,480,2,140,210,350,1.5,110,160,270,1.4545,100,130,230,1.3,109,61
840,200,640,220,500,720,2.2727,170,340,510,2,160,280,440,1.75,130,200,330,1.5385,110,150,260,1.3636,100,140,240,1.4,109,61
880,200,660,170,500,670,2.9412,150,310,460,2.0667,140,250,390,1.7857,120,180,300,1.5,100,130,230,1.3,90,100,190,1.1111,109,61
1730,220,640,190,580,770,3.0526,160,370,530,2.3125,160,290,450,1.8125,130,190,320,1.4615,120,140,260,1.1667,100,120,220,1.2,109,61
850,1090,640,1050,580,1630,0.55238,1000,390,1390,0.39,880,320,1200,0.36364,750,210,960,0.28,670,150,820,0.22388,610,130,740,0.21311,109,61
860,210,640,230,500,730,2.1739,180,340,520,1.8889,170,280,450,1.6471,140,200,340,1.4286,120,150,270,1.25,110,120,230,1.0909,109,61
850,220,640,190,530,720,2.7895,160,340,500,2.125,160,270,430,1.6875,130,180,310,1.3846,110,140,250,1.2727,100,120,220,1.2,109,61
850,210,630,180,540,720,3,160,350,510,2.1875,140,290,430,2.0714,130,200,330,1.5385,110,150,260,1.3636,90,130,220,1.4444,108,61
840,220,600,180,610,790,3.3889,170,440,610,2.5882,150,360,510,2.4,140,240,380,1.7143,110,180,290,1.6364,90,140,230,1.5556,108,61
840,240,630,200,500,700,2.5,180,360,540,2,170,300,470,1.7647,140,200,340,1.4286,120,150,270,1.25,110,120,230,1.0909,108,61
860,210,650,230,520,750,2.2609,190,400,590,2.1053,170,330,500,1.9412,140,210,350,1.5,120,160,280,1.3333,110,140,250,1.2727,109,61
850,210,640,170,490,660,2.8824,160,330,490,2.0625,150,260,410,1.7333,130,190,320,1.4615,110,140,250,1.2727,100,120,220,1.2,109,61
870,210,630,180,580,760,3.2222,160,370,530,2.3125,150,290,440,1.9333,130,200,330,1.5385,110,150,260,1.3636,90,140,230,1.5556,108,61
820,240,600,200,610,810,3.05,180,470,650,2.6111,160,350,510,2.1875,150,210,360,1.4,120,150,270,1.25,110,130,240,1.1818,109,61
850,220,640,180,520,700,2.8889,160,390,550,2.4375,150,330,480,2.2,130,230,360,1.7692,110,170,280,1.5455,100,140,240,1.4,109,61
860,210,650,230,490,720,2.1304,230,360,590,1.5652,180,350,530,1.9444,150,230,380,1.5333,120,170,290,1.4167,110,140,250,1.2727,109,61
860,210,640,170,510,680,3,160,340,500,2.125,150,270,420,1.8,130,180,310,1.3846,110,140,250,1.2727,90,120,210,1.3333,109,61
860,220,630,190,550,740,2.8947,160,360,520,2.25,150,280,430,1.8667,120,190,310,1.5833,110,160,270,1.4545,110,130,240,1.1818,109,61
840,230,620,190,630,820,3.3158,180,550,730,3.0556,170,410,580,2.4118,150,230,380,1.5333,130,170,300,1.3077,110,130,240,1.1818,109,61
840,220,630,190,500,690,2.6316,170,360,530,2.1176,160,290,450,1.8125,130,200,330,1.5385,120,150,270,1.25,100,130,230,1.3,109,61
870,210,660,230,470,700,2.0435,230,290,520,1.2609,180,230,410,1.2778,150,190,340,1.2667,120,160,280,1.3333,100,130,230,1.3,110,61
880,210,660,180,550,730,3.0556,160,360,520,2.25,150,290,440,1.9333,130,190,320,1.4615,110,140,250,1.2727,90,120,210,1.3333,109,61
890,220,470,190,480,670,2.5263,160,380,540,2.375,160,290,450,1.8125,130,190,320,1.4615,120,150,270,1.25,100,120,220,1.2,109,61
870,420,640,420,650,1070,1.5476,180,560,740,3.1111,170,370,540,2.1765,150,220,370,1.4667,130,160,290,1.2308,120,130,250,1.0833,109,61
870,230,650,200,520,720,2.6,170,360,530,2.1176,160,300,460,1.875,140,210,350,1.5,120,150,270,1.25,110,130,240,1.1818,109,61
890,220,680,240,510,750,2.125,240,360,600,1.5,200,280,480,1.4,170,190,360,1.1176,150,150,300,1,140,120,260,0.85714,109,61
890,210,670,180,530,710,2.9444,150,350,500,2.3333,150,280,430,1.8667,120,190,310,1.5833,110,150,260,1.3636,90,130,220,1.4444,109,61
880,220,650,180,660,840,3.6667,160,490,650,3.0625,150,390,540,2.6,130,250,380,1.9231,110,150,260,1.3636,90,130,220,1.4444,109,61
870,230,640,190,650,840,3.4211,170,410,580,2.4118,160,320,480,2,130,210,340,1.6154,120,160,280,1.3333,100,130,230,1.3,109,61
860,230,660,250,510,760,2.04,190,420,610,2.2105,180,350,530,1.9444,150,220,370,1.4667,130,160,290,1.2308,120,140,260,1.1667,109,61
880,200,670,220,520,740,2.3636,160,360,520,2.25,150,290,440,1.9333,130,210,340,1.6154,100,160,260,1.6,100,140,240,1.4,109,61
880,210,660,180,520,700,2.8889,150,360,510,2.4,140,280,420,2,130,200,330,1.5385,100,160,260,1.6,90,120,210,1.3333,109,61
850,220,620,180,630,810,3.5,160,400,560,2.5,150,320,470,2.1333,130,200,330,1.5385,110,150,260,1.3636,100,120,220,1.2,108,61
860,230,520,190,530,720,2.7895,150,450,600,3,150,330,480,2.2,140,210,350,1.5,110,150,260,1.3636,100,130,230,1.3,108,60
860,340,650,360,510,870,1.4167,360,370,730,1.0278,210,290,500,1.381,170,240,410,1.4118,140,170,310,1.2143,130,140,270,1.0769,109,61
850,210,640,190,500,690,2.6316,170,330,500,1.9412,160,270,430,1.6875,140,190,330,1.3571,120,140,260,1.1667,110,120,230,1.0909,109,61
870,210,560,170,560,730,3.2941,160,370,530,2.3125,140,290,430,2.0714,120,200,320,1.6667,100,150,250,1.5,90,130,220,1.4444,108,61
850,310,630,200,640,840,3.2,170,390,560,2.2941,160,310,470,1.9375,140,200,340,1.4286,120,150,270,1.25,110,120,230,1.0909,109,61
860,220,640,190,650,840,3.4211,160,420,580,2.625,160,330,490,2.0625,140,220,360,1.5714,120,150,270,1.25,100,130,230,1.3,109,61
860,220,650,240,480,720,2,180,300,480,1.6667,170,240,410,1.4118,140,160,300,1.1429,130,90,220,0.69231,110,60,170,0.54545,109,61
860,210,660,230,530,760,2.3043,170,350,520,2.0588,160,290,450,1.8125,140,200,340,1.4286,120,150,270,1.25,110,130,240,1.1818,109,61
880,200,660,170,620,790,3.6471,140,420,560,3,140,290,430,2.0714,110,200,310,1.8182,100,160,260,1.6,80,140,220,1.75,109,61
860,220,630,190,560,750,2.9474,170,360,530,2.1176,160,280,440,1.75,140,190,330,1.3571,120,140,260,1.1667,100,120,220,1.2,109,61
850,230,630,200,640,840,3.2,170,420,590,2.4706,160,310,470,1.9375,140,200,340,1.4286,120,140,260,1.1667,110,120,230,1.0909,110,61
870,220,650,240,520,760,2.1667,170,390,560,2.2941,160,340,500,2.125,130,220,350,1.6923,120,170,290,1.4167,100,150,250,1.5,110,61
890,220,680,240,500,740,2.0833,170,350,520,2.0588,160,280,440,1.75,140,190,330,1.3571,120,140,260,1.1667,110,120,230,1.0909,110,61
880,210,650,180,520,700,2.8889,160,310,470,1.9375,150,240,390,1.6,130,170,300,1.3077,110,130,240,1.1818,100,120,220,1.2,109,61
850,230,640,190,550,740,2.8947,160,340,500,2.125,160,270,430,1.6875,140,180,320,1.2857,120,130,250,1.0833,110,110,220,1,109,61
880,210,660,180,670,850,3.7222,150,480,630,3.2,140,320,460,2.2857,130,210,340,1.6154,100,160,260,1.6,90,140,230,1.5556,110,61
870,220,670,220,520,740,2.3636,180,380,560,2.1111,150,320,470,2.1333,140,220,360,1.5714,120,160,280,1.3333,110,130,240,1.1818,110,61
900,200,490,220,300,520,1.3636,170,300,470,1.7647,160,280,440,1.75,130,200,330,1.5385,120,140,260,1.1667,100,130,230,1.3,109,61
900,410,680,190,620,810,3.2632,160,390,550,2.4375,150,310,460,2.0667,130,200,330,1.5385,110,150,260,1.3636,100,120,220,1.2,109,61
860,220,640,190,570,760,3,170,370,540,2.1765,150,290,440,1.9333,130,200,330,1.5385,120,140,260,1.1667,100,130,230,1.3,109,61
880,220,650,190,660,850,3.4737,160,400,560,2.5,150,330,480,2.2,130,230,360,1.7692,110,170,280,1.5455,100,150,250,1.5,109,61
870,230,660,200,510,710,2.55,170,380,550,2.2353,160,310,470,1.9375,150,190,340,1.2667,120,150,270,1.25,110,130,240,1.1818,109,61
880,210,670,230,510,740,2.2174,230,430,660,1.8696,190,390,580,2.0526,150,240,390,1.6,130,170,300,1.3077,110,140,250,1.2727,109,61
860,210,640,180,520,700,2.8889,170,330,500,1.9412,150,260,410,1.7333,140,180,320,1.2857,120,130,250,1.0833,100,110,210,1.1,109,61
850,220,630,190,620,810,3.2632,160,380,540,2.375,160,300,460,1.875,130,200,330,1.5385,120,150,270,1.25,100,130,230,1.3,108,61
840,220,630,190,640,830,3.3684,160,620,780,3.875,150,440,590,2.9333,130,250,380,1.9231,120,170,290,1.4167,110,130,240,1.1818,109,61
870,210,660,230,520,750,2.2609,170,380,550,2.2353,170,320,490,1.8824,130,230,360,1.7692,110,170,280,1.5455,90,150,240,1.6667,109,61
850,210,630,230,470,700,2.0435,170,290,460,1.7059,160,240,400,1.5,130,200,330,1.5385,120,150,270,1.25,100,130,230,1.3,109,61
850,220,640,170,520,690,3.0588,160,340,500,2.125,140,260,400,1.8571,130,190,320,1.4615,110,140,250,1.2727,90,130,220,1.4444,109,61
860,210,560,170,570,740,3.3529,160,360,520,2.25,140,280,420,2,130,200,330,1.5385,110,150,260,1.3636,100,120,220,1.2,109,61
830,300,610,200,620,820,3.1,180,430,610,2.3889,160,330,490,2.0625,150,220,370,1.4667,120,150,270,1.25,110,120,230,1.0909,109,61
860,220,650,240,510,750,2.125,190,370,560,1.9474,170,310,480,1.8235,150,210,360,1.4,120,160,280,1.3333,110,130,240,1.1818,109,61
860,210,650,230,460,690,2,180,290,470,1.6111,170,230,400,1.3529,140,170,310,1.2143,120,120,240,1,110,90,200,0.81818,109,61
870,210,650,180,500,680,2.7778,150,310,460,2.0667,150,250,400,1.6667,120,190,310,1.5833,110,150,260,1.3636,100,120,220,1.2,109,61
860,220,630,190,640,830,3.3684,170,520,690,3.0588,150,310,460,2.0667,140,200,340,1.4286,110,160,270,1.4545,100,120,220,1.2,109,61
860,230,630,200,640,840,3.2,170,410,580,2.4118,160,310,470,1.9375,150,200,350,1.3333,120,140,260,1.1667,110,120,230,1.0909,109,61
890,230,680,250,530,780,2.12,190,390,580,2.0526,170,320,490,1.8824,150,210,360,1.4,130,160,290,1.2308,120,130,250,1.0833,109,61
910,210,690,220,530,750,2.4091,170,360,530,2.1176,150,300,450,2,140,200,340,1.4286,110,150,260,1.3636,110,120,230,1.0909,110,62
870,220,650,180,570,750,3.1667,160,360,520,2.25,150,300,450,2,140,200,340,1.4286,110,160,270,1.4545,100,130,230,1.3,110,62
890,220,660,180,670,850,3.7222,160,470,630,2.9375,150,380,530,2.5333,130,250,380,1.9231,110,190,300,1.7273,100,170,270,1.7,110,62
880,230,660,190,670,860,3.5263,170,410,580,2.4118,160,320,480,2,140,210,350,1.5,120,160,280,1.3333,110,120,230,1.0909,110,62
930,220,710,240,510,750,2.125,240,380,620,1.5833,190,360,550,1.8947,160,240,400,1.5,130,170,300,1.3077,120,140,260,1.1667,110,62
900,220,670,190,510,700,2.6842,160,350,510,2.1875,150,280,430,1.8667,130,190,320,1.4615,110,150,260,1.3636,100,120,220,1.2,110,62
890,230,570,190,550,740,2.8947,170,360,530,2.1176,160,280,440,1.75,140,190,330,1.3571,120,140,260,1.1667,110,120,230,1.0909,110,62
880,320,650,200,660,860,3.3,170,470,640,2.7647,160,360,520,2.25,140,220,360,1.5714,120,160,280,1.3333,100,130,230,1.3,110,62
850,230,670,190,610,800,3.2105,170,400,570,2.3529,150,320,470,2.1333,140,210,350,1.5,110,160,270,1.4545,100,130,230,1.3,110,61
950,180,740,200,540,740,2.7,180,360,540,2,150,300,450,2,120,210,330,1.75,100,160,260,1.6,80,120,200,1.5,110,61
880,210,670,180,540,720,3,160,360,520,2.25,140,280,420,2,130,200,330,1.5385,110,150,260,1.3636,100,120,220,1.2,110,61
870,210,650,180,660,840,3.6667,160,430,590,2.6875,150,350,500,2.3333,130,200,330,1.5385,110,150,260,1.3636,100,130,230,1.3,110,61
880,220,650,180,660,840,3.6667,160,410,570,2.5625,150,320,470,2.1333,130,210,340,1.6154,110,160,270,1.4545,80,130,210,1.625,109,61
870,230,650,210,550,760,2.619,180,400,580,2.2222,170,320,490,1.8824,150,210,360,1.4,130,150,280,1.1538,120,130,250,1.0833,109,61
890,220,680,240,510,750,2.125,200,350,550,1.75,180,290,470,1.6111,150,200,350,1.3333,130,140,270,1.0769,120,120,240,1,109,61
880,210,650,180,530,710,2.9444,160,350,510,2.1875,150,280,430,1.8667,130,190,320,1.4615,110,140,250,1.2727,100,120,220,1.2,109,61
880,230,650,180,660,840,3.6667,160,430,590,2.6875,150,340,490,2.2667,130,210,340,1.6154,100,160,260,1.6,90,140,230,1.5556,109,60
880,230,650,190,660,850,3.4737,160,410,570,2.5625,160,320,480,2,140,210,350,1.5,120,150,270,1.25,100,130,230,1.3,108,60
890,230,680,250,520,770,2.08,180,350,530,1.9444,170,280,450,1.6471,150,230,380,1.5333,130,170,300,1.3077,110,130,240,1.1818,108,60
910,210,690,230,520,750,2.2609,180,360,540,2,170,290,460,1.7059,140,200,340,1.4286,120,160,280,1.3333,110,130,240,1.1818,109,60
890,220,680,180,690,870,3.8333,160,370,530,2.3125,150,290,440,1.9333,130,200,330,1.5385,120,150,270,1.25,100,130,230,1.3,109,61
890,210,660,180,590,770,3.2778,150,370,520,2.4667,140,300,440,2.1429,130,220,350,1.6923,100,160,260,1.6,90,140,230,1.5556,108,61
870,230,640,190,650,840,3.4211,160,420,580,2.625,160,320,480,2,140,210,350,1.5,120,150,270,1.25,110,130,240,1.1818,108,61
880,230,670,250,520,770,2.08,200,380,580,1.9,180,320,500,1.7778,150,210,360,1.4,130,160,290,1.2308,110,140,250,1.2727,109,61
890,210,670,220,510,730,2.3182,180,350,530,1.9444,160,280,440,1.75,140,200,340,1.4286,120,160,280,1.3333,100,130,230,1.3,109,61
1740,220,650,190,560,750,2.9474,160,350,510,2.1875,150,270,420,1.8,140,190,330,1.3571,110,150,260,1.3636,100,120,220,1.2,109,61
860,1090,620,1050,630,1680,0.6,1000,480,1480,0.48,900,360,1260,0.4,800,210,1010,0.2625,720,150,870,0.20833,500,130,630,0.26,109,61
880,240,670,260,530,790,2.0385,190,380,570,2,170,310,480,1.8235,150,220,370,1.4667,120,160,280,1.3333,110,140,250,1.2727,110,61
900,210,680,190,520,710,2.7368,170,350,520,2.0588,150,280,430,1.8667,140,190,330,1.3571,110,150,260,1.3636,100,130,230,1.3,110,61
880,220,650,190,600,790,3.1579,170,390,560,2.2941,160,300,460,1.875,140,200,340,1.4286,120,140,260,1.1667,100,120,220,1.2,110,61
870,230,640,200,560,760,2.8,170,350,520,2.0588,170,290,460,1.7059,140,180,320,1.2857,130,140,270,1.0769,110,120,230,1.0909,110,61
850,230,600,200,610,810,3.05,170,450,620,2.6471,160,340,500,2.125,140,230,370,1.6429,120,150,270,1.25,110,130,240,1.1818,110,61
870,250,650,270,520,790,1.9259,170,390,560,2.2941,150,330,480,2.2,130,210,340,1.6154,120,160,280,1.3333,100,130,230,1.3,110,61
880,220,660,240,510,750,2.125,180,410,590,2.2778,160,320,480,2,140,220,360,1.5714,120,160,280,1.3333,110,130,240,1.1818,110,61
870,220,650,180,540,720,3,160,360,520,2.25,150,270,420,1.8,130,190,320,1.4615,120,140,260,1.1667,100,120,220,1.2,111,61
880,220,630,190,590,780,3.1053,160,370,530,2.3125,150,280,430,1.8667,130,190,320,1.4615,110,150,260,1.3636,110,120,230,1.0909,110,61
850,250,640,190,650,840,3.4211,160,490,650,3.0625,150,370,520,2.4667,130,220,350,1.6923,110,160,270,1.4545,110,130,240,1.1818,110,61
890,210,680,230,530,760,2.3043,180,380,560,2.1111,160,320,480,2,140,220,360,1.5714,120,170,290,1.4167,100,140,240,1.4,110,61
890,210,680,230,540,770,2.3478,170,390,560,2.2941,170,320,490,1.8824,140,210,350,1.5,120,170,290,1.4167,100,130,230,1.3,110,61
880,210,660,180,670,850,3.7222,160,450,610,2.8125,150,340,490,2.2667,130,210,340,1.6154,110,160,270,1.4545,100,120,220,1.2,110,61
860,220,470,190,480,670,2.5263,170,410,580,2.4118,160,310,470,1.9375,140,200,340,1.4286,120,150,270,1.25,110,120,230,1.0909,110,61
860,390,630,240,640,880,2.6667,180,500,680,2.7778,160,370,530,2.3125,150,220,370,1.4667,120,160,280,1.3333,110,140,250,1.2727,109,61
880,230,670,250,510,760,2.04,190,360,550,1.8947,180,300,480,1.6667,150,200,350,1.3333,130,160,290,1.2308,120,120,240,1,110,61
890,210,670,230,520,750,2.2609,190,350,540,1.8421,180,280,460,1.5556,150,190,340,1.2667,140,150,290,1.0714,130,120,250,0.92308,110,61
880,220,660,180,570,750,3.1667,150,380,530,2.5333,150,300,450,2,130,200,330,1.5385,110,150,260,1.3636,100,130,230,1.3,110,61
880,220,640,190,650,840,3.4211,160,450,610,2.8125,150,360,510,2.4,130,230,360,1.7692,110,150,260,1.3636,110,120,230,1.0909,109,61
860,240,640,200,650,850,3.25,180,400,580,2.2222,160,310,470,1.9375,150,210,360,1.4,120,150,270,1.25,100,120,220,1.2,109,61
880,220,660,240,520,760,2.1667,240,410,650,1.7083,190,340,530,1.7895,160,220,380,1.375,130,160,290,1.2308,120,130,250,1.0833,109,61
890,220,680,180,510,690,2.8333,160,330,490,2.0625,150,260,410,1.7333,130,190,320,1.4615,120,140,260,1.1667,100,120,220,1.2,109,61
880,210,660,180,570,750,3.1667,160,380,540,2.375,150,290,440,1.9333,130,200,330,1.5385,110,150,260,1.3636,100,120,220,1.2,109,61
850,220,630,180,640,820,3.5556,160,520,680,3.25,140,390,530,2.7857,120,230,350,1.9167,100,160,260,1.6,100,130,230,1.3,109,61
870,220,660,180,610,790,3.3889,150,390,540,2.6,150,310,460,2.0667,130,220,350,1.6923,110,170,280,1.5455,90,150,240,1.6667,109,61
910,210,690,230,500,730,2.1739,230,320,550,1.3913,210,270,480,1.2857,150,240,390,1.6,130,180,310,1.3846,100,150,250,1.5,109,61
890,220,670,180,540,720,3,170,360,530,2.1176,150,300,450,2,130,200,330,1.5385,120,150,270,1.25,100,120,220,1.2,110,61
880,220,470,190,480,670,2.5263,170,360,530,2.1176,160,290,450,1.8125,140,200,340,1.4286,120,140,260,1.1667,110,120,230,1.0909,109,61
880,410,640,320,650,970,2.0313,180,520,700,2.8889,170,390,560,2.2941,140,220,360,1.5714,120,160,280,1.3333,110,130,240,1.1818,109,61
860,240,650,200,520,720,2.6,180,360,540,2,170,300,470,1.7647,140,200,340,1.4286,120,150,270,1.25,110,120,230,1.0909,109,61
890,210,680,230,520,750,2.2609,230,360,590,1.5652,200,290,490,1.45,150,210,360,1.4,140,150,290,1.0714,130,130,260,1,110,61
880,210,660,180,530,710,2.9444,160,350,510,2.1875,150,280,430,1.8667,130,190,320,1.4615,110,150,260,1.3636,90,130,220,1.4444,110,62
890,220,650,180,660,840,3.6667,160,450,610,2.8125,150,360,510,2.4,130,230,360,1.7692,110,150,260,1.3636,100,130,230,1.3,110,62
870,240,630,200,640,840,3.2,180,420,600,2.3333,170,320,490,1.8824,140,200,340,1.4286,130,150,280,1.1538,110,120,230,1.0909,110,61
850,240,650,230,500,730,2.1739,190,410,600,2.1579,170,330,500,1.9412,150,210,360,1.4,130,150,280,1.1538,120,130,250,1.0833,110,61
900,200,680,220,520,740,2.3636,180,360,540,2,160,300,460,1.875,130,210,340,1.6154,110,160,270,1.4545,100,130,230,1.3,110,61
890,220,670,180,540,720,3,160,350,510,2.1875,150,280,430,1.8667,130,190,320,1.4615,120,140,260,1.1667,100,120,220,1.2,110,61
890,220,650,180,660,840,3.6667,160,440,600,2.75,140,330,470,2.3571,130,210,340,1.6154,100,160,260,1.6,100,130,230,1.3,110,61
890,240,670,200,680,880,3.4,180,410,590,2.2778,170,310,480,1.8235,140,200,340,1.4286,130,150,280,1.1538,110,120,230,1.0909,109,61
920,220,700,240,520,760,2.1667,190,360,550,1.8947,170,290,460,1.7059,150,190,340,1.2667,130,160,290,1.2308,100,140,240,1.4,109,61
890,220,670,240,510,750,2.125,180,350,530,1.9444,160,280,440,1.75,150,200,350,1.3333,120,150,270,1.25,110,120,230,1.0909,110,61
900,220,680,190,660,850,3.4737,160,370,530,2.3125,160,270,430,1.6875,130,180,310,1.3846,120,140,260,1.1667,110,110,220,1,109,61
910,220,680,190,610,800,3.2105,160,390,550,2.4375,150,300,450,2,130,210,340,1.6154,110,160,270,1.4545,100,130,230,1.3,109,61
890,230,670,200,680,880,3.4,170,430,600,2.5294,160,330,490,2.0625,140,210,350,1.5,130,160,290,1.2308,110,130,240,1.1818,109,61
910,220,330,240,330,570,1.375,190,330,520,1.7368,180,330,510,1.8333,150,210,360,1.4,140,160,300,1.1429,120,130,250,1.0833,110,61
930,580,700,540,530,1070,0.98148,170,360,530,2.1176,170,280,450,1.6471,140,190,330,1.3571,130,150,280,1.1538,110,130,240,1.1818,110,61
870,230,650,180,660,840,3.6667,170,440,610,2.5882,150,340,490,2.2667,140,220,360,1.5714,110,160,270,1.4545,100,130,230,1.3,110,61
900,220,660,180,600,780,3.3333,160,370,530,2.3125,150,300,450,2,130,210,340,1.6154,100,170,270,1.7,90,140,230,1.5556,109,61
870,240,660,190,610,800,3.2105,170,360,530,2.1176,160,290,450,1.8125,140,210,350,1.5,120,150,270,1.25,110,130,240,1.1818,109,61
950,210,720,230,520,750,2.2609,200,380,580,1.9,180,320,500,1.7778,140,220,360,1.5714,120,160,280,1.3333,110,140,250,1.2727,110,61
870,230,640,200,650,850,3.25,170,570,740,3.3529,170,420,590,2.4706,140,200,340,1.4286,120,140,260,1.1667,110,120,230,1.0909,110,61
880,230,650,200,470,670,2.35,170,320,490,1.8824,160,260,420,1.625,140,180,320,1.2857,120,140,260,1.1667,110,110,220,1,110,61
870,230,640,200,650,850,3.25,170,380,550,2.2353,160,300,460,1.875,150,200,350,1.3333,120,150,270,1.25,120,120,240,1,109,61
870,230,660,190,490,680,2.5789,160,320,480,2,150,270,420,1.8,130,190,320,1.4615,110,150,260,1.3636,110,120,230,1.0909,109,61
920,210,700,230,520,750,2.2609,180,360,540,2,170,310,480,1.8235,140,220,360,1.5714,110,160,270,1.4545,100,140,240,1.4,110,61
870,220,650,180,570,750,3.1667,170,360,530,2.1176,150,280,430,1.8667,140,200,340,1.4286,110,140,250,1.2727,100,120,220,1.2,110,61
870,220,650,190,550,740,2.8947,170,360,530,2.1176,150,290,440,1.9333,130,200,330,1.5385,110,150,260,1.3636,100,130,230,1.3,110,61
870,220,630,190,640,830,3.3684,160,380,540,2.375,160,300,460,1.875,130,200,330,1.5385,120,150,270,1.25,100,130,230,1.3,110,61
870,240,650,200,560,760,2.8,180,380,560,2.1111,160,310,470,1.9375,150,200,350,1.3333,120,150,270,1.25,110,120,230,1.0909,110,61
870,220,660,240,510,750,2.125,190,360,550,1.8947,180,290,470,1.6111,150,200,350,1.3333,130,150,280,1.1538,110,120,230,1.0909,110,61
870,210,650,180,490,670,2.7222,160,330,490,2.0625,150,260,410,1.7333,130,190,320,1.4615,110,150,260,1.3636,90,130,220,1.4444,110,61
870,220,620,180,570,750,3.1667,160,380,540,2.375,150,300,450,2,130,190,320,1.4615,120,140,260,1.1667,100,120,220,1.2,110,61
850,250,620,190,630,820,3.3158,170,410,580,2.4118,160,330,490,2.0625,140,190,330,1.3571,120,150,270,1.25,110,120,230,1.0909,110,61
850,230,610,240,460,700,1.9167,180,350,530,1.9444,170,300,470,1.7647,150,220,370,1.4667,130,150,280,1.1538,120,130,250,1.0833,110,61
840,240,630,210,570,780,2.7143,180,400,580,2.2222,170,310,480,1.8235,150,200,350,1.3333,130,140,270,1.0769,110,120,230,1.0909,110,61
850,210,610,210,450,660,2.1429,170,290,460,1.7059,160,250,410,1.5625,130,180,310,1.3846,110,130,240,1.1818,100,110,210,1.1,110,61
830,240,610,190,560,750,2.9474,170,370,540,2.1765,160,290,450,1.8125,140,200,340,1.4286,120,140,260,1.1667,100,120,220,1.2,110,61
820,220,600,190,610,800,3.2105,160,550,710,3.4375,150,410,560,2.7333,130,250,380,1.9231,120,180,300,1.5,100,160,260,1.6,110,61
820,220,620,180,550,730,3.0556,160,370,530,2.3125,150,300,450,2,130,200,330,1.5385,110,150,260,1.3636,100,130,230,1.3,110,61
840,200,630,220,500,720,2.2727,220,430,650,1.9545,180,350,530,1.9444,150,230,380,1.5333,120,170,290,1.4167,100,140,240,1.4,110,62
860,210,640,180,490,670,2.7222,160,330,490,2.0625,150,270,420,1.8,130,190,320,1.4615,110,140,250,1.2727,100,120,220,1.2,110,62
870,220,630,190,540,730,2.8421,160,350,510,2.1875,150,280,430,1.8667,140,190,330,1.3571,110,140,250,1.2727,110,110,220,1,110,62
860,240,600,200,610,810,3.05,180,520,700,2.8889,170,390,560,2.2941,140,210,350,1.5,120,150,270,1.25,100,120,220,1.2,110,62
830,260,620,200,590,790,2.95,180,380,560,2.1111,170,300,470,1.7647,150,190,340,1.2667,130,140,270,1.0769,120,120,240,1,110,62
880,210,670,230,500,730,2.1739,230,350,580,1.5217,190,340,530,1.7895,150,250,400,1.6667,120,180,300,1.5,110,160,270,1.4545,110,62
870,210,660,180,500,680,2.7778,150,340,490,2.2667,150,270,420,1.8,130,190,320,1.4615,110,150,260,1.3636,100,120,220,1.2,110,62
880,210,610,180,540,720,3,160,370,530,2.3125,140,290,430,2.0714,130,200,330,1.5385,110,150,260,1.3636,100,120,220,1.2,110,62
870,270,640,250,650,900,2.6,180,560,740,3.1111,170,410,580,2.4118,140,230,370,1.6429,110,160,270,1.4545,110,130,240,1.1818,110,62
880,230,660,190,580,770,3.0526,160,370,530,2.3125,160,300,460,1.875,140,200,340,1.4286,120,150,270,1.25,100,130,230,1.3,110,62
900,220,690,240,490,730,2.0417,210,310,520,1.4762,170,250,420,1.4706,150,170,320,1.1333,130,110,240,0.84615,110,70,180,0.63636,110,62
900,210,670,180,540,720,3,150,360,510,2.4,150,280,430,1.8667,130,190,320,1.4615,110,150,260,1.3636,100,130,230,1.3,111,62
880,230,640,200,650,850,3.25,170,450,620,2.6471,160,360,520,2.25,140,190,330,1.3571,130,140,270,1.0769,110,120,230,1.0909,111,62
870,240,640,200,650,850,3.25,170,400,570,2.3529,170,310,480,1.8235,140,200,340,1.4286,130,140,270,1.0769,110,120,230,1.0909,110,62
860,230,650,220,590,810,2.6818,180,410,590,2.2778,170,340,510,2,150,220,370,1.4667,120,160,280,1.3333,120,130,250,1.0833,111,62
880,210,670,230,500,730,2.1739,180,360,540,2,170,280,450,1.6471,140,200,340,1.4286,120,160,280,1.3333,110,130,240,1.1818,111,62
920,210,670,180,520,700,2.8889,150,350,500,2.3333,140,280,420,2,130,200,330,1.5385,110,150,260,1.3636,100,120,220,1.2,111,62
880,250,640,210,650,860,3.0952,180,430,610,2.3889,180,330,510,1.8333,150,200,350,1.3333,130,140,270,1.0769,110,110,220,1,111,62
880,240,640,200,650,850,3.25,180,440,620,2.4444,170,340,510,2,140,200,340,1.4286,130,150,280,1.1538,110,120,230,1.0909,111,62
900,240,680,260,520,780,2,190,360,550,1.8947,180,290,470,1.6111,140,240,380,1.7143,130,170,300,1.3077,110,150,260,1.3636,111,62
890,220,670,240,500,740,2.0833,180,350,530,1.9444,160,290,450,1.8125,150,200,350,1.3333,120,140,260,1.1667,110,120,230,1.0909,112,62
590,220,520,190,530,720,2.7895,170,350,520,2.0588,160,280,440,1.75,130,190,320,1.4615,120,140,260,1.1667,100,120,220,1.2,111,62
1150,70,930,20,850,870,42.5,20,660,680,33,20,590,610,29.5,20,500,520,25,20,440,460,22,20,420,440,21,111,62
820,220,640,190,650,840,3.4211,160,430,590,2.6875,150,330,480,2.2,140,220,360,1.5714,110,160,270,1.4545,100,140,240,1.4,111,62
920,180,710,200,560,760,2.8,140,410,550,2.9286,130,340,470,2.6154,100,250,350,2.5,90,190,280,2.1111,70,160,230,2.2857,111,62
880,210,660,230,510,740,2.2174,170,350,520,2.0588,170,290,460,1.7059,140,200,340,1.4286,120,150,270,1.25,110,130,240,1.1818,111,62
870,220,640,190,540,730,2.8421,170,370,540,2.1765,160,290,450,1.8125,130,190,320,1.4615,120,140,260,1.1667,100,120,220,1.2,111,62
850,230,610,190,580,770,3.0526,160,380,540,2.375,160,300,460,1.875,140,190,330,1.3571,120,140,260,1.1667,110,120,230,1.0909,111,62
850,240,580,190,590,780,3.1053,170,410,580,2.4118,160,330,490,2.0625,130,210,340,1.6154,120,160,280,1.3333,100,140,240,1.4,111,62
860,270,640,290,500,790,1.7241,180,370,550,2.0556,170,310,480,1.8235,150,210,360,1.4,130,160,290,1.2308,100,130,230,1.3,111,62
870,220,650,210,500,710,2.381,170,340,510,2,150,280,430,1.8667,140,190,330,1.3571,120,140,260,1.1667,110,120,230,1.0909,111,62
870,220,650,190,540,730,2.8421,160,330,490,2.0625,150,260,410,1.7333,130,180,310,1.3846,110,130,240,1.1818,100,100,200,1,111,62
870,220,640,180,570,750,3.1667,160,370,530,2.3125,150,290,440,1.9333,130,200,330,1.5385,110,160,270,1.4545,100,130,230,1.3,111,62
860,230,620,200,630,830,3.15,170,410,580,2.4118,150,320,470,2.1333,140,210,350,1.5,120,150,270,1.25,110,130,240,1.1818,111,62
860,240,650,260,510,770,1.9615,190,380,570,2,180,310,490,1.7222,150,220,370,1.4667,130,160,290,1.2308,110,130,240,1.1818,110,62
870,210,650,210,500,710,2.381,170,340,510,2,160,280,440,1.75,130,200,330,1.5385,120,160,280,1.3333,100,130,230,1.3,111,62
870,220,640,190,590,780,3.1053,150,380,530,2.5333,150,300,450,2,130,200,330,1.5385,120,150,270,1.25,100,130,230,1.3,111,62
860,230,630,190,550,740,2.8947,170,350,520,2.0588,160,280,440,1.75,140,190,330,1.3571,110,150,260,1.3636,110,120,230,1.0909,111,62
840,230,630,190,640,830,3.3684,170,410,580,2.4118,160,330,490,2.0625,140,220,360,1.5714,120,170,290,1.4167,100,130,230,1.3,110,62
850,210,630,230,490,720,2.1304,170,350,520,2.0588,170,290,460,1.7059,130,190,320,1.4615,120,140,260,1.1667,110,120,230,1.0909,110,62
880,220,670,210,510,720,2.4286,170,360,530,2.1176,160,290,450,1.8125,140,210,350,1.5,120,150,270,1.25,100,120,220,1.2,111,62
880,210,650,180,540,720,3,160,360,520,2.25,150,280,430,1.8667,130,210,340,1.6154,110,150,260,1.3636,90,130,220,1.4444,111,62
860,230,610,190,550,740,2.8947,170,360,530,2.1176,160,280,440,1.75,140,190,330,1.3571,120,140,260,1.1667,110,120,230,1.0909,111,62
840,250,610,200,620,820,3.1,170,520,690,3.0588,160,380,540,2.375,130,230,360,1.7692,120,150,270,1.25,110,120,230,1.0909,111,62
870,230,650,250,500,750,2,190,350,540,1.8421,170,300,470,1.7647,150,210,360,1.4,120,150,270,1.25,120,130,250,1.0833,111,62
850,220,630,240,470,710,1.9583,190,300,490,1.5789,170,260,430,1.5294,150,200,350,1.3333,130,150,280,1.1538,110,130,240,1.1818,112,63
860,220,650,180,540,720,3,160,350,510,2.1875,140,280,420,2,120,190,310,1.5833,110,140,250,1.2727,90,130,220,1.4444,112,63
870,210,570,180,560,740,3.1111,160,370,530,2.3125,150,290,440,1.9333,130,200,330,1.5385,110,150,260,1.3636,100,120,220,1.2,112,63
840,300,620,210,630,840,3,180,490,670,2.7222,170,370,540,2.1765,150,210,360,1.4,130,150,280,1.1538,120,130,250,1.0833,111,62
860,220,650,240,500,740,2.0833,180,370,550,2.0556,170,310,480,1.8235,150,210,360,1.4,130,160,290,1.2308,110,130,240,1.1818,111,62
870,210,640,230,470,700,2.0435,190,290,480,1.5263,170,230,400,1.3529,150,150,300,1,120,100,220,0.83333,110,70,180,0.63636,112,62
860,230,640,190,540,730,2.8421,170,350,520,2.0588,160,280,440,1.75,140,190,330,1.3571,120,140,260,1.1667,100,120,220,1.2,112,62
880,220,640,180,650,830,3.6111,160,500,660,3.125,150,310,460,2.0667,130,190,320,1.4615,120,140,260,1.1667,100,130,230,1.3,111,62
840,240,610,200,620,820,3.1,180,420,600,2.3333,170,320,490,1.8824,150,200,350,1.3333,130,140,270,1.0769,120,120,240,1,111,62
880,230,660,250,530,780,2.12,190,380,570,2,170,330,500,1.9412,150,220,370,1.4667,130,160,290,1.2308,120,140,260,1.1667,111,62
890,220,680,240,500,740,2.0833,170,340,510,2,150,270,420,1.8,140,190,330,1.3571,100,140,240,1.4,100,120,220,1.2,111,62
890,210,670,180,550,730,3.0556,160,370,530,2.3125,150,290,440,1.9333,130,200,330,1.5385,110,150,260,1.3636,90,130,220,1.4444,111,62
890,220,660,180,670,850,3.7222,160,490,650,3.0625,150,410,560,2.7333,140,270,410,1.9286,110,200,310,1.8182,100,170,270,1.7,111,62
880,230,650,190,660,850,3.4737,170,450,620,2.6471,160,350,510,2.1875,140,210,350,1.5,120,150,270,1.25,110,130,240,1.1818,110,62
890,230,670,250,500,750,2,250,380,630,1.52,190,350,540,1.8421,160,230,390,1.4375,140,170,310,1.2143,120,140,260,1.1667,111,62
910,220,690,190,520,710,2.7368,160,350,510,2.1875,160,290,450,1.8125,130,210,340,1.6154,120,140,260,1.1667,100,130,230,1.3,111,62
890,220,610,190,560,750,2.9474,160,370,530,2.3125,150,290,440,1.9333,140,190,330,1.3571,100,140,240,1.4,100,110,210,1.1,110,62
890,280,640,210,650,860,3.0952,180,440,620,2.4444,160,340,500,2.125,140,220,360,1.5714,120,150,270,1.25,110,130,240,1.1818,110,62
860,250,650,210,660,870,3.1429,180,410,590,2.2778,170,320,490,1.8824,150,210,360,1.4,130,150,280,1.1538,120,130,250,1.0833,110,62
900,210,680,230,490,720,2.1304,190,330,520,1.7368,170,270,440,1.5882,140,180,320,1.2857,120,120,240,1,110,80,190,0.72727,110,62
900,220,680,190,530,720,2.7895,170,350,520,2.0588,150,280,430,1.8667,130,200,330,1.5385,110,150,260,1.3636,100,130,230,1.3,111,62
890,220,660,190,670,860,3.5263,160,440,600,2.75,150,350,500,2.3333,140,200,340,1.4286,110,150,260,1.3636,100,120,220,1.2,110,62
880,230,640,190,650,840,3.4211,170,390,560,2.2941,160,300,460,1.875,140,200,340,1.4286,120,150,270,1.25,110,120,230,1.0909,110,61
850,240,620,200,130,330,0.65,180,120,300,0.66667,170,120,290,0.70588,150,120,270,0.8,130,120,250,0.92308,120,120,240,1,110,61
890,230,670,250,520,770,2.08,190,360,550,1.8947,160,300,460,1.875,140,210,350,1.5,120,160,280,1.3333,110,130,240,1.1818,110,62
880,220,650,190,480,670,2.5263,170,330,500,1.9412,150,270,420,1.8,140,190,330,1.3571,110,140,250,1.2727,100,120,220,1.2,110,62
870,230,640,190,640,830,3.3684,170,400,570,2.3529,160,320,480,2,140,200,340,1.4286,120,150,270,1.25,100,120,220,1.2,110,62
870,230,630,190,640,830,3.3684,170,490,660,2.8824,160,320,480,2,130,220,350,1.6923,120,150,270,1.25,100,130,230,1.3,110,61
890,240,660,210,490,700,2.3333,180,320,500,1.7778,170,290,460,1.7059,140,200,340,1.4286,120,150,270,1.25,110,120,230,1.0909,110,61
900,230,680,250,510,760,2.04,200,350,550,1.75,180,290,470,1.6111,160,200,360,1.25,130,150,280,1.1538,120,130,250,1.0833,110,61
900,220,660,190,650,840,3.4211,170,390,560,2.2941,150,310,460,2.0667,130,190,320,1.4615,110,150,260,1.3636,100,130,230,1.3,110,61
870,240,650,200,560,760,2.8,170,370,540,2.1765,170,290,460,1.7059,140,190,330,1.3571,120,140,260,1.1667,110,120,230,1.0909,110,61
880,220,650,180,660,840,3.6667,160,420,580,2.625,150,330,480,2.2,130,220,350,1.6923,110,160,270,1.4545,90,140,230,1.5556,110,61
870,230,650,210,510,720,2.4286,180,370,550,2.0556,160,300,460,1.875,150,210,360,1.4,120,160,280,1.3333,120,130,250,1.0833,110,61
880,220,660,240,500,740,2.0833,190,350,540,1.8421,170,290,460,1.7059,150,200,350,1.3333,120,150,270,1.25,110,120,230,1.0909,110,61
880,220,650,190,530,720,2.7895,160,350,510,2.1875,150,270,420,1.8,130,190,320,1.4615,100,140,240,1.4,100,110,210,1.1,110,61
870,230,650,190,560,750,2.9474,170,370,540,2.1765,160,300,460,1.875,140,200,340,1.4286,110,150,260,1.3636,110,130,240,1.1818,110,61
870,220,610,190,620,810,3.2632,160,420,580,2.625,160,330,490,2.0625,140,220,360,1.5714,120,160,280,1.3333,100,130,230,1.3,109,61
870,260,650,220,510,730,2.3182,190,370,560,1.9474,170,300,470,1.7647,150,210,360,1.4,130,150,280,1.1538,120,120,240,1,109,61
850,220,650,240,480,720,2,180,340,520,1.8889,170,270,440,1.5882,150,190,340,1.2667,120,140,260,1.1667,120,120,240,1,110,61
900,200,690,170,530,700,3.1176,140,340,480,2.4286,130,270,400,2.0769,110,200,310,1.8182,90,150,240,1.6667,80,130,210,1.625,110,61
880,210,650,180,550,730,3.0556,150,360,510,2.4,150,290,440,1.9333,130,200,330,1.5385,100,150,250,1.5,100,130,230,1.3,109,61
860,230,620,200,630,830,3.15,180,450,630,2.5,170,350,520,2.0588,150,200,350,1.3333,120,150,270,1.25,110,120,230,1.0909,109,61
850,240,640,240,520,760,2.1667,190,370,560,1.9474,180,310,490,1.7222,160,210,370,1.3125,130,150,280,1.1538,120,130,250,1.0833,109,61
900,210,680,230,510,740,2.2174,170,360,530,2.1176,150,290,440,1.9333,140,200,340,1.4286,110,160,270,1.4545,90,130,220,1.4444,110,61
880,220,650,190,540,730,2.8421,160,360,520,2.25,160,280,440,1.75,140,190,330,1.3571,120,140,260,1.1667,110,120,230,1.0909,110,61
900,230,630,200,520,720,2.6,170,340,510,2,160,270,430,1.6875,140,190,330,1.3571,120,140,260,1.1667,100,120,220,1.2,109,61
830,270,610,220,620,840,2.8182,200,450,650,2.25,190,340,530,1.7895,170,200,370,1.1765,140,130,270,0.92857,130,110,240,0.84615,109,61
890,220,670,240,530,770,2.2083,170,390,560,2.2941,170,330,500,1.9412,140,230,370,1.6429,120,170,290,1.4167,100,140,240,1.4,109,61
890,220,680,240,480,720,2,180,330,510,1.8333,170,310,480,1.8235,140,210,350,1.5,130,160,290,1.2308,110,130,240,1.1818,110,61
910,210,680,190,500,690,2.6316,160,350,510,2.1875,150,280,430,1.8667,130,200,330,1.5385,110,150,260,1.3636,100,140,240,1.4,110,61
880,230,550,190,560,750,2.9474,170,400,570,2.3529,150,320,470,2.1333,140,200,340,1.4286,120,160,280,1.3333,100,130,230,1.3,110,61
890,330,640,200,650,850,3.25,170,400,570,2.3529,160,320,480,2,140,200,340,1.4286,120,160,280,1.3333,110,120,230,1.0909,110,61
820,250,650,240,450,690,1.875,190,340,530,1.7895,180,280,460,1.5556,150,200,350,1.3333,130,160,290,1.2308,120,120,240,1,110,61
950,170,730,190,490,680,2.5789,130,320,450,2.4615,120,270,390,2.25,90,210,300,2.3333,80,160,240,2,70,130,200,1.8571,110,62
860,220,650,200,520,720,2.6,170,350,520,2.0588,160,290,450,1.8125,140,190,330,1.3571,120,140,260,1.1667,110,120,230,1.0909,110,62
880,210,660,180,670,850,3.7222,150,480,630,3.2,140,390,530,2.7857,130,200,330,1.5385,100,150,250,1.5,100,130,230,1.3,110,62
890,220,660,170,670,840,3.9412,160,400,560,2.5,150,320,470,2.1333,140,220,360,1.5714,110,160,270,1.4545,100,130,230,1.3,110,61
910,230,700,250,560,810,2.24,200,410,610,2.05,190,340,530,1.7895,150,220,370,1.4667,130,160,290,1.2308,120,140,260,1.1667,110,62
900,210,680,180,540,720,3,160,360,520,2.25,140,280,420,2,130,200,330,1.5385,110,160,270,1.4545,100,130,230,1.3,110,62
900,220,690,180,590,770,3.2778,160,370,530,2.3125,150,300,450,2,120,200,320,1.6667,110,150,260,1.3636,90,130,220,1.4444,110,62
890,210,660,180,670,850,3.7222,150,550,700,3.6667,150,430,580,2.8667,140,240,380,1.7143,120,170,290,1.4167,100,140,240,1.4,110,61
890,230,680,190,690,880,3.6316,170,440,610,2.5882,150,360,510,2.4,140,220,360,1.5714,110,170,280,1.5455,100,140,240,1.4,110,61
930,210,700,230,480,710,2.087,230,320,550,1.3913,180,250,430,1.3889,150,170,320,1.1333,120,140,260,1.1667,120,140,260,1.1667,110,61
880,230,660,180,470,650,2.6111,170,320,490,1.8824,140,250,390,1.7857,130,180,310,1.3846,120,130,250,1.0833,100,110,210,1.1,110,61
900,220,660,170,640,810,3.7647,150,310,460,2.0667,140,250,390,1.7857,120,180,300,1.5,100,140,240,1.4,90,130,220,1.4444,109,61
890,240,640,190,650,840,3.4211,160,480,640,3,150,380,530,2.5333,130,230,360,1.7692,110,170,280,1.5455,100,140,240,1.4,109,61
890,250,690,270,590,860,2.1852,210,470,680,2.2381,190,400,590,2.1053,160,260,420,1.625,140,170,310,1.2143,120,150,270,1.25,109,61
890,200,710,170,530,700,3.1176,160,380,540,2.375,150,300,450,2,130,210,340,1.6154,110,160,270,1.4545,90,130,220,1.4444,109,61
920,180,680,160,690,850,4.3125,140,440,580,3.1429,130,10,140,0.076923,110,10,120,0.090909,100,10,110,0.1,80,10,90,0.125,109,61
880,240,640,200,650,850,3.25,170,480,650,2.8235,160,410,570,2.5625,140,270,410,1.9286,120,180,300,1.5,100,140,240,1.4,108,61
870,240,630,200,590,790,2.95,180,380,560,2.1111,160,300,460,1.875,140,200,340,1.4286,130,140,270,1.0769,110,120,230,1.0909,108,60
880,240,670,260,520,780,2,220,360,580,1.6364,200,310,510,1.55,170,250,420,1.4706,140,170,310,1.2143,130,140,270,1.0769,108,60
890,210,660,210,490,700,2.3333,170,330,500,1.9412,160,270,430,1.6875,140,190,330,1.3571,120,150,270,1.25,100,130,230,1.3,108,60
880,230,550,170,550,720,3.2353,160,360,520,2.25,150,280,430,1.8667,130,200,330,1.5385,110,150,260,1.3636,100,120,220,1.2,108,60
890,330,660,190,620,810,3.2632,160,390,550,2.4375,150,300,450,2,130,200,330,1.5385,110,160,270,1.4545,100,130,230,1.3,107,60
830,230,630,190,540,730,2.8421,170,350,520,2.0588,160,280,440,1.75,150,190,340,1.2667,120,150,270,1.25,110,120,230,1.0909,107,60
880,200,670,220,520,740,2.3636,150,360,510,2.4,140,310,450,2.2143,120,220,340,1.8333,100,160,260,1.6,90,130,220,1.4444,107,60
880,210,670,190,490,680,2.5789,160,340,500,2.125,150,280,430,1.8667,130,200,330,1.5385,110,170,280,1.5455,100,130,230,1.3,108,60
870,210,640,180,600,780,3.3333,160,380,540,2.375,150,270,420,1.8,130,190,320,1.4615,110,150,260,1.3636,100,130,230,1.3,108,61
860,230,640,190,510,700,2.6842,170,330,500,1.9412,160,260,420,1.625,140,180,320,1.2857,120,130,250,1.0833,110,120,230,1.0909,108,61
870,220,650,190,550,740,2.8947,160,350,510,2.1875,150,280,430,1.8667,140,200,340,1.4286,110,150,260,1.3636,100,130,230,1.3,108,61
880,220,670,220,510,730,2.3182,180,370,550,2.0556,160,310,470,1.9375,140,210,350,1.5,120,160,280,1.3333,100,130,230,1.3,109,61
900,210,680,180,500,680,2.7778,160,350,510,2.1875,150,280,430,1.8667,130,200,330,1.5385,110,160,270,1.4545,100,130,230,1.3,109,61
900,220,680,180,620,800,3.4444,160,380,540,2.375,150,290,440,1.9333,130,190,320,1.4615,110,140,250,1.2727,100,110,210,1.1,109,61
910,220,670,180,560,740,3.1111,160,360,520,2.25,150,280,430,1.8667,140,200,340,1.4286,110,150,260,1.3636,100,120,220,1.2,109,61
890,240,660,210,530,740,2.5238,170,350,520,2.0588,170,280,450,1.6471,150,190,340,1.2667,130,140,270,1.0769,120,120,240,1,109,61
950,230,710,250,520,770,2.08,180,370,550,2.0556,170,310,480,1.8235,140,210,350,1.5,130,160,290,1.2308,110,130,240,1.1818,109,61
900,240,680,190,660,850,3.4737,170,360,530,2.1176,150,290,440,1.9333,130,200,330,1.5385,110,140,250,1.2727,100,120,220,1.2,110,62
900,220,660,190,490,680,2.5789,170,320,490,1.8824,150,260,410,1.7333,140,190,330,1.3571,110,140,250,1.2727,110,120,230,1.0909,110,62
900,240,660,200,610,810,3.05,170,380,550,2.2353,170,290,460,1.7059,140,200,340,1.4286,130,150,280,1.1538,110,130,240,1.1818,110,62
890,240,670,190,550,740,2.8947,170,360,530,2.1176,160,300,460,1.875,140,200,340,1.4286,110,150,260,1.3636,110,130,240,1.1818,110,62
900,220,670,240,510,750,2.125,180,360,540,2,160,300,460,1.875,140,210,350,1.5,120,150,270,1.25,110,130,240,1.1818,110,62
910,230,680,180,600,780,3.3333,160,370,530,2.3125,150,280,430,1.8667,130,180,310,1.3846,110,130,240,1.1818,100,110,210,1.1,110,62
890,230,660,190,510,700,2.6842,170,330,500,1.9412,160,260,420,1.625,130,180,310,1.3846,120,130,250,1.0833,110,120,230,1.0909,110,62
870,230,660,180,520,700,2.8889,170,370,540,2.1765,140,290,430,2.0714,140,200,340,1.4286,110,150,260,1.3636,100,120,220,1.2,110,62
890,210,670,190,510,700,2.6842,170,350,520,2.0588,160,290,450,1.8125,140,200,340,1.4286,120,140,260,1.1667,110,120,230,1.0909,109,61
880,220,670,240,510,750,2.125,180,350,530,1.9444,170,280,450,1.6471,140,200,340,1.4286,120,150,270,1.25,110,120,230,1.0909,109,61
880,210,660,180,530,710,2.9444,160,340,500,2.125,150,270,420,1.8,130,190,320,1.4615,110,150,260,1.3636,100,120,220,1.2,110,61
900,220,650,180,520,700,2.8889,160,340,500,2.125,150,270,420,1.8,140,190,330,1.3571,110,140,250,1.2727,100,120,220,1.2,109,61
850,250,620,200,630,830,3.15,180,380,560,2.1111,170,290,460,1.7059,150,180,330,1.2,130,140,270,1.0769,120,110,230,0.91667,109,61
850,230,640,210,490,700,2.3333,170,350,520,2.0588,170,290,460,1.7059,130,210,340,1.6154,130,150,280,1.1538,110,130,240,1.1818,109,61
880,210,670,230,480,710,2.087,170,330,500,1.9412,170,310,480,1.8235,140,210,350,1.5,120,160,280,1.3333,100,130,230,1.3,109,61
880,210,660,180,600,780,3.3333,150,380,530,2.5333,140,300,440,2.1429,130,200,330,1.5385,100,170,270,1.7,100,130,230,1.3,109,61
870,220,590,180,500,680,2.7778,160,320,480,2,150,260,410,1.7333,130,190,320,1.4615,110,150,260,1.3636,100,120,220,1.2,109,61
850,280,620,210,630,840,3,170,390,560,2.2941,170,300,470,1.7647,140,210,350,1.5,130,150,280,1.1538,110,130,240,1.1818,109,61
880,230,660,200,510,710,2.55,170,360,530,2.1176,160,290,450,1.8125,140,210,350,1.5,120,160,280,1.3333,100,130,230,1.3,109,61
880,220,660,240,490,730,2.0417,180,310,490,1.7222,170,240,410,1.4118,140,170,310,1.2143,130,130,260,1,110,90,200,0.81818,109,61
880,220,640,180,530,710,2.9444,160,340,500,2.125,150,270,420,1.8,140,190,330,1.3571,110,140,250,1.2727,100,120,220,1.2,109,61
880,240,640,190,650,840,3.4211,170,440,610,2.5882,150,260,410,1.7333,140,190,330,1.3571,120,140,260,1.1667,100,120,220,1.2,109,61
880,240,640,190,560,750,2.9474,180,350,530,1.9444,160,280,440,1.75,140,200,340,1.4286,120,150,270,1.25,100,120,220,1.2,109,61
880,240,670,240,560,800,2.3333,180,370,550,2.0556,170,310,480,1.8235,150,200,350,1.3333,130,160,290,1.2308,110,130,240,1.1818,110,62
910,210,690,210,500,710,2.381,170,340,510,2,160,280,440,1.75,140,190,330,1.3571,120,140,260,1.1667,110,130,240,1.1818,110,62
910,220,680,180,540,720,3,160,350,510,2.1875,150,280,430,1.8667,130,190,320,1.4615,110,150,260,1.3636,90,130,220,1.4444,110,62
1730,230,630,200,590,790,2.95,170,380,550,2.2353,160,290,450,1.8125,140,190,330,1.3571,120,140,260,1.1667,100,120,220,1.2,110,62
880,1100,660,1120,490,1610,0.4375,850,330,1180,0.38824,730,300,1030,0.41096,570,210,780,0.36842,300,150,450,0.5,120,130,250,1.0833,109,62
870,220,660,190,470,660,2.4737,160,320,480,2,160,250,410,1.5625,140,180,320,1.2857,120,140,260,1.1667,100,120,220,1.2,110,62
860,210,570,180,540,720,3,160,340,500,2.125,150,260,410,1.7333,130,180,310,1.3846,120,140,260,1.1667,100,120,220,1.2,110,62
840,290,620,190,580,770,3.0526,170,360,530,2.1176,160,290,450,1.8125,140,200,340,1.4286,120,150,270,1.25,100,120,220,1.2,109,61
840,220,610,180,520,700,2.8889,160,340,500,2.125,150,270,420,1.8,140,200,340,1.4286,120,150,270,1.25,100,120,220,1.2,109,61
840,230,630,250,460,710,1.84,170,310,480,1.8235,170,240,410,1.4118,140,180,320,1.2857,120,120,240,1,110,110,220,1,109,61
830,210,620,190,470,660,2.4737,160,300,460,1.875,150,240,390,1.6,140,170,310,1.2143,120,130,250,1.0833,100,110,210,1.1,110,62
850,210,630,170,570,740,3.3529,160,330,490,2.0625,140,250,390,1.7857,130,180,310,1.3846,110,140,250,1.2727,90,120,210,1.3333,109,62
830,220,610,190,490,680,2.5789,170,330,500,1.9412,160,250,410,1.5625,140,180,320,1.2857,120,130,250,1.0833,110,110,220,1,109,61
830,220,600,190,530,720,2.7895,170,320,490,1.8824,160,250,410,1.5625,140,180,320,1.2857,120,130,250,1.0833,110,110,220,1,109,62
850,230,630,220,460,680,2.0909,170,300,470,1.7647,160,240,400,1.5,140,160,300,1.1429,120,110,230,0.91667,110,70,180,0.63636,109,62
840,220,620,190,470,660,2.4737,170,300,470,1.7647,160,250,410,1.5625,140,170,310,1.2143,120,130,250,1.0833,110,110,220,1,110,62
850,220,640,170,530,700,3.1176,160,330,490,2.0625,140,260,400,1.8571,130,190,320,1.4615,100,140,240,1.4,90,130,220,1.4444,110,62
850,210,630,180,490,670,2.7222,150,320,470,2.1333,140,260,400,1.8571,130,190,320,1.4615,110,140,250,1.2727,100,120,220,1.2,109,62
840,220,620,190,510,700,2.6842,170,330,500,1.9412,150,270,420,1.8,140,190,330,1.3571,110,140,250,1.2727,110,120,230,1.0909,109,62
870,220,650,210,510,720,2.4286,170,360,530,2.1176,150,290,440,1.9333,140,200,340,1.4286,110,150,260,1.3636,110,130,240,1.1818,110,62
870,220,650,190,480,670,2.5263,170,320,490,1.8824,150,250,400,1.6667,140,190,330,1.3571,110,140,250,1.2727,100,120,220,1.2,110,62
850,220,640,180,570,750,3.1667,160,350,510,2.1875,150,270,420,1.8,120,180,300,1.5,120,140,260,1.1667,100,120,220,1.2,110,62
880,210,640,170,520,690,3.0588,150,330,480,2.2,140,270,410,1.9286,130,200,330,1.5385,100,150,250,1.5,100,120,220,1.2,110,62
860,240,630,190,520,710,2.7368,180,330,510,1.8333,150,270,420,1.8,140,190,330,1.3571,120,140,260,1.1667,110,120,230,1.0909,110,62
880,230,660,210,500,710,2.381,180,350,530,1.9444,160,290,450,1.8125,150,200,350,1.3333,120,150,270,1.25,120,130,250,1.0833,110,62
890,220,670,200,500,700,2.5,160,330,490,2.0625,160,260,420,1.625,140,180,320,1.2857,120,140,260,1.1667,110,120,230,1.0909,110,63
890,220,670,180,680,860,3.7778,160,410,570,2.5625,150,300,450,2,130,190,320,1.4615,120,140,260,1.1667,110,120,230,1.0909,111,63
880,220,640,190,520,710,2.7368,170,330,500,1.9412,150,270,420,1.8,140,190,330,1.3571,110,140,250,1.2727,100,120,220,1.2,110,63
870,240,650,200,470,670,2.35,170,320,490,1.8824,160,270,430,1.6875,140,200,340,1.4286,120,150,270,1.25,100,120,220,1.2,110,63
890,220,680,220,510,730,2.3182,170,360,530,2.1176,160,300,460,1.875,140,210,350,1.5,110,160,270,1.4545,100,130,230,1.3,110,63
920,210,690,180,630,810,3.5,150,340,490,2.2667,140,270,410,1.9286,130,200,330,1.5385,100,160,260,1.6,90,130,220,1.4444,111,63
890,230,660,190,480,670,2.5263,170,320,490,1.8824,160,260,420,1.625,140,190,330,1.3571,110,140,250,1.2727,100,120,220,1.2,111,63
870,230,640,190,650,840,3.4211,170,410,580,2.4118,160,310,470,1.9375,150,190,340,1.2667,120,150,270,1.25,110,120,230,1.0909,111,63
890,230,670,190,540,730,2.8421,170,360,530,2.1176,150,280,430,1.8667,140,200,340,1.4286,120,150,270,1.25,100,120,220,1.2,110,62
910,220,700,240,510,750,2.125,180,350,530,1.9444,170,290,460,1.7059,150,210,360,1.4,130,150,280,1.1538,110,130,240,1.1818,110,62
900,210,680,180,500,680,2.7778,150,320,470,2.1333,140,260,400,1.8571,120,180,300,1.5,100,140,240,1.4,90,120,210,1.3333,111,62
890,220,670,180,520,700,2.8889,160,340,500,2.125,150,270,420,1.8,130,190,320,1.4615,110,140,250,1.2727,90,130,220,1.4444,110,62
890,220,650,180,530,710,2.9444,160,350,510,2.1875,150,280,430,1.8667,130,190,320,1.4615,110,150,260,1.3636,80,130,210,1.625,110,62
850,240,630,200,530,730,2.65,180,340,520,1.8889,150,280,430,1.8667,140,190,330,1.3571,120,140,260,1.1667,110,120,230,1.0909,110,62
890,220,670,240,510,750,2.125,180,340,520,1.8889,160,280,440,1.75,140,200,340,1.4286,120,150,270,1.25,110,120,230,1.0909,110,62
890,220,660,170,540,710,3.1765,160,340,500,2.125,150,270,420,1.8,120,190,310,1.5833,110,140,250,1.2727,90,130,220,1.4444,110,62
880,230,660,180,520,700,2.8889,160,330,490,2.0625,150,260,410,1.7333,130,190,320,1.4615,110,140,250,1.2727,100,120,220,1.2,110,62
890,220,670,240,570,810,2.375,180,400,580,2.2222,170,340,510,2,140,230,370,1.6429,120,170,290,1.4167,90,150,240,1.6667,109,62
900,220,650,170,660,830,3.8824,160,470,630,2.9375,150,390,540,2.6,140,240,380,1.7143,110,170,280,1.5455,100,150,250,1.5,109,61
890,250,670,200,680,880,3.4,170,500,670,2.9412,150,260,410,1.7333,140,180,320,1.2857,120,140,260,1.1667,120,120,240,1,110,61
900,220,680,240,560,800,2.3333,170,370,540,2.1765,170,300,470,1.7647,140,210,350,1.5,90,160,250,1.7778,90,130,220,1.4444,109,61
900,220,660,240,590,830,2.4583,180,350,530,1.9444,160,270,430,1.6875,150,190,340,1.2667,120,140,260,1.1667,110,110,220,1,109,61
890,240,650,210,660,870,3.1429,170,440,610,2.5882,170,340,510,2,150,210,360,1.4,130,150,280,1.1538,120,130,250,1.0833,109,61
910,240,690,210,560,770,2.6667,180,400,580,2.2222,170,330,500,1.9412,150,210,360,1.4,130,160,290,1.2308,120,120,240,1,109,61
900,220,680,240,520,760,2.1667,170,80,250,0.47059,170,80,250,0.47059,140,80,220,0.57143,130,80,210,0.61538,110,80,190,0.72727,109,61
900,220,670,190,550,740,2.8947,170,370,540,2.1765,160,280,440,1.75,140,190,330,1.3571,120,150,270,1.25,110,120,230,1.0909,109,61
890,230,660,190,670,860,3.5263,170,430,600,2.5294,160,350,510,2.1875,130,230,360,1.7692,120,150,270,1.25,100,130,230,1.3,108,61
880,230,650,190,660,850,3.4737,170,390,560,2.2941,160,310,470,1.9375,140,200,340,1.4286,120,160,280,1.3333,100,130,230,1.3,108,61
890,230,670,250,510,760,2.04,200,440,640,2.2,180,370,550,2.0556,150,240,390,1.6,130,170,300,1.3077,110,140,250,1.2727,109,61
900,220,670,200,510,710,2.55,170,350,520,2.0588,150,290,440,1.9333,140,200,340,1.4286,110,150,260,1.3636,110,130,240,1.1818,109,61
890,230,660,190,530,720,2.7895,170,360,530,2.1176,160,280,440,1.75,140,200,340,1.4286,120,140,260,1.1667,110,120,230,1.0909,108,61
880,230,640,190,650,840,3.4211,180,450,630,2.5,170,360,530,2.1176,140,210,350,1.5,130,160,290,1.2308,110,120,230,1.0909,108,61
880,240,650,200,660,860,3.3,180,420,600,2.3333,170,330,500,1.9412,140,210,350,1.5,130,160,290,1.2308,110,120,230,1.0909,108,61
910,230,680,250,560,810,2.24,250,440,690,1.76,200,360,560,1.8,170,210,380,1.2353,140,140,280,1,120,120,240,1,108,61
900,230,670,200,540,740,2.7,180,370,550,2.0556,170,290,460,1.7059,150,200,350,1.3333,130,140,270,1.0769,110,120,230,1.0909,109,61
900,230,670,180,680,860,3.7778,170,680,850,4,160,450,610,2.8125,140,200,340,1.4286,100,150,250,1.5,100,130,230,1.3,108,61
890,230,650,200,570,770,2.85,160,370,530,2.3125,160,290,450,1.8125,150,200,350,1.3333,130,140,270,1.0769,110,120,230,1.0909,108,61
890,240,670,210,630,840,3,180,440,620,2.4444,180,350,530,1.9444,150,210,360,1.4,130,160,290,1.2308,110,120,230,1.0909,108,61
910,220,690,240,530,770,2.2083,190,380,570,2,170,320,490,1.8824,150,220,370,1.4667,130,160,290,1.2308,110,140,250,1.2727,109,61
910,220,670,170,510,680,3,160,360,520,2.25,140,280,420,2,130,200,330,1.5385,110,150,260,1.3636,100,120,220,1.2,108,61
890,240,650,200,610,810,3.05,170,390,560,2.2941,170,310,480,1.8235,150,200,350,1.3333,130,140,270,1.0769,110,120,230,1.0909,108,61
900,240,660,190,670,860,3.5263,180,430,610,2.3889,160,330,490,2.0625,140,210,350,1.5,120,160,280,1.3333,100,120,220,1.2,108,61
900,240,670,200,540,740,2.7,180,390,570,2.1667,160,310,470,1.9375,150,210,360,1.4,120,150,270,1.25,110,130,240,1.1818,108,61
920,230,710,250,530,780,2.12,200,370,570,1.85,180,310,490,1.7222,160,200,360,1.25,140,150,290,1.0714,120,120,240,1,108,61
890,210,670,180,620,800,3.4444,160,370,530,2.3125,150,300,450,2,130,200,330,1.5385,110,150,260,1.3636,90,120,210,1.3333,108,61
880,220,650,190,540,730,2.8421,170,360,530,2.1176,150,290,440,1.9333,140,190,330,1.3571,110,150,260,1.3636,110,120,230,1.0909,108,60
870,230,650,190,660,850,3.4737,170,440,610,2.5882,160,350,510,2.1875,140,220,360,1.5714,110,160,270,1.4545,110,130,240,1.1818,107,60
890,220,670,190,540,730,2.8421,160,380,540,2.375,150,320,470,2.1333,140,220,360,1.5714,110,160,270,1.4545,100,140,240,1.4,107,60
890,220,670,240,520,760,2.1667,190,360,550,1.8947,170,300,470,1.7647,150,200,350,1.3333,130,150,280,1.1538,110,130,240,1.1818,107,60
890,220,660,190,550,740,2.8947,160,340,500,2.125,150,260,410,1.7333,130,180,310,1.3846,120,140,260,1.1667,100,120,220,1.2,107,60
870,230,620,200,570,770,2.85,170,370,540,2.1765,160,290,450,1.8125,140,200,340,1.4286,120,150,270,1.25,110,120,230,1.0909,107,60
870,250,640,200,650,850,3.25,170,460,630,2.7059,160,350,510,2.1875,130,210,340,1.6154,120,150,270,1.25,110,130,240,1.1818,106,60
920,230,680,220,530,750,2.4091,180,390,570,2.1667,160,320,480,2,150,220,370,1.4667,120,160,280,1.3333,110,140,250,1.2727,106,60
870,240,680,230,530,760,2.3043,190,390,580,2.0526,190,330,520,1.7368,160,220,380,1.375,140,150,290,1.0714,120,130,250,1.0833,107,60
890,190,680,190,520,710,2.7368,160,370,530,2.3125,150,300,450,2,140,200,340,1.4286,110,160,270,1.4545,100,130,230,1.3,107,60
890,210,650,180,500,680,2.7778,150,330,480,2.2,150,270,420,1.8,130,200,330,1.5385,110,150,260,1.3636,90,130,220,1.4444,106,60
860,240,640,200,650,850,3.25,170,600,770,3.5294,160,500,660,3.125,150,310,460,2.0667,120,200,320,1.6667,110,160,270,1.4545,106,60
910,220,680,240,520,760,2.1667,170,390,560,2.2941,170,320,490,1.8824,140,220,360,1.5714,120,160,280,1.3333,100,140,240,1.4,107,60
880,230,650,250,490,740,1.96,200,360,560,1.8,180,300,480,1.6667,160,200,360,1.25,130,140,270,1.0769,120,120,240,1,107,60
880,230,650,190,540,730,2.8421,170,360,530,2.1176,160,290,450,1.8125,130,200,330,1.5385,120,140,260,1.1667,100,120,220,1.2,107,60
840,230,600,200,570,770,2.85,170,360,530,2.1176,170,300,470,1.7647,140,200,340,1.4286,130,140,270,1.0769,110,120,230,1.0909,107,60
860,240,640,210,650,860,3.0952,170,510,680,3,170,380,550,2.2353,150,230,380,1.5333,130,170,300,1.3077,110,130,240,1.1818,106,60
870,220,660,240,510,750,2.125,190,370,560,1.9474,180,310,490,1.7222,150,210,360,1.4,130,150,280,1.1538,110,130,240,1.1818,107,60
880,210,660,210,490,700,2.3333,170,310,480,1.8235,160,240,400,1.5,140,170,310,1.2143,120,120,240,1,100,100,200,1,107,60
870,220,660,180,550,730,3.0556,160,360,520,2.25,150,290,440,1.9333,130,200,330,1.5385,110,150,260,1.3636,100,120,220,1.2,107,60
880,210,640,180,650,830,3.6111,160,460,620,2.875,150,290,440,1.9333,130,200,330,1.5385,110,150,260,1.3636,90,130,220,1.4444,106,60
870,240,650,200,660,860,3.3,170,430,600,2.5294,170,340,510,2,130,210,340,1.6154,130,150,280,1.1538,110,130,240,1.1818,106,60
900,220,690,240,570,810,2.375,200,410,610,2.05,180,340,520,1.8889,150,230,380,1.5333,120,170,290,1.4167,120,140,260,1.1667,107,60
890,210,670,200,510,710,2.55,170,360,530,2.1176,160,290,450,1.8125,140,200,340,1.4286,120,140,260,1.1667,100,120,220,1.2,107,60
600,220,580,190,570,760,3,160,380,540,2.375,150,300,450,2,130,190,320,1.4615,100,150,250,1.5,100,120,220,1.2,107,60
1170,20,940,20,950,970,47.5,20,750,770,37.5,20,670,690,33.5,20,520,540,26,20,460,480,23,20,130,150,6.5,106,60
870,230,660,200,620,820,3.1,170,420,590,2.4706,160,340,500,2.125,140,220,360,1.5714,120,150,270,1.25,110,130,240,1.1818,107,60
910,210,700,230,530,760,2.3043,230,370,600,1.6087,190,350,540,1.8421,150,270,420,1.8,120,190,310,1.5833,110,160,270,1.4545,107,61
900,210,670,180,520,700,2.8889,160,360,520,2.25,150,280,430,1.8667,130,200,330,1.5385,110,150,260,1.3636,100,130,230,1.3,107,61
890,230,560,190,570,760,3,160,380,540,2.375,160,300,460,1.875,140,200,340,1.4286,120,140,260,1.1667,100,120,220,1.2,106,60
860,330,630,310,640,950,2.0645,190,610,800,3.2105,180,430,610,2.3889,160,230,390,1.4375,130,160,290,1.2308,120,130,250,1.0833,106,60
850,230,630,200,520,720,2.6,180,370,550,2.0556,160,300,460,1.875,150,200,350,1.3333,120,150,270,1.25,110,120,230,1.0909,106,60
880,220,660,240,480,720,2,210,320,530,1.5238,180,270,450,1.5,150,170,320,1.1333,120,110,230,0.91667,120,70,190,0.58333,107,61
880,220,660,180,500,680,2.7778,160,340,500,2.125,150,270,420,1.8,130,190,320,1.4615,120,140,260,1.1667,100,120,220,1.2,107,61
890,220,650,190,660,850,3.4737,160,460,620,2.875,150,350,500,2.3333,130,210,340,1.6154,120,150,270,1.25,100,130,230,1.3,107,61
870,240,630,210,640,850,3.0476,180,410,590,2.2778,170,310,480,1.8235,150,200,350,1.3333,130,140,270,1.0769,120,120,240,1,107,61
860,240,650,210,590,800,2.8095,170,400,570,2.3529,170,330,500,1.9412,150,220,370,1.4667,120,150,270,1.25,120,130,250,1.0833,107,61
900,210,680,230,490,720,2.1304,180,350,530,1.9444,170,280,450,1.6471,140,200,340,1.4286,110,160,270,1.4545,100,130,230,1.3,107,61
920,220,650,200,480,680,2.4,170,340,510,2,160,260,420,1.625,140,180,320,1.2857,120,140,260,1.1667,110,110,220,1,107,61
830,270,620,230,630,860,2.7391,200,540,740,2.7,200,470,670,2.35,170,310,480,1.8235,150,180,330,1.2,130,140,270,1.0769,107,61
890,210,640,190,610,800,3.2105,160,340,500,2.125,150,280,430,1.8667,130,190,320,1.4615,110,150,260,1.3636,110,120,230,1.0909,107,61
850,250,640,240,520,760,2.1667,200,360,560,1.8,180,310,490,1.7222,160,230,390,1.4375,130,160,290,1.2308,120,130,250,1.0833,108,61
890,210,670,230,510,740,2.2174,180,360,540,2,170,290,460,1.7059,140,210,350,1.5,120,160,280,1.3333,100,130,230,1.3,108,61
880,220,600,180,490,670,2.7222,160,330,490,2.0625,150,270,420,1.8,140,180,320,1.2857,120,140,260,1.1667,100,120,220,1.2,108,61
900,280,670,200,680,880,3.4,170,440,610,2.5882,150,360,510,2.4,140,220,360,1.5714,110,160,270,1.4545,100,130,230,1.3,108,61
870,230,630,200,640,840,3.2,170,400,570,2.3529,160,310,470,1.9375,150,200,350,1.3333,120,140,260,1.1667,110,120,230,1.0909,108,61
860,240,650,210,500,710,2.381,180,340,520,1.8889,170,270,440,1.5882,150,180,330,1.2,130,120,250,0.92308,110,100,210,0.90909,108,61
890,210,680,230,530,760,2.3043,170,370,540,2.1765,160,290,450,1.8125,130,210,340,1.6154,120,160,280,1.3333,100,130,230,1.3,108,61
880,210,660,180,520,700,2.8889,160,360,520,2.25,150,280,430,1.8667,140,200,340,1.4286,110,150,260,1.3636,100,120,220,1.2,108,61
