cp,st,dt,sw10,dw10,sw10+dw10,dw10/sw10,sw25,dw25,sw25+dw25,dw25/sw25,sw33,dw33,sw33+dw33,dw33/sw33,sw50,dw50,sw50+dw50,dw50/sw50,sw66,dw66,sw66+dw66,dw66/sw66,sw75,dw75,sw75+dw75,dw75/sw75,sys,dia,
890,250,650,200,620,820,3.1,170,390,560,2.2941,170,310,480,1.8235,140,200,340,1.4286,130,140,270,1.0769,110,120,230,1.0909,107,61
880,240,650,210,610,820,2.9048,180,390,570,2.1667,180,320,500,1.7778,150,210,360,1.4,130,160,290,1.2308,110,120,230,1.0909,107,60
930,230,700,250,540,790,2.16,190,400,590,2.1053,180,330,510,1.8333,150,230,380,1.5333,130,170,300,1.3077,110,140,250,1.2727,107,61
870,230,640,210,490,700,2.3333,180,360,540,2,170,290,460,1.7059,150,200,350,1.3333,120,150,270,1.25,100,120,220,1.2,107,61
880,230,660,180,510,690,2.8333,170,350,520,2.0588,160,290,450,1.8125,130,200,330,1.5385,120,140,260,1.1667,100,120,220,1.2,107,60
880,220,640,190,650,840,3.4211,170,400,570,2.3529,150,320,470,2.1333,140,210,350,1.5,110,160,270,1.4545,100,130,230,1.3,107,60
880,240,650,180,640,820,3.5556,170,420,590,2.4706,160,330,490,2.0625,140,210,350,1.5,120,160,280,1.3333,110,130,240,1.1818,107,60
900,230,680,250,520,770,2.08,200,360,560,1.8,180,310,490,1.7222,150,210,360,1.4,140,160,300,1.1429,120,120,240,1,107,60
900,220,690,190,500,690,2.6316,170,330,500,1.9412,160,260,420,1.625,140,180,320,1.2857,120,140,260,1.1667,110,120,230,1.0909,106,60
910,210,680,190,560,750,2.9474,170,390,560,2.2941,150,310,460,2.0667,140,200,340,1.4286,120,150,270,1.25,100,120,220,1.2,106,60
900,230,660,190,670,860,3.5263,170,490,660,2.8824,160,330,490,2.0625,130,210,340,1.6154,120,160,280,1.3333,90,140,230,1.5556,106,60
920,240,700,210,540,750,2.5714,180,360,540,2,170,290,460,1.7059,150,190,340,1.2667,130,150,280,1.1538,110,120,230,1.0909,107,60
950,220,720,240,600,840,2.5,200,420,620,2.1,180,350,530,1.9444,150,230,380,1.5333,130,160,290,1.2308,110,140,250,1.2727,107,60
900,230,670,190,520,710,2.7368,170,360,530,2.1176,160,290,450,1.8125,140,200,340,1.4286,120,150,270,1.25,100,120,220,1.2,107,60
910,230,680,200,570,770,2.85,170,360,530,2.1176,160,290,450,1.8125,130,190,320,1.4615,120,150,270,1.25,110,120,230,1.0909,107,60
910,230,670,190,680,870,3.5789,160,500,660,3.125,150,390,540,2.6,130,230,360,1.7692,110,160,270,1.4545,110,140,250,1.2727,106,60
920,240,700,220,200,420,0.90909,180,200,380,1.1111,180,200,380,1.1111,150,200,350,1.3333,130,160,290,1.2308,110,140,250,1.2727,107,60
910,220,680,240,500,740,2.0833,190,320,510,1.6842,180,250,430,1.3889,150,180,330,1.2,130,130,260,1,110,120,230,1.0909,106,59
900,230,670,190,530,720,2.7895,170,350,520,2.0588,160,280,440,1.75,140,190,330,1.3571,120,140,260,1.1667,100,120,220,1.2,106,59
890,230,650,190,660,850,3.4737,170,540,710,3.1765,160,390,550,2.4375,140,200,340,1.4286,120,150,270,1.25,110,120,230,1.0909,106,59
880,240,660,200,670,870,3.35,180,440,620,2.4444,160,340,500,2.125,150,220,370,1.4667,120,150,270,1.25,110,130,240,1.1818,106,59
910,220,700,240,630,870,2.625,190,450,640,2.3684,170,380,550,2.2353,150,250,400,1.6667,120,180,300,1.5,110,150,260,1.3636,106,59
910,210,680,200,540,740,2.7,170,380,550,2.2353,140,310,450,2.2143,140,210,350,1.5,110,150,260,1.3636,100,130,230,1.3,106,59
910,230,670,180,560,740,3.1111,170,370,540,2.1765,150,310,460,2.0667,140,200,340,1.4286,110,150,260,1.3636,100,120,220,1.2,106,59
880,240,640,200,650,850,3.25,170,450,620,2.6471,160,340,500,2.125,130,210,340,1.6154,100,150,250,1.5,80,120,200,1.5,105,59
880,240,670,200,670,870,3.35,170,430,600,2.5294,170,340,510,2,150,210,360,1.4,130,150,280,1.1538,110,130,240,1.1818,106,59
920,210,690,230,520,750,2.2609,210,360,570,1.7143,170,290,460,1.7059,150,240,390,1.6,130,180,310,1.3846,110,150,260,1.3636,106,59
900,230,680,190,500,690,2.6316,170,340,510,2,160,280,440,1.75,140,190,330,1.3571,120,140,260,1.1667,100,120,220,1.2,105,59
890,220,660,190,670,860,3.5263,160,350,510,2.1875,150,280,430,1.8667,130,190,320,1.4615,110,150,260,1.3636,100,120,220,1.2,105,59
870,230,640,190,650,840,3.4211,160,430,590,2.6875,160,330,490,2.0625,130,210,340,1.6154,120,160,280,1.3333,100,130,230,1.3,105,59
860,230,640,190,550,740,2.8947,170,370,540,2.1765,160,290,450,1.8125,140,200,340,1.4286,110,150,260,1.3636,110,130,240,1.1818,105,59
870,220,650,240,510,750,2.125,210,370,580,1.7619,190,310,500,1.6316,170,210,380,1.2353,140,160,300,1.1429,130,130,260,1,105,59
860,220,640,190,470,660,2.4737,160,320,480,2,160,260,420,1.625,130,180,310,1.3846,120,140,260,1.1667,100,120,220,1.2,105,59
850,220,620,190,530,720,2.7895,170,360,530,2.1176,160,290,450,1.8125,140,200,340,1.4286,120,140,260,1.1667,100,120,220,1.2,104,58
850,230,610,190,570,760,3,170,350,520,2.0588,160,280,440,1.75,140,190,330,1.3571,120,150,270,1.25,110,120,230,1.0909,104,59
850,240,610,200,560,760,2.8,180,380,560,2.1111,170,300,470,1.7647,150,200,350,1.3333,130,140,270,1.0769,120,120,240,1,105,59
860,240,630,260,470,730,1.8077,210,340,550,1.619,190,290,480,1.5263,170,210,380,1.2353,130,150,280,1.1538,130,130,260,1,105,59
870,230,630,190,440,630,2.3158,170,290,460,1.7059,160,240,400,1.5,140,190,330,1.3571,120,140,260,1.1667,110,110,220,1,105,59
870,240,630,200,600,800,3,180,400,580,2.2222,160,310,470,1.9375,140,200,340,1.4286,120,150,270,1.25,110,120,230,1.0909,104,59
850,240,610,210,620,830,2.9524,180,390,570,2.1667,170,290,460,1.7059,150,190,340,1.2667,130,130,260,1,120,110,230,0.91667,105,59
850,240,630,200,530,730,2.65,180,370,550,2.0556,170,310,480,1.8235,130,200,330,1.5385,130,150,280,1.1538,110,120,230,1.0909,105,59
870,220,660,240,490,730,2.0417,190,350,540,1.8421,180,300,480,1.6667,150,210,360,1.4,130,150,280,1.1538,110,130,240,1.1818,106,60
890,210,670,180,520,700,2.8889,160,360,520,2.25,150,280,430,1.8667,130,200,330,1.5385,110,160,270,1.4545,100,130,230,1.3,106,60
880,220,640,200,650,850,3.25,180,400,580,2.2222,160,320,480,2,150,200,350,1.3333,120,150,270,1.25,110,120,230,1.0909,106,60
870,240,620,200,630,830,3.15,180,390,570,2.1667,170,310,480,1.8235,150,190,340,1.2667,130,150,280,1.1538,110,110,220,1,106,60
870,250,640,220,490,710,2.2273,190,330,520,1.7368,180,270,450,1.5,150,180,330,1.2,140,130,270,0.92857,120,110,230,0.91667,106,60
880,230,660,250,510,760,2.04,210,360,570,1.7143,190,300,490,1.5789,170,210,380,1.2353,130,160,290,1.2308,130,130,260,1,107,60
880,220,650,190,610,800,3.2105,170,360,530,2.1176,160,280,440,1.75,130,190,320,1.4615,110,150,260,1.3636,100,130,230,1.3,107,60
890,230,650,190,570,760,3,170,370,540,2.1765,150,290,440,1.9333,130,200,330,1.5385,110,150,260,1.3636,100,130,230,1.3,106,60
880,240,620,210,630,840,3,180,400,580,2.2222,170,320,490,1.8824,140,200,340,1.4286,130,150,280,1.1538,110,120,230,1.0909,106,60
860,260,640,220,500,720,2.2727,190,350,540,1.8421,180,280,460,1.5556,160,190,350,1.1875,140,150,290,1.0714,130,110,240,0.84615,107,60
900,220,670,240,520,760,2.1667,200,360,560,1.8,180,300,480,1.6667,160,210,370,1.3125,120,150,270,1.25,120,130,250,1.0833,107,60
890,230,660,200,520,720,2.6,180,320,500,1.7778,170,250,420,1.4706,140,170,310,1.2143,120,120,240,1,110,100,210,0.90909,107,60
880,230,650,190,550,740,2.8947,170,370,540,2.1765,160,300,460,1.875,150,200,350,1.3333,120,150,270,1.25,110,120,230,1.0909,107,60
880,230,640,200,650,850,3.25,180,430,610,2.3889,160,330,490,2.0625,150,210,360,1.4,120,150,270,1.25,110,130,240,1.1818,107,60
900,240,670,220,530,750,2.4091,180,380,560,2.1111,170,310,480,1.8235,150,220,370,1.4667,130,160,290,1.2308,110,130,240,1.1818,107,61
910,230,690,250,550,800,2.2,190,380,570,2,170,320,490,1.8824,150,210,360,1.4,130,160,290,1.2308,120,130,250,1.0833,108,61
900,220,670,190,520,710,2.7368,160,350,510,2.1875,160,280,440,1.75,130,190,320,1.4615,120,150,270,1.25,100,130,230,1.3,108,61
900,230,650,190,580,770,3.0526,170,380,550,2.2353,150,310,460,2.0667,140,210,350,1.5,110,160,270,1.4545,100,130,230,1.3,107,61
850,250,610,210,620,830,2.9524,190,430,620,2.2632,180,340,520,1.8889,160,210,370,1.3125,130,140,270,1.0769,120,120,240,1,108,61
880,240,640,260,500,760,1.9231,180,360,540,2,170,300,470,1.7647,140,210,350,1.5,130,150,280,1.1538,120,130,250,1.0833,108,61
880,240,640,260,490,750,1.8846,200,330,530,1.65,190,290,480,1.5263,150,210,360,1.4,130,160,290,1.2308,120,130,250,1.0833,108,61
860,240,630,200,530,730,2.65,170,90,260,0.52941,170,90,260,0.52941,150,90,240,0.6,130,90,220,0.69231,110,90,200,0.81818,108,61
850,230,550,190,510,700,2.6842,180,330,510,1.8333,160,270,430,1.6875,150,190,340,1.2667,120,150,270,1.25,110,120,230,1.0909,108,61
850,300,610,220,620,840,2.8182,200,450,650,2.25,190,340,530,1.7895,160,220,380,1.375,140,150,290,1.0714,120,120,240,1,108,61
880,240,650,260,530,790,2.0385,200,390,590,1.95,180,330,510,1.8333,160,220,380,1.375,130,160,290,1.2308,120,130,250,1.0833,109,61
880,230,640,250,460,710,1.84,190,290,480,1.5263,170,240,410,1.4118,160,170,330,1.0625,130,110,240,0.84615,120,90,210,0.75,109,61
860,240,610,210,500,710,2.381,180,340,520,1.8889,170,280,450,1.6471,150,190,340,1.2667,130,140,270,1.0769,120,110,230,0.91667,109,61
860,250,620,190,630,820,3.3158,170,450,620,2.6471,160,330,490,2.0625,140,200,340,1.4286,120,150,270,1.25,110,120,230,1.0909,110,62
860,240,630,200,640,840,3.2,160,390,550,2.4375,160,340,500,2.125,140,210,350,1.5,130,160,290,1.2308,110,130,240,1.1818,110,62
870,230,670,250,520,770,2.08,190,370,560,1.9474,180,310,490,1.7222,150,220,370,1.4667,130,160,290,1.2308,110,130,240,1.1818,110,62
860,200,640,210,490,700,2.3333,180,340,520,1.8889,160,280,440,1.75,140,200,340,1.4286,120,140,260,1.1667,100,120,220,1.2,110,62
880,220,640,190,530,720,2.7895,160,350,510,2.1875,160,280,440,1.75,130,190,320,1.4615,120,140,260,1.1667,100,120,220,1.2,110,62
850,240,610,200,620,820,3.1,180,460,640,2.5556,170,390,560,2.2941,150,250,400,1.6667,120,180,300,1.5,120,140,260,1.1667,110,62
840,240,620,210,630,840,3,180,370,550,2.0556,170,290,460,1.7059,150,200,350,1.3333,130,140,270,1.0769,110,120,230,1.0909,111,62
870,220,650,240,490,730,2.0417,240,450,690,1.875,200,370,570,1.85,160,250,410,1.5625,130,170,300,1.3077,110,140,250,1.2727,111,62
880,220,650,200,480,680,2.4,180,330,510,1.8333,160,260,420,1.625,140,190,330,1.3571,120,140,260,1.1667,110,120,230,1.0909,111,62
880,230,650,190,550,740,2.8947,160,360,520,2.25,160,270,430,1.6875,130,190,320,1.4615,120,140,260,1.1667,100,120,220,1.2,111,62
870,230,630,190,640,830,3.3684,160,520,680,3.25,150,410,560,2.7333,130,230,360,1.7692,120,160,280,1.3333,110,140,250,1.2727,110,62
870,240,630,200,640,840,3.2,180,390,570,2.1667,160,310,470,1.9375,150,200,350,1.3333,120,150,270,1.25,110,120,230,1.0909,111,62
880,240,650,260,490,750,1.8846,220,330,550,1.5,190,260,450,1.3684,160,200,360,1.25,140,160,300,1.1429,120,130,250,1.0833,111,63
890,230,660,210,520,730,2.4762,180,360,540,2,170,300,470,1.7647,140,200,340,1.4286,120,150,270,1.25,100,120,220,1.2,110,62
880,230,460,190,470,660,2.4737,170,360,530,2.1176,160,290,450,1.8125,140,190,330,1.3571,110,140,250,1.2727,110,120,230,1.0909,110,62
890,420,650,190,660,850,3.4737,160,390,550,2.4375,150,310,460,2.0667,130,210,340,1.6154,110,160,270,1.4545,100,140,240,1.4,110,62
880,240,650,200,640,840,3.2,170,400,570,2.3529,160,330,490,2.0625,150,220,370,1.4667,120,150,270,1.25,110,130,240,1.1818,110,62
890,230,670,250,510,760,2.04,230,380,610,1.6522,200,310,510,1.55,170,210,380,1.2353,160,150,310,0.9375,120,130,250,1.0833,110,62
890,220,670,200,500,700,2.5,170,350,520,2.0588,160,280,440,1.75,130,190,320,1.4615,120,140,260,1.1667,100,120,220,1.2,110,62
890,220,660,190,570,760,3,160,370,530,2.3125,150,300,450,2,140,210,350,1.5,110,150,260,1.3636,100,120,220,1.2,109,62
870,230,630,180,640,820,3.5556,160,640,800,4,160,320,480,2,140,200,340,1.4286,110,150,260,1.3636,110,130,240,1.1818,110,62
870,240,640,260,510,770,1.9615,200,430,630,2.15,180,330,510,1.8333,160,210,370,1.3125,140,160,300,1.1429,120,130,250,1.0833,110,62
880,230,650,250,480,730,1.92,190,340,530,1.7895,170,290,460,1.7059,160,200,360,1.25,130,140,270,1.0769,120,120,240,1,110,62
870,230,650,200,650,850,3.25,170,450,620,2.6471,170,370,540,2.1765,140,240,380,1.7143,130,170,300,1.3077,110,130,240,1.1818,110,62
900,220,640,240,490,730,2.0417,200,340,540,1.7,170,270,440,1.5882,150,190,340,1.2667,120,140,260,1.1667,120,110,230,0.91667,110,62
830,260,590,220,600,820,2.7273,200,600,800,3,180,400,580,2.2222,170,220,390,1.2941,140,150,290,1.0714,130,130,260,1,110,62
860,240,640,190,570,760,3,170,370,540,2.1765,170,280,450,1.6471,140,190,330,1.3571,130,140,270,1.0769,110,120,230,1.0909,110,62
890,220,660,210,500,710,2.381,180,330,510,1.8333,170,270,440,1.5882,150,190,340,1.2667,120,140,260,1.1667,110,110,220,1,110,62
880,230,650,250,500,750,2,250,440,690,1.76,200,340,540,1.7,150,220,370,1.4667,140,150,290,1.0714,120,130,250,1.0833,110,62
890,230,650,200,660,860,3.3,170,370,540,2.1765,160,270,430,1.6875,140,190,330,1.3571,110,140,250,1.2727,100,120,220,1.2,110,62
870,240,600,200,610,810,3.05,180,410,590,2.2778,170,340,510,2,150,210,360,1.4,130,150,280,1.1538,110,130,240,1.1818,110,62
910,270,670,290,480,770,1.6552,240,380,620,1.5833,200,340,540,1.7,170,240,410,1.4118,150,160,310,1.0667,140,130,270,0.92857,110,62
880,240,650,210,660,870,3.1429,190,600,790,3.1579,180,460,640,2.5556,150,270,420,1.8,130,170,300,1.3077,110,130,240,1.1818,110,63
890,230,660,200,570,770,2.85,170,320,490,1.8824,160,260,420,1.625,140,180,320,1.2857,120,130,250,1.0833,110,110,220,1,110,62
890,230,640,210,420,630,2,180,300,480,1.6667,160,250,410,1.5625,140,180,320,1.2857,120,130,250,1.0833,110,100,210,0.90909,110,62
850,250,610,270,470,740,1.7407,250,420,670,1.68,210,410,620,1.9524,170,270,440,1.5882,140,170,310,1.2143,130,130,260,1,109,62
880,240,590,260,410,670,1.5769,180,290,470,1.6111,170,260,430,1.5294,140,210,350,1.5,120,160,280,1.3333,100,130,230,1.3,110,62
890,290,670,190,640,830,3.3684,170,440,610,2.5882,150,350,500,2.3333,140,220,360,1.5714,110,160,270,1.4545,90,130,220,1.4444,110,62
880,220,650,190,660,850,3.4737,170,590,760,3.4706,160,400,560,2.5,150,220,370,1.4667,120,150,270,1.25,110,120,230,1.0909,109,62
1730,230,630,250,470,720,1.88,190,340,530,1.7895,170,290,460,1.7059,150,200,350,1.3333,120,160,280,1.3333,110,120,230,1.0909,108,62
890,1100,650,1050,660,1710,0.62857,1030,410,1440,0.39806,900,310,1210,0.34444,750,210,960,0.28,660,150,810,0.22727,590,130,720,0.22034,108,62
890,240,650,260,450,710,1.7308,220,380,600,1.7273,190,290,480,1.5263,170,210,380,1.2353,140,170,310,1.2143,130,130,260,1,108,62
850,240,610,200,540,740,2.7,180,340,520,1.8889,170,270,440,1.5882,140,180,320,1.2857,130,130,260,1,110,110,220,1,108,62
860,240,640,260,400,660,1.5385,190,270,460,1.4211,170,230,400,1.3529,150,180,330,1.2,120,140,260,1.1667,110,110,220,1,108,62
880,220,590,180,600,780,3.3333,150,600,750,4,140,410,550,2.9286,130,220,350,1.6923,120,160,280,1.3333,100,130,230,1.3,108,62
880,290,660,210,500,710,2.381,160,350,510,2.1875,160,280,440,1.75,150,180,330,1.2,130,130,260,1,110,110,220,1,108,62
880,220,660,240,500,740,2.0833,210,330,540,1.5714,180,250,430,1.3889,160,180,340,1.125,130,160,290,1.2308,120,130,250,1.0833,108,62
880,220,660,210,570,780,2.7143,180,450,630,2.5,170,380,550,2.2353,140,210,350,1.5,130,150,280,1.1538,110,120,230,1.0909,107,62
880,220,450,190,460,650,2.4211,170,270,440,1.5882,160,220,380,1.375,130,170,300,1.3077,120,130,250,1.0833,100,110,210,1.1,107,62
890,430,640,410,540,950,1.3171,190,340,530,1.7895,170,280,450,1.6471,150,200,350,1.3333,130,150,280,1.1538,110,130,240,1.1818,107,62
850,250,630,220,480,700,2.1818,190,350,540,1.8421,180,290,470,1.6111,160,200,360,1.25,140,140,280,1,130,120,250,0.92308,108,62
890,220,650,190,430,620,2.2632,180,260,440,1.4444,170,230,400,1.3529,150,180,330,1.2,140,140,280,1,100,110,210,1.1,108,62
890,240,640,200,380,580,1.9,170,260,430,1.5294,160,220,380,1.375,140,160,300,1.1429,110,120,230,1.0909,110,100,210,0.90909,107,62
860,250,630,270,440,710,1.6296,210,320,530,1.5238,190,260,450,1.3684,170,200,370,1.1765,130,140,270,1.0769,120,120,240,1,107,62
860,230,630,190,590,780,3.1053,170,360,530,2.1176,160,290,450,1.8125,140,200,340,1.4286,120,150,270,1.25,110,130,240,1.1818,108,62
880,230,650,190,410,600,2.1579,170,290,460,1.7059,160,240,400,1.5,130,180,310,1.3846,120,140,260,1.1667,90,120,210,1.3333,108,62
870,230,650,200,500,700,2.5,170,330,500,1.9412,170,260,430,1.5294,140,190,330,1.3571,120,140,260,1.1667,110,120,230,1.0909,108,62
880,220,650,180,530,710,2.9444,160,320,480,2,150,260,410,1.7333,130,180,310,1.3846,110,140,250,1.2727,90,120,210,1.3333,108,62
860,230,620,200,600,800,3,170,350,520,2.0588,160,280,440,1.75,130,180,310,1.3846,120,140,260,1.1667,110,110,220,1,108,62
850,240,620,200,460,660,2.3,180,310,490,1.7222,170,250,420,1.4706,140,180,320,1.2857,120,140,260,1.1667,110,120,230,1.0909,109,63
870,230,650,250,470,720,1.88,190,310,500,1.6316,170,270,440,1.5882,150,220,370,1.4667,130,160,290,1.2308,110,140,250,1.2727,109,63
870,220,640,180,470,650,2.6111,160,300,460,1.875,150,250,400,1.6667,140,180,320,1.2857,110,140,250,1.2727,100,120,220,1.2,109,63
850,230,540,190,450,640,2.3684,170,300,470,1.7647,160,240,400,1.5,130,170,300,1.3077,120,130,250,1.0833,110,110,220,1,109,63
850,310,630,190,530,720,2.7895,170,380,550,2.2353,150,280,430,1.8667,140,200,340,1.4286,110,150,260,1.3636,100,120,220,1.2,109,63
850,220,620,190,630,820,3.3158,160,560,720,3.5,150,250,400,1.6667,130,170,300,1.3077,100,130,230,1.3,100,110,210,1.1,109,63
890,230,670,210,420,630,2,160,290,450,1.8125,160,240,400,1.5,130,180,310,1.3846,110,130,240,1.1818,90,100,190,1.1111,109,63
1730,220,650,240,560,800,2.3333,190,400,590,2.1053,170,310,480,1.8235,150,190,340,1.2667,130,140,270,1.0769,120,120,240,1,109,63
870,1080,630,1050,640,1690,0.60952,900,600,1500,0.66667,570,440,1010,0.77193,410,250,660,0.60976,290,170,460,0.58621,160,140,300,0.875,109,63
860,240,680,210,570,780,2.7143,180,330,510,1.8333,170,270,440,1.5882,150,190,340,1.2667,120,140,260,1.1667,120,120,240,1,109,63
900,180,670,200,430,630,2.15,190,290,480,1.5263,180,240,420,1.3333,150,180,330,1.2,130,140,270,1.0769,110,110,220,1,109,63
880,230,650,200,660,860,3.3,170,400,570,2.3529,160,300,460,1.875,140,190,330,1.3571,120,140,260,1.1667,110,120,230,1.0909,109,63
850,230,630,190,640,830,3.3684,170,380,550,2.2353,160,300,460,1.875,140,210,350,1.5,120,150,270,1.25,110,130,240,1.1818,109,63
860,220,600,180,540,720,3,160,310,470,1.9375,150,260,410,1.7333,130,190,320,1.4615,110,150,260,1.3636,100,120,220,1.2,109,63
840,260,620,220,460,680,2.0909,190,380,570,2,170,300,470,1.7647,150,190,340,1.2667,130,140,270,1.0769,120,120,240,1,109,63
850,220,640,240,480,720,2,180,340,520,1.8889,160,270,430,1.6875,150,190,340,1.2667,120,140,260,1.1667,110,120,230,1.0909,109,63
850,210,630,180,470,650,2.6111,160,300,460,1.875,150,250,400,1.6667,120,190,310,1.5833,110,130,240,1.1818,100,120,220,1.2,109,63
860,220,630,180,560,740,3.1111,160,340,500,2.125,150,270,420,1.8,130,190,320,1.4615,100,140,240,1.4,100,120,220,1.2,108,63
840,230,620,210,490,700,2.3333,180,330,510,1.8333,160,260,420,1.625,150,180,330,1.2,120,140,260,1.1667,120,110,230,0.91667,108,63
850,220,620,200,630,830,3.15,170,470,640,2.7647,160,340,500,2.125,140,180,320,1.2857,120,140,260,1.1667,110,120,230,1.0909,108,63
840,230,630,230,460,690,2,190,300,490,1.5789,170,250,420,1.4706,150,170,320,1.1333,130,130,260,1,120,110,230,0.91667,109,63
890,210,660,180,550,730,3.0556,160,340,500,2.125,150,270,420,1.8,130,190,320,1.4615,110,150,260,1.3636,90,130,220,1.4444,109,63
840,230,600,200,500,700,2.5,180,310,490,1.7222,170,240,410,1.4118,150,170,320,1.1333,130,120,250,0.92308,120,100,220,0.83333,108,63
850,240,620,190,450,640,2.3684,170,280,450,1.6471,160,230,390,1.4375,140,170,310,1.2143,120,130,250,1.0833,100,120,220,1.2,108,63
860,230,620,190,530,720,2.7895,170,310,480,1.8235,160,250,410,1.5625,150,180,330,1.2,120,130,250,1.0833,110,110,220,1,109,63
850,240,630,260,460,720,1.7692,190,320,510,1.6842,170,250,420,1.4706,160,180,340,1.125,130,130,260,1,120,120,240,1,109,63
870,220,650,180,180,360,1,160,180,340,1.125,150,180,330,1.2,140,180,320,1.2857,110,140,250,1.2727,100,120,220,1.2,109,63
870,220,640,190,480,670,2.5263,170,290,460,1.7059,160,230,390,1.4375,130,170,300,1.3077,120,130,250,1.0833,100,110,210,1.1,109,63
850,230,620,200,600,800,3,170,330,500,1.9412,160,260,420,1.625,140,180,320,1.2857,120,140,260,1.1667,110,120,230,1.0909,109,63
850,230,640,190,540,730,2.8421,160,300,460,1.875,150,250,400,1.6667,130,180,310,1.3846,110,140,250,1.2727,100,120,220,1.2,109,63
1780,210,660,230,480,710,2.087,230,330,560,1.4348,200,280,480,1.4,150,200,350,1.3333,120,160,280,1.3333,110,130,240,1.1818,110,63
870,1120,650,1080,660,1740,0.61111,1050,660,1710,0.62857,1040,660,1700,0.63462,570,400,970,0.70175,370,210,580,0.56757,300,150,450,0.5,109,63
870,220,630,240,500,740,2.0833,180,480,660,2.6667,170,360,530,2.1176,150,220,370,1.4667,120,160,280,1.3333,110,130,240,1.1818,109,63
880,240,650,200,420,620,2.1,170,280,450,1.6471,160,240,400,1.5,140,180,320,1.2857,120,140,260,1.1667,100,120,220,1.2,110,63
920,230,690,250,480,730,1.92,180,320,500,1.7778,180,270,450,1.5,140,190,330,1.3571,130,140,270,1.0769,110,120,230,1.0909,110,63
870,230,650,200,570,770,2.85,170,360,530,2.1176,160,280,440,1.75,140,190,330,1.3571,120,140,260,1.1667,110,120,230,1.0909,110,63
860,220,620,190,500,690,2.6316,160,300,460,1.875,150,250,400,1.6667,130,170,300,1.3077,120,130,250,1.0833,100,110,210,1.1,109,63
870,240,640,190,520,710,2.7368,170,380,550,2.2353,160,310,470,1.9375,140,220,360,1.5714,120,150,270,1.25,110,120,230,1.0909,110,63
880,230,660,220,510,730,2.3182,180,350,530,1.9444,170,280,450,1.6471,140,200,340,1.4286,130,150,280,1.1538,110,120,230,1.0909,110,63
900,220,680,220,500,720,2.2727,180,340,520,1.8889,170,280,450,1.6471,140,190,330,1.3571,110,150,260,1.3636,110,120,230,1.0909,110,63
880,220,660,190,550,740,2.8947,160,350,510,2.1875,160,280,440,1.75,130,200,330,1.5385,120,150,270,1.25,100,130,230,1.3,110,63
890,220,650,200,480,680,2.4,160,310,470,1.9375,160,250,410,1.5625,130,180,310,1.3846,120,140,260,1.1667,100,110,210,1.1,109,63
870,240,620,200,630,830,3.15,180,570,750,3.1667,170,380,550,2.2353,150,220,370,1.4667,130,160,290,1.2308,120,130,250,1.0833,109,62
870,250,650,240,520,760,2.1667,180,390,570,2.1667,180,340,520,1.8889,160,220,380,1.375,130,160,290,1.2308,120,140,260,1.1667,109,62
890,220,660,190,500,690,2.6316,160,310,470,1.9375,160,240,400,1.5,140,160,300,1.1429,120,140,260,1.1667,110,130,240,1.1818,109,62
890,230,660,190,510,700,2.6842,160,330,490,2.0625,160,260,420,1.625,130,180,310,1.3846,120,140,260,1.1667,100,120,220,1.2,108,62
880,230,650,200,570,770,2.85,170,350,520,2.0588,160,280,440,1.75,140,190,330,1.3571,130,140,270,1.0769,110,120,230,1.0909,108,62
860,230,620,210,630,840,3,170,410,580,2.4118,170,330,500,1.9412,150,200,350,1.3333,130,140,270,1.0769,110,120,230,1.0909,108,62
860,240,630,220,480,700,2.1818,190,350,540,1.8421,170,300,470,1.7647,150,210,360,1.4,120,150,270,1.25,110,130,240,1.1818,108,62
890,230,670,250,520,770,2.08,190,370,560,1.9474,180,310,490,1.7222,150,210,360,1.4,130,160,290,1.2308,110,130,240,1.1818,108,62
880,220,660,180,580,760,3.2222,160,380,540,2.375,140,300,440,2.1429,140,190,330,1.3571,110,140,250,1.2727,100,120,220,1.2,108,62
870,220,630,190,560,750,2.9474,170,400,570,2.3529,160,340,500,2.125,140,230,370,1.6429,120,170,290,1.4167,100,120,220,1.2,107,61
860,240,630,200,450,650,2.25,170,340,510,2,170,270,440,1.5882,140,190,330,1.3571,120,150,270,1.25,100,120,220,1.2,107,61
860,230,650,220,520,740,2.3636,180,420,600,2.3333,170,350,520,2.0588,150,230,380,1.5333,130,150,280,1.1538,110,130,240,1.1818,107,61
880,210,630,230,480,710,2.087,170,340,510,2,160,280,440,1.75,140,200,340,1.4286,110,150,260,1.3636,100,130,230,1.3,107,61
870,250,650,180,600,780,3.3333,160,420,580,2.625,150,340,490,2.2667,130,210,340,1.6154,110,150,260,1.3636,100,130,230,1.3,106,61
870,220,650,180,540,720,3,150,360,510,2.4,150,300,450,2,120,220,340,1.8333,110,150,260,1.3636,100,130,230,1.3,106,61
870,220,640,190,650,840,3.4211,160,550,710,3.4375,150,390,540,2.6,130,230,360,1.7692,110,160,270,1.4545,100,150,250,1.5,106,61
880,230,600,200,430,630,2.15,180,260,440,1.4444,170,220,390,1.2941,140,200,340,1.4286,130,150,280,1.1538,110,120,230,1.0909,106,61
870,280,660,220,550,770,2.5,180,410,590,2.2778,180,330,510,1.8333,150,210,360,1.4,140,150,290,1.0714,120,120,240,1,106,61
870,210,670,230,570,800,2.4783,230,500,730,2.1739,230,490,720,2.1304,170,310,480,1.8235,130,180,310,1.3846,120,140,260,1.1667,106,61
900,200,580,220,330,550,1.5,160,230,390,1.4375,160,200,360,1.25,130,160,290,1.2308,120,120,240,1,100,100,200,1,105,60
870,320,630,220,640,860,2.9091,180,470,650,2.6111,180,370,550,2.0556,150,230,380,1.5333,140,160,300,1.1429,120,120,240,1,105,60
910,240,690,200,700,900,3.5,170,480,650,2.8235,160,380,540,2.375,130,250,380,1.9231,110,170,280,1.5455,110,130,240,1.1818,106,60
890,220,680,240,540,780,2.25,180,370,550,2.0556,160,300,460,1.875,140,210,350,1.5,120,150,270,1.25,110,130,240,1.1818,105,60
900,210,660,200,460,660,2.3,170,300,470,1.7647,150,250,400,1.6667,130,170,300,1.3077,120,130,250,1.0833,100,110,210,1.1,105,60
1760,240,660,200,670,870,3.35,170,470,640,2.7647,160,310,470,1.9375,150,200,350,1.3333,120,150,270,1.25,110,120,230,1.0909,105,60
860,1100,660,1070,560,1630,0.52336,780,370,1150,0.47436,560,310,870,0.55357,410,220,630,0.53659,290,160,450,0.55172,120,130,250,1.0833,105,60
880,200,660,170,470,640,2.7647,160,290,450,1.8125,140,250,390,1.7857,130,190,320,1.4615,110,150,260,1.3636,90,130,220,1.4444,105,60
880,220,630,200,450,650,2.25,170,320,490,1.8824,150,260,410,1.7333,130,190,320,1.4615,110,140,250,1.2727,100,120,220,1.2,105,60
870,250,260,200,270,470,1.35,170,260,430,1.5294,170,260,430,1.5294,140,230,370,1.6429,120,160,280,1.3333,110,130,240,1.1818,104,60
860,610,630,620,470,1090,0.75806,180,340,520,1.8889,170,280,450,1.6471,150,200,350,1.3333,120,150,270,1.25,120,120,240,1,105,60
870,230,640,250,480,730,1.92,180,340,520,1.8889,180,280,460,1.5556,150,200,350,1.3333,130,150,280,1.1538,100,120,220,1.2,105,60
870,230,640,250,510,760,2.04,180,390,570,2.1667,170,310,480,1.8235,140,200,340,1.4286,130,140,270,1.0769,110,120,230,1.0909,104,60
860,230,640,190,550,740,2.8947,160,300,460,1.875,160,250,410,1.5625,130,180,310,1.3846,120,140,260,1.1667,100,110,210,1.1,104,60
860,220,640,190,520,710,2.7368,170,350,520,2.0588,150,280,430,1.8667,140,200,340,1.4286,110,150,260,1.3636,100,120,220,1.2,103,59
840,220,630,190,620,810,3.2632,160,400,560,2.5,150,310,460,2.0667,130,200,330,1.5385,100,150,250,1.5,90,120,210,1.3333,104,59
930,210,670,230,540,770,2.3478,180,400,580,2.2222,160,340,500,2.125,130,220,350,1.6923,120,170,290,1.4167,100,140,240,1.4,104,60
830,260,620,220,630,850,2.8636,200,630,830,3.15,190,630,820,3.3158,170,480,650,2.8235,150,170,320,1.1333,130,130,260,1,103,60
870,210,660,220,520,740,2.3636,170,340,510,2,160,280,440,1.75,140,190,330,1.3571,120,140,260,1.1667,110,120,230,1.0909,103,60
870,210,650,230,560,790,2.4348,190,510,700,2.6842,180,380,560,2.1111,150,220,370,1.4667,120,150,270,1.25,110,130,240,1.1818,103,59
860,220,630,180,640,820,3.5556,160,360,520,2.25,150,280,430,1.8667,140,200,340,1.4286,110,150,260,1.3636,100,130,230,1.3,103,59
880,230,630,250,470,720,1.88,180,330,510,1.8333,160,270,430,1.6875,140,190,330,1.3571,120,150,270,1.25,110,120,230,1.0909,103,59
870,250,660,190,620,810,3.2632,160,420,580,2.625,150,340,490,2.2667,130,220,350,1.6923,120,150,270,1.25,100,130,230,1.3,103,59
890,210,650,190,510,700,2.6842,160,310,470,1.9375,150,240,390,1.6,130,180,310,1.3846,110,140,250,1.2727,100,120,220,1.2,103,59
850,240,620,210,420,630,2,180,320,500,1.7778,160,260,420,1.625,150,180,330,1.2,120,140,260,1.1667,110,110,220,1,103,59
870,230,640,190,650,840,3.4211,170,650,820,3.8235,160,410,570,2.5625,140,210,350,1.5,120,150,270,1.25,110,130,240,1.1818,103,59
860,230,590,250,510,760,2.04,200,360,560,1.8,190,310,500,1.6316,160,210,370,1.3125,140,140,280,1,120,120,240,1,103,59
880,270,660,180,570,750,3.1667,160,360,520,2.25,150,280,430,1.8667,130,200,330,1.5385,110,150,260,1.3636,100,120,220,1.2,102,59
930,220,640,180,520,700,2.8889,160,360,520,2.25,150,280,430,1.8667,130,200,330,1.5385,110,140,250,1.2727,100,120,220,1.2,102,59
790,290,570,250,580,830,2.32,230,470,700,2.0435,220,350,570,1.5909,190,170,360,0.89474,170,100,270,0.58824,160,70,230,0.4375,102,59
840,220,640,180,550,730,3.0556,160,350,510,2.1875,150,280,430,1.8667,140,200,340,1.4286,110,150,260,1.3636,100,120,220,1.2,102,59
880,200,650,220,500,720,2.2727,220,410,630,1.8636,220,380,600,1.7273,160,240,400,1.5,130,170,300,1.3077,110,150,260,1.3636,102,59
850,230,630,190,640,830,3.3684,170,460,630,2.7059,160,330,490,2.0625,140,210,350,1.5,120,140,260,1.1667,100,120,220,1.2,102,59
850,220,620,180,500,680,2.7778,150,310,460,2.0667,150,260,410,1.7333,130,190,320,1.4615,110,140,250,1.2727,100,110,210,1.1,102,59
860,230,630,250,460,710,1.84,160,350,510,2.1875,150,300,450,2,140,210,350,1.5,120,150,270,1.25,110,130,240,1.1818,101,59
860,230,630,190,640,830,3.3684,180,570,750,3.1667,160,440,600,2.75,140,240,380,1.7143,120,160,280,1.3333,110,130,240,1.1818,102,59
850,230,630,200,620,820,3.1,170,390,560,2.2941,160,320,480,2,140,200,340,1.4286,120,150,270,1.25,110,120,230,1.0909,102,59
860,220,650,190,490,680,2.5789,160,330,490,2.0625,150,260,410,1.7333,130,190,320,1.4615,110,140,250,1.2727,90,120,210,1.3333,101,59
900,210,660,230,550,780,2.3913,180,500,680,2.7778,160,390,550,2.4375,140,230,370,1.6429,110,160,270,1.4545,110,130,240,1.1818,101,59
830,240,610,200,620,820,3.1,170,400,570,2.3529,170,320,490,1.8824,140,200,340,1.4286,130,140,270,1.0769,110,110,220,1,101,59
850,220,670,180,540,720,3,160,360,520,2.25,140,320,460,2.2857,120,250,370,2.0833,100,180,280,1.8,80,140,220,1.75,101,59
910,180,690,170,490,660,2.8824,130,280,410,2.1538,130,230,360,1.7692,90,160,250,1.7778,90,80,170,0.88889,70,20,90,0.28571,101,59
850,220,640,240,450,690,1.875,170,310,480,1.8235,160,260,420,1.625,140,180,320,1.2857,110,140,250,1.2727,110,110,220,1,100,58
870,210,650,180,530,710,2.9444,160,380,540,2.375,150,280,430,1.8667,130,200,330,1.5385,110,160,270,1.4545,90,130,220,1.4444,100,58
850,220,610,190,620,810,3.2632,160,450,610,2.8125,160,330,490,2.0625,140,200,340,1.4286,120,150,270,1.25,110,120,230,1.0909,100,58
830,240,620,200,530,730,2.65,170,360,530,2.1176,170,290,460,1.7059,140,200,340,1.4286,120,140,260,1.1667,110,120,230,1.0909,100,58
850,210,640,200,510,710,2.55,160,340,500,2.125,160,280,440,1.75,130,200,330,1.5385,120,150,270,1.25,100,130,230,1.3,100,58
860,210,630,230,460,690,2,180,330,510,1.8333,170,270,440,1.5882,140,200,340,1.4286,120,140,260,1.1667,100,120,220,1.2,100,58
830,230,610,200,620,820,3.1,170,430,600,2.5294,150,350,500,2.3333,150,210,360,1.4,120,150,270,1.25,100,110,210,1.1,100,58
830,220,600,180,610,790,3.3889,150,400,550,2.6667,150,320,470,2.1333,130,200,330,1.5385,100,150,250,1.5,100,120,220,1.2,99,58
830,230,620,190,540,730,2.8421,170,360,530,2.1176,160,280,440,1.75,130,180,310,1.3846,110,140,250,1.2727,100,120,220,1.2,100,58
840,210,620,230,460,690,2,170,320,490,1.8824,160,260,420,1.625,140,190,330,1.3571,120,140,260,1.1667,100,120,220,1.2,100,58
840,220,610,240,460,700,1.9167,170,300,470,1.7647,160,250,410,1.5625,140,180,320,1.2857,120,140,260,1.1667,100,110,210,1.1,100,58
830,230,620,190,610,800,3.2105,160,430,590,2.6875,160,330,490,2.0625,130,190,320,1.4615,110,140,250,1.2727,100,120,220,1.2,100,58
860,210,610,180,490,670,2.7222,150,350,500,2.3333,150,280,430,1.8667,120,190,310,1.5833,110,150,260,1.3636,90,120,210,1.3333,100,58
810,250,610,200,620,820,3.1,170,420,590,2.4706,170,340,510,2,140,200,340,1.4286,130,130,260,1,110,110,220,1,100,58
1720,200,1190,220,1160,1380,5.2727,160,1100,1260,6.875,150,1010,1160,6.7333,130,790,920,6.0769,110,680,790,6.1818,100,210,310,2.1,101,59
890,530,520,550,450,1000,0.81818,550,440,990,0.8,390,410,800,1.0513,160,310,470,1.9375,130,230,360,1.7692,110,210,320,1.9091,101,59
1070,370,580,170,550,720,3.2353,150,550,700,3.6667,140,540,680,3.8571,110,270,380,2.4545,70,160,230,2.2857,70,110,180,1.5714,101,59
3910,490,350,460,360,820,0.78261,420,360,780,0.85714,420,360,780,0.85714,380,160,540,0.42105,350,60,410,0.17143,340,40,380,0.11765,101,59
820,3560,610,3570,390,3960,0.10924,3350,290,3640,0.086567,2560,250,2810,0.097656,1420,220,1640,0.15493,970,170,1140,0.17526,750,140,890,0.18667,101,57
860,210,640,190,430,620,2.2632,150,310,460,2.0667,150,270,420,1.8,130,190,320,1.4615,110,150,260,1.3636,90,130,220,1.4444,101,57
850,220,630,240,520,760,2.1667,170,310,480,1.8235,160,250,410,1.5625,130,190,320,1.4615,120,140,260,1.1667,100,120,220,1.2,100,57
840,220,630,200,440,640,2.2,170,270,440,1.5882,160,230,390,1.4375,140,170,310,1.2143,110,130,240,1.1818,100,120,220,1.2,100,57
860,210,640,180,570,750,3.1667,150,320,470,2.1333,140,260,400,1.8571,130,190,320,1.4615,90,140,230,1.5556,90,120,210,1.3333,100,57
850,220,620,180,630,810,3.5,160,430,590,2.6875,150,340,490,2.2667,130,220,350,1.6923,110,170,280,1.5455,90,140,230,1.5556,101,58
830,230,630,200,500,700,2.5,170,330,500,1.9412,160,260,420,1.625,140,180,320,1.2857,120,130,250,1.0833,110,110,220,1,101,58
870,200,650,220,460,680,2.0909,170,360,530,2.1176,160,290,450,1.8125,130,190,320,1.4615,110,140,250,1.2727,90,120,210,1.3333,101,58
840,220,620,190,460,650,2.4211,160,310,470,1.9375,150,250,400,1.6667,130,180,310,1.3846,110,140,250,1.2727,100,110,210,1.1,101,58
860,220,590,180,450,630,2.5,150,340,490,2.2667,150,270,420,1.8,130,190,320,1.4615,110,150,260,1.3636,90,120,210,1.3333,101,58
840,270,620,190,630,820,3.3158,160,440,600,2.75,160,350,510,2.1875,130,200,330,1.5385,110,140,250,1.2727,90,120,210,1.3333,101,58
850,220,640,190,480,670,2.5263,170,340,510,2,160,280,440,1.75,130,190,320,1.4615,120,140,260,1.1667,100,120,220,1.2,101,58
850,210,640,230,440,670,1.913,180,300,480,1.6667,160,280,440,1.75,140,190,330,1.3571,120,140,260,1.1667,100,120,220,1.2,101,58
840,210,630,170,470,640,2.7647,150,300,450,2,140,240,380,1.7143,110,180,290,1.6364,100,140,240,1.4,80,110,190,1.375,101,58
860,210,600,180,500,680,2.7778,160,310,470,1.9375,150,250,400,1.6667,130,180,310,1.3846,110,140,250,1.2727,100,110,210,1.1,101,58
840,260,610,210,620,830,2.9524,180,350,530,1.9444,170,260,430,1.5294,150,180,330,1.2,120,130,250,1.0833,110,110,220,1,101,58
860,230,630,190,450,640,2.3684,170,300,470,1.7647,150,250,400,1.6667,130,190,320,1.4615,120,140,260,1.1667,100,120,220,1.2,101,58
860,230,650,250,460,710,1.84,180,280,460,1.5556,160,230,390,1.4375,140,160,300,1.1429,120,120,240,1,110,110,220,1,101,58
890,210,670,180,530,710,2.9444,150,330,480,2.2,140,260,400,1.8571,120,180,300,1.5,100,140,240,1.4,90,120,210,1.3333,100,58
850,220,620,190,630,820,3.3158,170,400,570,2.3529,160,280,440,1.75,140,180,320,1.2857,120,130,250,1.0833,100,110,210,1.1,100,58
860,230,630,190,500,690,2.6316,160,320,480,2,150,260,410,1.7333,140,180,320,1.2857,110,140,250,1.2727,110,110,220,1,101,58
860,230,640,190,460,650,2.4211,170,290,460,1.7059,160,250,410,1.5625,140,180,320,1.2857,110,140,250,1.2727,100,120,220,1.2,101,58
880,220,670,240,460,700,1.9167,190,300,490,1.5789,170,250,420,1.4706,150,190,340,1.2667,110,140,250,1.2727,100,110,210,1.1,101,58
860,210,630,180,470,650,2.6111,150,290,440,1.9333,150,230,380,1.5333,130,180,310,1.3846,110,130,240,1.1818,100,110,210,1.1,101,58
860,230,630,180,550,730,3.0556,160,340,500,2.125,150,280,430,1.8667,130,180,310,1.3846,100,140,240,1.4,90,120,210,1.3333,101,58
870,230,640,190,520,710,2.7368,160,310,470,1.9375,150,250,400,1.6667,130,190,320,1.4615,110,140,250,1.2727,100,110,210,1.1,101,58
850,230,640,210,510,720,2.4286,180,330,510,1.8333,160,280,440,1.75,140,200,340,1.4286,120,140,260,1.1667,100,120,220,1.2,101,58
870,210,650,190,460,650,2.4211,150,320,470,2.1333,150,270,420,1.8,120,190,310,1.5833,100,150,250,1.5,90,130,220,1.4444,101,58
870,220,620,180,420,600,2.3333,160,280,440,1.75,150,230,380,1.5333,130,170,300,1.3077,110,120,230,1.0909,100,110,210,1.1,101,58
830,250,610,200,540,740,2.7,170,290,460,1.7059,170,240,410,1.4118,140,170,310,1.2143,120,120,240,1,100,90,190,0.9,101,58
850,220,620,190,510,700,2.6842,160,310,470,1.9375,150,260,410,1.7333,130,180,310,1.3846,120,140,260,1.1667,100,120,220,1.2,101,58
860,230,640,210,440,650,2.0952,170,330,500,1.9412,170,260,430,1.5294,140,190,330,1.3571,120,140,260,1.1667,100,120,220,1.2,101,58
860,220,650,210,460,670,2.1905,170,290,460,1.7059,160,240,400,1.5,140,180,320,1.2857,120,130,250,1.0833,110,110,220,1,101,58
860,210,640,180,460,640,2.5556,150,290,440,1.9333,140,240,380,1.7143,130,170,300,1.3077,100,140,240,1.4,80,110,190,1.375,101,58
860,220,630,190,580,770,3.0526,160,320,480,2,150,260,410,1.7333,130,190,320,1.4615,110,140,250,1.2727,100,110,210,1.1,100,58
850,230,610,190,490,680,2.5789,170,290,460,1.7059,160,240,400,1.5,130,170,300,1.3077,120,130,250,1.0833,100,110,210,1.1,100,58
860,240,640,200,440,640,2.2,180,270,450,1.5,160,230,390,1.4375,140,160,300,1.1429,120,140,260,1.1667,100,120,220,1.2,100,58
860,220,650,200,460,660,2.3,160,300,460,1.875,160,250,410,1.5625,130,180,310,1.3846,120,140,260,1.1667,100,110,210,1.1,101,58
1720,210,640,180,440,620,2.4444,150,290,440,1.9333,140,240,380,1.7143,120,180,300,1.5,100,130,230,1.3,90,120,210,1.3333,100,58
850,1080,640,800,510,1310,0.6375,340,360,700,1.0588,160,280,440,1.75,130,190,320,1.4615,110,140,250,1.2727,100,120,220,1.2,100,57
870,210,650,190,490,680,2.5789,160,330,490,2.0625,150,270,420,1.8,130,200,330,1.5385,110,150,260,1.3636,100,130,230,1.3,100,57
870,220,650,190,460,650,2.4211,170,310,480,1.8235,160,250,410,1.5625,140,170,310,1.2143,110,130,240,1.1818,100,120,220,1.2,100,57
870,220,650,180,530,710,2.9444,160,280,440,1.75,150,230,380,1.5333,130,170,300,1.3077,110,130,240,1.1818,90,110,200,1.2222,100,57
850,220,620,190,470,660,2.4737,160,290,450,1.8125,160,230,390,1.4375,130,180,310,1.3846,120,140,260,1.1667,100,110,210,1.1,99,57
850,230,630,190,490,680,2.5789,170,300,470,1.7647,150,250,400,1.6667,130,180,310,1.3846,110,130,240,1.1818,90,120,210,1.3333,99,57
880,220,650,190,440,630,2.3158,170,320,490,1.8824,160,260,420,1.625,140,200,340,1.4286,110,150,260,1.3636,100,130,230,1.3,100,57
870,230,650,210,450,660,2.1429,180,310,490,1.7222,160,250,410,1.5625,140,180,320,1.2857,120,140,260,1.1667,100,120,220,1.2,100,57
880,220,650,180,450,630,2.5,160,290,450,1.8125,150,250,400,1.6667,130,170,300,1.3077,110,130,240,1.1818,90,110,200,1.2222,99,57
860,230,620,190,510,700,2.6842,170,320,490,1.8824,160,250,410,1.5625,130,180,310,1.3846,120,130,250,1.0833,110,110,220,1,99,57
830,240,620,190,540,730,2.8421,170,320,490,1.8824,160,260,420,1.625,140,190,330,1.3571,120,140,260,1.1667,110,110,220,1,99,57
870,210,650,180,440,620,2.4444,160,320,480,2,150,260,410,1.7333,130,190,320,1.4615,110,140,250,1.2727,100,120,220,1.2,99,57
850,220,640,210,450,660,2.1429,170,290,460,1.7059,170,240,410,1.4118,140,170,310,1.2143,120,130,250,1.0833,110,110,220,1,100,57
880,210,660,180,480,660,2.6667,150,330,480,2.2,140,250,390,1.7857,120,190,310,1.5833,100,140,240,1.4,90,120,210,1.3333,99,57
860,220,630,190,470,660,2.4737,170,280,450,1.6471,150,240,390,1.6,140,170,310,1.2143,120,130,250,1.0833,100,110,210,1.1,99,57
850,230,620,190,480,670,2.5263,160,300,460,1.875,160,240,400,1.5,130,180,310,1.3846,120,130,250,1.0833,100,110,210,1.1,100,57
850,230,630,200,450,650,2.25,170,290,460,1.7059,160,250,410,1.5625,130,180,310,1.3846,120,130,250,1.0833,100,110,210,1.1,100,57
850,220,640,240,500,740,2.0833,180,320,500,1.7778,170,260,430,1.5294,140,190,330,1.3571,120,140,260,1.1667,100,120,220,1.2,100,57
860,210,640,170,460,630,2.7059,150,290,440,1.9333,140,240,380,1.7143,120,180,300,1.5,100,140,240,1.4,80,120,200,1.5,99,57
850,220,610,180,480,660,2.6667,160,290,450,1.8125,150,230,380,1.5333,130,170,300,1.3077,110,140,250,1.2727,90,110,200,1.2222,99,57
840,240,610,190,620,810,3.2632,170,330,500,1.9412,160,260,420,1.625,140,180,320,1.2857,110,130,240,1.1818,100,120,220,1.2,99,56
830,230,630,200,430,630,2.15,170,280,450,1.6471,160,240,400,1.5,140,180,320,1.2857,120,140,260,1.1667,100,120,220,1.2,99,57
870,200,660,220,460,680,2.0909,170,360,530,2.1176,150,290,440,1.9333,130,210,340,1.6154,110,160,270,1.4545,90,140,230,1.5556,98,56
850,210,630,180,460,640,2.5556,150,300,450,2,140,240,380,1.7143,120,180,300,1.5,100,140,240,1.4,90,110,200,1.2222,98,56
860,220,640,180,480,660,2.6667,160,290,450,1.8125,150,240,390,1.6,130,170,300,1.3077,100,140,240,1.4,90,120,210,1.3333,98,56
860,220,620,190,630,820,3.3158,170,350,520,2.0588,160,270,430,1.6875,140,190,330,1.3571,120,140,260,1.1667,110,110,220,1,98,56
850,240,640,200,450,650,2.25,170,290,460,1.7059,170,240,410,1.4118,140,170,310,1.2143,120,130,250,1.0833,110,110,220,1,98,56
880,210,670,230,440,670,1.913,170,280,450,1.6471,150,240,390,1.6,130,190,320,1.4615,110,160,270,1.4545,100,130,230,1.3,98,56
880,210,650,180,460,640,2.5556,150,280,430,1.8667,140,240,380,1.7143,130,180,310,1.3846,100,130,230,1.3,100,120,220,1.2,98,56
840,230,560,190,570,760,3,170,290,460,1.7059,160,240,400,1.5,140,170,310,1.2143,120,120,240,1,100,110,210,1.1,98,56
870,280,350,270,310,580,1.1481,250,290,540,1.16,220,280,500,1.2727,130,200,330,1.5385,120,150,270,1.25,100,120,220,1.2,98,56
860,520,640,210,570,780,2.7143,170,340,510,2,170,280,450,1.6471,140,190,330,1.3571,120,140,260,1.1667,110,120,230,1.0909,98,56
870,220,640,190,440,630,2.3158,170,270,440,1.5882,160,230,390,1.4375,140,180,320,1.2857,120,140,260,1.1667,110,110,220,1,98,56
860,230,630,180,500,680,2.7778,160,280,440,1.75,150,230,380,1.5333,140,170,310,1.2143,100,120,220,1.2,100,90,190,0.9,97,56
850,230,630,200,440,640,2.2,170,290,460,1.7059,160,230,390,1.4375,140,170,310,1.2143,110,130,240,1.1818,110,110,220,1,97,56
850,220,620,190,480,670,2.5263,170,290,460,1.7059,160,240,400,1.5,130,170,300,1.3077,110,130,240,1.1818,100,110,210,1.1,98,56
840,230,640,210,520,730,2.4762,180,320,500,1.7778,160,260,420,1.625,140,190,330,1.3571,120,140,260,1.1667,100,120,220,1.2,98,56
880,200,660,180,450,630,2.5,150,310,460,2.0667,140,260,400,1.8571,120,200,320,1.6667,100,160,260,1.6,90,130,220,1.4444,97,56
880,220,640,240,560,800,2.3333,180,380,560,2.1111,170,280,450,1.6471,140,210,350,1.5,120,160,280,1.3333,110,120,230,1.0909,97,56
830,240,610,210,620,830,2.9524,180,620,800,3.4444,180,620,800,3.4444,150,360,510,2.4,130,200,330,1.5385,120,160,280,1.3333,97,56
850,220,620,180,470,650,2.6111,160,300,460,1.875,150,250,400,1.6667,130,190,320,1.4615,110,140,250,1.2727,90,120,210,1.3333,97,55
840,230,630,250,440,690,1.76,190,420,610,2.2105,180,330,510,1.8333,150,210,360,1.4,130,150,280,1.1538,110,120,230,1.0909,97,56
860,210,640,200,440,640,2.2,170,290,460,1.7059,150,240,390,1.6,140,180,320,1.2857,110,140,250,1.2727,100,120,220,1.2,97,56
850,220,630,180,440,620,2.4444,160,270,430,1.6875,150,230,380,1.5333,130,170,300,1.3077,110,130,240,1.1818,100,100,200,1,97,55
850,220,620,180,490,670,2.7222,160,290,450,1.8125,140,240,380,1.7143,130,170,300,1.3077,100,130,230,1.3,90,110,200,1.2222,97,55
830,230,620,190,540,730,2.8421,170,300,470,1.7647,150,240,390,1.6,140,180,320,1.2857,110,130,240,1.1818,100,110,210,1.1,97,55
860,210,650,190,210,400,1.1053,160,50,210,0.3125,150,50,200,0.33333,130,50,180,0.38462,110,50,160,0.45455,90,50,140,0.55556,97,55
860,210,650,190,460,650,2.4211,150,300,450,2,150,250,400,1.6667,120,190,310,1.5833,100,140,240,1.4,90,110,200,1.2222,97,55
870,210,610,170,430,600,2.5294,150,280,430,1.8667,140,240,380,1.7143,120,180,300,1.5,100,140,240,1.4,90,120,210,1.3333,97,55
850,260,620,190,570,760,3,160,300,460,1.875,150,240,390,1.6,130,170,300,1.3077,110,130,240,1.1818,100,100,200,1,96,55
850,230,360,250,320,570,1.28,180,270,450,1.5,170,250,420,1.4706,150,210,360,1.4,120,150,270,1.25,110,130,240,1.1818,96,55
850,490,630,420,640,1060,1.5238,190,600,790,3.1579,180,400,580,2.2222,140,200,340,1.4286,120,120,240,1,110,110,220,1,96,55
860,220,640,240,470,710,1.9583,170,310,480,1.8235,160,260,420,1.625,140,190,330,1.3571,110,140,250,1.2727,110,110,220,1,96,55
850,220,640,240,480,720,2,200,440,640,2.2,170,360,530,2.1176,140,210,350,1.5,130,150,280,1.1538,110,130,240,1.1818,96,55
850,210,630,170,480,650,2.8235,150,300,450,2,140,250,390,1.7857,120,190,310,1.5833,100,140,240,1.4,100,120,220,1.2,95,55
840,220,610,180,520,700,2.8889,150,310,460,2.0667,150,260,410,1.7333,130,190,320,1.4615,110,150,260,1.3636,90,120,210,1.3333,95,54
840,230,620,190,510,700,2.6842,160,340,500,2.125,150,270,420,1.8,130,190,320,1.4615,110,150,260,1.3636,90,120,210,1.3333,95,54
850,220,630,240,470,710,1.9583,170,320,490,1.8824,160,270,430,1.6875,140,190,330,1.3571,110,150,260,1.3636,110,120,230,1.0909,94,54
840,220,620,180,460,640,2.5556,160,290,450,1.8125,150,240,390,1.6,120,180,300,1.5,110,140,250,1.2727,100,110,210,1.1,94,54
830,220,610,180,460,640,2.5556,160,300,460,1.875,150,250,400,1.6667,130,180,310,1.3846,110,140,250,1.2727,100,120,220,1.2,94,54
860,220,630,180,540,720,3,150,330,480,2.2,140,270,410,1.9286,120,190,310,1.5833,100,150,250,1.5,80,130,210,1.625,94,54
830,230,620,190,490,680,2.5789,170,320,490,1.8824,160,250,410,1.5625,130,180,310,1.3846,120,130,250,1.0833,100,100,200,1,94,54
860,210,650,200,480,680,2.4,160,340,500,2.125,150,270,420,1.8,120,200,320,1.6667,100,150,250,1.5,90,130,220,1.4444,95,54
860,210,630,180,440,620,2.4444,160,260,420,1.625,140,220,360,1.5714,130,170,300,1.3077,100,130,230,1.3,100,120,220,1.2,94,54
850,230,620,180,460,640,2.5556,160,300,460,1.875,150,250,400,1.6667,130,180,310,1.3846,110,140,250,1.2727,100,110,210,1.1,94,54
840,230,610,190,590,780,3.1053,170,300,470,1.7647,150,250,400,1.6667,130,170,300,1.3077,110,130,240,1.1818,100,110,210,1.1,94,54
850,230,640,180,520,700,2.8889,160,330,490,2.0625,150,260,410,1.7333,130,190,320,1.4615,110,140,250,1.2727,90,130,220,1.4444,94,54
860,210,660,210,480,690,2.2857,160,320,480,2,150,270,420,1.8,130,200,330,1.5385,110,150,260,1.3636,90,120,210,1.3333,94,54
870,200,650,180,450,630,2.5,160,290,450,1.8125,140,240,380,1.7143,120,180,300,1.5,100,130,230,1.3,90,100,190,1.1111,94,53
870,220,640,180,480,660,2.6667,150,300,450,2,150,250,400,1.6667,120,190,310,1.5833,100,140,240,1.4,90,120,210,1.3333,93,53
840,230,610,190,600,790,3.1579,160,310,470,1.9375,150,250,400,1.6667,140,180,320,1.2857,110,130,240,1.1818,100,110,210,1.1,93,53
850,230,640,180,520,700,2.8889,160,320,480,2,140,260,400,1.8571,130,210,340,1.6154,100,150,250,1.5,100,120,220,1.2,94,53
870,210,660,230,480,710,2.087,170,320,490,1.8824,150,270,420,1.8,130,190,320,1.4615,110,150,260,1.3636,100,120,220,1.2,94,53
860,210,640,180,440,620,2.4444,160,280,440,1.75,140,240,380,1.7143,120,180,300,1.5,100,140,240,1.4,100,120,220,1.2,93,53
860,220,630,180,490,670,2.7222,160,300,460,1.875,150,260,410,1.7333,120,180,300,1.5,110,140,250,1.2727,90,110,200,1.2222,93,53
840,230,620,190,490,680,2.5789,170,300,470,1.7647,150,250,400,1.6667,140,190,330,1.3571,120,130,250,1.0833,100,110,210,1.1,93,53
850,220,640,180,500,680,2.7778,160,340,500,2.125,150,270,420,1.8,130,200,330,1.5385,100,150,250,1.5,100,130,230,1.3,93,53
850,210,640,230,510,740,2.2174,180,370,550,2.0556,160,300,460,1.875,140,200,340,1.4286,110,150,260,1.3636,110,120,230,1.0909,93,53
830,210,610,170,430,600,2.5294,160,290,450,1.8125,150,240,390,1.6,120,180,300,1.5,110,140,250,1.2727,90,120,210,1.3333,92,53
860,220,620,180,470,650,2.6111,150,300,450,2,150,250,400,1.6667,120,180,300,1.5,110,140,250,1.2727,90,110,200,1.2222,92,53
830,240,600,190,610,800,3.2105,170,360,530,2.1176,160,270,430,1.6875,130,180,310,1.3846,110,130,240,1.1818,90,110,200,1.2222,92,53
830,230,620,200,490,690,2.45,160,310,470,1.9375,160,250,410,1.5625,130,180,310,1.3846,120,140,260,1.1667,100,110,210,1.1,93,53
870,210,650,230,460,690,2,160,360,520,2.25,150,300,450,2,130,230,360,1.7692,110,160,270,1.4545,90,140,230,1.5556,92,53
840,220,630,200,460,660,2.3,170,300,470,1.7647,160,240,400,1.5,140,180,320,1.2857,120,130,250,1.0833,100,110,210,1.1,92,53
860,210,630,180,480,660,2.6667,150,300,450,2,140,250,390,1.7857,130,180,310,1.3846,100,140,240,1.4,90,130,220,1.4444,92,52
850,230,620,180,630,810,3.5,160,380,540,2.375,160,290,450,1.8125,140,200,340,1.4286,120,140,260,1.1667,100,120,220,1.2,92,52
840,230,620,190,510,700,2.6842,170,330,500,1.9412,160,250,410,1.5625,130,190,320,1.4615,110,140,250,1.2727,100,120,220,1.2,93,53
850,220,640,240,460,700,1.9167,190,290,480,1.5263,170,250,420,1.4706,140,200,340,1.4286,120,150,270,1.25,110,130,240,1.1818,93,53
850,210,630,180,450,630,2.5,150,300,450,2,140,250,390,1.7857,120,190,310,1.5833,100,150,250,1.5,90,120,210,1.3333,92,53
860,220,540,180,470,650,2.6111,150,300,450,2,150,240,390,1.6,130,180,310,1.3846,110,140,250,1.2727,100,110,210,1.1,92,53
840,320,600,210,550,760,2.619,170,330,500,1.9412,170,250,420,1.4706,130,180,310,1.3846,120,130,250,1.0833,100,120,220,1.2,92,53
830,240,600,190,600,790,3.1579,170,310,480,1.8235,160,250,410,1.5625,130,180,310,1.3846,120,140,260,1.1667,100,120,220,1.2,93,53
850,230,630,250,460,710,1.84,180,300,480,1.6667,160,230,390,1.4375,140,160,300,1.1429,120,110,230,0.91667,110,90,200,0.81818,93,53
550,220,540,190,400,590,2.1053,170,280,450,1.6471,150,230,380,1.5333,130,170,300,1.3077,110,130,240,1.1818,100,110,210,1.1,93,53
1140,10,900,20,750,770,37.5,20,590,610,29.5,20,540,560,27,20,480,500,24,20,440,460,22,20,70,90,3.5,93,53
840,240,620,180,490,670,2.7222,170,280,450,1.6471,150,240,390,1.6,130,170,300,1.3077,110,130,240,1.1818,100,110,210,1.1,92,53
780,220,620,180,630,810,3.5,160,440,600,2.75,150,310,460,2.0667,130,200,330,1.5385,110,160,270,1.4545,100,120,220,1.2,93,53
920,160,710,180,520,700,2.8889,120,380,500,3.1667,110,320,430,2.9091,80,260,340,3.25,70,200,270,2.8571,50,180,230,3.6,93,53
880,210,610,200,430,630,2.15,160,290,450,1.8125,150,250,400,1.6667,130,180,310,1.3846,100,140,240,1.4,80,110,190,1.375,93,53
860,270,630,190,500,690,2.6316,160,310,470,1.9375,160,260,420,1.625,130,180,310,1.3846,120,140,260,1.1667,100,110,210,1.1,92,53
850,230,630,180,520,700,2.8889,170,320,490,1.8824,150,250,400,1.6667,140,180,320,1.2857,100,140,240,1.4,100,120,220,1.2,92,53
870,220,640,190,610,800,3.2105,160,380,540,2.375,150,280,430,1.8667,130,200,330,1.5385,100,150,250,1.5,100,120,220,1.2,92,53
860,230,640,250,500,750,2,180,350,530,1.9444,180,290,470,1.6111,140,200,340,1.4286,130,150,280,1.1538,110,120,230,1.0909,93,53
870,220,650,200,460,660,2.3,170,330,500,1.9412,160,260,420,1.625,140,180,320,1.2857,120,140,260,1.1667,100,120,220,1.2,92,53
860,220,640,180,650,830,3.6111,160,370,530,2.3125,150,280,430,1.8667,130,190,320,1.4615,110,150,260,1.3636,100,120,220,1.2,92,52
840,220,620,190,460,650,2.4211,160,290,450,1.8125,150,240,390,1.6,130,170,300,1.3077,110,130,240,1.1818,100,110,210,1.1,92,52
850,220,640,180,490,670,2.7222,160,360,520,2.25,150,290,440,1.9333,130,200,330,1.5385,110,150,260,1.3636,90,130,220,1.4444,92,52
840,210,640,230,510,740,2.2174,180,340,520,1.8889,170,280,450,1.6471,140,200,340,1.4286,120,150,270,1.25,100,120,220,1.2,92,53
870,200,650,190,480,670,2.5263,160,320,480,2,140,280,420,2,130,200,330,1.5385,100,150,250,1.5,90,120,210,1.3333,92,53
850,220,630,180,590,770,3.2778,160,350,510,2.1875,150,270,420,1.8,130,190,320,1.4615,110,130,240,1.1818,100,110,210,1.1,92,53
850,220,620,180,550,730,3.0556,160,320,480,2,150,250,400,1.6667,140,180,320,1.2857,110,140,250,1.2727,100,120,220,1.2,92,52
830,230,620,190,560,750,2.9474,170,330,500,1.9412,150,270,420,1.8,130,190,320,1.4615,110,140,250,1.2727,100,110,210,1.1,92,53
860,210,650,200,480,680,2.4,170,330,500,1.9412,150,280,430,1.8667,140,200,340,1.4286,110,160,270,1.4545,100,130,230,1.3,92,53
860,210,650,230,560,790,2.4348,180,340,520,1.8889,160,280,440,1.75,140,200,340,1.4286,120,140,260,1.1667,100,120,220,1.2,92,53
850,210,630,180,630,810,3.5,160,340,500,2.125,150,270,420,1.8,130,200,330,1.5385,110,150,260,1.3636,100,120,220,1.2,92,53
830,220,620,190,450,640,2.3684,160,300,460,1.875,150,240,390,1.6,130,180,310,1.3846,110,140,250,1.2727,100,110,210,1.1,92,53
850,210,640,180,620,800,3.4444,140,400,540,2.8571,140,320,460,2.2857,120,230,350,1.9167,100,170,270,1.7,90,150,240,1.6667,93,53
850,210,630,190,440,630,2.3158,170,310,480,1.8235,150,260,410,1.7333,130,190,320,1.4615,110,150,260,1.3636,100,120,220,1.2,93,53
850,220,640,200,480,680,2.4,160,320,480,2,150,260,410,1.7333,130,180,310,1.3846,110,140,250,1.2727,90,120,210,1.3333,93,53
850,210,630,180,440,620,2.4444,160,280,440,1.75,150,230,380,1.5333,130,170,300,1.3077,110,130,240,1.1818,90,110,200,1.2222,93,53
840,220,630,180,560,740,3.1111,160,330,490,2.0625,140,250,390,1.7857,130,190,320,1.4615,100,140,240,1.4,100,130,230,1.3,93,53
850,210,630,180,610,790,3.3889,150,350,500,2.3333,140,290,430,2.0714,120,200,320,1.6667,100,150,250,1.5,80,120,200,1.5,93,53
860,220,640,190,480,670,2.5263,160,340,500,2.125,150,270,420,1.8,130,200,330,1.5385,110,150,260,1.3636,100,130,230,1.3,93,53
850,220,640,240,470,710,1.9583,190,300,490,1.5789,170,290,460,1.7059,130,200,330,1.5385,120,150,270,1.25,110,120,230,1.0909,92,53
870,210,640,180,470,650,2.6111,150,310,460,2.0667,140,250,390,1.7857,120,180,300,1.5,100,140,240,1.4,90,120,210,1.3333,92,53
850,230,600,190,510,700,2.6842,170,300,470,1.7647,160,250,410,1.5625,130,170,300,1.3077,120,130,250,1.0833,100,110,210,1.1,92,53
850,250,620,220,630,850,2.8636,180,420,600,2.3333,170,320,490,1.8824,140,200,340,1.4286,120,150,270,1.25,110,120,230,1.0909,92,53
860,230,640,210,490,700,2.3333,170,340,510,2,160,270,430,1.6875,140,190,330,1.3571,120,150,270,1.25,110,120,230,1.0909,93,53
850,220,640,240,470,710,1.9583,180,300,480,1.6667,170,240,410,1.4118,140,170,310,1.2143,120,130,250,1.0833,100,110,210,1.1,92,53
840,210,630,180,590,770,3.2778,160,360,520,2.25,140,280,420,2,130,210,340,1.6154,100,140,240,1.4,100,120,220,1.2,92,53
840,210,450,180,460,640,2.5556,160,310,470,1.9375,140,250,390,1.7857,130,190,320,1.4615,100,140,240,1.4,100,120,220,1.2,92,53
850,390,610,190,600,790,3.1579,160,330,490,2.0625,150,270,420,1.8,140,190,330,1.3571,110,150,260,1.3636,100,120,220,1.2,93,53
820,240,630,210,490,700,2.3333,180,330,510,1.8333,160,270,430,1.6875,140,190,330,1.3571,120,150,270,1.25,110,120,230,1.0909,93,53
900,190,680,210,510,720,2.4286,170,330,500,1.9412,140,280,420,2,120,210,330,1.75,100,150,250,1.5,90,130,220,1.4444,93,53
860,220,630,190,500,690,2.6316,160,310,470,1.9375,150,240,390,1.6,130,180,310,1.3846,110,130,240,1.1818,100,110,210,1.1,92,53
860,230,630,190,640,830,3.3684,170,470,640,2.7647,160,320,480,2,130,190,320,1.4615,110,140,250,1.2727,100,120,220,1.2,93,53
860,230,630,190,600,790,3.1579,170,350,520,2.0588,150,270,420,1.8,140,190,330,1.3571,110,150,260,1.3636,110,110,220,1,93,53
850,230,650,250,600,850,2.4,190,390,580,2.0526,170,320,490,1.8824,150,210,360,1.4,130,160,290,1.2308,110,130,240,1.1818,93,53
880,200,670,220,500,720,2.2727,170,340,510,2,150,280,430,1.8667,140,200,340,1.4286,110,160,270,1.4545,100,130,230,1.3,93,53
860,210,620,180,470,650,2.6111,160,300,460,1.875,150,250,400,1.6667,130,180,310,1.3846,110,140,250,1.2727,100,120,220,1.2,93,53
850,240,620,200,630,830,3.15,170,420,590,2.4706,160,320,480,2,140,220,360,1.5714,120,170,290,1.4167,110,140,250,1.2727,93,53
840,230,610,200,590,790,2.95,170,60,230,0.35294,160,60,220,0.375,140,60,200,0.42857,120,60,180,0.5,110,60,170,0.54545,93,53
860,230,640,220,480,700,2.1818,180,380,560,2.1111,170,310,480,1.8235,140,210,350,1.5,120,160,280,1.3333,110,130,240,1.1818,93,53
860,220,640,240,480,720,2,180,330,510,1.8333,170,270,440,1.5882,150,190,340,1.2667,120,150,270,1.25,110,130,240,1.1818,93,53
850,220,630,190,450,640,2.3684,160,290,450,1.8125,150,250,400,1.6667,130,180,310,1.3846,110,130,240,1.1818,100,110,210,1.1,93,53
860,220,630,180,640,820,3.5556,150,380,530,2.5333,140,300,440,2.1429,120,200,320,1.6667,100,160,260,1.6,90,130,220,1.4444,93,53
830,230,610,200,620,820,3.1,170,350,520,2.0588,160,270,430,1.6875,140,190,330,1.3571,120,140,260,1.1667,110,110,220,1,93,53
860,220,640,220,470,690,2.1364,170,320,490,1.8824,160,280,440,1.75,140,220,360,1.5714,110,160,270,1.4545,100,140,240,1.4,94,53
850,220,630,240,490,730,2.0417,180,330,510,1.8333,170,270,440,1.5882,140,210,350,1.5,120,150,270,1.25,110,130,240,1.1818,94,53
860,220,600,180,450,630,2.5,160,300,460,1.875,140,250,390,1.7857,130,190,320,1.4615,100,140,240,1.4,100,120,220,1.2,94,53
840,260,610,200,600,800,3,170,340,510,2,160,270,430,1.6875,140,190,330,1.3571,120,140,260,1.1667,110,110,220,1,93,53
860,230,620,190,630,820,3.3158,160,360,520,2.25,160,280,440,1.75,130,200,330,1.5385,110,150,260,1.3636,90,130,220,1.4444,93,53
870,240,640,210,470,680,2.2381,180,310,490,1.7222,170,240,410,1.4118,140,170,310,1.2143,130,120,250,0.92308,110,110,220,1,94,53
870,230,640,250,490,740,1.96,180,330,510,1.8333,170,270,440,1.5882,150,190,340,1.2667,130,140,270,1.0769,110,120,230,1.0909,94,53
860,230,640,190,460,650,2.4211,160,300,460,1.875,160,250,410,1.5625,130,180,310,1.3846,120,140,260,1.1667,100,110,210,1.1,94,53
870,220,640,180,510,690,2.8333,160,320,480,2,150,260,410,1.7333,130,190,320,1.4615,110,150,260,1.3636,100,120,220,1.2,93,53
850,230,620,190,590,780,3.1053,170,350,520,2.0588,160,280,440,1.75,130,200,330,1.5385,120,150,270,1.25,100,120,220,1.2,93,53
870,230,650,190,480,670,2.5263,160,330,490,2.0625,150,280,430,1.8667,140,200,340,1.4286,110,160,270,1.4545,100,130,230,1.3,94,53
880,220,660,240,490,730,2.0417,170,340,510,2,160,280,440,1.75,130,200,330,1.5385,110,150,260,1.3636,100,130,230,1.3,93,53
860,220,640,190,440,630,2.3158,170,280,450,1.6471,140,230,370,1.6429,130,170,300,1.3077,120,130,250,1.0833,100,110,210,1.1,93,53
870,220,640,190,520,710,2.7368,160,330,490,2.0625,140,260,400,1.8571,130,190,320,1.4615,110,150,260,1.3636,100,120,220,1.2,93,53
870,230,640,190,650,840,3.4211,170,360,530,2.1176,160,280,440,1.75,140,190,330,1.3571,120,140,260,1.1667,100,120,220,1.2,93,53
870,230,650,210,480,690,2.2857,160,330,490,2.0625,160,280,440,1.75,140,200,340,1.4286,130,150,280,1.1538,110,120,230,1.0909,94,53
870,220,650,240,500,740,2.0833,180,330,510,1.8333,160,270,430,1.6875,140,190,330,1.3571,120,140,260,1.1667,110,120,230,1.0909,94,53
870,220,640,180,470,650,2.6111,160,310,470,1.9375,150,250,400,1.6667,130,190,320,1.4615,110,140,250,1.2727,100,120,220,1.2,93,53
860,230,630,190,510,700,2.6842,170,310,480,1.8235,150,250,400,1.6667,140,180,320,1.2857,120,140,260,1.1667,100,120,220,1.2,93,52
840,230,620,200,590,790,2.95,170,360,530,2.1176,160,290,450,1.8125,140,190,330,1.3571,120,140,260,1.1667,100,120,220,1.2,93,52
880,220,660,200,510,710,2.55,160,360,520,2.25,150,300,450,2,130,220,350,1.6923,110,170,280,1.5455,90,140,230,1.5556,93,52
870,220,650,230,480,710,2.087,170,320,490,1.8824,160,260,420,1.625,140,190,330,1.3571,120,140,260,1.1667,110,120,230,1.0909,93,52
870,220,650,190,470,660,2.4737,160,300,460,1.875,150,250,400,1.6667,130,190,320,1.4615,110,140,250,1.2727,100,110,210,1.1,93,52
900,220,640,180,540,720,3,160,320,480,2,150,260,410,1.7333,130,190,320,1.4615,110,140,250,1.2727,100,120,220,1.2,92,52
830,260,600,230,610,840,2.6522,200,340,540,1.7,190,260,450,1.3684,170,170,340,1,150,120,270,0.8,130,100,230,0.76923,93,52
910,230,680,200,500,700,2.5,170,340,510,2,160,280,440,1.75,140,200,340,1.4286,110,150,260,1.3636,110,120,230,1.0909,93,52
880,230,660,250,480,730,1.92,190,320,510,1.6842,180,300,480,1.6667,150,210,360,1.4,130,170,300,1.3077,110,120,230,1.0909,92,52
860,220,640,180,470,650,2.6111,160,310,470,1.9375,150,240,390,1.6,130,180,310,1.3846,110,130,240,1.1818,100,120,220,1.2,92,52
870,220,600,180,530,710,2.9444,160,330,490,2.0625,150,260,410,1.7333,120,190,310,1.5833,110,140,250,1.2727,90,120,210,1.3333,92,52
860,270,630,210,640,850,3.0476,170,390,560,2.2941,160,300,460,1.875,140,200,340,1.4286,120,150,270,1.25,110,120,230,1.0909,92,52
850,230,630,210,480,690,2.2857,170,330,500,1.9412,170,270,440,1.5882,140,190,330,1.3571,120,140,260,1.1667,110,120,230,1.0909,92,52
860,220,640,240,450,690,1.875,180,280,460,1.5556,160,240,400,1.5,140,160,300,1.1429,120,120,240,1,100,90,190,0.9,92,52
850,220,620,180,470,650,2.6111,160,300,460,1.875,150,240,390,1.6,130,180,310,1.3846,110,140,250,1.2727,100,110,210,1.1,91,52
840,230,600,190,610,800,3.2105,170,300,470,1.7647,160,250,410,1.5625,130,170,300,1.3077,120,140,260,1.1667,100,110,210,1.1,91,51
840,240,610,190,550,740,2.8947,170,330,500,1.9412,160,260,420,1.625,130,180,310,1.3846,120,130,250,1.0833,100,110,210,1.1,92,52
840,230,620,210,480,690,2.2857,170,320,490,1.8824,170,260,430,1.5294,140,190,330,1.3571,120,140,260,1.1667,110,120,230,1.0909,92,52
820,220,610,240,440,680,1.8333,180,290,470,1.6111,170,240,410,1.4118,140,170,310,1.2143,130,130,260,1,120,110,230,0.91667,92,52
830,210,620,170,470,640,2.7647,140,300,440,2.1429,140,240,380,1.7143,120,180,300,1.5,110,130,240,1.1818,100,110,210,1.1,91,51
850,210,620,180,630,810,3.5,150,410,560,2.7333,140,260,400,1.8571,120,190,310,1.5833,100,150,250,1.5,90,120,210,1.3333,91,51
840,230,620,190,550,740,2.8947,160,320,480,2,150,260,410,1.7333,130,190,320,1.4615,110,140,250,1.2727,100,110,210,1.1,91,52
860,220,670,190,500,690,2.6316,160,340,500,2.125,140,280,420,2,130,200,330,1.5385,110,150,260,1.3636,100,130,230,1.3,91,52
860,190,640,210,130,340,0.61905,170,130,300,0.76471,150,130,280,0.86667,130,130,260,1,110,130,240,1.1818,100,120,220,1.2,91,52
860,220,640,180,430,610,2.3889,150,280,430,1.8667,150,230,380,1.5333,120,170,290,1.4167,110,130,240,1.1818,100,110,210,1.1,91,52
860,220,630,180,640,820,3.5556,160,390,550,2.4375,150,310,460,2.0667,130,210,340,1.6154,110,170,280,1.5455,90,110,200,1.2222,90,51
840,230,620,180,510,690,2.8333,170,310,480,1.8235,150,250,400,1.6667,140,190,330,1.3571,110,140,250,1.2727,110,110,220,1,90,51
870,220,650,200,490,690,2.45,160,360,520,2.25,150,290,440,1.9333,130,210,340,1.6154,110,160,270,1.4545,90,130,220,1.4444,90,51
860,220,640,210,460,670,2.1905,180,310,490,1.7222,160,260,420,1.625,140,190,330,1.3571,120,140,260,1.1667,100,120,220,1.2,90,51
860,220,640,180,460,640,2.5556,160,300,460,1.875,150,250,400,1.6667,130,180,310,1.3846,110,140,250,1.2727,100,120,220,1.2,90,51
850,220,620,180,600,780,3.3333,160,340,500,2.125,140,270,410,1.9286,130,190,320,1.4615,100,140,240,1.4,80,120,200,1.5,89,51
850,230,630,190,510,700,2.6842,160,310,470,1.9375,150,250,400,1.6667,130,180,310,1.3846,110,140,250,1.2727,100,110,210,1.1,89,51
860,220,640,210,460,670,2.1905,170,310,480,1.8235,160,290,450,1.8125,140,200,340,1.4286,120,150,270,1.25,100,130,230,1.3,89,51
860,220,640,220,480,700,2.1818,180,320,500,1.7778,160,260,420,1.625,140,200,340,1.4286,110,150,260,1.3636,100,120,220,1.2,89,51
860,220,610,180,460,640,2.5556,160,300,460,1.875,150,250,400,1.6667,120,180,300,1.5,110,140,250,1.2727,90,120,210,1.3333,89,51
870,250,630,200,600,800,3,160,340,500,2.125,150,280,430,1.8667,130,200,330,1.5385,110,150,260,1.3636,100,130,230,1.3,89,51
850,240,630,190,530,720,2.7895,170,320,490,1.8824,160,260,420,1.625,130,190,320,1.4615,120,140,260,1.1667,100,120,220,1.2,89,51
870,220,650,190,460,650,2.4211,170,300,470,1.7647,150,250,400,1.6667,140,180,320,1.2857,110,130,240,1.1818,100,110,210,1.1,89,51
880,220,660,220,490,710,2.2273,170,330,500,1.9412,160,270,430,1.6875,140,190,330,1.3571,120,140,260,1.1667,100,120,220,1.2,89,51
860,220,640,180,530,710,2.9444,160,310,470,1.9375,150,260,410,1.7333,130,180,310,1.3846,110,130,240,1.1818,90,110,200,1.2222,89,51
880,220,650,180,470,650,2.6111,150,300,450,2,150,250,400,1.6667,130,200,330,1.5385,110,140,250,1.2727,90,120,210,1.3333,89,51
860,230,630,190,570,760,3,160,340,500,2.125,150,270,420,1.8,140,190,330,1.3571,110,150,260,1.3636,100,120,220,1.2,89,51
850,230,640,210,470,680,2.2381,170,310,480,1.8235,170,260,430,1.5294,140,190,330,1.3571,120,140,260,1.1667,110,120,230,1.0909,90,51
880,210,660,190,470,660,2.4737,160,320,480,2,150,270,420,1.8,130,210,340,1.6154,90,160,250,1.7778,90,130,220,1.4444,90,51
870,220,650,190,440,630,2.3158,160,280,440,1.75,150,230,380,1.5333,140,170,310,1.2143,110,130,240,1.1818,100,110,210,1.1,89,51
870,220,640,180,490,670,2.7222,160,300,460,1.875,150,260,410,1.7333,130,180,310,1.3846,110,130,240,1.1818,100,110,210,1.1,89,51
850,230,620,190,620,810,3.2632,170,330,500,1.9412,160,260,420,1.625,130,190,320,1.4615,120,140,260,1.1667,100,120,220,1.2,89,51
870,230,650,210,470,680,2.2381,170,310,480,1.8235,160,260,420,1.625,140,190,330,1.3571,120,140,260,1.1667,110,120,230,1.0909,90,51
870,220,640,200,460,660,2.3,170,300,470,1.7647,150,270,420,1.8,140,180,320,1.2857,120,140,260,1.1667,110,110,220,1,90,51
870,230,650,190,450,640,2.3684,160,290,450,1.8125,150,240,390,1.6,120,180,300,1.5,110,130,240,1.1818,110,110,220,1,89,51
860,220,640,180,480,660,2.6667,150,290,440,1.9333,140,240,380,1.7143,130,180,310,1.3846,100,140,240,1.4,90,120,210,1.3333,89,51
860,220,630,190,540,730,2.8421,160,340,500,2.125,150,270,420,1.8,130,190,320,1.4615,110,140,250,1.2727,100,120,220,1.2,90,51
870,230,660,190,480,670,2.5263,170,320,490,1.8824,150,260,410,1.7333,140,200,340,1.4286,110,150,260,1.3636,100,120,220,1.2,90,51
880,210,660,210,500,710,2.381,170,330,500,1.9412,150,270,420,1.8,130,190,320,1.4615,110,150,260,1.3636,90,130,220,1.4444,90,51
850,220,620,180,510,690,2.8333,160,300,460,1.875,150,250,400,1.6667,130,170,300,1.3077,110,130,240,1.1818,100,110,210,1.1,89,51
890,230,630,180,460,640,2.5556,150,310,460,2.0667,140,250,390,1.7857,110,190,300,1.7273,100,140,240,1.4,90,120,210,1.3333,89,51
820,260,600,210,610,820,2.9048,190,350,540,1.8421,180,280,460,1.5556,150,170,320,1.1333,140,120,260,0.85714,120,100,220,0.83333,89,50
850,220,640,200,490,690,2.45,170,330,500,1.9412,140,270,410,1.9286,120,200,320,1.6667,110,150,260,1.3636,90,130,220,1.4444,89,50
860,210,650,200,450,650,2.25,160,360,520,2.25,140,290,430,2.0714,130,200,330,1.5385,100,160,260,1.6,90,120,210,1.3333,88,50
850,210,630,180,430,610,2.3889,150,290,440,1.9333,140,230,370,1.6429,120,180,300,1.5,100,130,230,1.3,90,100,190,1.1111,88,50
850,220,630,170,490,660,2.8824,150,320,470,2.1333,140,250,390,1.7857,130,180,310,1.3846,100,140,240,1.4,90,120,210,1.3333,88,50
830,220,610,180,620,800,3.4444,160,330,490,2.0625,150,270,420,1.8,130,180,310,1.3846,110,140,250,1.2727,100,120,220,1.2,88,50
850,220,630,190,490,680,2.5789,160,330,490,2.0625,150,270,420,1.8,130,190,320,1.4615,110,140,250,1.2727,90,120,210,1.3333,88,50
840,220,630,240,430,670,1.7917,180,270,450,1.5,170,240,410,1.4118,140,200,340,1.4286,120,140,260,1.1667,90,130,220,1.4444,87,50
860,210,640,170,440,610,2.5882,140,280,420,2,140,240,380,1.7143,120,170,290,1.4167,100,130,230,1.3,90,110,200,1.2222,86,50
840,220,560,190,450,640,2.3684,160,290,450,1.8125,150,230,380,1.5333,130,170,300,1.3077,110,130,240,1.1818,100,100,200,1,86,49
840,280,610,200,500,700,2.5,160,320,480,2,160,260,420,1.625,130,190,320,1.4615,110,140,250,1.2727,100,120,220,1.2,86,49
840,230,630,190,500,690,2.6316,160,310,470,1.9375,160,260,420,1.625,130,180,310,1.3846,120,140,260,1.1667,100,120,220,1.2,86,49
830,210,620,200,440,640,2.2,160,270,430,1.6875,160,220,380,1.375,130,160,290,1.2308,120,120,240,1,100,100,200,1,86,49
840,210,630,180,460,640,2.5556,150,290,440,1.9333,140,240,380,1.7143,120,180,300,1.5,100,140,240,1.4,80,110,190,1.375,85,49
840,210,310,180,320,500,1.7778,150,290,440,1.9333,150,240,390,1.6,120,180,300,1.5,110,140,250,1.2727,90,120,210,1.3333,85,49
820,530,600,400,410,810,1.025,400,270,670,0.675,400,230,630,0.575,400,180,580,0.45,110,140,250,1.2727,90,110,200,1.2222,85,49
840,220,620,160,450,610,2.8125,150,310,460,2.0667,140,260,400,1.8571,120,200,320,1.6667,100,150,250,1.5,90,130,220,1.4444,85,49
840,220,630,210,430,640,2.0476,170,270,440,1.5882,160,220,380,1.375,130,160,290,1.2308,110,110,220,1,100,80,180,0.8,85,49
840,210,610,180,440,620,2.4444,160,280,440,1.75,140,240,380,1.7143,130,170,300,1.3077,100,130,230,1.3,90,110,200,1.2222,85,49
840,230,610,180,520,700,2.8889,160,290,450,1.8125,150,240,390,1.6,130,170,300,1.3077,100,130,230,1.3,80,110,190,1.375,85,49
820,230,610,190,570,760,3,160,330,490,2.0625,150,260,410,1.7333,130,180,310,1.3846,110,130,240,1.1818,90,110,200,1.2222,85,49
840,210,630,180,480,660,2.6667,140,300,440,2.1429,140,260,400,1.8571,120,190,310,1.5833,110,150,260,1.3636,90,120,210,1.3333,85,49
860,210,640,230,480,710,2.087,170,320,490,1.8824,160,270,430,1.6875,140,190,330,1.3571,110,150,260,1.3636,110,120,230,1.0909,85,49
840,220,610,180,450,630,2.5,160,270,430,1.6875,150,230,380,1.5333,130,180,310,1.3846,110,130,240,1.1818,90,100,190,1.1111,85,49
850,230,620,180,500,680,2.7778,160,280,440,1.75,150,240,390,1.6,130,170,300,1.3077,110,130,240,1.1818,80,110,190,1.375,85,49
840,230,630,180,640,820,3.5556,160,410,570,2.5625,150,320,470,2.1333,130,210,340,1.6154,110,150,260,1.3636,100,120,220,1.2,84,49
840,210,630,180,490,670,2.7222,170,320,490,1.8824,160,250,410,1.5625,140,180,320,1.2857,110,130,240,1.1818,100,110,210,1.1,85,49
850,210,640,230,500,730,2.1739,160,350,510,2.1875,150,290,440,1.9333,130,210,340,1.6154,110,160,270,1.4545,100,120,220,1.2,85,49
860,210,640,180,440,620,2.4444,150,280,430,1.8667,140,240,380,1.7143,110,190,300,1.7273,100,140,240,1.4,90,110,200,1.2222,84,49
840,220,610,180,550,730,3.0556,160,370,530,2.3125,140,290,430,2.0714,130,190,320,1.4615,110,130,240,1.1818,90,100,190,1.1111,84,49
830,230,610,180,530,710,2.9444,160,330,490,2.0625,150,260,410,1.7333,130,190,320,1.4615,110,140,250,1.2727,90,120,210,1.3333,83,48
820,220,610,190,490,680,2.5789,160,300,460,1.875,140,250,390,1.7857,120,180,300,1.5,110,140,250,1.2727,100,110,210,1.1,84,48
840,210,620,200,480,680,2.4,160,320,480,2,140,270,410,1.9286,130,200,330,1.5385,100,150,250,1.5,90,120,210,1.3333,84,48
840,220,630,180,440,620,2.4444,160,280,440,1.75,140,240,380,1.7143,120,170,290,1.4167,100,130,230,1.3,90,110,200,1.2222,83,48
830,210,610,180,480,660,2.6667,140,300,440,2.1429,140,240,380,1.7143,130,180,310,1.3846,100,130,230,1.3,100,110,210,1.1,82,48
840,220,610,170,500,670,2.9412,150,310,460,2.0667,140,250,390,1.7857,130,190,320,1.4615,100,140,240,1.4,90,120,210,1.3333,82,48
820,230,600,190,460,650,2.4211,170,300,470,1.7647,150,250,400,1.6667,130,180,310,1.3846,110,140,250,1.2727,90,120,210,1.3333,82,48
840,220,620,240,460,700,1.9167,170,320,490,1.8824,150,270,420,1.8,120,190,310,1.5833,110,150,260,1.3636,100,130,230,1.3,83,48
830,220,620,180,470,650,2.6111,150,300,450,2,150,250,400,1.6667,130,190,320,1.4615,110,140,250,1.2727,90,110,200,1.2222,82,48
840,210,620,180,550,730,3.0556,150,330,480,2.2,140,270,410,1.9286,120,200,320,1.6667,100,150,250,1.5,90,120,210,1.3333,82,48
830,220,600,180,470,650,2.6111,160,290,450,1.8125,140,240,380,1.7143,130,180,310,1.3846,110,130,240,1.1818,100,110,210,1.1,82,48
800,230,590,190,440,630,2.3158,170,300,470,1.7647,160,250,410,1.5625,130,170,300,1.3077,120,130,250,1.0833,100,110,210,1.1,82,48
850,210,630,180,460,640,2.5556,160,310,470,1.9375,140,260,400,1.8571,130,210,340,1.6154,100,150,250,1.5,90,130,220,1.4444,83,48
840,220,630,200,460,660,2.3,170,300,470,1.7647,160,240,400,1.5,140,180,320,1.2857,110,130,240,1.1818,100,120,220,1.2,83,48
840,210,620,180,480,660,2.6667,150,290,440,1.9333,140,240,380,1.7143,120,180,300,1.5,100,130,230,1.3,90,110,200,1.2222,82,48
840,220,610,180,480,660,2.6667,160,290,450,1.8125,140,240,380,1.7143,130,180,310,1.3846,100,130,230,1.3,100,110,210,1.1,82,48
820,230,600,190,490,680,2.5789,170,310,480,1.8235,150,250,400,1.6667,140,180,320,1.2857,110,130,240,1.1818,100,110,210,1.1,83,48
840,220,630,190,460,650,2.4211,160,310,470,1.9375,150,260,410,1.7333,120,190,310,1.5833,100,150,250,1.5,90,130,220,1.4444,83,48
830,210,620,200,460,660,2.3,160,300,460,1.875,150,240,390,1.6,130,180,310,1.3846,110,140,250,1.2727,100,110,210,1.1,83,48
830,210,610,170,440,610,2.5882,150,280,430,1.8667,140,230,370,1.6429,120,180,300,1.5,100,130,230,1.3,80,110,190,1.375,82,48
830,220,610,180,440,620,2.4444,150,290,440,1.9333,140,250,390,1.7857,110,180,290,1.6364,100,140,240,1.4,90,120,210,1.3333,82,48
840,220,610,180,510,690,2.8333,160,320,480,2,140,250,390,1.7857,130,180,310,1.3846,100,140,240,1.4,90,120,210,1.3333,83,48
840,230,610,180,450,630,2.5,170,300,470,1.7647,160,260,420,1.625,120,180,300,1.5,120,130,250,1.0833,100,110,210,1.1,83,48
840,230,620,200,450,650,2.25,170,290,460,1.7059,160,240,400,1.5,130,170,300,1.3077,120,130,250,1.0833,100,110,210,1.1,83,48
830,220,610,180,450,630,2.5,160,270,430,1.6875,150,220,370,1.4667,130,170,300,1.3077,110,130,240,1.1818,90,100,190,1.1111,82,48
840,220,600,180,450,630,2.5,160,290,450,1.8125,140,240,380,1.7143,120,180,300,1.5,100,140,240,1.4,90,110,200,1.2222,82,48
820,240,600,190,500,690,2.6316,160,300,460,1.875,160,250,410,1.5625,130,180,310,1.3846,120,130,250,1.0833,100,110,210,1.1,82,48
840,220,630,180,470,650,2.6111,160,310,470,1.9375,140,260,400,1.8571,130,200,330,1.5385,100,150,250,1.5,100,120,220,1.2,82,48
850,210,630,210,490,700,2.3333,170,330,500,1.9412,150,270,420,1.8,130,200,330,1.5385,100,150,250,1.5,100,120,220,1.2,81,48
840,220,620,190,430,620,2.2632,150,270,420,1.8,150,230,380,1.5333,120,170,290,1.4167,110,130,240,1.1818,90,110,200,1.2222,81,48
840,220,610,180,460,640,2.5556,150,280,430,1.8667,150,240,390,1.6,120,180,300,1.5,110,130,240,1.1818,90,110,200,1.2222,81,47
830,230,620,190,590,780,3.1053,160,350,510,2.1875,150,270,420,1.8,120,200,320,1.6667,110,150,260,1.3636,90,130,220,1.4444,81,47
1680,210,1470,220,1310,1530,5.9545,170,930,1100,5.4706,150,790,940,5.2667,130,380,510,2.9231,110,160,270,1.4545,100,120,220,1.2,81,47
840,210,620,180,440,620,2.4444,160,280,440,1.75,150,230,380,1.5333,130,170,300,1.3077,110,130,240,1.1818,100,110,210,1.1,81,47
850,220,600,170,440,610,2.5882,160,280,440,1.75,150,230,380,1.5333,130,170,300,1.3077,110,120,230,1.0909,100,100,200,1,81,47
810,250,580,200,590,790,2.95,180,330,510,1.8333,160,260,420,1.625,140,180,320,1.2857,110,130,240,1.1818,110,110,220,1,81,47
810,230,600,190,470,660,2.4737,160,300,460,1.875,160,240,400,1.5,130,180,310,1.3846,120,130,250,1.0833,100,110,210,1.1,81,47
810,210,600,230,440,670,1.913,170,340,510,2,160,280,440,1.75,130,200,330,1.5385,120,150,270,1.25,100,120,220,1.2,81,47
830,210,620,180,440,620,2.4444,160,280,440,1.75,150,240,390,1.6,130,170,300,1.3077,100,130,230,1.3,100,110,210,1.1,81,47
840,210,610,180,450,630,2.5,160,290,450,1.8125,140,240,380,1.7143,130,170,300,1.3077,100,130,230,1.3,90,110,200,1.2222,81,47
810,230,600,190,610,800,3.2105,160,340,500,2.125,150,260,410,1.7333,130,180,310,1.3846,100,130,230,1.3,80,110,190,1.375,81,47
830,210,600,180,500,680,2.7778,150,320,470,2.1333,140,260,400,1.8571,120,200,320,1.6667,100,150,250,1.5,90,120,210,1.3333,81,47
840,230,620,250,430,680,1.72,170,330,500,1.9412,160,270,430,1.6875,130,200,330,1.5385,110,150,260,1.3636,100,120,220,1.2,81,47
830,220,620,200,450,650,2.25,170,290,460,1.7059,160,240,400,1.5,130,170,300,1.3077,120,130,250,1.0833,100,100,200,1,81,47
830,210,600,170,430,600,2.5294,150,280,430,1.8667,140,240,380,1.7143,120,190,310,1.5833,100,140,240,1.4,80,110,190,1.375,81,47
840,230,620,180,550,730,3.0556,150,310,460,2.0667,140,250,390,1.7857,110,190,300,1.7273,110,140,250,1.2727,90,110,200,1.2222,81,47
820,220,600,190,500,690,2.6316,160,300,460,1.875,150,250,400,1.6667,140,180,320,1.2857,110,140,250,1.2727,110,110,220,1,81,47
850,220,630,200,450,650,2.25,170,290,460,1.7059,150,270,420,1.8,130,190,320,1.4615,110,150,260,1.3636,90,130,220,1.4444,81,47
840,220,630,200,440,640,2.2,160,290,450,1.8125,150,240,390,1.6,130,180,310,1.3846,110,130,240,1.1818,100,110,210,1.1,82,48
840,210,620,180,450,630,2.5,150,280,430,1.8667,140,240,380,1.7143,120,170,290,1.4167,100,130,230,1.3,90,110,200,1.2222,81,48
840,220,620,190,560,750,2.9474,160,320,480,2,150,260,410,1.7333,130,190,320,1.4615,100,140,240,1.4,100,120,220,1.2,81,47
840,220,620,180,500,680,2.7778,160,310,470,1.9375,140,260,400,1.8571,130,190,320,1.4615,110,140,250,1.2727,100,120,220,1.2,82,48
840,220,630,200,440,640,2.2,170,280,450,1.6471,150,230,380,1.5333,140,190,330,1.3571,110,150,260,1.3636,100,120,220,1.2,82,48
840,210,630,200,460,660,2.3,170,300,470,1.7647,150,250,400,1.6667,130,190,320,1.4615,110,140,250,1.2727,100,120,220,1.2,82,48
850,210,540,170,440,610,2.5882,140,280,420,2,140,240,380,1.7143,120,180,300,1.5,100,140,240,1.4,90,120,210,1.3333,82,48
840,310,620,180,480,660,2.6667,150,290,440,1.9333,150,240,390,1.6,120,180,300,1.5,110,130,240,1.1818,90,110,200,1.2222,82,48
820,220,610,190,500,690,2.6316,160,310,470,1.9375,150,250,400,1.6667,130,190,320,1.4615,110,140,250,1.2727,90,120,210,1.3333,82,48
850,210,640,180,450,630,2.5,160,290,450,1.8125,140,250,390,1.7857,130,170,300,1.3077,100,130,230,1.3,90,100,190,1.1111,82,48
840,210,630,200,450,650,2.25,170,300,470,1.7647,150,250,400,1.6667,140,190,330,1.3571,110,140,250,1.2727,100,120,220,1.2,82,48
850,210,640,180,450,630,2.5,150,280,430,1.8667,140,240,380,1.7143,120,180,300,1.5,100,130,230,1.3,90,120,210,1.3333,82,48
840,210,620,180,460,640,2.5556,150,300,450,2,150,240,390,1.6,120,180,300,1.5,110,140,250,1.2727,90,110,200,1.2222,82,48
840,220,610,180,520,700,2.8889,150,320,470,2.1333,140,270,410,1.9286,120,190,310,1.5833,100,150,250,1.5,90,120,210,1.3333,82,48
840,230,620,190,460,650,2.4211,170,310,480,1.8235,150,260,410,1.7333,140,190,330,1.3571,110,140,250,1.2727,110,110,220,1,83,48
840,220,610,200,450,650,2.25,170,300,470,1.7647,150,250,400,1.6667,140,180,320,1.2857,110,140,250,1.2727,100,110,210,1.1,83,48
850,230,620,190,420,610,2.2105,150,310,460,2.0667,150,250,400,1.6667,120,190,310,1.5833,110,140,250,1.2727,90,110,200,1.2222,82,48
830,230,610,190,470,660,2.4737,160,290,450,1.8125,160,240,400,1.5,130,170,300,1.3077,120,130,250,1.0833,100,100,200,1,82,48
840,220,620,180,470,650,2.6111,150,280,430,1.8667,150,240,390,1.6,120,190,310,1.5833,100,150,250,1.5,90,120,210,1.3333,82,48
830,220,620,190,500,690,2.6316,160,320,480,2,150,260,410,1.7333,130,190,320,1.4615,110,150,260,1.3636,100,120,220,1.2,83,48
860,210,650,200,460,660,2.3,160,310,470,1.9375,150,260,410,1.7333,130,210,340,1.6154,110,150,260,1.3636,100,120,220,1.2,83,49
840,210,620,180,430,610,2.3889,160,270,430,1.6875,150,230,380,1.5333,120,180,300,1.5,110,140,250,1.2727,90,110,200,1.2222,83,49
850,220,620,170,470,640,2.7647,150,290,440,1.9333,140,250,390,1.7857,120,180,300,1.5,100,140,240,1.4,80,110,190,1.375,83,49
840,230,560,180,490,670,2.7222,160,290,450,1.8125,150,240,390,1.6,130,180,310,1.3846,110,130,240,1.1818,90,110,200,1.2222,83,49
830,280,620,200,490,690,2.45,170,290,460,1.7059,160,250,410,1.5625,140,170,310,1.2143,120,130,250,1.0833,110,110,220,1,84,49
860,210,650,190,460,650,2.4211,160,300,460,1.875,150,260,410,1.7333,130,180,310,1.3846,110,140,250,1.2727,90,120,210,1.3333,84,49
870,210,650,180,420,600,2.3333,150,260,410,1.7333,140,220,360,1.5714,130,170,300,1.3077,100,120,220,1.2,100,100,200,1,84,49
850,220,630,190,430,620,2.2632,160,290,450,1.8125,150,250,400,1.6667,130,180,310,1.3846,110,130,240,1.1818,90,110,200,1.2222,84,49
850,220,620,180,500,680,2.7778,160,300,460,1.875,150,250,400,1.6667,130,180,310,1.3846,110,140,250,1.2727,100,120,220,1.2,84,49
850,230,640,190,550,740,2.8947,160,330,490,2.0625,150,280,430,1.8667,130,190,320,1.4615,110,150,260,1.3636,100,110,210,1.1,84,49
860,210,650,200,470,670,2.35,170,300,470,1.7647,160,260,420,1.625,140,180,320,1.2857,120,140,260,1.1667,100,110,210,1.1,84,49
780,210,630,200,450,650,2.25,170,290,460,1.7059,150,240,390,1.6,140,180,320,1.2857,110,130,240,1.1818,100,110,210,1.1,84,49
930,150,710,110,580,690,5.2727,90,90,180,1,80,10,90,0.125,70,10,80,0.14286,50,10,60,0.2,40,10,50,0.25,84,49
850,220,620,180,610,790,3.3889,160,340,500,2.125,150,270,420,1.8,130,180,310,1.3846,110,140,250,1.2727,100,120,220,1.2,84,49
840,230,630,190,490,680,2.5789,170,300,470,1.7647,150,250,400,1.6667,140,190,330,1.3571,110,140,250,1.2727,100,120,220,1.2,85,49
870,210,650,230,510,740,2.2174,170,350,520,2.0588,150,280,430,1.8667,130,200,330,1.5385,110,150,260,1.3636,100,120,220,1.2,85,49
850,220,630,190,440,630,2.3158,170,290,460,1.7059,150,240,390,1.6,130,170,300,1.3077,110,130,240,1.1818,100,110,210,1.1,84,49
840,220,610,180,470,650,2.6111,160,280,440,1.75,150,240,390,1.6,130,170,300,1.3077,110,130,240,1.1818,100,110,210,1.1,84,49
840,230,620,180,590,770,3.2778,160,360,520,2.25,140,280,420,2,120,200,320,1.6667,100,160,260,1.6,100,140,240,1.4,85,49
830,220,620,180,520,700,2.8889,160,320,480,2,140,260,400,1.8571,130,190,320,1.4615,100,150,250,1.5,100,120,220,1.2,85,49
870,210,650,230,490,720,2.1304,170,370,540,2.1765,160,300,460,1.875,130,210,340,1.6154,100,160,260,1.6,90,140,230,1.5556,85,49
880,220,650,190,460,650,2.4211,160,300,460,1.875,150,250,400,1.6667,130,190,320,1.4615,110,140,250,1.2727,100,110,210,1.1,85,49
850,230,630,190,460,650,2.4211,160,290,450,1.8125,150,230,380,1.5333,130,170,300,1.3077,120,130,250,1.0833,100,100,200,1,85,49
860,220,630,170,640,810,3.7647,150,380,530,2.5333,140,290,430,2.0714,120,210,330,1.75,90,150,240,1.6667,90,130,220,1.4444,85,49
830,230,620,190,510,700,2.6842,160,310,470,1.9375,150,250,400,1.6667,140,190,330,1.3571,110,140,250,1.2727,110,110,220,1,85,49
880,210,670,230,480,710,2.087,170,320,490,1.8824,150,290,440,1.9333,130,230,360,1.7692,100,170,270,1.7,90,150,240,1.6667,86,50
870,210,640,180,460,640,2.5556,160,290,450,1.8125,130,250,380,1.9231,130,190,320,1.4615,110,140,250,1.2727,100,120,220,1.2,86,50
840,230,570,190,490,680,2.5789,170,290,460,1.7059,150,240,390,1.6,130,170,300,1.3077,120,130,250,1.0833,100,110,210,1.1,86,50
850,270,620,190,620,810,3.2632,160,340,500,2.125,150,270,420,1.8,130,200,330,1.5385,110,150,260,1.3636,90,130,220,1.4444,86,50
830,230,620,190,510,700,2.6842,170,310,480,1.8235,160,250,410,1.5625,140,190,330,1.3571,120,140,260,1.1667,100,120,220,1.2,87,50
870,210,650,230,470,700,2.0435,170,300,470,1.7647,150,250,400,1.6667,130,180,310,1.3846,100,130,230,1.3,90,120,210,1.3333,87,50
850,220,640,190,460,650,2.4211,160,300,460,1.875,150,250,400,1.6667,130,180,310,1.3846,110,140,250,1.2727,100,120,220,1.2,87,50
850,210,630,170,550,720,3.2353,150,300,450,2,140,250,390,1.7857,130,190,320,1.4615,100,140,240,1.4,90,120,210,1.3333,87,50
840,220,630,180,520,700,2.8889,160,310,470,1.9375,140,250,390,1.7857,130,190,320,1.4615,100,140,240,1.4,100,120,220,1.2,87,50
860,210,640,180,560,740,3.1111,150,330,480,2.2,140,280,420,2,130,200,330,1.5385,100,160,260,1.6,90,130,220,1.4444,88,50
870,220,650,240,500,740,2.0833,180,340,520,1.8889,170,280,450,1.6471,150,200,350,1.3333,120,150,270,1.25,120,130,250,1.0833,89,51
860,220,630,190,510,700,2.6842,160,320,480,2,150,260,410,1.7333,130,190,320,1.4615,110,140,250,1.2727,100,120,220,1.2,89,51
840,230,620,210,500,710,2.381,170,330,500,1.9412,160,260,420,1.625,140,180,320,1.2857,120,130,250,1.0833,110,110,220,1,89,51
840,220,610,180,440,620,2.4444,160,290,450,1.8125,150,240,390,1.6,130,170,300,1.3077,110,130,240,1.1818,90,110,200,1.2222,89,51
830,230,610,190,600,790,3.1579,170,340,510,2,150,270,420,1.8,130,190,320,1.4615,120,140,260,1.1667,100,120,220,1.2,89,51
860,220,650,200,490,690,2.45,160,340,500,2.125,160,280,440,1.75,120,200,320,1.6667,110,160,270,1.4545,90,140,230,1.5556,90,52
830,210,630,180,480,660,2.6667,160,310,470,1.9375,150,260,410,1.7333,130,190,320,1.4615,110,140,250,1.2727,90,130,220,1.4444,90,52
860,200,640,170,470,640,2.7647,140,290,430,2.0714,130,250,380,1.9231,120,190,310,1.5833,90,150,240,1.6667,80,130,210,1.625,90,52
820,220,600,190,480,670,2.5263,160,300,460,1.875,150,240,390,1.6,130,180,310,1.3846,110,140,250,1.2727,100,110,210,1.1,91,52
840,220,610,170,510,680,3,150,310,460,2.0667,140,250,390,1.7857,120,190,310,1.5833,100,140,240,1.4,90,120,210,1.3333,91,52
840,230,620,200,460,660,2.3,170,320,490,1.8824,160,260,420,1.625,130,190,320,1.4615,120,140,260,1.1667,100,120,220,1.2,91,53
830,220,620,200,450,650,2.25,170,290,460,1.7059,160,250,410,1.5625,130,180,310,1.3846,120,130,250,1.0833,100,110,210,1.1,91,53
840,210,620,180,430,610,2.3889,160,270,430,1.6875,150,230,380,1.5333,120,170,290,1.4167,110,130,240,1.1818,90,100,190,1.1111,91,53
830,220,610,180,490,670,2.7222,160,300,460,1.875,150,250,400,1.6667,120,180,300,1.5,110,140,250,1.2727,90,120,210,1.3333,92,53
820,220,610,190,520,710,2.7368,160,310,470,1.9375,150,250,400,1.6667,130,190,320,1.4615,110,140,250,1.2727,100,110,210,1.1,92,53
850,210,640,180,470,650,2.6111,160,320,480,2,140,260,400,1.8571,130,200,330,1.5385,100,150,250,1.5,90,130,220,1.4444,92,53
810,210,620,190,440,630,2.3158,170,290,460,1.7059,160,240,400,1.5,140,180,320,1.2857,110,130,240,1.1818,100,110,210,1.1,93,54
870,190,660,160,520,680,3.25,140,330,470,2.3571,120,270,390,2.25,110,200,310,1.8182,90,150,240,1.6667,70,130,200,1.8571,92,54
840,210,620,180,460,640,2.5556,160,300,460,1.875,150,240,390,1.6,130,180,310,1.3846,110,130,240,1.1818,100,120,220,1.2,93,54
840,220,620,180,630,810,3.5,160,320,480,2,150,260,410,1.7333,130,190,320,1.4615,110,140,250,1.2727,100,120,220,1.2,93,54
850,220,630,180,470,650,2.6111,160,320,480,2,150,270,420,1.8,130,200,330,1.5385,110,150,260,1.3636,100,120,220,1.2,94,54
860,220,640,190,430,620,2.2632,160,300,460,1.875,150,260,410,1.7333,130,190,320,1.4615,100,150,250,1.5,100,120,220,1.2,94,54
830,220,630,220,450,670,2.0455,170,290,460,1.7059,160,250,410,1.5625,130,180,310,1.3846,110,130,240,1.1818,100,120,220,1.2,94,54
880,200,640,170,500,670,2.9412,140,320,460,2.2857,130,260,390,2,120,200,320,1.6667,90,160,250,1.7778,80,140,220,1.75,94,54
550,240,530,190,540,730,2.8421,170,410,580,2.4118,160,310,470,1.9375,140,210,350,1.5,120,140,260,1.1667,110,110,220,1,95,55
1150,20,920,20,770,790,38.5,20,630,650,31.5,20,570,590,28.5,20,490,510,24.5,20,450,470,22.5,20,430,450,21.5,95,55
870,230,650,250,520,770,2.08,190,360,550,1.8947,180,290,470,1.6111,150,200,350,1.3333,130,140,270,1.0769,120,120,240,1,95,55
860,220,640,180,490,670,2.7222,150,310,460,2.0667,150,250,400,1.6667,130,180,310,1.3846,110,140,250,1.2727,90,120,210,1.3333,95,55
880,220,630,180,500,680,2.7778,160,310,470,1.9375,150,260,410,1.7333,130,190,320,1.4615,110,140,250,1.2727,100,120,220,1.2,95,55
850,250,630,190,640,830,3.3684,170,410,580,2.4118,150,310,460,2.0667,140,200,340,1.4286,110,150,260,1.3636,100,130,230,1.3,96,55
860,220,650,190,480,670,2.5263,160,340,500,2.125,150,270,420,1.8,130,200,330,1.5385,110,150,260,1.3636,100,130,230,1.3,97,56
880,210,660,230,480,710,2.087,210,330,540,1.5714,180,320,500,1.7778,140,230,370,1.6429,120,170,290,1.4167,100,140,240,1.4,96,56
860,220,640,180,450,630,2.5,170,290,460,1.7059,150,240,390,1.6,140,180,320,1.2857,110,130,240,1.1818,100,110,210,1.1,96,56
860,220,610,180,540,720,3,160,330,490,2.0625,150,260,410,1.7333,130,190,320,1.4615,110,140,250,1.2727,90,120,210,1.3333,97,56
870,250,630,230,640,870,2.7826,170,450,620,2.6471,160,350,510,2.1875,140,220,360,1.5714,110,160,270,1.4545,100,130,230,1.3,98,56
910,240,680,210,500,710,2.381,180,340,520,1.8889,170,280,450,1.6471,140,200,340,1.4286,130,140,270,1.0769,110,120,230,1.0909,98,56
850,230,640,250,460,710,1.84,190,290,480,1.5263,180,230,410,1.2778,150,160,310,1.0667,130,100,230,0.76923,120,70,190,0.58333,98,56
880,210,660,170,490,660,2.8824,150,310,460,2.0667,140,250,390,1.7857,130,180,310,1.3846,100,140,240,1.4,90,120,210,1.3333,97,56
870,220,650,180,660,840,3.6667,160,350,510,2.1875,150,260,410,1.7333,130,180,310,1.3846,100,140,240,1.4,90,120,210,1.3333,97,56
870,220,640,180,520,700,2.8889,160,330,490,2.0625,150,260,410,1.7333,130,180,310,1.3846,120,140,260,1.1667,100,120,220,1.2,97,56
870,230,670,200,530,730,2.65,180,360,540,2,160,300,460,1.875,140,190,330,1.3571,120,150,270,1.25,110,120,230,1.0909,98,56
