RelativeTimeMilliseconds;ECG;ART;ART (Sys);ART (Dia);PPG
6000000;-0.08500;83.0625;111;64;0.79756
6000010;-0.08500;82.5625;111;64;0.81880
6000020;-0.08500;82.3125;111;64;0.82393
6000030;-0.08500;82.0000;111;64;0.82613
6000040;-0.08500;81.2500;111;64;0.82882
6000050;-0.07500;80.8750;111;64;0.82759
6000060;-0.04500;80.5000;111;64;0.82466
6000070;-0.02000;80.0625;111;64;0.81978
6000080;0.00000;79.6875;111;64;0.81319
6000090;0.01000;78.8750;111;64;0.79438
6000100;0.04000;78.5000;111;64;0.77900
6000110;0.06500;78.0625;111;64;0.76435
6000120;0.06000;77.6875;111;64;0.75385
6000130;0.03000;76.9375;111;64;0.72723
6000140;0.00000;76.6250;111;64;0.71160
6000150;-0.04500;76.2500;111;64;0.69548
6000160;-0.08500;75.9375;111;64;0.67888
6000170;-0.11500;75.2500;111;64;0.64615
6000180;-0.13000;74.9375;111;64;0.63053
6000190;-0.13500;74.5625;111;64;0.61563
6000200;-0.13500;74.0000;111;64;0.58901
6000210;-0.13000;73.6875;111;64;0.57753
6000220;-0.12500;73.4375;111;64;0.56777
6000230;-0.12500;73.2500;111;64;0.55922
6000240;0.08000;72.7500;111;64;0.54359
6000250;0.49500;72.5625;111;64;0.53675
6000260;1.01000;72.3750;111;64;0.53065
6000270;0.76500;72.2500;111;64;0.52527
6000280;0.01500;71.9375;111;64;0.52015
6000290;-0.26500;71.7500;111;64;0.51062
6000300;-0.22000;71.6250;111;64;0.50598
6000310;-0.20000;71.5000;111;64;0.50110
6000320;-0.20500;71.3750;111;64;0.49670
6000330;-0.20500;71.0625;111;64;0.48791
6000340;-0.20000;70.9375;111;64;0.48303
6000350;-0.19000;70.6875;111;64;0.47790
6000360;-0.18500;70.2500;111;64;0.46764
6000370;-0.18000;70.0000;111;64;0.46252
6000380;-0.17000;69.7500;111;64;0.45739
6000390;-0.16000;69.5000;111;64;0.45201
6000400;-0.14500;69.2500;111;64;0.44689
6000410;-0.13500;68.6875;111;64;0.43712
6000420;-0.12500;68.4375;111;64;0.43297
6000430;-0.11500;68.1875;111;64;0.42955
6000440;-0.10500;67.9375;111;64;0.42564
6000450;-0.09500;67.6875;111;64;0.41734
6000460;-0.08500;67.9375;111;64;0.41270
6000470;-0.07500;68.6250;111;64;0.40830
6000480;-0.06500;72.0000;111;64;0.39976
6000490;-0.05500;74.7500;111;64;0.39560
6000500;-0.04500;78.1875;111;64;0.39194
6000510;-0.03000;82.0000;111;64;0.38828
6000520;-0.01500;86.1250;111;64;0.38535
6000530;0.00500;94.6250;111;64;0.38022
6000540;0.02000;98.6875;111;64;0.37778
6000550;0.04000;102.5000;111;64;0.37558
6000560;0.06000;105.9375;111;64;0.37363
6000570;0.08000;111.5625;111;64;0.37094
6000580;0.11000;113.6250;111;64;0.36996
6000590;0.14500;115.2500;111;64;0.36923
6000600;0.17500;116.5000;111;64;0.36874
6000610;0.20500;118.0000;111;64;0.36825
6000620;0.20500;118.3125;111;64;0.36874
6000630;0.19000;118.3750;111;64;0.36947
6000640;0.14500;118.1875;111;64;0.36996
6000650;0.09000;117.3125;111;64;0.37070
6000660;0.03000;116.6250;111;64;0.37070
6000670;-0.00500;115.7500;111;64;0.37070
6000680;-0.04500;114.7500;111;64;0.37070
6000690;-0.07000;112.3750;111;64;0.37070
6000700;-0.07500;111.0000;111;64;0.37021
6000710;-0.08500;109.5625;111;64;0.36972
6000720;-0.09500;108.0625;111;64;0.36947
6000730;-0.09500;104.8125;111;64;0.36947
6000740;-0.09500;103.1250;111;64;0.37094
6000750;-0.09500;101.3125;111;64;0.37485
6000760;-0.09500;97.6250;111;64;0.39316
6000770;-0.09500;95.6875;111;64;0.40904
6000780;-0.09500;93.8125;111;64;0.43004
6000790;-0.08500;92.0625;111;64;0.44274
6000800;-0.08500;92.0625;111;64;0.44274
6000810;-0.08500;88.0625;111;64;0.49499
6000820;-0.08500;88.0625;111;64;0.49499
6000830;-0.08500;86.5625;111;64;0.54457
6000840;-0.08000;85.7500;111;64;0.60073
6000850;-0.07500;85.5000;111;64;0.62686
6000860;-0.07000;85.3125;111;64;0.65104
6000870;-0.06500;85.2500;111;64;0.67277
6000880;-0.06500;85.1250;111;64;0.69206
6000890;-0.06500;84.9375;111;64;0.72259
6000900;-0.06500;84.7500;111;64;0.73431
6000910;-0.06500;84.5625;111;64;0.74335
6000920;-0.07000;84.3125;111;64;0.74847
6000930;-0.07000;83.6875;111;64;0.75287
6000940;-0.06500;83.3125;111;64;0.75385
6000950;-0.05500;82.8750;111;64;0.75336
6000960;-0.04000;82.4375;111;64;0.75140
6000970;-0.00500;81.4375;111;64;0.74212
6000980;0.02000;81.0000;111;64;0.73529
6000990;0.03000;80.5000;111;64;0.72723
6001000;0.04000;79.9375;110;64;0.71795
6001010;0.07000;78.8750;110;64;0.69670
6001020;0.09500;78.3750;110;64;0.68523
6001030;0.08000;77.8750;110;64;0.67228
6001040;0.05000;77.4375;110;64;0.65812
6001050;0.02000;76.5000;110;64;0.62735
6001060;-0.03500;76.0625;110;64;0.61123
6001070;-0.06500;75.6250;110;64;0.59512
6001080;-0.09500;75.1875;110;64;0.57949
6001090;-0.10000;74.3125;110;64;0.54969
6001100;-0.10000;73.9375;110;64;0.53602
6001110;-0.10000;73.5625;110;64;0.52381
6001120;-0.09500;73.2500;110;64;0.51355
6001130;-0.09500;72.6250;110;64;0.49402
6001140;-0.03000;72.3750;110;64;0.48791
6001150;0.20500;72.0625;110;64;0.48205
6001160;0.76000;71.5000;110;64;0.47668
6001170;0.97000;71.3125;110;64;0.46716
6001180;0.45500;71.1250;110;64;0.46276
6001190;-0.17500;70.9375;110;64;0.45861
6001200;-0.23000;70.5000;110;64;0.45446
6001210;-0.17000;70.3750;110;64;0.44640
6001220;-0.15500;70.1875;110;64;0.44274
6001230;-0.15500;69.9375;110;64;0.43858
6001240;-0.14500;69.5000;110;64;0.42906
6001250;-0.14500;69.2500;110;64;0.42393
6001260;-0.14000;69.0000;110;64;0.41856
6001270;-0.13500;68.6875;110;64;0.41294
6001280;-0.12500;68.1250;110;64;0.40171
6001290;-0.12500;67.8125;110;64;0.39609
6001300;-0.11500;67.5000;110;64;0.39048
6001310;-0.11000;67.1875;110;64;0.38486
6001320;-0.10000;66.8750;110;64;0.37998
6001330;-0.09000;66.3125;110;64;0.37045
6001340;-0.07500;66.0625;110;64;0.36508
6001350;-0.07000;65.8125;110;64;0.35946
6001360;-0.06500;65.6250;110;64;0.35385
6001370;-0.05500;65.8125;110;64;0.34212
6001380;-0.05000;66.5625;110;64;0.33626
6001390;-0.03500;67.9375;110;64;0.33040
6001400;-0.02500;72.7500;110;64;0.31941
6001410;-0.02000;76.0625;110;64;0.31526
6001420;-0.00500;79.7500;110;64;0.31160
6001430;0.01000;83.6875;110;64;0.30745
6001440;0.03000;91.7500;110;64;0.29866
6001450;0.04500;95.5625;110;64;0.29426
6001460;0.07000;99.1875;110;64;0.29011
6001470;0.09000;102.5000;110;64;0.28645
6001480;0.12000;105.3125;110;64;0.28303
6001490;0.15000;109.6250;110;64;0.27668
6001500;0.18500;111.1250;110;64;0.27399
6001510;0.21500;112.1875;110;64;0.27179
6001520;0.22500;112.8750;110;64;0.27057
6001530;0.21500;113.3750;110;64;0.26911
6001540;0.18500;113.2500;110;64;0.26764
6001550;0.12000;112.8750;110;64;0.26618
6001560;0.06500;111.5625;110;64;0.26300
6001570;0.02000;110.6250;110;64;0.26129
6001580;-0.01500;109.5625;110;64;0.25983
6001590;-0.04500;108.3750;110;64;0.25861
6001600;-0.05500;107.0000;110;64;0.25739
6001610;-0.06500;104.1250;110;64;0.25592
6001620;-0.07500;102.5625;110;64;0.25592
6001630;-0.08000;100.9375;110;64;0.25543
6001640;-0.08000;99.2500;110;64;0.25495
6001650;-0.08000;95.7500;110;64;0.25592
6001660;-0.08000;94.0000;110;64;0.25934
6001670;-0.08000;92.1250;110;64;0.26545
6001680;-0.08000;88.5000;110;64;0.28889
6001690;-0.08500;86.8125;110;64;0.30720
6001700;-0.08500;85.3750;110;64;0.32991
6001710;-0.08000;84.1875;110;64;0.35604
6001720;-0.08000;83.2500;110;64;0.38071
6001730;-0.07500;81.8125;110;64;0.43272
6001740;-0.07500;81.3750;110;64;0.46178
6001750;-0.07500;81.0000;110;64;0.49060
6001760;-0.07500;80.7500;110;64;0.51795
6001770;-0.07000;80.4375;110;64;0.56581
6001780;-0.07500;80.3125;110;64;0.58584
6001790;-0.07500;80.1875;110;64;0.60269
6001800;-0.07500;79.8750;110;64;0.62784
6001810;-0.07500;79.7500;110;64;0.63516
6001820;-0.07500;79.5000;110;64;0.63956
6001830;-0.07500;79.2500;110;64;0.64274
6001840;-0.06500;78.6250;110;64;0.64444
6001850;-0.05500;78.3125;110;64;0.64249
6001860;-0.03000;77.9375;110;64;0.63883
6001870;-0.00500;77.5625;110;64;0.63346
6001880;0.01000;76.8125;110;64;0.61856
6001890;0.01000;76.3750;110;64;0.60928
6001900;0.04000;75.9375;110;64;0.59853
6001910;0.08000;75.5625;110;64;0.58657
6001920;0.07500;74.8125;110;64;0.57485
6001930;0.03000;74.4375;110;64;0.54896
6001940;0.00500;74.0625;110;64;0.53382
6001950;-0.02500;73.6875;110;64;0.51795
6001960;-0.07000;73.2500;110;64;0.50134
6001970;-0.10500;72.5625;110;64;0.46716
6001980;-0.12000;72.1875;110;64;0.45079
6001990;-0.12000;71.8750;110;64;0.43516
6002000;-0.12000;71.5625;111;64;0.42027
6002010;-0.11500;71.0000;111;64;0.39560
6002020;-0.11000;70.7500;111;64;0.38657
6002030;-0.10000;70.4375;111;64;0.37729
6002040;0.04000;69.9375;111;64;0.36874
6002050;0.55500;69.6875;111;64;0.35409
6002060;0.88000;69.5000;111;64;0.34799
6002070;0.63500;69.3750;111;64;0.34261
6002080;-0.05500;69.1875;111;64;0.33797
6002090;-0.29000;68.8750;111;64;0.32943
6002100;-0.23000;68.6875;111;64;0.32527
6002110;-0.19000;68.5000;111;64;0.32137
6002120;-0.18000;68.3125;111;64;0.31819
6002130;-0.18000;68.0000;111;64;0.31184
6002140;-0.17500;67.8125;111;64;0.30769
6002150;-0.17000;67.5625;111;64;0.30208
6002160;-0.16000;67.1250;111;64;0.29353
6002170;-0.15500;66.8750;111;64;0.28962
6002180;-0.15000;66.6250;111;64;0.28571
6002190;-0.14000;66.3750;111;64;0.28156
6002200;-0.13500;66.1250;111;64;0.27766
6002210;-0.13000;65.5625;111;64;0.27082
6002220;-0.12000;65.2500;111;64;0.26813
6002230;-0.10500;64.9375;111;64;0.26471
6002240;-0.10000;64.6875;111;64;0.25983
6002250;-0.09000;64.3125;111;64;0.25226
6002260;-0.08000;64.1875;111;64;0.24860
6002270;-0.06000;64.2500;111;64;0.24444
6002280;-0.05000;64.6250;111;64;0.24029
6002290;-0.03500;67.0000;111;64;0.23321
6002300;-0.01500;69.1875;111;64;0.22906
6002310;-0.00500;71.9375;111;64;0.22564
6002320;0.01000;75.1875;111;64;0.22418
6002330;0.02500;82.4375;111;64;0.22076
6002340;0.05000;86.2500;111;64;0.21856
6002350;0.07000;89.9375;111;64;0.21685
6002360;0.09000;93.5000;111;64;0.21441
6002370;0.12500;99.6250;111;64;0.20977
6002380;0.16500;102.1250;111;64;0.20830
6002390;0.19000;104.1250;111;64;0.20708
6002400;0.23000;106.8125;111;64;0.20562
6002410;0.25000;107.5000;111;64;0.20635
6002420;0.25500;107.8750;111;64;0.20635
6002430;0.22500;107.9375;111;64;0.20635
6002440;0.15500;107.1250;111;64;0.20635
6002450;0.10000;106.4375;111;64;0.20635
6002460;0.03500;105.5625;111;64;0.20635
6002470;-0.01500;104.5625;111;64;0.20659
6002480;-0.05000;102.1875;111;64;0.20806
6002490;-0.06500;100.8125;111;64;0.20904
6002500;-0.08000;99.3750;111;64;0.20977
6002510;-0.09500;97.9375;111;64;0.21099
6002520;-0.10000;96.3750;111;64;0.21245
6002530;-0.10000;93.2500;111;64;0.21416
6002540;-0.10500;91.6250;111;64;0.21563
6002550;-0.10500;89.9375;111;64;0.21832
6002560;-0.10500;86.6250;111;64;0.23150
6002570;-0.10500;85.0625;111;64;0.24347
6002580;-0.10500;83.6875;111;64;0.25983
6002590;-0.10500;82.5000;111;64;0.28059
6002600;-0.10000;80.6875;111;64;0.32991
6002610;-0.09500;80.0625;111;64;0.35458
6002620;-0.09500;79.5000;111;64;0.38364
6002630;-0.09000;79.1250;111;64;0.41465
6002640;-0.09000;78.8125;111;64;0.44591
6002650;-0.08500;78.3750;111;64;0.50452
6002660;-0.08500;78.1875;111;64;0.53065
6002670;-0.09000;78.0625;111;64;0.55409
6002680;-0.09500;78.0000;111;64;0.57436
6002690;-0.09833;77.7500;111;64;0.60537
6002700;-0.10000;77.5625;111;64;0.61490
6002710;-0.10000;77.3750;111;64;0.62100
6002720;-0.09500;77.1250;111;64;0.62637
6002730;-0.09500;76.6250;111;64;0.63150
6002740;-0.10000;76.3125;111;64;0.63101
6002750;-0.09500;75.9375;111;64;0.62882
6002760;-0.08000;75.6250;111;64;0.62466
6002770;-0.05000;74.8750;111;64;0.61074
6002780;-0.03000;74.5000;111;64;0.60171
6002790;-0.02500;74.1875;111;64;0.59145
6002800;-0.00500;73.4375;111;64;0.58022
6002810;0.03500;73.1250;111;64;0.55751
6002820;0.06000;72.7500;111;64;0.54457
6002830;0.04000;72.3750;111;64;0.53480
6002840;0.00000;72.0625;111;64;0.52698
6002850;-0.03000;71.3750;111;64;0.50403
6002860;-0.06000;71.0625;111;64;0.49133
6002870;-0.10500;70.7500;111;64;0.47863
6002880;-0.13000;70.1250;111;64;0.46667
6002890;-0.14000;69.8750;111;64;0.44518
6002900;-0.14000;69.5625;111;64;0.43687
6002910;-0.13500;69.3125;111;64;0.43004
6002920;-0.12500;69.0625;111;64;0.42320
6002930;-0.11500;68.5625;111;64;0.41123
6002940;-0.08000;68.3750;111;64;0.40610
6002950;0.16500;68.1875;111;64;0.40147
6002960;0.65000;68.0000;111;64;0.39731
6002970;0.84500;67.6250;111;64;0.38999
6002980;0.36500;67.5000;111;64;0.38681
6002990;-0.21000;67.3750;111;64;0.38388
6003000;-0.26000;67.0625;111;64;0.37827
6003010;-0.21000;66.8750;111;64;0.37607
6003020;-0.19000;66.7500;111;64;0.37338
6003030;-0.19000;66.5625;111;64;0.37045
6003040;-0.18500;66.2500;111;64;0.36410
6003050;-0.18000;66.0625;111;64;0.36068
6003060;-0.17500;65.8750;111;64;0.35726
6003070;-0.17000;65.6875;111;64;0.35385
6003080;-0.16000;65.1875;111;64;0.34676
6003090;-0.16000;64.9375;111;64;0.34310
6003100;-0.15000;64.6875;111;64;0.34042
6003110;-0.14000;64.4375;111;64;0.33797
6003120;-0.13000;63.8750;111;64;0.33162
6003130;-0.12500;63.6250;111;64;0.32796
6003140;-0.11500;63.3750;111;64;0.32430
6003150;-0.09500;63.1875;111;64;0.32063
6003160;-0.08500;63.0625;111;64;0.31673
6003170;-0.07500;63.0625;111;64;0.30965
6003180;-0.06000;63.5000;111;64;0.30647
6003190;-0.05000;64.5625;111;64;0.30330
6003200;-0.03500;68.6250;111;64;0.30037
6003210;-0.02000;71.5000;111;64;0.29670
6003220;-0.00500;74.8125;111;64;0.29451
6003230;0.01500;78.4375;111;64;0.29206
6003240;0.03000;86.0000;111;64;0.28962
6003250;0.05500;89.6875;111;64;0.28523
6003260;0.07000;93.2500;111;64;0.28303
6003270;0.10000;96.4375;111;64;0.28107
6003280;0.13000;99.3125;111;64;0.27937
6003290;0.16500;103.7500;111;64;0.27717
6003300;0.20000;105.2500;111;64;0.27692
6003310;0.23500;106.3125;111;64;0.27741
6003320;0.25500;107.0625;111;64;0.27741
6003330;0.25000;107.5625;111;64;0.27741
6003340;0.20000;107.3750;111;64;0.27741
6003350;0.15500;107.0000;111;64;0.27741
6003360;0.09000;106.3750;111;64;0.27741
6003370;0.03000;104.5625;111;64;0.27741
6003380;-0.01500;103.3750;111;64;0.27741
6003390;-0.03500;102.1875;111;64;0.27741
6003400;-0.06000;100.8750;111;64;0.27741
6003410;-0.07500;98.0625;111;64;0.27912
6003420;-0.08500;96.5625;111;64;0.27961
6003430;-0.09000;95.0000;111;64;0.27985
6003440;-0.09500;93.4375;111;64;0.28059
6003450;-0.10000;90.1250;111;64;0.28474
6003460;-0.09500;88.4375;111;64;0.28987
6003470;-0.09500;86.8125;111;64;0.29768
6003480;-0.09500;83.9375;111;64;0.30916
6003490;-0.09500;82.6875;111;64;0.34457
6003500;-0.09500;81.6875;111;64;0.36459
6003510;-0.09500;80.8125;111;64;0.38559
6003520;-0.09500;80.0625;111;64;0.41123
6003530;-0.09000;79.1250;111;64;0.46838
6003540;-0.08500;78.8125;111;64;0.49719
6003550;-0.08000;78.5625;111;64;0.52503
6003560;-0.07500;78.3750;111;64;0.55092
6003570;-0.07500;78.0625;111;64;0.59585
6003580;-0.07500;77.8750;111;64;0.61441
6003590;-0.07500;77.7500;111;64;0.63004
6003600;-0.08000;77.4375;111;64;0.65177
6003610;-0.08500;77.2500;111;64;0.65763
6003620;-0.08500;77.0000;111;64;0.66276
6003630;-0.09500;76.6875;111;64;0.66642
6003640;-0.09500;76.1250;111;64;0.66813
6003650;-0.09500;75.8750;111;64;0.66593
6003660;-0.08000;75.5625;111;64;0.66203
6003670;-0.05500;75.1875;111;64;0.65665
6003680;-0.03000;74.8125;111;64;0.64957
6003690;-0.01500;74.0625;111;64;0.63126
6003700;-0.01000;73.6875;111;64;0.62125
6003710;0.03000;73.3125;111;64;0.61074
6003720;0.06000;73.0000;111;64;0.59902
6003730;0.05500;72.3125;111;64;0.57289
6003740;0.01500;71.9375;111;64;0.55873
6003750;-0.02500;71.6250;111;64;0.54457
6003760;-0.05000;71.3125;111;64;0.53040
6003770;-0.09500;70.6875;111;64;0.50330
6003780;-0.13000;70.3750;111;64;0.49060
6003790;-0.13500;70.0625;111;64;0.47863
6003800;-0.13500;70.0625;111;64;0.47863
6003810;-0.13500;69.2500;111;64;0.45055
6003820;-0.13000;69.0000;111;64;0.44298
6003830;-0.12500;68.7500;111;64;0.43590
6003840;-0.10500;68.5000;111;64;0.42979
6003850;0.07000;68.0625;111;64;0.41929
6003860;0.52000;67.8750;111;64;0.41490
6003870;0.89500;67.6875;111;64;0.41099
6003880;0.54000;67.5000;111;64;0.40708
6003890;-0.12500;67.1875;111;64;0.40000
6003900;-0.30000;67.0625;111;64;0.39707
6003910;-0.21500;66.9375;111;64;0.39438
6003920;-0.20000;66.8125;111;64;0.39121
6003930;-0.19500;66.5000;111;64;0.38437
6003940;-0.19000;66.3750;111;64;0.38071
6003950;-0.18500;66.1875;111;64;0.37705
6003960;-0.18000;65.9375;111;64;0.37314
6003970;-0.17500;65.5625;111;64;0.36581
6003980;-0.17000;65.3125;111;64;0.36190
6003990;-0.16500;65.1250;111;64;0.35800
6004000;-0.15500;64.8750;112;65;0.35409
6004010;-0.15000;64.3125;112;65;0.34823
6004020;-0.14500;64.0625;112;65;0.34505
6004030;-0.13500;63.7500;112;65;0.34164
6004040;-0.12500;63.5000;112;65;0.33822
6004050;-0.11500;63.1250;112;65;0.33065
6004060;-0.10500;62.9375;112;65;0.32674
6004070;-0.09500;62.9375;112;65;0.32308
6004080;-0.08500;63.1875;112;65;0.31941
6004090;-0.07000;65.2500;112;65;0.31233
6004100;-0.04500;67.1875;112;65;0.30989
6004110;-0.03500;69.8125;112;65;0.30794
6004120;-0.01500;76.5000;112;65;0.30256
6004130;0.00000;80.2500;112;65;0.29988
6004140;0.02000;84.1250;112;65;0.29744
6004150;0.04500;88.0000;112;65;0.29499
6004160;0.06000;91.7500;112;65;0.29255
6004170;0.09000;98.3750;112;65;0.28889
6004180;0.11000;101.1875;112;65;0.28767
6004190;0.14500;103.5000;112;65;0.28669
6004200;0.18000;105.4375;112;65;0.28571
6004210;0.22000;107.8750;112;65;0.28620
6004220;0.23500;108.5625;112;65;0.28620
6004230;0.23500;108.8750;112;65;0.28596
6004240;0.21500;108.9375;112;65;0.28571
6004250;0.14500;108.3750;112;65;0.28523
6004260;0.10000;107.7500;112;65;0.28498
6004270;0.04000;106.9375;112;65;0.28474
6004280;0.00000;106.0000;112;65;0.28474
6004290;-0.03500;103.6875;112;65;0.28498
6004300;-0.05500;102.3750;112;65;0.28571
6004310;-0.07500;101.0000;112;65;0.28669
6004320;-0.08000;98.0625;112;65;0.28742
6004330;-0.08500;96.5000;112;65;0.28742
6004340;-0.09500;94.8750;112;65;0.28791
6004350;-0.09500;93.2500;112;65;0.28938
6004360;-0.09500;91.6250;112;65;0.29255
6004370;-0.09500;88.1875;112;65;0.30696
6004380;-0.10000;86.3750;112;65;0.31966
6004390;-0.09500;84.6250;112;65;0.33675
6004400;-0.08500;83.0000;112;65;0.35482
6004410;-0.08500;80.3750;112;65;0.39902
6004420;-0.08500;79.4375;112;65;0.42662
6004430;-0.08500;78.8125;112;65;0.45617
6004440;-0.08500;78.2500;112;65;0.48620
6004450;-0.08500;77.5625;112;65;0.54310
6004460;-0.08500;77.3750;112;65;0.56874
6004470;-0.08500;77.3125;112;65;0.59219
6004480;-0.08500;77.2500;112;65;0.61319
6004490;-0.08500;77.1875;112;65;0.64713
6004500;-0.09000;77.1875;112;65;0.65812
6004510;-0.09000;77.0625;112;65;0.66593
6004520;-0.08500;76.9375;112;65;0.67326
6004530;-0.09000;76.5625;112;65;0.68278
6004540;-0.08500;76.3125;112;65;0.68474
6004550;-0.08500;76.0625;112;65;0.68474
6004560;-0.07500;75.7500;112;65;0.68278
6004570;-0.05500;75.0000;112;65;0.67424
6004580;-0.02500;74.6875;112;65;0.66764
6004590;-0.00500;74.3125;112;65;0.65958
6004600;0.00000;73.9375;112;65;0.65079
6004610;0.02000;73.2500;112;65;0.63053
6004620;0.06000;72.8750;112;65;0.61880
6004630;0.06000;72.5000;112;65;0.60611
6004640;0.02000;71.8125;112;65;0.57753
6004650;-0.00500;71.5000;112;65;0.56239
6004660;-0.04500;71.1875;112;65;0.54676
6004670;-0.07500;70.8750;112;65;0.53089
6004680;-0.11500;70.1875;112;65;0.49963
6004690;-0.13000;69.8750;112;65;0.48547
6004700;-0.13000;69.6250;112;65;0.47350
6004710;-0.12500;69.3125;112;65;0.46325
6004720;-0.12500;69.0625;112;65;0.45299
6004730;-0.12000;68.6250;112;65;0.43541
6004740;-0.11500;68.3750;112;65;0.42808
6004750;0.01000;68.1250;112;65;0.42173
6004760;0.51000;67.7500;112;65;0.41172
6004770;0.86500;67.5625;112;65;0.40757
6004780;0.72000;67.3750;112;65;0.40415
6004790;0.03000;67.2500;112;65;0.40098
6004800;0.03000;67.2500;112;65;0.40098
6004810;-0.23000;66.8125;112;65;0.39316
6004820;-0.19000;66.6250;112;65;0.38999
6004830;-0.18500;66.5000;112;65;0.38657
6004840;-0.18000;66.3750;112;65;0.38315
6004850;-0.18000;66.0000;112;65;0.37607
6004860;-0.17500;65.8125;112;65;0.37241
6004870;-0.17500;65.5625;112;65;0.36874
6004880;-0.17000;65.3125;112;65;0.36313
6004890;-0.16000;64.8125;112;65;0.35092
6004900;-0.16000;64.5625;112;65;0.34676
6004910;-0.15500;64.3750;112;65;0.34335
6004920;-0.14000;64.1250;112;65;0.33944
6004930;-0.13500;63.6250;112;65;0.33089
6004940;-0.12500;63.3750;112;65;0.32650
6004950;-0.12000;63.1875;112;65;0.32210
6004960;-0.10500;63.0625;112;65;0.31770
6004970;-0.09500;63.0625;112;65;0.30867
6004980;-0.08500;63.5625;112;65;0.30427
6004990;-0.07500;64.5625;112;65;0.30012
6005000;-0.06000;66.2500;112;65;0.29719
6005010;-0.04500;71.6250;112;65;0.29231
6005020;-0.03000;75.0625;112;65;0.28938
6005030;-0.01000;78.8750;112;65;0.28645
6005040;0.00000;82.8125;112;65;0.28352
6005050;0.02500;90.8125;112;65;0.27814
6005060;0.04500;94.5625;112;65;0.27546
6005070;0.07000;98.0625;112;65;0.27277
6005080;0.10000;103.8125;112;65;0.27057
6005090;0.13000;106.0000;112;65;0.26691
6005100;0.15500;107.7500;112;65;0.26618
6005110;0.19000;109.0625;112;65;0.26618
6005120;0.21500;110.6875;112;65;0.26593
6005130;0.22500;110.9375;112;65;0.26496
6005140;0.20500;111.0000;112;65;0.26447
6005150;0.16000;110.8125;112;65;0.26422
6005160;0.09000;109.8125;112;65;0.26325
6005170;0.04000;109.0000;112;65;0.26300
6005180;-0.00500;108.0625;112;65;0.26300
6005190;-0.05000;106.9375;112;65;0.26325
6005200;-0.07000;105.7500;112;65;0.26398
6005210;-0.09000;103.1250;112;65;0.26593
6005220;-0.09500;101.6875;112;65;0.26618
6005230;-0.10500;100.1875;112;65;0.26642
6005240;-0.11000;98.6250;112;65;0.26667
6005250;-0.11500;95.3750;112;65;0.27082
6005260;-0.12000;93.6875;112;65;0.27643
6005270;-0.12000;91.9375;112;65;0.28571
6005280;-0.12000;88.3125;112;65;0.31819
6005290;-0.12000;86.5625;112;65;0.34212
6005300;-0.11500;84.8125;112;65;0.36630
6005310;-0.11000;83.2500;112;65;0.39219
6005320;-0.11000;81.9375;112;65;0.42393
6005330;-0.10500;80.2500;112;65;0.49621
6005340;-0.10500;79.7500;112;65;0.53333
6005350;-0.10000;79.3750;112;65;0.56923
6005360;-0.09500;79.0625;112;65;0.60317
6005370;-0.09500;78.8125;112;65;0.66252
6005380;-0.09500;78.8125;112;65;0.68742
6005390;-0.09500;78.8125;112;65;0.70916
6005400;-0.10000;78.8125;112;65;0.72479
6005410;-0.10000;78.7500;112;65;0.74774
6005420;-0.10000;78.6875;112;65;0.75751
6005430;-0.10500;78.5625;112;65;0.76508
6005440;-0.10500;78.3750;112;65;0.77021
6005450;-0.10500;77.8750;112;65;0.77289
6005460;-0.10000;77.5625;112;65;0.77094
6005470;-0.08500;77.2500;112;65;0.76679
6005480;-0.06000;76.5000;112;65;0.75287
6005490;-0.03500;76.1250;112;65;0.74359
6005500;-0.01500;75.7500;112;65;0.73333
6005510;-0.00500;75.3750;112;65;0.72210
6005520;0.02500;74.6875;112;65;0.69524
6005530;0.05000;74.3750;112;65;0.68034
6005540;0.05000;74.0625;112;65;0.66422
6005550;0.01000;73.7500;112;65;0.64689
6005560;-0.01500;73.4375;112;65;0.62857
6005570;-0.05000;72.8125;112;65;0.58999
6005580;-0.10000;72.5000;112;65;0.57094
6005590;-0.14500;72.1875;112;65;0.55238
6005600;-0.15000;71.8750;112;65;0.53626
6005610;-0.15000;71.3125;112;65;0.50769
6005620;-0.15000;71.0625;112;65;0.49475
6005630;-0.14500;70.8125;112;65;0.48303
6005640;-0.14000;70.5625;112;65;0.47302
6005650;-0.12500;70.0625;112;65;0.45763
6005660;0.02000;69.8750;112;65;0.45201
6005670;0.50000;69.6875;112;65;0.44737
6005680;0.99000;69.5000;112;65;0.44347
6005690;0.53500;69.2500;112;65;0.43663
6005700;-0.05500;69.1250;112;65;0.43370
6005710;-0.29000;69.0000;112;65;0.43077
6005720;-0.23500;68.8750;112;65;0.42759
6005730;-0.21500;68.5625;112;65;0.42027
6005740;-0.21500;68.5000;112;65;0.41685
6005750;-0.21000;68.3750;112;65;0.41319
6005760;-0.20500;68.1875;112;65;0.40904
6005770;-0.19500;67.8125;112;65;0.40073
6005780;-0.19000;67.5625;112;65;0.39683
6005790;-0.17500;67.3750;112;65;0.39292
6005800;-0.17000;66.9375;112;65;0.38706
6005810;-0.16500;66.6875;112;65;0.38388
6005820;-0.15500;66.4375;112;65;0.38046
6005830;-0.14500;66.1875;112;65;0.37680
6005840;-0.13500;65.9375;112;65;0.37265
6005850;-0.12000;65.5000;112;65;0.36386
6005860;-0.10500;65.3125;112;65;0.35971
6005870;-0.09500;65.2500;112;65;0.35556
6005880;-0.08500;65.3750;112;65;0.35140
6005890;-0.07000;67.0000;112;65;0.34408
6005900;-0.05500;68.8125;112;65;0.34139
6005910;-0.05000;71.3750;112;65;0.33919
6005920;-0.03500;74.6250;112;65;0.33651
6005930;-0.02500;82.3125;112;65;0.33089
6005940;-0.00500;86.4375;112;65;0.32821
6005950;0.01000;90.6250;112;65;0.32552
6005960;0.02500;94.6875;112;65;0.32332
6005970;0.05000;101.9375;112;65;0.31990
6005980;0.07000;105.0625;112;65;0.31868
6005990;0.09500;107.7500;112;65;0.31795
6006000;0.12500;110.0000;112;65;0.31770
6006010;0.15500;113.1250;112;65;0.31844
6006020;0.18000;114.1250;112;65;0.31893
6006030;0.20500;114.8125;112;65;0.31941
6006040;0.21500;115.2500;112;65;0.31966
6006050;0.19500;115.3750;112;65;0.32015
6006060;0.15000;115.1250;112;65;0.32039
6006070;0.08000;114.6875;112;65;0.32063
6006080;0.03000;113.3125;112;65;0.32137
6006090;-0.01000;112.3750;112;65;0.32161
6006100;-0.05000;111.3125;112;65;0.32210
6006110;-0.07000;110.1250;112;65;0.32259
6006120;-0.08500;108.8750;112;65;0.32259
6006130;-0.09500;106.0000;112;65;0.32161
6006140;-0.10500;104.5000;112;65;0.32137
6006150;-0.11500;102.9375;112;65;0.32210
6006160;-0.11500;101.2500;112;65;0.32479
6006170;-0.11000;97.8125;112;65;0.33993
6006180;-0.11000;96.0000;112;65;0.35409
6006190;-0.11000;94.1250;112;65;0.37314
6006200;-0.10500;92.1875;112;65;0.39341
6006210;-0.10500;88.6875;112;65;0.44469
6006220;-0.10500;87.2500;112;65;0.47790
6006230;-0.10500;86.0625;112;65;0.51380
6006240;-0.10000;84.5000;112;65;0.58755
6006250;-0.10000;84.0000;112;65;0.62295
6006260;-0.10000;83.6250;112;65;0.65617
6006270;-0.10000;83.3125;112;65;0.68694
6006280;-0.10000;82.9375;112;65;0.73944
6006290;-0.10000;82.8750;112;65;0.75751
6006300;-0.09500;82.8125;112;65;0.77143
6006310;-0.10000;82.7500;112;65;0.78535
6006320;-0.09500;82.6250;112;65;0.79780
6006330;-0.09500;82.3125;112;65;0.81685
6006340;-0.09500;82.1250;112;65;0.82295
6006350;-0.09000;81.8125;112;65;0.82686
6006360;-0.08500;81.5000;112;65;0.82833
6006370;-0.07000;80.8750;112;65;0.82491
6006380;-0.04500;80.4375;112;65;0.82002
6006390;-0.01000;80.0625;112;65;0.81319
6006400;0.01000;79.6875;112;65;0.80464
6006410;0.01500;78.8750;112;65;0.78388
6006420;0.04000;78.4375;112;65;0.77167
6006430;0.07500;78.0625;112;65;0.75824
6006440;0.08000;77.6875;112;65;0.74359
6006450;0.05000;76.9375;112;65;0.71136
6006460;0.01500;76.6250;112;65;0.69353
6006470;-0.03000;76.2500;112;65;0.67497
6006480;-0.08000;75.5625;112;65;0.63687
6006490;-0.10500;75.1875;112;65;0.61954
6006500;-0.12500;74.8750;112;65;0.60342
6006510;-0.12500;74.5625;112;65;0.58706
6006520;-0.13000;74.0000;112;65;0.55702
6006530;-0.12500;73.7500;112;65;0.54408
6006540;-0.12500;73.5000;112;65;0.53260
6006550;-0.11500;73.2500;112;65;0.52283
6006560;-0.01500;72.9375;112;65;0.51453
6006570;0.42000;72.5000;112;65;0.50110
6006580;1.01000;72.3125;112;65;0.49524
6006590;0.76000;72.1250;112;65;0.48987
6006600;0.00000;71.8750;112;65;0.48107
6006610;-0.24500;71.6875;112;65;0.47668
6006620;-0.21000;71.5625;112;65;0.47228
6006630;-0.19000;71.4375;112;65;0.46789
6006640;-0.19500;71.1250;112;65;0.45910
6006650;-0.19500;71.0000;112;65;0.45470
6006660;-0.19000;70.8125;112;65;0.45006
6006670;-0.19000;70.6250;112;65;0.44518
6006680;-0.18000;70.3750;112;65;0.44005
6006690;-0.17500;69.8750;112;65;0.43053
6006700;-0.17000;69.6250;112;65;0.42662
6006710;-0.16500;69.4375;112;65;0.42222
6006720;-0.15500;68.9375;112;65;0.41245
6006730;-0.14500;68.6875;112;65;0.40757
6006740;-0.13500;68.4375;112;65;0.40269
6006750;-0.12500;68.1875;112;65;0.39780
6006760;-0.11500;68.0000;112;65;0.39292
6006770;-0.10500;67.7500;112;65;0.38388
6006780;-0.08500;68.0000;112;65;0.37949
6006790;-0.07500;68.7500;112;65;0.37534
6006800;-0.07500;68.7500;112;65;0.37534
6006810;-0.05500;75.1875;112;65;0.36703
6006820;-0.04000;78.6250;112;65;0.36386
6006830;-0.02500;82.5000;112;65;0.36093
6006840;-0.01500;86.6250;112;65;0.35824
6006850;0.00500;95.0625;112;65;0.35287
6006860;0.02000;99.0625;112;65;0.35043
6006870;0.03500;102.8125;112;65;0.34823
6006880;0.05500;106.1875;112;65;0.34652
6006890;0.08000;111.5625;112;65;0.34432
6006900;0.11000;113.5625;112;65;0.34408
6006910;0.14500;115.1250;112;65;0.34383
6006920;0.16500;116.2500;112;65;0.34383
6006930;0.19000;117.3750;112;65;0.33040
6006940;0.19500;117.5000;112;65;0.32650
6006950;0.18500;117.4375;112;65;0.32479
6006960;0.15500;117.1875;112;65;0.32405
6006970;0.08500;116.1250;112;65;0.32405
6006980;0.04000;115.3125;112;65;0.32430
6006990;-0.01000;114.3750;112;65;0.32454
6007000;-0.05000;112.0625;111;65;0.32527
6007010;-0.06500;110.7500;111;65;0.32527
6007020;-0.07500;109.3750;111;65;0.32503
6007030;-0.08500;107.8750;111;65;0.32479
6007040;-0.09000;104.7500;111;65;0.32454
6007050;-0.09000;103.0625;111;65;0.32601
6007060;-0.09000;101.3750;111;65;0.32918
6007070;-0.09000;99.5625;111;65;0.33504
6007080;-0.08500;97.6875;111;65;0.34432
6007090;-0.08500;93.7500;111;65;0.37265
6007100;-0.08000;91.8750;111;65;0.38999
6007110;-0.07500;90.1250;111;65;0.41294
6007120;-0.07000;88.5625;111;65;0.43980
6007130;-0.06500;86.1250;111;65;0.50037
6007140;-0.06000;85.3125;111;65;0.53162
6007150;-0.06000;84.6250;111;65;0.56215
6007160;-0.05500;83.6250;111;65;0.61758
6007170;-0.05500;83.2500;111;65;0.64200
6007180;-0.05500;83.0000;111;65;0.66374
6007190;-0.06000;82.8125;111;65;0.68254
6007200;-0.05500;82.5000;111;65;0.70574
6007210;-0.05500;82.2500;111;65;0.71551
6007220;-0.05500;82.0625;111;65;0.72405
6007230;-0.06000;81.8125;111;65;0.73089
6007240;-0.06500;81.5625;111;65;0.73578
6007250;-0.06500;80.8750;111;65;0.73993
6007260;-0.06000;80.4375;111;65;0.73944
6007270;-0.04500;80.0625;111;65;0.73700
6007280;-0.02500;79.6250;111;65;0.73260
6007290;0.00000;78.8125;111;65;0.71893
6007300;0.02000;78.3125;111;65;0.71013
6007310;0.03000;77.8750;111;65;0.70037
6007320;0.06000;77.4375;111;65;0.68938
6007330;0.09000;76.5625;111;65;0.66374
6007340;0.07500;76.1250;111;65;0.64933
6007350;0.04000;75.6875;111;65;0.63370
6007360;0.01000;75.3125;111;65;0.61734
6007370;-0.03000;74.5000;111;65;0.58242
6007380;-0.08500;74.1250;111;65;0.56435
6007390;-0.10500;73.7500;111;65;0.54628
6007400;-0.11500;73.3750;111;65;0.53040
6007410;-0.11500;72.6875;111;65;0.50110
6007420;-0.11500;72.3125;111;65;0.48645
6007430;-0.10500;72.0000;111;65;0.47253
6007440;-0.10500;71.4375;111;65;0.45983
6007450;-0.04500;71.1875;111;65;0.43810
6007460;0.16500;70.8750;111;65;0.42857
6007470;0.67500;70.6875;111;65;0.42002
6007480;0.94500;70.2500;111;65;0.41221
6007490;0.28500;70.0625;111;65;0.39878
6007500;-0.18000;69.8750;111;65;0.39341
6007510;-0.25500;69.6875;111;65;0.38755
6007520;-0.18000;69.3125;111;65;0.37582
6007530;-0.17000;69.1250;111;65;0.36996
6007540;-0.17000;68.9375;111;65;0.36410
6007550;-0.16500;68.6875;111;65;0.35824
6007560;-0.16000;68.1875;111;65;0.35214
6007570;-0.15500;67.9375;111;65;0.33993
6007580;-0.15500;67.6875;111;65;0.33382
6007590;-0.14500;67.4375;111;65;0.32772
6007600;-0.13500;66.8750;111;65;0.31795
6007610;-0.13500;66.5625;111;65;0.31233
6007620;-0.12500;66.2500;111;65;0.30672
6007630;-0.12000;65.9375;111;65;0.30134
6007640;-0.10500;65.3750;111;65;0.29035
6007650;-0.09500;65.1250;111;65;0.28498
6007660;-0.09000;64.8750;111;65;0.27961
6007670;-0.08000;64.6875;111;65;0.27448
6007680;-0.07000;64.6875;111;65;0.26935
6007690;-0.05500;65.6875;111;65;0.26105
6007700;-0.04500;67.1250;111;65;0.25836
6007710;-0.03500;69.2500;111;65;0.25495
6007720;-0.02500;75.2500;111;65;0.25104
6007730;-0.01000;78.8750;111;65;0.24298
6007740;0.00000;82.7500;111;65;0.23932
6007750;0.02000;86.6250;111;65;0.23565
6007760;0.04000;90.5000;111;65;0.23223
6007770;0.06000;97.5625;111;65;0.22613
6007780;0.10000;100.6250;111;65;0.22344
6007790;0.12500;103.1875;111;65;0.22076
6007800;0.15500;105.3750;111;65;0.21929
6007810;0.19500;108.3750;111;65;0.21758
6007820;0.23000;109.2500;111;65;0.21661
6007830;0.24500;109.8125;111;65;0.21587
6007840;0.24500;109.9375;111;65;0.21514
6007850;0.21000;109.6250;111;65;0.21368
6007860;0.15000;109.0625;111;65;0.21294
6007870;0.09000;108.2500;111;65;0.21221
6007880;0.03000;106.2500;111;65;0.21099
6007890;-0.00500;105.1250;111;65;0.21123
6007900;-0.03000;103.8125;111;65;0.21197
6007910;-0.04500;102.4375;111;65;0.21245
6007920;-0.05000;99.4375;111;65;0.21221
6007930;-0.05500;97.8750;111;65;0.21221
6007940;-0.06000;96.3125;111;65;0.21221
6007950;-0.06000;94.6250;111;65;0.21270
6007960;-0.05500;91.2500;111;65;0.21734
6007970;-0.05500;89.5000;111;65;0.22320
6007980;-0.05500;87.8125;111;65;0.23272
6007990;-0.05000;86.2500;111;65;0.24640
6008000;-0.05500;84.7500;111;64;0.26154
6008010;-0.05500;82.5000;111;64;0.30232
6008020;-0.06000;81.6250;111;64;0.32894
6008030;-0.06000;80.9375;111;64;0.35800
6008040;-0.06000;80.3750;111;64;0.38828
6008050;-0.06500;79.6250;111;64;0.44908
6008060;-0.07000;79.3750;111;64;0.47741
6008070;-0.07000;79.2500;111;64;0.50354
6008080;-0.07500;79.1250;111;64;0.52698
6008090;-0.07500;78.8125;111;64;0.56337
6008100;-0.07500;78.6875;111;64;0.57509
6008110;-0.08000;78.5000;111;64;0.58632
6008120;-0.08500;78.3125;111;64;0.59560
6008130;-0.08500;77.8125;111;64;0.60830
6008140;-0.08500;77.5000;111;64;0.61099
6008150;-0.09000;77.2500;111;64;0.61172
6008160;-0.08000;76.8750;111;64;0.61026
6008170;-0.05500;76.1875;111;64;0.60195
6008180;-0.03000;75.8125;111;64;0.59536
6008190;-0.01500;75.4375;111;64;0.58803
6008200;-0.01000;75.0625;111;64;0.57973
6008210;0.01500;74.3750;111;64;0.55897
6008220;0.05500;74.0000;111;64;0.54676
6008230;0.06500;73.6250;111;64;0.53382
6008240;0.04000;73.2500;111;64;0.51990
6008250;-0.00500;72.5625;111;64;0.49011
6008260;-0.02500;72.2500;111;64;0.47497
6008270;-0.06500;71.8750;111;64;0.45958
6008280;-0.10500;71.2500;111;64;0.44469
6008290;-0.12500;70.9375;111;64;0.41807
6008300;-0.12500;70.6250;111;64;0.40757
6008310;-0.12500;70.3750;111;64;0.39707
6008320;-0.12000;69.8125;111;64;0.37778
6008330;-0.11500;69.5625;111;64;0.36923
6008340;-0.11500;69.3125;111;64;0.36190
6008350;0.03000;69.0625;111;64;0.35531
6008360;0.34500;68.8125;111;64;0.34969
6008370;0.83500;68.4375;111;64;0.34042
6008380;0.72500;68.2500;111;64;0.33651
6008390;-0.05500;68.1250;111;64;0.33358
6008400;-0.29500;67.9375;111;64;0.33089
6008410;-0.24500;67.6250;111;64;0.32430
6008420;-0.20000;67.4375;111;64;0.32088
6008430;-0.18500;67.2500;111;64;0.31722
6008440;-0.18000;67.0625;111;64;0.31355
6008450;-0.18000;66.7500;111;64;0.30598
6008460;-0.17500;66.5625;111;64;0.30232
6008470;-0.17000;66.3125;111;64;0.29866
6008480;-0.17000;66.0625;111;64;0.29524
6008490;-0.16000;65.5625;111;64;0.28889
6008500;-0.15500;65.3125;111;64;0.28645
6008510;-0.15000;65.0625;111;64;0.28327
6008520;-0.14500;64.8125;111;64;0.27985
6008530;-0.13500;64.2500;111;64;0.27277
6008540;-0.12000;64.0000;111;64;0.26911
6008550;-0.10500;63.7500;111;64;0.26545
6008560;-0.09500;63.5625;111;64;0.26178
6008570;-0.08500;63.4375;111;64;0.25446
6008580;-0.07000;63.6250;111;64;0.25104
6008590;-0.05500;64.3125;111;64;0.24884
6008600;-0.04500;65.5625;111;64;0.24713
6008610;-0.03000;70.0625;111;64;0.24200
6008620;-0.01500;73.1250;111;64;0.23907
6008630;0.00000;76.6250;111;64;0.23639
6008640;0.01500;80.3125;111;64;0.23394
6008650;0.04000;87.8750;111;64;0.22955
6008660;0.06500;91.4375;111;64;0.22759
6008670;0.09000;94.8125;111;64;0.22564
6008680;0.12000;97.8750;111;64;0.22393
6008690;0.15500;102.6250;111;64;0.22173
6008700;0.19500;104.3750;111;64;0.22173
6008710;0.22000;105.6250;111;64;0.22125
6008720;0.24500;106.5000;111;64;0.22076
6008730;0.25500;107.1875;111;64;0.22002
6008740;0.23500;107.0625;111;64;0.22027
6008750;0.18500;106.6875;111;64;0.22051
6008760;0.12000;106.1250;111;64;0.22051
6008770;0.05000;104.3125;111;64;0.22051
6008780;0.00000;103.2500;111;64;0.22076
6008790;-0.04000;102.0625;111;64;0.22173
6008800;-0.04000;102.0625;111;64;0.22173
6008810;-0.08500;97.9375;111;64;0.22466
6008820;-0.08500;97.9375;111;64;0.22466
6008830;-0.10000;94.9375;111;64;0.22589
6008840;-0.10000;91.8125;111;64;0.22808
6008850;-0.10500;90.1875;111;64;0.23004
6008860;-0.10500;88.5625;111;64;0.23346
6008870;-0.10500;86.9375;111;64;0.23907
6008880;-0.10500;84.0000;111;64;0.26105
6008890;-0.10500;82.7500;111;64;0.27570
6008900;-0.10500;81.6875;111;64;0.29255
6008910;-0.10500;80.8750;111;64;0.31477
6008920;-0.10500;80.1250;111;64;0.34115
6008930;-0.10500;79.1250;111;64;0.40098
6008940;-0.10000;78.7500;111;64;0.43223
6008950;-0.10000;78.5000;111;64;0.46325
6008960;-0.09500;78.2500;111;64;0.49255
6008970;-0.09500;78.0000;111;64;0.54872
6008980;-0.09500;77.8750;111;64;0.57680
6008990;-0.09000;77.7500;111;64;0.59609
6009000;-0.08500;77.3750;111;65;0.62198
6009010;-0.08500;77.1875;111;65;0.63199
6009020;-0.08500;76.9375;111;65;0.63980
6009030;-0.08500;76.6875;111;65;0.64518
6009040;-0.08500;76.4375;111;65;0.64835
6009050;-0.08500;75.8125;111;65;0.64860
6009060;-0.06500;75.4375;111;65;0.64567
6009070;-0.04500;75.1250;111;65;0.64103
6009080;-0.02000;74.3750;111;65;0.62759
6009090;-0.01500;74.0000;111;65;0.61978
6009100;0.00000;73.6250;111;65;0.61099
6009110;0.03000;73.3125;111;65;0.60098
6009120;0.06000;72.9375;111;65;0.58974
6009130;0.04500;72.2500;111;65;0.56459
6009140;0.00500;71.9375;111;65;0.55116
6009150;-0.01500;71.6250;111;65;0.53724
6009160;-0.05500;71.3125;111;65;0.52308
6009170;-0.09500;70.6875;111;65;0.49573
6009180;-0.13000;70.3750;111;65;0.48278
6009190;-0.13500;70.0625;111;65;0.47204
6009200;-0.13500;69.8125;111;65;0.46252
6009210;-0.13000;69.2500;111;65;0.44371
6009220;-0.12500;69.0000;111;65;0.43541
6009230;-0.12500;68.7500;111;65;0.42808
6009240;-0.05500;68.3125;111;65;0.41514
6009250;0.17500;68.1250;111;65;0.40977
6009260;0.67500;68.0000;111;65;0.40488
6009270;0.88500;67.8125;111;65;0.40049
6009280;0.17000;67.5000;111;65;0.39316
6009290;-0.25000;67.3750;111;65;0.39048
6009300;-0.28000;67.1875;111;65;0.38779
6009310;-0.21000;67.0000;111;65;0.38486
6009320;-0.19500;66.6875;111;65;0.37827
6009330;-0.19000;66.5000;111;65;0.37485
6009340;-0.19000;66.3750;111;65;0.37118
6009350;-0.18000;66.1875;111;65;0.36752
6009360;-0.17500;65.9375;111;65;0.36386
6009370;-0.17000;65.5000;111;65;0.35678
6009380;-0.16000;65.2500;111;65;0.35336
6009390;-0.15500;65.0625;111;65;0.35092
6009400;-0.15000;64.8125;111;65;0.34872
6009410;-0.14500;64.2500;111;65;0.34237
6009420;-0.13500;64.0000;111;65;0.33871
6009430;-0.13000;63.7500;111;65;0.33480
6009440;-0.12000;63.3125;111;65;0.32698
6009450;-0.11000;63.1250;111;65;0.32308
6009460;-0.10000;63.0625;111;65;0.31917
6009470;-0.09000;63.0625;111;65;0.31551
6009480;-0.07500;64.4375;111;65;0.30867
6009490;-0.06500;66.0625;111;65;0.30623
6009500;-0.05000;68.3750;111;65;0.30452
6009510;-0.03500;71.2500;111;65;0.30208
6009520;-0.02000;78.1875;111;65;0.29939
6009530;0.00000;82.0000;111;65;0.29426
6009540;0.01500;85.8750;111;65;0.29182
6009550;0.04000;89.6875;111;65;0.28962
6009560;0.07000;96.5625;111;65;0.28498
6009570;0.09500;99.5000;111;65;0.28278
6009580;0.12500;101.9375;111;65;0.28083
6009590;0.15500;104.0000;111;65;0.27985
6009600;0.19500;106.7500;111;65;0.27961
6009610;0.23000;107.5000;111;65;0.27839
6009620;0.24500;108.0000;111;65;0.27814
6009630;0.23500;108.1250;111;65;0.27814
6009640;0.19500;108.0000;111;65;0.27814
6009650;0.12000;107.0000;111;65;0.27814
6009660;0.06500;106.1875;111;65;0.27814
6009670;0.01500;105.2500;111;65;0.27814
6009680;-0.02500;104.1875;111;65;0.27814
6009690;-0.06000;101.6875;111;65;0.27888
6009700;-0.07500;100.3125;111;65;0.27985
6009710;-0.08500;98.9375;111;65;0.28010
6009720;-0.09500;95.9375;111;65;0.28034
6009730;-0.10000;94.3750;111;65;0.28083
6009740;-0.10500;92.8125;111;65;0.28181
6009750;-0.10500;91.1875;111;65;0.28376
6009760;-0.10500;89.5000;111;65;0.28742
6009770;-0.10500;86.2500;111;65;0.30354
6009780;-0.10500;84.7500;111;65;0.31722
6009790;-0.10000;83.4375;111;65;0.33211
6009800;-0.10000;83.4375;111;65;0.33211
6009810;-0.09500;80.6875;111;65;0.39707
6009820;-0.09500;80.1250;111;65;0.42540
6009830;-0.09500;79.6250;111;65;0.45495
6009840;-0.09000;79.3125;111;65;0.48449
6009850;-0.08500;78.6875;111;65;0.54017
6009860;-0.08500;78.5000;111;65;0.56484
6009870;-0.08500;78.3750;111;65;0.58706
6009880;-0.08500;78.2500;111;65;0.60659
6009890;-0.08500;77.9375;111;65;0.63175
6009900;-0.08500;77.7500;111;65;0.64225
6009910;-0.08500;77.5625;111;65;0.65104
6009920;-0.08500;77.3750;111;65;0.65788
6009930;-0.08500;76.8125;111;65;0.66569
6009940;-0.08500;76.5000;111;65;0.66667
6009950;-0.08000;76.1875;111;65;0.66545
6009960;-0.06500;75.8125;111;65;0.66252
6009970;-0.03500;75.1250;111;65;0.65201
6009980;-0.01500;74.7500;111;65;0.64420
6009990;-0.00500;74.3750;111;65;0.63565
6010000;0.01000;74.0000;112;65;0.62662
6010010;0.05000;73.2500;112;65;0.60513
6010020;0.06000;72.8750;112;65;0.59292
6010030;0.03500;72.5625;112;65;0.57973
6010040;-0.00500;71.8750;112;65;0.55165
6010050;-0.03000;71.5625;112;65;0.53724
6010060;-0.07500;71.2500;112;65;0.52283
6010070;-0.12000;70.9375;112;65;0.50891
6010080;-0.13000;70.3125;112;65;0.48400
6010090;-0.13500;70.0625;112;65;0.47399
6010100;-0.13500;69.7500;112;65;0.46398
6010110;-0.12500;69.5000;112;65;0.45470
6010120;-0.12000;69.0000;112;65;0.43883
6010130;-0.11500;68.7500;112;65;0.43199
6010140;-0.02000;68.5625;112;65;0.42613
6010150;0.42500;68.3750;112;65;0.42051
6010160;0.81500;68.1875;112;65;0.41538
6010170;0.79500;67.8750;112;65;0.40610
6010180;-0.01000;67.6875;112;65;0.40171
6010190;-0.28000;67.5000;112;65;0.39829
6010200;-0.24000;67.3750;112;65;0.39512
6010210;-0.19000;67.0625;112;65;0.38803
6010220;-0.18500;66.8750;112;65;0.38437
6010230;-0.18000;66.6875;112;65;0.38071
6010240;-0.18000;66.3125;112;65;0.37680
6010250;-0.17500;66.1250;112;65;0.36947
6010260;-0.17000;65.9375;112;65;0.36581
6010270;-0.16500;65.6875;112;65;0.36215
6010280;-0.16000;65.2500;112;65;0.35556
6010290;-0.15500;65.0000;112;65;0.35287
6010300;-0.15000;64.7500;112;65;0.34969
6010310;-0.14000;64.4375;112;65;0.34603
6010320;-0.13000;64.1875;112;65;0.34212
6010330;-0.12000;63.6875;112;65;0.33431
6010340;-0.11000;63.5000;112;65;0.33040
6010350;-0.10000;63.3750;112;65;0.32650
6010360;-0.09500;63.2500;112;65;0.32283
6010370;-0.08000;63.8125;112;65;0.31551
6010380;-0.06500;64.8750;112;65;0.31209
6010390;-0.05500;66.5625;112;65;0.30965
6010400;-0.03500;68.9375;112;65;0.30769
6010410;-0.01500;75.3750;112;65;0.30256
6010420;0.00000;79.1875;112;65;0.30012
6010430;0.01500;83.1250;112;65;0.29768
6010440;0.03500;90.9375;112;65;0.29255
6010450;0.05500;94.6250;112;65;0.29011
6010460;0.07500;98.0000;112;65;0.28791
6010470;0.10500;100.9375;112;65;0.28596
6010480;0.13500;105.5625;112;65;0.28400
6010490;0.17000;107.1875;112;65;0.28254
6010500;0.20500;108.4375;112;65;0.28181
6010510;0.23500;109.3125;112;65;0.28083
6010520;0.24500;110.0625;112;65;0.27937
6010530;0.23500;110.0000;112;65;0.27912
6010540;0.18500;109.7500;112;65;0.27888
6010550;0.11000;109.2500;112;65;0.27888
6010560;0.06000;108.5625;112;65;0.27888
6010570;0.01000;106.6875;112;65;0.27888
6010580;-0.02500;105.5000;112;65;0.27888
6010590;-0.04500;104.2500;112;65;0.27937
6010600;-0.06500;102.8750;112;65;0.28034
6010610;-0.07500;99.9375;112;65;0.28059
6010620;-0.09000;98.4375;112;65;0.28059
6010630;-0.09500;96.8125;112;65;0.28059
6010640;-0.09500;95.1875;112;65;0.28132
6010650;-0.10000;91.8125;112;65;0.28767
6010660;-0.10000;90.1250;112;65;0.29475
6010670;-0.10000;88.3750;112;65;0.30501
6010680;-0.10000;86.6250;112;65;0.31941
6010690;-0.09500;83.7500;112;65;0.35238
6010700;-0.09500;82.6250;112;65;0.37509
6010710;-0.09500;81.6875;112;65;0.40147
6010720;-0.10000;80.9375;112;65;0.43004
6010730;-0.10000;80.0000;112;65;0.48938
6010740;-0.09500;79.6250;112;65;0.51844
6010750;-0.09500;79.3750;112;65;0.54579
6010760;-0.09000;79.1875;112;65;0.57094
6010770;-0.09000;78.9375;112;65;0.61368
6010780;-0.08500;78.8125;112;65;0.63077
6010790;-0.08500;78.6875;112;65;0.64322
6010800;-0.08500;78.6875;112;65;0.64322
6010810;-0.08500;78.1875;112;65;0.66838
6010820;-0.08500;77.9375;112;65;0.67424
6010830;-0.08000;77.6250;112;65;0.67814
6010840;-0.07500;77.0000;112;65;0.68010
6010850;-0.06500;76.6875;112;65;0.67814
6010860;-0.03500;76.3125;112;65;0.67473
6010870;-0.01000;75.9375;112;65;0.66960
6010880;0.00000;75.1875;112;65;0.65495
6010890;0.00500;74.8125;112;65;0.64640
6010900;0.04000;74.4375;112;65;0.63663
6010910;0.07000;74.0625;112;65;0.62564
6010920;0.06000;73.7500;112;65;0.61343
6010930;0.02500;73.0625;112;65;0.58608
6010940;-0.01500;72.7500;112;65;0.57143
6010950;-0.05500;72.4375;112;65;0.55653
6010960;-0.09000;72.1250;112;65;0.54164
6010970;-0.12000;71.5000;112;65;0.51258
6010980;-0.12500;71.1875;112;65;0.49915
6010990;-0.12500;70.9375;112;65;0.48767
6011000;-0.12500;70.6875;112;65;0.47741
6011010;-0.11500;70.1875;112;65;0.45763
6011020;-0.11500;70.0000;112;65;0.45128
6011030;-0.10000;69.8125;112;65;0.44664
6011040;0.17000;69.4375;112;65;0.43468
6011050;0.58000;69.2500;112;65;0.42882
6011060;0.94000;69.1250;112;65;0.42320
6011070;0.54000;68.9375;112;65;0.41783
6011080;-0.12500;68.8125;112;65;0.41294
6011090;-0.28000;68.5625;112;65;0.40562
6011100;-0.21000;68.4375;112;65;0.40171
6011110;-0.20000;68.3125;112;65;0.39780
6011120;-0.20000;68.1250;112;65;0.39365
6011130;-0.20000;67.7500;112;65;0.38462
6011140;-0.19500;67.5625;112;65;0.37998
6011150;-0.19000;67.4375;112;65;0.37509
6011160;-0.18500;67.2500;112;65;0.37021
6011170;-0.17500;66.8125;112;65;0.36044
6011180;-0.17000;66.5625;112;65;0.35531
6011190;-0.16500;66.3125;112;65;0.35140
6011200;-0.16000;66.0625;112;65;0.34799
6011210;-0.15500;65.5000;112;65;0.33968
6011220;-0.13500;65.2500;112;65;0.33529
6011230;-0.12500;65.0625;112;65;0.33089
6011240;-0.11500;64.8750;112;65;0.32650
6011250;-0.10500;64.7500;112;65;0.31819
6011260;-0.09500;65.0000;112;65;0.31404
6011270;-0.08000;65.7500;112;65;0.30989
6011280;-0.07000;67.1250;112;65;0.30574
6011290;-0.05500;71.9375;112;65;0.30037
6011300;-0.04000;75.2500;112;65;0.29719
6011310;-0.02500;78.9375;112;65;0.29377
6011320;-0.01000;87.0000;112;65;0.29060
6011330;0.00500;91.0000;112;65;0.28449
6011340;0.02000;94.9375;112;65;0.28156
6011350;0.04000;98.5625;112;65;0.27912
6011360;0.07000;104.7500;112;65;0.27497
6011370;0.09000;107.1875;112;65;0.27350
6011380;0.12000;109.1875;112;65;0.27228
6011390;0.16000;110.7500;112;65;0.27204
6011400;0.19500;112.7500;112;65;0.27228
6011410;0.21000;113.2500;112;65;0.27228
6011420;0.21500;113.5000;112;65;0.27228
6011430;0.17500;113.5000;112;65;0.27228
6011440;0.12000;112.7500;112;65;0.27228
6011450;0.07000;112.1250;112;65;0.27228
6011460;0.00500;111.2500;112;65;0.27228
6011470;-0.03000;110.2500;112;65;0.27253
6011480;-0.06000;109.0625;112;65;0.27277
6011490;-0.08000;106.5000;112;65;0.27473
6011500;-0.09000;105.1250;112;65;0.27546
6011510;-0.10000;103.6250;112;65;0.27619
6011520;-0.10500;102.0000;112;65;0.27668
6011530;-0.10000;98.7500;112;65;0.27961
6011540;-0.10500;97.1250;112;65;0.28352
6011550;-0.10500;95.4375;112;65;0.29011
6011560;-0.11000;93.6875;112;65;0.30037
6011570;-0.11000;90.5000;112;65;0.33529
6011580;-0.10500;89.1250;112;65;0.36044
6011590;-0.10500;87.8750;112;65;0.38559
6011600;-0.10500;86.8750;112;65;0.41197
6011610;-0.10500;85.3125;112;65;0.47961
6011620;-0.10500;84.7500;112;65;0.51600
6011630;-0.10000;84.2500;112;65;0.55238
6011640;-0.10000;83.8750;112;65;0.58755
6011650;-0.10000;83.5625;112;65;0.62072
6011660;-0.09500;83.3125;112;65;0.65153
6011670;-0.09500;83.1250;112;65;0.67961
6011680;-0.09500;82.7500;112;65;0.72576
6011690;-0.09500;82.5000;112;65;0.74115
6011700;-0.09500;82.3125;112;65;0.75263
6011710;-0.09500;82.0625;112;65;0.76386
6011720;-0.10000;81.5000;112;65;0.78144
6011730;-0.09500;81.1875;112;65;0.78706
6011740;-0.09500;80.8750;112;65;0.79023
6011750;-0.08500;80.5000;112;65;0.79121
6011760;-0.06000;79.7500;112;65;0.78632
6011770;-0.03500;79.3125;112;65;0.78071
6011780;-0.01500;78.9375;112;65;0.77338
6011790;-0.00500;78.5625;112;65;0.76459
6011800;-0.00500;78.5625;112;65;0.76459
6011810;0.05500;77.3750;112;65;0.72991
6011820;0.05500;77.3750;112;65;0.72991
6011830;0.04000;76.6875;112;65;0.70061
6011840;-0.00500;76.0000;112;65;0.66789
6011850;-0.03000;75.6250;112;65;0.65104
6011860;-0.08500;75.3125;112;65;0.63419
6011870;-0.11500;74.9375;112;65;0.61758
6011880;-0.13000;74.6250;112;65;0.60147
6011890;-0.13500;74.0000;112;65;0.57289
6011900;-0.13500;73.7500;112;65;0.56117
6011910;-0.12500;73.5000;112;65;0.54945
6011920;-0.12500;73.2500;112;65;0.53822
6011930;-0.12500;72.7500;112;65;0.51893
6011940;-0.03500;72.5000;112;65;0.51087
6011950;0.50000;72.3125;112;65;0.50379
6011960;0.95000;72.1250;112;65;0.49744
6011970;0.85000;71.7500;112;65;0.48645
6011980;0.12000;71.5000;112;65;0.48156
6011990;-0.27500;71.3750;112;65;0.47717
6012000;-0.23000;71.1875;111;65;0.47326
6012010;-0.20000;70.9375;111;65;0.46496
6012020;-0.20000;70.7500;111;65;0.46056
6012030;-0.20000;70.5625;111;65;0.45592
6012040;-0.19500;70.4375;111;65;0.45128
6012050;-0.19000;70.0625;111;65;0.44176
6012060;-0.18000;69.8125;111;65;0.43663
6012070;-0.17000;69.5625;111;65;0.43175
6012080;-0.17000;69.3125;111;65;0.42686
6012090;-0.16500;68.8125;111;65;0.41783
6012100;-0.16000;68.5625;111;65;0.41392
6012110;-0.15000;68.3125;111;65;0.40977
6012120;-0.13500;67.8125;111;65;0.40122
6012130;-0.12500;67.5625;111;65;0.39683
6012140;-0.11500;67.3750;111;65;0.39243
6012150;-0.10000;67.2500;111;65;0.38803
6012160;-0.09000;67.1875;111;65;0.38339
6012170;-0.08000;68.0000;111;65;0.37436
6012180;-0.07000;69.2500;111;65;0.36996
6012190;-0.06000;71.3125;111;65;0.36630
6012200;-0.05000;74.1250;111;65;0.36337
6012210;-0.05000;74.1250;111;65;0.36337
6012220;-0.05000;74.1250;111;65;0.36337
6012230;-0.05000;74.1250;111;65;0.36337
6012240;0.01000;93.8750;111;65;0.34603
6012250;0.02500;101.7500;111;65;0.34042
6012260;0.04500;105.2500;111;65;0.33797
6012270;0.07000;108.3125;111;65;0.33602
6012280;0.10000;110.8750;111;65;0.33455
6012290;0.13000;114.6250;111;65;0.33358
6012300;0.16000;115.9375;111;65;0.33407
6012310;0.19000;116.8125;111;65;0.33431
6012320;0.19500;117.4375;111;65;0.33431
6012330;0.18500;117.8750;111;65;0.33431
6012340;0.14500;117.7500;111;65;0.33431
6012350;0.08000;117.3750;111;65;0.33431
6012360;0.02500;116.2500;111;65;0.33431
6012370;-0.01500;115.3750;111;65;0.33431
6012380;-0.04500;114.3750;111;65;0.33431
6012390;-0.07500;113.3125;111;65;0.33480
6012400;-0.09000;112.1250;111;65;0.33529
6012410;-0.10000;109.3750;111;65;0.33504
6012420;-0.10500;107.8750;111;65;0.33480
6012430;-0.11500;106.3125;111;65;0.33480
6012440;-0.11500;104.6875;111;65;0.33578
6012450;-0.11500;101.1875;111;65;0.34383
6012460;-0.11500;99.3750;111;65;0.35287
6012470;-0.11000;97.5625;111;65;0.36630
6012480;-0.11000;95.6875;111;65;0.38486
6012490;-0.10500;92.3125;111;65;0.43175
6012500;-0.10000;90.8750;111;65;0.45665
6012510;-0.09500;89.6875;111;65;0.48742
6012520;-0.09500;88.6875;111;65;0.52137
6012530;-0.09500;87.2500;111;65;0.59267
6012540;-0.09000;86.7500;111;65;0.62711
6012550;-0.09000;86.3750;111;65;0.65958
6012560;-0.09000;85.8750;111;65;0.71624
6012570;-0.09000;85.6875;111;65;0.73993
6012580;-0.09000;85.5000;111;65;0.76068
6012590;-0.09000;85.3125;111;65;0.77534
6012600;-0.09500;84.9375;111;65;0.79756
6012610;-0.09500;84.6875;111;65;0.80733
6012620;-0.09500;84.5000;111;65;0.81514
6012630;-0.09500;84.1875;111;65;0.82076
6012640;-0.09500;83.5000;111;65;0.82491
6012650;-0.08500;83.1250;111;65;0.82393
6012660;-0.06500;82.7500;111;65;0.82076
6012670;-0.03500;82.3125;111;65;0.81587
6012680;-0.00500;81.5000;111;65;0.80122
6012690;0.00500;81.0625;111;65;0.79219
6012700;0.02000;80.6875;111;65;0.78193
6012710;0.05000;80.2500;111;65;0.77045
6012720;0.07500;79.4375;111;65;0.74408
6012730;0.06000;79.0625;111;65;0.72894
6012740;0.03000;78.6250;111;65;0.71258
6012750;0.00000;78.2500;111;65;0.69499
6012760;-0.05500;77.5625;111;65;0.65861
6012770;-0.08500;77.1875;111;65;0.64054
6012780;-0.10500;76.8750;111;65;0.62295
6012790;-0.11500;76.5625;111;65;0.60757
6012800;-0.11500;76.5625;111;65;0.60757
6012810;-0.11500;75.8750;111;65;0.57973
6012820;-0.11000;75.3125;111;65;0.55507
6012830;-0.11500;75.0625;111;65;0.54432
6012840;-0.05500;74.5625;111;65;0.52650
6012850;0.19500;74.3125;111;65;0.51917
6012860;0.78500;74.1250;111;65;0.51282
6012870;1.06000;73.9375;111;65;0.50696
6012880;0.32500;73.6250;111;65;0.49719
6012890;-0.15500;73.4375;111;65;0.49304
6012900;-0.24000;73.3125;111;65;0.48889
6012910;-0.19500;73.1875;111;65;0.48449
6012920;-0.19500;72.8125;111;65;0.47497
6012930;-0.19500;72.6250;111;65;0.46984
6012940;-0.19000;72.4375;111;65;0.46471
6012950;-0.18500;72.1875;111;65;0.45934
6012960;-0.17500;71.6250;111;65;0.44835
6012970;-0.17000;71.3125;111;65;0.44298
6012980;-0.15500;71.0000;111;65;0.43761
6012990;-0.14500;70.6875;111;65;0.43321
6013000;-0.13500;70.0000;111;65;0.42491
6013010;-0.12500;69.6250;111;65;0.42027
6013020;-0.11500;69.2500;111;65;0.41587
6013030;-0.10500;68.8750;111;65;0.41123
6013040;-0.09500;68.1875;111;65;0.40147
6013050;-0.08500;67.9375;111;65;0.39683
6013060;-0.07000;67.7500;111;65;0.39219
6013070;-0.05500;67.8125;111;65;0.38755
6013080;-0.04500;68.3125;111;65;0.37509
6013090;-0.04500;71.4375;111;65;0.35018
6013100;-0.03500;74.0625;111;65;0.34481
6013110;-0.02000;77.3750;111;65;0.34066
6013120;-0.01000;81.1875;111;65;0.33724
6013130;0.00000;89.4375;111;65;0.33187
6013140;0.02500;93.6875;111;65;0.32967
6013150;0.04000;97.7500;111;65;0.32772
6013160;0.06000;101.6250;111;65;0.32601
6013170;0.07500;108.1875;111;65;0.32332
6013180;0.10000;110.7500;111;65;0.32234
6013190;0.14000;112.8750;111;65;0.32186
6013200;0.16000;114.5000;111;65;0.32161
6013210;0.18500;116.6250;111;65;0.32088
6013220;0.20500;117.1875;111;65;0.32088
6013230;0.19500;117.4375;111;65;0.32088
6013240;0.17500;117.5000;111;65;0.32088
6013250;0.13000;116.9375;111;65;0.32063
6013260;0.07500;116.3750;111;65;0.32039
6013270;0.01000;115.6250;111;65;0.31990
6013280;-0.02000;114.6875;111;65;0.31941
6013290;-0.04500;112.4375;111;65;0.31893
6013300;-0.06500;111.1875;111;65;0.31868
6013310;-0.07000;109.8125;111;65;0.31770
6013320;-0.08000;108.3125;111;65;0.31624
6013330;-0.08500;105.0625;111;65;0.31306
6013340;-0.08500;103.3750;111;65;0.31233
6013350;-0.08500;101.6250;111;65;0.31282
6013360;-0.08500;99.8125;111;65;0.31575
6013370;-0.08000;96.0000;111;65;0.33138
6013380;-0.08000;94.0000;111;65;0.34554
6013390;-0.08500;92.1250;111;65;0.36117
6013400;-0.07500;90.4375;111;65;0.37875
6013410;-0.07500;87.7500;111;65;0.42882
6013420;-0.08000;86.6875;111;65;0.45812
6013430;-0.08000;85.8125;111;65;0.48816
6013440;-0.07500;85.1250;111;65;0.51795
6013450;-0.07500;84.1250;111;65;0.57265
6013460;-0.07500;83.8125;111;65;0.59683
6013470;-0.07500;83.5625;111;65;0.61856
6013480;-0.07000;83.3750;111;65;0.63712
6013490;-0.07000;83.0000;111;65;0.66349
6013500;-0.06500;82.8125;111;65;0.67082
6013510;-0.06500;82.6250;111;65;0.67766
6013520;-0.06500;82.0625;111;65;0.68694
6013530;-0.07000;81.6875;111;65;0.68864
6013540;-0.06500;81.3750;111;65;0.68840
6013550;-0.04500;81.0000;111;65;0.68645
6013560;-0.01500;80.2500;111;65;0.68254
6013570;0.01000;79.8125;111;65;0.67033
6013580;0.01500;79.3750;111;65;0.66178
6013590;0.03000;78.8750;111;65;0.65250
6013600;0.06500;78.4375;111;65;0.64225
6013610;0.09000;77.6250;111;65;0.61807
6013620;0.07000;77.1875;111;65;0.60415
6013630;0.03500;76.7500;111;65;0.58950
6013640;0.00500;76.3125;111;65;0.57363
6013650;-0.05000;75.5000;111;65;0.53968
6013660;-0.08500;75.0625;111;65;0.52186
6013670;-0.11000;74.6875;111;65;0.50379
6013680;-0.11500;74.3125;111;65;0.48596
6013690;-0.11500;73.5625;111;65;0.45641
6013700;-0.11000;73.1875;111;65;0.44176
6013710;-0.10500;72.8750;111;65;0.42759
6013720;-0.10000;72.2500;111;65;0.40220
6013730;-0.05000;72.0000;111;65;0.39121
6013740;0.31500;71.7500;111;65;0.38144
6013750;0.72500;71.5000;111;65;0.37265
6013760;0.91000;71.2500;111;65;0.36459
6013770;0.31000;70.8125;111;65;0.35043
6013780;-0.23000;70.5625;111;65;0.34408
6013790;-0.22000;70.3750;111;65;0.33919
6013800;-0.22000;70.3750;111;65;0.33919
6013810;-0.16000;69.8125;111;65;0.32552
6013820;-0.16000;69.6250;111;65;0.32039
6013830;-0.16000;69.4375;111;65;0.31526
6013840;-0.16000;68.9375;111;65;0.30476
6013850;-0.15500;68.6875;111;65;0.29939
6013860;-0.15500;68.4375;111;65;0.29402
6013870;-0.15000;68.1875;111;65;0.28889
6013880;-0.14500;67.6875;111;65;0.28010
6013890;-0.14000;67.3750;111;65;0.27692
6013900;-0.13500;67.0625;111;65;0.27277
6013910;-0.12500;66.7500;111;65;0.26813
6013920;-0.11500;66.4375;111;65;0.26349
6013930;-0.10500;65.9375;111;65;0.25372
6013940;-0.09500;65.6875;111;65;0.24884
6013950;-0.08500;65.5000;111;65;0.24420
6013960;-0.07500;65.3750;111;65;0.23956
6013970;-0.06500;65.8125;111;65;0.23101
6013980;-0.05000;66.6875;111;65;0.22686
6013990;-0.03500;68.1875;111;65;0.22393
6014000;-0.02500;70.4375;111;65;0.22173
6014010;-0.00500;76.4375;111;65;0.21587
6014020;0.01000;80.0000;111;65;0.21245
6014030;0.03000;83.8125;111;65;0.20904
6014040;0.05000;87.6875;111;65;0.20586
6014050;0.07500;95.0625;111;65;0.19976
6014060;0.11000;98.4375;111;65;0.19707
6014070;0.13500;101.3750;111;65;0.19438
6014080;0.17000;103.9375;111;65;0.19219
6014090;0.21000;107.6875;111;65;0.19096
6014100;0.24500;108.8750;111;65;0.19023
6014110;0.25500;109.6875;111;65;0.18926
6014120;0.23500;110.1875;111;65;0.18803
6014130;0.19500;110.0625;111;65;0.18755
6014140;0.13500;109.6250;111;65;0.18706
6014150;0.07000;109.0000;111;65;0.18681
6014160;0.01000;107.1875;111;65;0.18681
6014170;-0.02500;106.0625;111;65;0.18681
6014180;-0.05500;104.8125;111;65;0.18681
6014190;-0.07500;103.4375;111;65;0.18779
6014200;-0.08500;100.4375;111;65;0.18901
6014210;-0.09000;98.8125;111;65;0.19023
6014220;-0.09500;97.2500;111;65;0.19072
6014230;-0.09500;95.5625;111;65;0.19121
6014240;-0.10000;92.1875;111;65;0.19438
6014250;-0.09500;90.3750;111;65;0.19829
6014260;-0.09500;88.5625;111;65;0.20464
6014270;-0.09500;86.8125;111;65;0.21441
6014280;-0.09000;83.5625;111;65;0.24371
6014290;-0.08500;82.3125;111;65;0.26154
6014300;-0.08500;81.3125;111;65;0.28474
6014310;-0.08500;80.5000;111;65;0.31184
6014320;-0.08000;79.4375;111;65;0.37216
6014330;-0.08000;79.0625;111;65;0.40342
6014340;-0.08000;78.8125;111;65;0.43419
6014350;-0.07500;78.6875;111;65;0.46374
6014360;-0.07500;78.5000;111;65;0.51575
6014370;-0.07500;78.5000;111;65;0.53748
6014380;-0.07500;78.4375;111;65;0.55629
6014390;-0.07500;78.3750;111;65;0.56972
6014400;-0.07500;78.2500;111;65;0.57973
6014410;-0.07500;77.8750;111;65;0.59634
6014420;-0.07500;77.6250;111;65;0.60195
6014430;-0.07500;77.3125;111;65;0.60537
6014440;-0.07000;77.0625;111;65;0.60684
6014450;-0.04500;76.4375;111;65;0.60366
6014460;-0.02500;76.0625;111;65;0.59927
6014470;-0.00500;75.7500;111;65;0.59292
6014480;0.00000;75.3750;111;65;0.58510
6014490;0.02500;74.6250;111;65;0.56752
6014500;0.05500;74.3125;111;65;0.55678
6014510;0.07000;73.9375;111;65;0.54505
6014520;0.03500;73.1875;111;65;0.51795
6014530;0.00000;72.8750;111;65;0.50305
6014540;-0.02500;72.5625;111;65;0.48742
6014550;-0.06500;72.2500;111;65;0.47106
6014560;-0.10500;71.8750;111;65;0.45470
6014570;-0.13000;71.1875;111;65;0.42393
6014580;-0.13500;70.8750;111;65;0.41001
6014590;-0.13500;70.5625;111;65;0.39853
6014600;-0.13500;70.0000;111;65;0.37851
6014610;-0.12500;69.7500;111;65;0.36923
6014620;-0.11500;69.5000;111;65;0.36117
6014630;-0.02500;69.2500;111;65;0.35409
6014640;0.24000;69.0000;111;65;0.34799
6014650;0.74000;68.5625;111;65;0.33797
6014660;0.83500;68.3750;111;65;0.33407
6014670;0.06500;68.1875;111;65;0.33040
6014680;-0.28000;68.0625;111;65;0.32698
6014690;-0.26000;67.6875;111;65;0.32234
6014700;-0.20000;67.5625;111;65;0.32015
6014710;-0.19000;67.4375;111;65;0.31770
6014720;-0.19000;67.3125;111;65;0.31502
6014730;-0.18500;67.0000;111;65;0.30940
6014740;-0.18000;66.7500;111;65;0.30647
6014750;-0.17500;66.5625;111;65;0.30330
6014760;-0.16500;66.3125;111;65;0.29988
6014770;-0.15500;65.8750;111;65;0.29255
6014780;-0.15500;65.6250;111;65;0.28889
6014790;-0.15000;65.3750;111;65;0.28596
6014800;-0.14000;65.1250;111;65;0.28327
6014810;-0.13000;64.6250;111;65;0.27643
6014820;-0.11500;64.3750;111;65;0.27277
6014830;-0.10500;64.1250;111;65;0.26911
6014840;-0.09500;63.9375;111;65;0.26545
6014850;-0.08000;63.6250;111;65;0.25836
6014860;-0.07500;63.5625;111;65;0.25495
6014870;-0.06500;63.8750;111;65;0.25177
6014880;-0.04500;66.0000;111;65;0.24640
6014890;-0.02500;68.0625;111;65;0.24444
6014900;-0.01500;70.7500;111;65;0.24176
6014910;0.00000;73.9375;111;65;0.23858
6014920;0.01500;77.4375;111;65;0.23541
6014930;0.03500;85.0625;111;65;0.22955
6014940;0.06000;88.8750;111;65;0.22662
6014950;0.08500;92.5625;111;65;0.22369
6014960;0.10500;95.9375;111;65;0.22100
6014970;0.14000;101.6250;111;65;0.21709
6014980;0.17500;103.8750;111;65;0.21563
6014990;0.21500;105.6250;111;65;0.21514
6015000;0.24500;107.8125;112;65;0.21563
6015010;0.26000;108.3125;112;65;0.21563
6015020;0.25000;108.5625;112;65;0.21587
6015030;0.20500;108.5000;112;65;0.21612
6015040;0.13000;107.5625;112;65;0.21685
6015050;0.08000;106.8125;112;65;0.21734
6015060;0.02000;105.8750;112;65;0.21783
6015070;-0.01500;104.8125;112;65;0.21832
6015080;-0.04500;102.2500;112;65;0.22027
6015090;-0.06500;100.8750;112;65;0.22198
6015100;-0.07500;99.3750;112;65;0.22320
6015110;-0.08500;97.8750;112;65;0.22418
6015120;-0.09500;96.3750;112;65;0.22515
6015130;-0.10000;93.1250;112;65;0.26667
6015140;-0.10000;91.5000;112;65;0.28034
6015150;-0.09500;89.8125;112;65;0.28938
6015160;-0.09500;88.1250;112;65;0.29768
6015170;-0.09500;84.9375;112;65;0.32063
6015180;-0.09500;83.5000;112;65;0.33748
6015190;-0.09000;82.3125;112;65;0.35556
6015200;-0.09000;81.3125;112;65;0.37558
6015210;-0.09000;79.9375;112;65;0.42930
6015220;-0.09000;79.4375;112;65;0.45983
6015230;-0.08500;79.1250;112;65;0.49109
6015240;-0.08500;78.8750;112;65;0.52210
6015250;-0.08500;78.5625;112;65;0.57949
6015260;-0.08500;78.4375;112;65;0.60488
6015270;-0.08000;78.3125;112;65;0.62759
6015280;-0.08000;78.2500;112;65;0.64762
6015290;-0.08500;77.9375;112;65;0.67326
6015300;-0.08500;77.7500;112;65;0.68376
6015310;-0.08500;77.5625;112;65;0.69231
6015320;-0.08500;77.3125;112;65;0.69890
6015330;-0.08500;76.7500;112;65;0.70476
6015340;-0.07500;76.4375;112;65;0.70452
6015350;-0.05000;76.1250;112;65;0.70232
6015360;-0.02500;75.7500;112;65;0.69841
6015370;-0.01500;75.0000;112;65;0.68571
6015380;0.00000;74.6250;112;65;0.67766
6015390;0.03000;74.1875;112;65;0.66886
6015400;0.06000;73.8125;112;65;0.65861
6015410;0.06000;73.1250;112;65;0.63468
6015420;0.01500;72.7500;112;65;0.62125
6015430;-0.01500;72.4375;112;65;0.60684
6015440;-0.04000;72.1250;112;65;0.59170
6015450;-0.09500;71.4375;112;65;0.56093
6015460;-0.12500;71.1250;112;65;0.54554
6015470;-0.13500;70.8750;112;65;0.53089
6015480;-0.13500;70.5625;112;65;0.51697
6015490;-0.13500;69.9375;112;65;0.49548
6015500;-0.13500;69.6875;112;65;0.48547
6015510;-0.13000;69.4375;112;65;0.47595
6015520;-0.12500;69.2500;112;65;0.46764
6015530;0.00000;68.8125;112;65;0.45348
6015540;0.39500;68.6250;112;65;0.44737
6015550;0.84500;68.4375;112;65;0.44200
6015560;0.65000;68.2500;112;65;0.43712
6015570;-0.16000;67.9375;112;65;0.42833
6015580;-0.33000;67.8125;112;65;0.42515
6015590;-0.27500;67.6875;112;65;0.42247
6015600;-0.24500;67.3750;112;65;0.41636
6015610;-0.25000;67.2500;112;65;0.41270
6015620;-0.26000;67.0625;112;65;0.40904
6015630;-0.27500;66.8750;112;65;0.40537
6015640;-0.28500;66.4375;112;65;0.40147
6015650;-0.29000;66.2500;112;65;0.39341
6015660;-0.29500;66.0000;112;65;0.38950
6015670;-0.29500;65.7500;112;65;0.38535
6015680;-0.29500;65.5000;112;65;0.38120
6015690;-0.30000;64.9375;112;65;0.37485
6015700;-0.30500;64.6250;112;65;0.37143
6015710;-0.30500;64.3125;112;65;0.36777
6015720;-0.30000;64.0625;112;65;0.36410
6015730;-0.30000;63.5000;112;65;0.35653
6015740;-0.29000;63.3125;112;65;0.35287
6015750;-0.27000;63.1875;112;65;0.34945
6015760;-0.24500;63.5000;112;65;0.34628
6015770;-0.21000;64.3750;112;65;0.33968
6015780;-0.18000;65.8125;112;65;0.33724
6015790;-0.15500;68.0000;112;65;0.33504
6015800;-0.15500;68.0000;112;65;0.33504
6015810;-0.09000;77.6875;112;65;0.32625
6015820;-0.05000;81.5625;112;65;0.32357
6015830;-0.02500;85.5000;112;65;0.32088
6015840;-0.01000;89.3750;112;65;0.31844
6015850;0.00000;96.6250;112;65;0.31355
6015860;-0.01500;99.7500;112;65;0.31160
6015870;-0.02500;102.4375;112;65;0.30989
6015880;-0.02500;106.5000;112;65;0.30842
6015890;0.00500;107.9375;112;65;0.30745
6015900;0.03000;108.9375;112;65;0.30696
6015910;0.06000;109.5625;112;65;0.30623
6015920;0.05500;109.8750;112;65;0.30501
6015930;0.02500;109.6875;112;65;0.30452
6015940;-0.03000;109.2500;112;65;0.30403
6015950;-0.07500;108.5625;112;65;0.30379
6015960;-0.10500;106.7500;112;65;0.30281
6015970;-0.11500;105.6250;112;65;0.30256
6015980;-0.11500;104.3750;112;65;0.30305
6015990;-0.11000;103.0000;112;65;0.30403
6016000;-0.10500;101.5625;112;65;0.30427
6016010;-0.09666;98.5000;112;65;0.30403
6016020;-0.08500;96.9375;112;65;0.30379
6016030;-0.07000;95.3125;112;65;0.30379
6016040;-0.05500;93.6250;112;65;0.30476
6016050;-0.04500;90.1250;112;65;0.31184
6016060;-0.03000;88.3750;112;65;0.31966
6016070;-0.02000;86.6875;112;65;0.33138
6016080;-0.00500;85.1250;112;65;0.34750
6016090;0.00500;82.6250;112;65;0.38437
6016100;0.01000;81.6875;112;65;0.40928
6016110;0.01500;80.9375;112;65;0.45275
6016120;0.02000;80.3750;112;65;0.48352
6016130;0.02000;79.5625;112;65;0.56020
6016140;0.02000;79.3125;112;65;0.58852
6016150;0.02000;79.0625;112;65;0.61441
6016160;0.02000;78.9375;112;65;0.63736
6016170;0.02500;78.7500;112;65;0.67228
6016180;0.03000;78.6250;112;65;0.68352
6016190;0.03000;78.5000;112;65;0.69426
6016200;0.02500;78.3125;112;65;0.70354
6016210;0.02000;77.8125;112;65;0.71575
6016220;0.02000;77.5000;112;65;0.71844
6016230;0.01500;77.1875;112;65;0.71917
6016240;0.01500;76.8750;112;65;0.71795
6016250;0.03000;76.1250;112;65;0.70989
6016260;0.06500;75.7500;112;65;0.70354
6016270;0.07500;75.3750;112;65;0.69548
6016280;0.08000;75.0000;112;65;0.68645
6016290;0.10000;74.1875;112;65;0.66618
6016300;0.14000;73.8750;112;65;0.65397
6016310;0.15500;73.5000;112;65;0.64078
6016320;0.12000;73.1250;112;65;0.62662
6016330;0.08000;72.4375;112;65;0.59634
6016340;0.04000;72.1250;112;65;0.58071
6016350;0.00500;71.8125;112;65;0.56484
6016360;-0.04000;71.1250;112;65;0.54945
6016370;-0.06500;70.8125;112;65;0.52186
6016380;-0.07500;70.5000;112;65;0.51062
6016390;-0.07500;70.2500;112;65;0.49939
6016400;-0.08000;70.0000;112;65;0.48864
6016410;-0.07500;69.5000;112;65;0.47057
6016420;-0.07500;69.2500;112;65;0.46325
6016430;-0.00500;69.0000;112;65;0.45690
6016440;0.40000;68.6250;112;65;0.44640
6016450;0.82500;68.4375;112;65;0.44176
6016460;0.90000;68.3125;112;65;0.43736
6016470;0.14000;68.1250;112;65;0.43297
6016480;-0.20500;68.0000;112;65;0.42906
6016490;-0.21000;67.6250;112;65;0.42198
6016500;-0.16000;67.5000;112;65;0.41807
6016510;-0.14500;67.3750;112;65;0.41416
6016520;-0.14500;67.1875;112;65;0.41026
6016530;-0.14500;66.8125;112;65;0.40195
6016540;-0.14000;66.5625;112;65;0.39780
6016550;-0.13500;66.3750;112;65;0.39365
6016560;-0.13000;66.1250;112;65;0.38950
6016570;-0.12500;65.5625;112;65;0.38217
6016580;-0.12500;65.3125;112;65;0.37949
6016590;-0.12000;65.0625;112;65;0.37607
6016600;-0.11500;64.7500;112;65;0.37241
6016610;-0.11500;64.2500;112;65;0.36459
6016620;-0.10500;64.0000;112;65;0.36068
6016630;-0.08000;63.7500;112;65;0.35702
6016640;-0.06500;63.3750;112;65;0.34945
6016650;-0.05000;63.3125;112;65;0.34554
6016660;-0.03500;63.5625;112;65;0.34164
6016670;-0.02500;64.1875;112;65;0.33773
6016680;-0.00500;67.3750;112;65;0.33260
6016690;0.00000;70.0000;112;65;0.33016
6016700;0.01500;73.1875;112;65;0.32747
6016710;0.03000;76.8125;112;65;0.32479
6016720;0.05000;84.7500;112;65;0.31966
6016730;0.06500;88.8125;112;65;0.31722
6016740;0.08500;92.7500;112;65;0.31477
6016750;0.11000;96.4375;112;65;0.31233
6016760;0.13000;102.7500;112;65;0.31013
6016770;0.15000;105.2500;112;65;0.30672
6016780;0.18000;107.3750;112;65;0.30623
6016790;0.22500;109.0000;112;65;0.30525
6016800;0.22500;109.0000;112;65;0.30525
6016810;0.25500;111.6250;112;65;0.30232
6016820;0.24500;111.8125;112;65;0.30159
6016830;0.21000;111.7500;112;65;0.30110
6016840;0.15000;111.3750;112;65;0.30061
6016850;0.09000;110.1250;112;65;0.29915
6016860;0.03000;109.2500;112;65;0.29841
6016870;-0.00500;108.1875;112;65;0.29792
6016880;-0.03500;105.6875;112;65;0.29890
6016890;-0.05000;104.3125;112;65;0.29963
6016900;-0.06500;102.8125;112;65;0.30012
6016910;-0.07500;101.2500;112;65;0.30061
6016920;-0.09000;99.6875;112;65;0.30110
6016930;-0.10500;96.3750;112;65;0.30476
6016940;-0.11500;94.6875;112;65;0.30891
6016950;-0.11500;92.9375;112;65;0.31575
6016960;-0.11500;91.1250;112;65;0.32601
6016970;-0.12500;87.6875;112;65;0.35702
6016980;-0.12500;86.1875;112;65;0.37582
6016990;-0.11500;84.9375;112;65;0.40024
6017000;-0.10000;83.8125;112;65;0.44444
6017010;-0.07500;82.1875;112;65;0.51038
6017020;-0.05500;81.6250;112;65;0.56020
6017030;-0.05500;81.1250;112;65;0.59170
6017040;-0.05500;80.5000;112;65;0.62100
6017050;-0.05500;80.3125;112;65;0.67179
6017060;-0.06500;80.1250;112;65;0.69255
6017070;-0.06500;80.0000;112;65;0.70769
6017080;-0.07500;79.8750;112;65;0.71893
6017090;-0.08500;79.5625;112;65;0.73919
6017100;-0.09000;79.3750;112;65;0.74628
6017110;-0.09500;79.1250;112;65;0.75116
6017120;-0.09500;78.8750;112;65;0.75409
6017130;-0.09500;78.2500;112;65;0.75165
6017140;-0.08500;77.9375;112;65;0.74530
6017150;-0.06500;77.6250;112;65;0.73651
6017160;-0.03000;77.2500;112;65;0.72503
6017170;0.01000;76.5000;112;65;0.70159
6017180;0.03000;76.1250;112;65;0.68840
6017190;0.05000;75.6875;112;65;0.67399
6017200;0.08000;75.3125;112;65;0.65861
6017210;0.10000;74.5625;112;65;0.62491
6017220;0.09000;74.2500;112;65;0.60708
6017230;0.04000;73.9375;112;65;0.58877
6017240;0.01000;73.6250;112;65;0.57045
6017250;-0.04500;72.9375;112;65;0.53724
6017260;-0.10500;72.6250;112;65;0.52357
6017270;-0.15500;72.3125;112;65;0.50989
6017280;-0.17000;72.0000;112;65;0.49670
6017290;-0.18000;71.3750;112;65;0.47350
6017300;-0.18000;71.1250;112;65;0.46349
6017310;-0.17000;70.8750;112;65;0.45446
6017320;-0.17000;70.4375;112;65;0.43858
6017330;-0.14000;70.1875;112;65;0.43175
6017340;0.13500;70.0000;112;65;0.42564
6017350;0.68500;69.8125;112;65;0.41978
6017360;0.88000;69.4375;112;65;0.41050
6017370;0.37000;69.2500;112;65;0.40562
6017380;-0.24000;69.1250;112;65;0.40049
6017390;-0.31500;68.9375;112;65;0.39536
6017400;-0.26000;68.6875;112;65;0.38510
6017410;-0.26500;68.5625;112;65;0.38022
6017420;-0.27000;68.4375;112;65;0.37582
6017430;-0.27500;68.3125;112;65;0.37118
6017440;-0.27000;68.1250;112;65;0.36654
6017450;-0.27000;67.7500;112;65;0.35824
6017460;-0.26000;67.5000;112;65;0.35482
6017470;-0.26000;67.3125;112;65;0.35067
6017480;-0.25500;67.0625;112;65;0.34603
6017490;-0.26000;66.5625;112;65;0.33651
6017500;-0.25500;66.2500;112;65;0.33187
6017510;-0.24000;66.0000;112;65;0.32723
6017520;-0.21500;65.6875;112;65;0.32283
6017530;-0.19000;65.3125;112;65;0.31477
6017540;-0.17500;65.1250;112;65;0.31111
6017550;-0.16000;65.0625;112;65;0.30745
6017560;-0.15500;65.1250;112;65;0.30501
6017570;-0.13500;66.6250;112;65;0.30012
6017580;-0.11500;68.3750;112;65;0.29719
6017590;-0.10500;70.8125;112;65;0.29426
6017600;-0.08500;73.9375;112;65;0.29133
6017610;-0.06500;81.5000;112;65;0.28547
6017620;-0.04000;85.6250;112;65;0.28303
6017630;-0.02500;89.7500;112;65;0.28107
6017640;-0.00500;93.8125;112;65;0.27912
6017650;0.01500;101.3125;112;65;0.27717
6017660;0.04000;104.5000;112;65;0.27717
6017670;0.06000;107.3125;112;65;0.27692
6017680;0.09000;109.6250;112;65;0.27668
6017690;0.12500;113.0000;112;65;0.27692
6017700;0.15500;114.0625;112;65;0.27741
6017710;0.17000;114.8125;112;65;0.27814
6017720;0.16500;115.2500;112;65;0.27888
6017730;0.13500;115.4375;112;65;0.28034
6017740;0.08000;115.1875;112;65;0.28107
6017750;0.01000;114.6250;112;65;0.28132
6017760;-0.02500;113.9375;112;65;0.28205
6017770;-0.06500;112.1875;112;65;0.28327
6017780;-0.10000;111.0625;112;65;0.28327
6017790;-0.12500;109.8750;112;65;0.28327
6017800;-0.13500;107.1250;112;65;0.28376
6017810;-0.14000;105.5625;112;65;0.28571
6017820;-0.14500;103.9375;112;65;0.28962
6017830;-0.15000;102.3125;112;65;0.29621
6017840;-0.15000;100.6250;112;65;0.30647
6017850;-0.15000;97.0625;112;65;0.33822
6017860;-0.15000;95.1875;112;65;0.35751
6017870;-0.14500;93.3750;112;65;0.38339
6017880;-0.14500;91.6250;112;65;0.43077
6017890;-0.13500;88.5625;112;65;0.50110
6017900;-0.13000;87.3750;112;65;0.55482
6017910;-0.12500;86.3750;112;65;0.58901
6017920;-0.12500;85.5625;112;65;0.62125
6017930;-0.12500;84.3750;112;65;0.67741
6017940;-0.11500;84.0000;112;65;0.70110
6017950;-0.11500;83.6875;112;65;0.71868
6017960;-0.11500;83.5000;112;65;0.73236
6017970;-0.11500;83.1875;112;65;0.75849
6017980;-0.11500;83.0000;112;65;0.76899
6017990;-0.11000;82.8125;112;65;0.77729
6018000;-0.11000;82.6250;112;65;0.78339
6018010;-0.11000;82.1250;112;65;0.78926
6018020;-0.10500;81.8125;112;65;0.78901
6018030;-0.10500;81.5625;112;65;0.78681
6018040;-0.10000;81.2500;112;65;0.78266
6018050;-0.07500;80.6250;112;65;0.76874
6018060;-0.04000;80.1250;112;65;0.75995
6018070;-0.02000;79.6875;112;65;0.74945
6018080;-0.01500;79.3125;112;65;0.73773
6018090;0.00500;78.5000;112;65;0.71013
6018100;0.04000;78.0625;112;65;0.69451
6018110;0.05500;77.6250;112;65;0.67814
6018120;0.03000;76.8750;112;65;0.66105
6018130;-0.00500;76.5625;112;65;0.62589
6018140;-0.03000;76.1875;112;65;0.60879
6018150;-0.07500;75.8750;112;65;0.59389
6018160;-0.11500;75.5000;112;65;0.58022
6018170;-0.13500;74.8125;112;65;0.55336
6018180;-0.14000;74.4375;112;65;0.54090
6018190;-0.13500;74.1875;112;65;0.52967
6018200;-0.13000;73.6250;112;65;0.51062
6018210;-0.12500;73.3125;112;65;0.50256
6018220;-0.13000;73.0625;112;65;0.49524
6018230;-0.07500;72.8125;112;65;0.48864
6018240;0.37000;72.4375;112;65;0.47790
6018250;0.86500;72.2500;112;65;0.47350
6018260;0.98500;72.0625;112;65;0.46935
6018270;0.18000;71.8750;112;65;0.46496
6018280;-0.20500;71.6875;112;65;0.46056
6018290;-0.23500;71.3750;112;65;0.45128
6018300;-0.20000;71.1875;112;65;0.44689
6018310;-0.20000;71.0625;112;65;0.44225
6018320;-0.20000;70.8750;112;65;0.43761
6018330;-0.19000;70.5000;112;65;0.42808
6018340;-0.18500;70.3125;112;65;0.42344
6018350;-0.18000;70.0625;112;65;0.41929
6018360;-0.17000;69.8125;112;65;0.41563
6018370;-0.16000;69.3125;112;65;0.40659
6018380;-0.15500;69.0625;112;65;0.40195
6018390;-0.14500;68.8125;112;65;0.39731
6018400;-0.13500;68.3125;112;65;0.38828
6018410;-0.12000;68.0625;112;65;0.38388
6018420;-0.11500;67.7500;112;65;0.37973
6018430;-0.10500;67.5625;112;65;0.37582
6018440;-0.08500;67.3125;112;65;0.36874
6018450;-0.07500;67.4375;112;65;0.36606
6018460;-0.06500;67.9375;112;65;0.36264
6018470;-0.05000;69.0000;112;65;0.35873
6018480;-0.03500;73.5000;112;65;0.35116
6018490;-0.02500;76.7500;112;65;0.34799
6018500;-0.01500;80.5000;112;65;0.34481
6018510;0.00000;84.6250;112;65;0.34188
6018520;0.02000;88.8750;112;65;0.33944
6018530;0.04000;97.5000;112;65;0.33529
6018540;0.06500;101.5000;112;65;0.33382
6018550;0.08000;105.1250;112;65;0.33309
6018560;0.10000;108.3125;112;65;0.33284
6018570;0.13000;113.3750;112;65;0.33162
6018580;0.16000;115.2500;112;65;0.33138
6018590;0.18000;116.6875;112;65;0.33138
6018600;0.20500;117.7500;112;65;0.33138
6018610;0.22500;118.9375;112;65;0.33138
6018620;0.21500;119.1875;112;65;0.33138
6018630;0.18000;119.1250;112;65;0.33138
6018640;0.12500;118.8750;112;65;0.33138
6018650;0.06500;117.8750;112;65;0.33211
6018660;0.00500;117.1250;112;65;0.33187
6018670;-0.02500;116.2500;112;65;0.33162
6018680;-0.05000;115.1875;112;65;0.33138
6018690;-0.06500;112.6875;112;65;0.33162
6018700;-0.07500;111.2500;112;65;0.33284
6018710;-0.07500;109.8125;112;65;0.33602
6018720;-0.08500;108.1875;112;65;0.34212
6018730;-0.08500;104.8125;112;65;0.36679
6018740;-0.08500;103.0625;112;65;0.38657
6018750;-0.09000;101.1875;112;65;0.40733
6018760;-0.08500;97.4375;112;65;0.43004
6018770;-0.08500;95.6250;112;65;0.49109
6018780;-0.08000;93.9375;112;65;0.52552
6018790;-0.07500;92.3750;112;65;0.56044
6018800;-0.07500;92.3750;112;65;0.56044
6018810;-0.07500;89.1250;112;65;0.65788
6018820;-0.07500;88.4375;112;65;0.68571
6018830;-0.07000;87.8125;112;65;0.71087
6018840;-0.07000;87.3750;112;65;0.73309
6018850;-0.07500;86.6875;112;65;0.76166
6018860;-0.07500;86.4375;112;65;0.77411
6018870;-0.07500;86.2500;112;65;0.78559
6018880;-0.07500;85.7500;112;65;0.80317
6018890;-0.07500;85.5625;112;65;0.80904
6018900;-0.07500;85.3125;112;65;0.81270
6018910;-0.07500;85.0000;112;65;0.81441
6018920;-0.07500;84.3750;112;65;0.81197
6018930;-0.07500;84.0000;112;65;0.80781
6018940;-0.07000;83.5625;112;65;0.80147
6018950;-0.04500;83.1250;112;65;0.79341
6018960;-0.01500;82.6875;112;65;0.78413
6018970;0.01000;81.7500;112;65;0.76190
6018980;0.02000;81.1875;112;65;0.74896
6018990;0.03500;80.6250;112;65;0.73455
6019000;0.07000;79.6250;112;65;0.70256
6019010;0.09000;79.1250;112;65;0.68547
6019020;0.08000;78.6250;112;65;0.66813
6019030;0.04500;78.1250;112;65;0.65079
6019040;0.02000;77.6250;112;65;0.63346
6019050;-0.02000;76.7500;112;65;0.60415
6019060;-0.06500;76.3125;112;65;0.58999
6019070;-0.09500;75.8125;112;65;0.57631
6019080;-0.10000;75.3750;112;65;0.56337
6019090;-0.10500;74.5625;112;65;0.54042
6019100;-0.10500;74.1875;112;65;0.53040
6019110;-0.09500;73.8750;112;65;0.52112
6019120;-0.09500;73.5000;112;65;0.51306
6019130;-0.05500;72.8750;112;65;0.49963
6019140;0.32500;72.5625;112;65;0.49426
6019150;0.90000;72.3125;112;65;0.48938
6019160;1.03000;72.0625;112;65;0.48425
6019170;0.43500;71.5625;112;65;0.47399
6019180;-0.16000;71.3125;112;65;0.46886
6019190;-0.16000;71.3125;112;65;0.46886
6019200;-0.17000;70.6875;112;65;0.42173
6019210;-0.17000;70.4375;112;65;0.41319
6019220;-0.17000;70.2500;112;65;0.40635
6019230;-0.16000;70.0000;112;65;0.40024
6019240;-0.15500;69.5625;112;65;0.38999
6019250;-0.15000;69.2500;112;65;0.38584
6019260;-0.14500;69.0000;112;65;0.38095
6019270;-0.13500;68.6875;112;65;0.37558
6019280;-0.12500;68.0625;112;65;0.36508
6019290;-0.11500;67.7500;112;65;0.35995
6019300;-0.11000;67.4375;112;65;0.35507
6019310;-0.09500;67.1250;112;65;0.35018
6019320;-0.08500;66.8125;112;65;0.34505
6019330;-0.07500;66.2500;112;65;0.33431
6019340;-0.06500;66.0625;112;65;0.32991
6019350;-0.06000;65.9375;112;65;0.32576
6019360;-0.05000;66.0000;112;65;0.32112
6019370;-0.03500;67.3750;112;65;0.31136
6019380;-0.02500;69.0000;112;65;0.30672
6019390;-0.01000;71.4375;112;65;0.30208
6019400;0.00000;74.5000;112;65;0.29768
6019410;0.02000;82.0000;112;65;0.28889
6019420;0.04000;86.1250;112;65;0.28498
6019430;0.05500;90.3125;112;65;0.28132
6019440;0.07500;98.3750;112;65;0.27546
6019450;0.09000;102.0000;112;65;0.27350
6019460;0.11000;105.1875;112;65;0.27106
6019470;0.14000;108.0000;112;65;0.26862
6019480;0.17500;112.1250;112;65;0.26349
6019490;0.20500;113.5000;112;65;0.26129
6019500;0.23500;114.5000;112;65;0.25934
6019510;0.25500;115.1250;112;65;0.25739
6019520;0.24500;115.5625;112;65;0.25421
6019530;0.21500;115.4375;112;65;0.25324
6019540;0.15500;115.0000;112;65;0.25299
6019550;0.10000;114.4375;112;65;0.25299
6019560;0.04000;112.6875;112;65;0.25177
6019570;0.01000;111.6250;112;65;0.25079
6019580;-0.01500;110.3750;112;65;0.24982
6019590;-0.03500;109.0000;112;65;0.24884
6019600;-0.04500;106.1250;112;65;0.24835
6019610;-0.05500;104.5625;112;65;0.25006
6019620;-0.06000;102.9375;112;65;0.25446
6019630;-0.06500;101.1875;112;65;0.26227
6019640;-0.06500;99.4375;112;65;0.27424
6019650;-0.06500;95.7500;112;65;0.30403
6019660;-0.06500;93.9375;112;65;0.32527
6019670;-0.06500;92.1250;112;65;0.35067
6019680;-0.06500;90.4375;112;65;0.37924
6019690;-0.06500;87.6875;112;65;0.44078
6019700;-0.06000;86.5625;112;65;0.47131
6019710;-0.06000;85.6250;112;65;0.50061
6019720;-0.05500;84.8750;112;65;0.52772
6019730;-0.05500;83.7500;112;65;0.57411
6019740;-0.05000;83.3125;112;65;0.59048
6019750;-0.04500;82.9375;112;65;0.60293
6019760;-0.04500;82.6875;112;65;0.61538
6019770;-0.04500;82.1875;112;65;0.63492
6019780;-0.05000;81.9375;112;65;0.64176
6019790;-0.05000;81.6875;112;65;0.64640
6019800;-0.05000;81.6875;112;65;0.64640
6019810;-0.05000;80.8750;112;65;0.64786
6019820;-0.05000;80.5625;112;65;0.64469
6019830;-0.04500;80.2500;112;65;0.63980
6019840;-0.02500;79.5000;112;65;0.62564
6019850;-0.00500;79.1250;112;65;0.61685
6019860;0.01000;78.6875;112;65;0.60659
6019870;0.02000;78.3125;112;65;0.59512
6019880;0.04000;77.4375;112;65;0.56850
6019890;0.07000;77.0000;112;65;0.55360
6019900;0.09500;76.5625;112;65;0.53797
6019910;0.08000;76.1250;112;65;0.52186
6019920;0.04500;75.7500;112;65;0.50549
6019930;0.01000;74.8750;112;65;0.47228
6019940;-0.03000;74.5000;112;65;0.45788
6019950;-0.08500;74.0625;112;65;0.44518
6019960;-0.10500;73.7500;112;65;0.43175
6019970;-0.11500;73.0625;112;65;0.40635
6019980;-0.11500;72.6875;112;65;0.39487
6019990;-0.11500;72.3750;112;65;0.38437
6020000;-0.10500;72.0000;111;65;0.37485
6020010;-0.10000;71.4375;111;65;0.35849
6020020;-0.07500;71.1250;111;65;0.35140
6020030;0.21500;70.8750;111;65;0.34481
6020040;0.61500;70.6250;111;65;0.33895
6020050;0.95000;70.1875;111;65;0.33040
6020060;0.32000;70.0000;111;65;0.32601
6020070;-0.18000;69.7500;111;65;0.32161
6020080;-0.26500;69.5625;111;65;0.31722
6020090;-0.19500;69.1875;111;65;0.30745
6020100;-0.17500;69.0000;111;65;0.30281
6020110;-0.17500;68.7500;111;65;0.29817
6020120;-0.17000;68.5625;111;65;0.29377
6020130;-0.16500;68.1250;111;65;0.28474
6020140;-0.16000;67.8750;111;65;0.28132
6020150;-0.15500;67.6875;111;65;0.27814
6020160;-0.14500;67.4375;111;65;0.27424
6020170;-0.13500;66.9375;111;65;0.26569
6020180;-0.13000;66.6250;111;65;0.26154
6020190;-0.12500;66.3750;111;65;0.25714
6020200;-0.12000;66.0625;111;65;0.25275
6020210;-0.11000;65.5625;111;65;0.24420
6020220;-0.09500;65.3750;111;65;0.24005
6020230;-0.08500;65.1875;111;65;0.23590
6020240;-0.07500;64.9375;111;65;0.23175
6020250;-0.06500;64.8125;111;65;0.22662
6020260;-0.05000;65.0625;111;65;0.22369
6020270;-0.03500;65.8750;111;65;0.22027
6020280;-0.02000;67.2500;111;65;0.21685
6020290;-0.00500;72.0625;111;65;0.21050
6020300;0.01000;75.2500;111;65;0.20781
6020310;0.03000;78.8750;111;65;0.20537
6020320;0.05000;82.6875;111;65;0.20293
6020330;0.07500;90.4375;111;65;0.19878
6020340;0.09000;94.1875;111;65;0.19805
6020350;0.11500;97.6250;111;65;0.19780
6020360;0.14500;103.5000;111;65;0.19585
6020370;0.17000;105.7500;111;65;0.19487
6020380;0.20500;107.5625;111;65;0.19414
6020390;0.23500;108.9375;111;65;0.19365
6020400;0.25500;109.8125;111;65;0.19316
6020410;0.25500;110.6250;111;65;0.19292
6020420;0.21000;110.5625;111;65;0.19316
6020430;0.15500;110.1875;111;65;0.19365
6020440;0.09000;109.6250;111;65;0.19414
6020450;0.03500;107.8750;111;65;0.19707
6020460;-0.01000;106.8125;111;65;0.19829
6020470;-0.03500;105.5000;111;65;0.19927
6020480;-0.06000;102.6875;111;65;0.20073
6020490;-0.06500;101.1875;111;65;0.20171
6020500;-0.07500;99.6250;111;65;0.20317
6020510;-0.07500;98.0000;111;65;0.20586
6020520;-0.08000;94.6875;111;65;0.21050
6020530;-0.08000;92.9375;111;65;0.22955
6020540;-0.08000;91.1250;111;65;0.24298
6020550;-0.08000;89.3125;111;65;0.25885
6020560;-0.08000;87.5625;111;65;0.28010
6020570;-0.07500;84.3750;111;65;0.33480
6020580;-0.07500;83.1250;111;65;0.36581
6020590;-0.07000;82.0625;111;65;0.39780
6020600;-0.06500;80.6250;111;65;0.46105
6020610;-0.06000;80.1250;111;65;0.49035
6020620;-0.06000;79.7500;111;65;0.51722
6020630;-0.06000;79.5000;111;65;0.54164
6020640;-0.05500;79.3125;111;65;0.56313
6020650;-0.05500;79.1250;111;65;0.59121
6020660;-0.05500;79.0625;111;65;0.60269
6020670;-0.06000;78.9375;111;65;0.61245
6020680;-0.06000;78.8125;111;65;0.62027
6020690;-0.06000;78.5000;111;65;0.62930
6020700;-0.06000;78.2500;111;65;0.63077
6020710;-0.06000;78.0000;111;65;0.63004
6020720;-0.06000;77.6875;111;65;0.62711
6020730;-0.05500;77.0625;111;65;0.61587
6020740;-0.03500;76.6875;111;65;0.60830
6020750;-0.01000;76.3125;111;65;0.59976
6020760;0.01000;75.5625;111;65;0.57851
6020770;0.02000;75.1875;111;65;0.56606
6020780;0.04000;74.8125;111;65;0.55263
6020790;0.07000;74.3750;111;65;0.53797
6020800;0.07000;74.3750;111;65;0.53797
6020810;0.04500;73.1875;111;65;0.49060
6020820;0.00500;72.8750;111;65;0.47473
6020830;-0.01500;72.5000;111;65;0.45934
6020840;-0.07000;71.7500;111;65;0.43468
6020850;-0.09500;71.4375;111;65;0.42295
6020860;-0.11500;71.1250;111;65;0.41172
6020870;-0.12500;70.8125;111;65;0.40122
6020880;-0.12500;70.5000;111;65;0.39194
6020890;-0.12500;69.9375;111;65;0.37631
6020900;-0.11500;69.6250;111;65;0.36996
6020910;-0.11000;69.3750;111;65;0.36459
6020920;-0.03500;69.1875;111;65;0.35995
6020930;0.40000;68.7500;111;65;0.35214
6020940;0.87000;68.5625;111;65;0.34921
6020950;0.81000;68.4375;111;65;0.34652
6020960;0.15500;68.2500;111;65;0.34359
6020970;-0.29500;68.0000;111;65;0.33724
6020980;-0.24500;67.8125;111;65;0.33382
6020990;-0.19500;67.6875;111;65;0.33040
6021000;-0.18500;67.5625;111;65;0.32698
6021010;-0.18500;67.2500;111;65;0.31893
6021020;-0.18000;67.0625;111;65;0.31477
6021030;-0.18000;66.8750;111;65;0.31038
6021040;-0.17000;66.6250;111;65;0.30720
6021050;-0.16500;66.2500;111;65;0.30037
6021060;-0.16000;66.0625;111;65;0.29621
6021070;-0.15500;65.8125;111;65;0.29182
6021080;-0.14500;65.5000;111;65;0.28767
6021090;-0.14000;64.9375;111;65;0.27985
6021100;-0.12500;64.6875;111;65;0.27595
6021110;-0.12000;64.4375;111;65;0.27204
6021120;-0.11000;64.2500;111;65;0.26838
6021130;-0.09500;63.8750;111;65;0.26081
6021140;-0.09000;63.8125;111;65;0.25788
6021150;-0.08000;63.9375;111;65;0.25568
6021160;-0.06500;65.5000;111;65;0.25299
6021170;-0.04500;67.2500;111;65;0.24713
6021180;-0.03500;69.6875;111;65;0.24420
6021190;-0.02000;72.6875;111;65;0.24151
6021200;0.00000;79.8750;111;65;0.23907
6021210;0.02000;83.8125;111;65;0.23419
6021220;0.04000;87.7500;111;65;0.23223
6021230;0.05500;91.6250;111;65;0.23028
6021240;0.08000;95.2500;111;65;0.24469
6021250;0.10000;101.5625;111;65;0.27790
6021260;0.13000;104.0625;111;65;0.28303
6021270;0.16500;106.0625;111;65;0.28571
6021280;0.20500;108.8125;111;65;0.28767
6021290;0.23000;109.5625;111;65;0.28791
6021300;0.24500;110.0000;111;65;0.28816
6021310;0.23000;110.1250;111;65;0.28840
6021320;0.18500;109.5000;111;65;0.28889
6021330;0.11500;108.8750;111;65;0.29035
6021340;0.07000;108.0625;111;65;0.29182
6021350;0.02000;107.0625;111;65;0.29328
6021360;-0.02000;105.9375;111;65;0.29426
6021370;-0.04500;103.4375;111;65;0.29499
6021380;-0.04500;102.0000;111;65;0.29548
6021390;-0.02500;100.5625;111;65;0.29621
6021400;0.02000;99.0625;111;65;0.29792
6021410;0.10000;95.8750;111;65;0.30769
6021420;0.13500;94.2500;111;65;0.31722
6021430;0.13000;92.5625;111;65;0.33114
6021440;0.11000;89.1250;111;65;0.34701
6021450;0.07000;87.4375;111;65;0.39023
6021460;0.04500;85.8750;111;65;0.41954
6021470;0.02000;84.4375;111;65;0.45201
6021480;-0.00500;83.1875;111;65;0.48645
6021490;-0.02500;81.4375;111;65;0.55580
6021500;-0.03500;80.8125;111;65;0.58901
6021510;-0.04500;80.3125;111;65;0.62002
6021520;-0.05500;79.6875;111;65;0.67350
6021530;-0.06000;79.4375;111;65;0.69548
6021540;-0.07500;79.2500;111;65;0.71160
6021550;-0.08500;79.1250;111;65;0.72332
6021560;-0.09500;79.0000;111;65;0.73455
6021570;-0.10500;78.7500;111;65;0.75140
6021580;-0.11000;78.5625;111;65;0.75629
6021590;-0.11500;78.3750;111;65;0.75897
6021600;-0.12500;77.8750;111;65;0.75751
6021610;-0.12500;77.5625;111;65;0.75360
6021620;-0.12500;77.1875;111;65;0.74799
6021630;-0.10500;76.8750;111;65;0.74066
6021640;-0.08500;76.5000;111;65;0.73211
6021650;-0.05500;75.7500;111;65;0.71111
6021660;-0.04500;75.3125;111;65;0.69841
6021670;-0.02000;74.9375;111;65;0.68474
6021680;0.01000;74.5625;111;65;0.66984
6021690;0.03500;73.8125;111;65;0.63736
6021700;0.02000;73.5000;111;65;0.62002
6021710;-0.02500;73.1250;111;65;0.60269
6021720;-0.04500;72.8125;111;65;0.58559
6021730;-0.08500;72.0625;111;65;0.55311
6021740;-0.13000;71.6875;111;65;0.53968
6021750;-0.15000;71.3750;111;65;0.52821
6021760;-0.15500;71.0625;111;65;0.51673
6021770;-0.15500;70.5000;111;65;0.49573
6021780;-0.15500;70.1875;111;65;0.48645
6021790;-0.14500;69.9375;111;65;0.47839
6021800;-0.14000;69.6875;111;65;0.47106
6021810;-0.10500;69.2500;111;65;0.45861
6021820;0.12000;69.0000;111;65;0.45324
6021830;0.73000;68.8125;111;65;0.44811
6021840;0.91000;68.5625;111;65;0.44396
6021850;0.24000;68.2500;111;65;0.43614
6021860;-0.27500;68.0625;111;65;0.43175
6021870;-0.30500;67.8750;111;65;0.42735
6021880;-0.24000;67.7500;111;65;0.42247
6021890;-0.22000;67.3750;111;65;0.41270
6021900;-0.22000;67.2500;111;65;0.40781
6021910;-0.22000;67.0625;111;65;0.40293
6021920;-0.21500;66.8750;111;65;0.39829
6021930;-0.21000;66.3750;111;65;0.38852
6021940;-0.20000;66.1250;111;65;0.38462
6021950;-0.19500;65.8750;111;65;0.38120
6021960;-0.18000;65.3125;111;65;0.37314
6021970;-0.17500;65.0625;111;65;0.36850
6021980;-0.16000;64.7500;111;65;0.36386
6021990;-0.15500;64.4375;111;65;0.35897
6022000;-0.14000;63.9375;112;65;0.34969
6022010;-0.13000;63.6875;112;65;0.34530
6022020;-0.11500;63.5000;112;65;0.34090
6022030;-0.10500;63.3750;112;65;0.33675
6022040;-0.09000;63.4375;112;65;0.33382
6022050;-0.08000;64.5000;112;65;0.32869
6022060;-0.06500;65.9375;112;65;0.32576
6022070;-0.05500;68.1250;112;65;0.32283
6022080;-0.03500;70.9375;112;65;0.31990
6022090;-0.02000;77.9375;112;65;0.31404
6022100;0.00000;81.8750;112;65;0.31111
6022110;0.01500;85.8750;112;65;0.30794
6022120;0.04000;89.9375;112;65;0.30501
6022130;0.05500;97.4375;112;65;0.30037
6022140;0.09000;100.7500;112;65;0.29939
6022150;0.11500;103.5625;112;65;0.29915
6022160;0.15000;105.9375;112;65;0.29841
6022170;0.19500;109.3750;112;65;0.29695
6022180;0.22000;110.5000;112;65;0.29621
6022190;0.23500;111.1875;112;65;0.29548
6022200;0.23500;111.5625;112;65;0.29475
6022210;0.18500;111.4375;112;65;0.29353
6022220;0.14000;111.0000;112;65;0.29280
6022230;0.07000;110.3750;112;65;0.29231
6022240;0.02000;108.6250;112;65;0.29255
6022250;-0.03000;107.5625;112;65;0.29328
6022260;-0.05500;106.3125;112;65;0.29304
6022270;-0.07500;104.9375;112;65;0.29280
6022280;-0.08500;103.4375;112;65;0.29280
6022290;-0.09500;100.3125;112;65;0.29573
6022300;-0.10500;98.6875;112;65;0.30012
6022310;-0.10500;97.0000;112;65;0.30745
6022320;-0.10500;95.2500;112;65;0.31893
6022330;-0.10500;91.7500;112;65;0.35629
6022340;-0.10500;90.0000;112;65;0.37851
6022350;-0.10500;88.3750;112;65;0.40244
6022360;-0.10000;86.8750;112;65;0.43175
6022370;-0.10000;84.4375;112;65;0.49988
6022380;-0.10000;83.5000;112;65;0.53578
6022390;-0.09500;82.7500;112;65;0.57094
6022400;-0.09000;82.1250;112;65;0.60440
6022410;-0.09000;81.2500;112;65;0.66349
6022420;-0.08500;80.9375;112;65;0.68840
6022430;-0.08500;80.7500;112;65;0.71013
6022440;-0.08500;80.3750;112;65;0.73773
6022450;-0.08500;80.2500;112;65;0.74921
6022460;-0.08500;80.0625;112;65;0.75897
6022470;-0.09000;79.8750;112;65;0.76630
6022480;-0.09000;79.4375;112;65;0.77387
6022490;-0.09000;79.1250;112;65;0.77411
6022500;-0.09000;78.8750;112;65;0.77216
6022510;-0.09000;78.5000;112;65;0.76825
6022520;-0.08500;77.8125;112;65;0.75482
6022530;-0.06000;77.3750;112;65;0.74579
6022540;-0.03500;77.0000;112;65;0.73602
6022550;-0.01500;76.6250;112;65;0.72527
6022560;-0.00500;75.8125;112;65;0.69890
6022570;0.02000;75.3750;112;65;0.68376
6022580;0.06000;75.0000;112;65;0.66764
6022590;0.07000;74.6250;112;65;0.65079
6022600;0.03000;73.8125;112;65;0.61612
6022610;0.00000;73.4375;112;65;0.59902
6022620;-0.02500;73.1250;112;65;0.58242
6022630;-0.08500;72.7500;112;65;0.56703
6022640;-0.11000;72.4375;112;65;0.55409
6022650;-0.12500;71.7500;112;65;0.53138
6022660;-0.12500;71.4375;112;65;0.52063
6022670;-0.13000;71.1250;112;65;0.51062
6022680;-0.12500;70.6250;112;65;0.49328
6022690;-0.12500;70.3750;112;65;0.48571
6022700;-0.11500;70.1250;112;65;0.47863
6022710;0.03000;69.8750;112;65;0.47253
6022720;0.36000;69.6250;112;65;0.46691
6022730;0.85500;69.2500;112;65;0.45763
6022740;0.64500;69.0000;112;65;0.45397
6022750;-0.04500;68.8125;112;65;0.44982
6022760;-0.28000;68.5625;112;65;0.44542
6022770;-0.23500;68.2500;112;65;0.43639
6022780;-0.19500;68.0625;112;65;0.43150
6022790;-0.19000;67.8750;112;65;0.42662
6022800;-0.19000;67.8750;112;65;0.42662
6022810;-0.19000;67.3125;112;65;0.41148
6022820;-0.18500;67.0625;112;65;0.40635
6022830;-0.17500;66.8750;112;65;0.40147
6022840;-0.17000;66.6250;112;65;0.39756
6022850;-0.16500;66.1250;112;65;0.38950
6022860;-0.15500;65.8125;112;65;0.38510
6022870;-0.15500;65.5000;112;65;0.38046
6022880;-0.14500;65.1875;112;65;0.37558
6022890;-0.13500;64.6875;112;65;0.36581
6022900;-0.13500;64.4375;112;65;0.36093
6022910;-0.12500;64.1875;112;65;0.35653
6022920;-0.10500;63.8750;112;65;0.34799
6022930;-0.09500;63.8750;112;65;0.34505
6022940;-0.08500;64.2500;112;65;0.34261
6022950;-0.07500;65.1250;112;65;0.33944
6022960;-0.06000;69.0625;112;65;0.33236
6022970;-0.04500;72.0625;112;65;0.32894
6022980;-0.02500;75.5000;112;65;0.32552
6022990;-0.00500;79.3125;112;65;0.32234
6023000;0.01000;83.3750;113;65;0.31941
6023010;0.03000;91.6250;113;65;0.31404
6023020;0.05000;95.5000;113;65;0.31160
6023030;0.07000;99.0625;113;65;0.30965
6023040;0.10000;105.1250;113;65;0.30818
6023050;0.12000;107.5000;113;65;0.30745
6023060;0.15500;109.3750;113;65;0.30672
6023070;0.19500;110.8750;113;65;0.30598
6023080;0.21500;111.9375;113;65;0.30549
6023090;0.22500;113.0000;113;65;0.30501
6023100;0.21000;113.1250;113;65;0.30476
6023110;0.16000;113.0000;113;65;0.30427
6023120;0.10000;112.5625;113;65;0.30403
6023130;0.03500;111.1875;113;65;0.30379
6023140;-0.02500;110.2500;113;65;0.30427
6023150;-0.05500;109.1875;113;65;0.30427
6023160;-0.07500;107.9375;113;65;0.30427
6023170;-0.09000;105.1875;113;65;0.30452
6023180;-0.10000;103.6875;113;65;0.30525
6023190;-0.11500;102.1250;113;65;0.30745
6023200;-0.13000;100.5000;113;65;0.31209
6023210;-0.14500;97.0625;113;65;0.33187
6023220;-0.14500;95.2500;113;65;0.34872
6023230;-0.14500;93.4375;113;65;0.37070
6023240;-0.13500;91.5625;113;65;0.39341
6023250;-0.13000;87.7500;113;65;0.44835
6023260;-0.13000;86.0625;113;65;0.48205
6023270;-0.13000;84.5625;113;65;0.51746
6023280;-0.12500;83.3750;113;65;0.55311
6023290;-0.12000;81.6875;113;65;0.60195
6023300;-0.11500;81.1250;113;65;0.62711
6023310;-0.11500;80.7500;113;65;0.65250
6023320;-0.11500;80.2500;113;65;0.69744
6023330;-0.11500;80.1250;113;65;0.71331
6023340;-0.11500;80.0625;113;65;0.72503
6023350;-0.11500;80.0625;113;65;0.73626
6023360;-0.11500;79.9375;113;65;0.75360
6023370;-0.11000;79.8750;113;65;0.75873
6023380;-0.10500;79.7500;113;65;0.76166
6023390;-0.11000;79.5625;113;65;0.76215
6023400;-0.11000;79.1250;113;65;0.75702
6023410;-0.10500;78.8125;113;65;0.75140
6023420;-0.09000;78.5000;113;65;0.74383
6023430;-0.06000;78.1250;113;65;0.73455
6023440;-0.02500;77.4375;113;65;0.71306
6023450;-0.01000;77.0625;113;65;0.70012
6023460;0.00000;76.6875;113;65;0.68596
6023470;0.02500;76.3125;113;65;0.67057
6023480;0.06000;75.6250;113;65;0.65421
6023490;0.05500;75.2500;113;65;0.61807
6023500;0.03000;74.9375;113;65;0.59927
6023510;-0.00500;74.5625;113;65;0.58046
6023520;-0.03500;73.8750;113;65;0.56190
6023530;-0.08500;73.5625;113;65;0.52821
6023540;-0.11500;73.3125;113;65;0.51453
6023550;-0.13000;73.0000;113;65;0.50110
6023560;-0.13500;72.3750;113;65;0.47692
6023570;-0.13500;72.0625;113;65;0.46691
6023580;-0.13000;71.8125;113;65;0.45812
6023590;-0.12500;71.5000;113;65;0.45055
6023600;-0.11000;71.0625;113;65;0.43834
6023610;0.03000;70.8750;113;65;0.43370
6023620;0.48500;70.6250;113;65;0.42930
6023630;0.98000;70.4375;113;65;0.42515
6023640;0.59000;70.1250;113;65;0.41856
6023650;0.01000;69.9375;113;65;0.41538
6023660;-0.28000;69.7500;113;65;0.41197
6023670;-0.23000;69.6250;113;65;0.40830
6023680;-0.21000;69.3125;113;65;0.40073
6023690;-0.21000;69.1250;113;65;0.39683
6023700;-0.21000;68.9375;113;65;0.39267
6023710;-0.20500;68.7500;113;65;0.38852
6023720;-0.20000;68.3750;113;65;0.38022
6023730;-0.19500;68.1875;113;65;0.37705
6023740;-0.19000;67.9375;113;65;0.37411
6023750;-0.18500;67.6875;113;65;0.37070
6023760;-0.18000;67.3750;113;65;0.36703
6023770;-0.17000;66.8750;113;65;0.36020
6023780;-0.15500;66.6250;113;65;0.35653
6023790;-0.14500;66.3750;113;65;0.35263
6023800;-0.14500;66.3750;113;65;0.35263
6023810;-0.12500;65.6875;113;65;0.34212
6023820;-0.11000;65.6250;113;65;0.33871
6023830;-0.10000;65.7500;113;65;0.33578
6023840;-0.09000;66.3125;113;65;0.33382
6023850;-0.07500;69.4375;113;65;0.32967
6023860;-0.06500;72.1250;113;65;0.32723
6023870;-0.05500;75.4375;113;65;0.32479
6023880;-0.04000;79.1875;113;65;0.32259
6023890;-0.02500;87.5625;113;65;0.31844
6023900;-0.00500;91.8125;113;65;0.31673
6023910;0.01000;96.0000;113;65;0.31526
6023920;0.03000;99.9375;113;65;0.31429
6023930;0.05000;106.7500;113;65;0.31355
6023940;0.07500;109.5000;113;65;0.31429
6023950;0.10000;111.7500;113;65;0.31477
6023960;0.13000;113.5625;113;65;0.31526
6023970;0.16000;115.8750;113;65;0.31575
6023980;0.18500;116.5000;113;65;0.31551
6023990;0.18500;116.8750;113;65;0.31526
6024000;0.17000;116.8750;113;65;0.31502
6024010;0.12000;116.5625;113;65;0.31404
6024020;0.07000;116.0625;113;65;0.31355
6024030;0.01000;115.3750;113;65;0.31306
6024040;-0.03000;113.5625;113;65;0.31331
6024050;-0.06500;112.4375;113;65;0.31380
6024060;-0.08000;111.2500;113;65;0.31355
6024070;-0.09500;109.8750;113;65;0.31380
6024080;-0.10000;106.9375;113;65;0.31477
6024090;-0.10500;105.3125;113;65;0.32332
6024100;-0.10500;103.6875;113;65;0.33260
6024110;-0.10500;102.0000;113;65;0.34652
6024120;-0.10500;98.3750;113;65;0.38999
6024130;-0.10500;96.5625;113;65;0.41441
6024140;-0.10000;94.6875;113;65;0.44029
6024150;-0.09500;92.9375;113;65;0.47228
6024160;-0.09500;91.3125;113;65;0.50794
6024170;-0.09000;88.8125;113;65;0.58144
6024180;-0.08500;87.8125;113;65;0.61661
6024190;-0.08000;87.0625;113;65;0.65006
6024200;-0.07500;85.9375;113;65;0.70891
6024210;-0.07500;85.5625;113;65;0.73382
6024220;-0.06500;85.2500;113;65;0.75580
6024230;-0.06500;85.0625;113;65;0.77460
6024240;-0.07000;84.6875;113;65;0.79658
6024250;-0.21000;70.8750;113;65;0.44176
6024260;-0.21000;70.8750;113;65;0.44176
6024270;-0.21000;70.8750;113;65;0.44176
6024280;-0.21000;70.8750;113;65;0.44176
6024290;-0.21000;70.8750;113;65;0.44176
6024300;-0.21000;70.8750;113;65;0.44176
6024310;-0.21000;70.8750;113;65;0.44176
6024320;-0.21000;70.8750;113;65;0.44176
6024330;-0.21000;70.8750;113;65;0.44176
6024340;-0.21000;70.8750;113;65;0.44176
6024350;-0.21000;70.8750;113;65;0.44176
6024360;-0.21000;70.8750;113;65;0.44176
6024370;-0.21000;70.8750;113;65;0.44176
6024380;-0.21000;70.8750;113;65;0.44176
6024390;-0.21000;70.8750;113;65;0.44176
6024400;-0.21000;70.8750;113;65;0.44176
6024410;-0.21000;70.8750;113;65;0.44176
6024420;-0.21000;70.8750;113;65;0.44176
6024430;-0.21000;70.8750;113;65;0.44176
6024440;-0.21000;70.8750;113;65;0.44176
6024450;-0.21000;70.8750;113;65;0.44176
6024460;-0.21000;70.8750;113;65;0.44176
6024470;-0.21000;70.8750;113;65;0.44176
6024480;-0.21000;70.8750;113;65;0.44176
6024490;-0.21000;70.8750;113;65;0.44176
6024500;-0.21000;70.8750;113;65;0.44176
6024510;-0.21000;70.8750;113;65;0.44176
6024520;-0.21000;70.8750;113;65;0.44176
6024530;-0.21000;70.8750;113;65;0.44176
6024540;-0.21000;70.8750;113;65;0.44176
6024550;-0.21000;70.8750;113;65;0.44176
6024560;-0.21000;70.8750;113;65;0.44176
6024570;-0.21000;70.8750;113;65;0.44176
6024580;-0.21000;70.8750;113;65;0.44176
6024590;-0.21000;70.8750;113;65;0.44176
6024600;-0.21000;70.8750;113;65;0.44176
6024610;-0.21000;70.8750;113;65;0.44176
6024620;-0.21000;70.8750;113;65;0.44176
6024630;-0.20000;70.6875;113;65;0.43712
6024640;-0.19000;70.1875;113;65;0.42857
6024650;-0.18000;69.9375;113;65;0.42418
6024660;-0.17000;69.6875;113;65;0.41978
6024670;-0.15500;69.3750;113;65;0.41538
6024680;-0.14000;68.8750;113;65;0.40659
6024690;-0.12500;68.6250;113;65;0.40220
6024700;-0.11000;68.3750;113;65;0.39756
6024710;-0.09500;68.1875;113;65;0.39292
6024720;-0.08500;68.0625;113;65;0.38437
6024730;-0.07500;68.4375;113;65;0.38095
6024740;-0.06000;69.4375;113;65;0.37802
6024750;-0.05500;71.1875;113;65;0.37509
6024760;-0.04000;76.8750;113;65;0.36923
6024770;-0.03000;80.5625;113;65;0.36654
6024780;-0.01500;84.6250;113;65;0.36410
6024790;-0.00500;88.9375;113;65;0.36215
6024800;-0.07500;89.9375;113;65;0.59219
6024810;-0.07500;89.9375;113;65;0.59219
6024820;-0.07500;89.9375;113;65;0.59219
6024830;-0.07500;89.9375;113;65;0.59219
6024840;-0.07500;89.9375;113;65;0.59219
6024850;-0.07500;89.9375;113;65;0.59219
6024860;-0.07500;89.9375;113;65;0.59219
6024870;-0.07500;89.9375;113;65;0.59219
6024880;-0.07500;89.9375;113;65;0.59219
6024890;-0.07500;89.9375;113;65;0.59219
6024900;-0.07500;89.9375;113;65;0.59219
6024910;-0.07500;89.9375;113;65;0.59219
6024920;-0.07500;89.9375;113;65;0.59219
6024930;-0.07500;89.9375;113;65;0.59219
6024940;-0.07500;89.9375;113;65;0.59219
6024950;-0.07500;89.9375;113;65;0.59219
6024960;-0.07500;89.9375;113;65;0.59219
6024970;-0.07500;89.9375;113;65;0.59219
6024980;-0.07500;89.9375;113;65;0.59219
6024990;-0.07500;89.9375;113;65;0.59219
6025000;-0.07500;89.9375;112;65;0.59219
6025010;-0.07500;89.9375;112;65;0.59219
6025020;-0.07500;89.9375;112;65;0.59219
6025030;-0.07500;89.9375;112;65;0.59219
6025040;-0.07500;89.9375;112;65;0.59219
6025050;-0.07500;89.9375;112;65;0.59219
6025060;-0.07500;89.9375;112;65;0.59219
6025070;-0.07500;89.9375;112;65;0.59219
6025080;-0.07000;87.8750;112;65;0.65910
6025090;-0.06500;87.0625;112;65;0.68913
6025100;-0.06500;86.4375;112;65;0.71648
6025110;-0.05500;85.8750;112;65;0.74090
6025120;-0.05500;85.5000;112;65;0.76215
6025130;-0.05500;84.8750;112;65;0.79292
6025140;-0.05500;84.6250;112;65;0.80147
6025150;-0.05500;84.3125;112;65;0.80977
6025160;-0.05500;84.0625;112;65;0.81661
6025170;-0.06000;83.5000;112;65;0.82491
6025180;-0.06500;83.1250;112;65;0.82589
6025190;-0.06500;82.8125;112;65;0.82491
6025200;-0.06500;82.4375;112;65;0.82198
6025210;-0.06000;81.6250;112;65;0.81123
6025220;-0.04500;81.1875;112;65;0.80317
6025230;-0.02500;80.7500;112;65;0.79365
6025240;0.00000;80.3125;112;65;0.78291
6025250;0.01000;79.4375;112;65;0.75726
6025260;0.02500;78.9375;112;65;0.74212
6025270;0.06000;78.4375;112;65;0.72601
6025280;0.09000;78.0000;112;65;0.70867
6025290;0.08000;77.1250;112;65;0.67179
6025300;0.05000;76.6250;112;65;0.65275
6025310;0.01500;76.1875;112;65;0.63394
6025320;-0.02000;75.8125;112;65;0.61563
6025330;-0.07000;74.9375;112;65;0.56532
6025340;-0.10000;74.5625;112;65;0.52552
6025350;-0.10500;74.1875;112;65;0.49915
6025360;-0.10000;73.8125;112;65;0.47985
6025370;-0.10000;73.0625;112;65;0.45201
6025380;-0.09500;72.6875;112;65;0.44078
6025390;-0.09000;72.4375;112;65;0.43077
6025400;-0.07500;72.1250;112;65;0.42173
6025410;0.17500;71.6250;112;65;0.40488
6025420;0.58500;71.3750;112;65;0.39658
6025430;1.00000;71.1250;112;65;0.38950
6025440;0.58000;70.8750;112;65;0.38291
6025450;-0.17500;70.4375;112;65;0.36874
6025460;-0.26000;70.2500;112;65;0.36166
6025470;-0.19000;70.0625;112;65;0.35458
6025480;-0.17000;69.8750;112;65;0.34725
6025490;-0.16500;69.5000;112;65;0.33333
6025500;-0.16000;69.3125;112;65;0.32650
6025510;-0.15500;69.0625;112;65;0.31966
6025520;-0.15000;68.8125;112;65;0.31258
6025530;-0.14500;68.2500;112;65;0.29963
6025540;-0.13500;67.9375;112;65;0.29426
6025550;-0.13000;67.6250;112;65;0.28767
6025560;-0.12500;67.3125;112;65;0.28059
6025570;-0.11500;66.7500;112;65;0.26569
6025580;-0.11000;66.4375;112;65;0.25836
6025590;-0.09500;66.1250;112;65;0.25128
6025600;-0.09000;65.8750;112;65;0.24469
6025610;-0.08500;65.3750;112;65;0.23248
6025620;-0.07000;65.1875;112;65;0.22686
6025630;-0.05500;65.2500;112;65;0.22271
6025640;-0.04500;65.5625;112;65;0.21929
6025650;-0.03500;67.8750;112;65;0.21050
6025660;-0.02500;70.0625;112;65;0.20586
6025670;-0.00500;72.9375;112;65;0.20147
6025680;0.00500;76.2500;112;65;0.19707
6025690;0.02000;83.8750;112;65;0.18926
6025700;0.03500;87.9375;112;65;0.18559
6025710;0.06000;91.8750;112;65;0.18217
6025720;0.07500;95.6875;112;65;0.17900
6025730;0.10000;102.3125;112;65;0.17460
6025740;0.14000;104.9375;112;65;0.17387
6025750;0.16500;107.1875;112;65;0.17241
6025760;0.20000;108.9375;112;65;0.17070
6025770;0.23500;111.0625;112;65;0.16728
6025780;0.25000;111.6250;112;65;0.16606
6025790;0.25500;111.8125;112;65;0.16508
6025800;0.25500;111.8125;112;65;0.16508
6025810;0.15500;110.7500;112;65;0.16239
6025820;0.10000;110.0000;112;65;0.16142
6025830;0.05500;109.0625;112;65;0.16166
6025840;0.00000;106.7500;112;65;0.16239
6025850;-0.02500;105.4375;112;65;0.16239
6025860;-0.03500;104.0000;112;65;0.16215
6025870;-0.05500;102.5625;112;65;0.16215
6025880;-0.06500;101.0000;112;65;0.16239
6025890;-0.07000;97.6875;112;65;0.16679
6025900;-0.07500;96.0000;112;65;0.17289
6025910;-0.07500;94.2500;112;65;0.18315
6025920;-0.08000;92.4375;112;65;0.19780
6025930;-0.08000;88.7500;112;65;0.23810
6025940;-0.07500;86.9375;112;65;0.26081
6025950;-0.07500;85.3125;112;65;0.28913
6025960;-0.07500;83.8750;112;65;0.32088
6025970;-0.07000;81.7500;112;65;0.38828
6025980;-0.07000;81.0000;112;65;0.42125
6025990;-0.06500;80.4375;112;65;0.45250
6026000;-0.07000;79.7500;112;65;0.50745
6026010;-0.07000;79.5000;112;65;0.53016
6026020;-0.07500;79.3750;112;65;0.54969
6026030;-0.07500;79.2500;112;65;0.56361
6026040;-0.07500;79.0625;112;65;0.58339
6026050;-0.07500;78.9375;112;65;0.59121
6026060;-0.07500;78.8750;112;65;0.59683
6026070;-0.07500;78.6875;112;65;0.60024
6026080;-0.08000;78.2500;112;65;0.60073
6026090;-0.08000;77.9375;112;65;0.59780
6026100;-0.08000;77.6250;112;65;0.59292
6026110;-0.07000;77.3125;112;65;0.58608
6026120;-0.04500;76.6250;112;65;0.56728
6026130;-0.02000;76.2500;112;65;0.55629
6026140;0.00000;75.9375;112;65;0.54481
6026150;0.01000;75.5625;112;65;0.53162
6026160;0.03000;75.1875;112;65;0.51697
6026170;0.07500;74.4375;112;65;0.48425
6026180;0.09000;74.0625;112;65;0.46642
6026190;0.06000;73.6875;112;65;0.44835
6026200;0.02000;73.3125;112;65;0.43053
6026210;-0.01500;72.5625;112;65;0.39609
6026220;-0.06000;72.1875;112;65;0.38046
6026230;-0.10500;71.8750;112;65;0.36752
6026240;-0.12500;71.1875;112;65;0.35653
6026250;-0.13500;70.8750;112;65;0.33504
6026260;-0.13500;70.6250;112;65;0.32552
6026270;-0.13500;70.3125;112;65;0.31697
6026280;-0.13000;69.7500;112;65;0.30916
6026290;-0.12500;69.5000;112;65;0.29670
6026300;-0.05000;69.3125;112;65;0.29158
6026310;0.25500;69.1250;112;65;0.28718
6026320;0.83500;68.7500;112;65;0.27985
6026330;0.70500;68.5000;112;65;0.27717
6026340;0.17500;68.3750;112;65;0.27399
6026350;-0.28500;68.1875;112;65;0.27082
6026360;-0.24000;67.8750;112;65;0.26325
6026370;-0.20000;67.7500;112;65;0.25958
6026380;-0.19000;67.5625;112;65;0.25568
6026390;-0.18000;67.4375;112;65;0.25177
6026400;-0.18000;67.2500;112;65;0.24811
6026410;-0.17000;66.8125;112;65;0.24103
6026420;-0.16000;66.5625;112;65;0.23736
6026430;-0.15500;66.3750;112;65;0.23468
6026440;-0.15500;66.1250;112;65;0.23248
6026450;-0.14500;65.5625;112;65;0.22540
6026460;-0.14000;65.3125;112;65;0.22125
6026470;-0.13500;65.0000;112;65;0.21709
6026480;-0.12500;64.4375;112;65;0.20855
6026490;-0.11500;64.1875;112;65;0.20464
6026500;-0.10500;63.9375;112;65;0.20073
6026510;-0.09500;63.7500;112;65;0.19683
6026520;-0.08500;63.6250;112;65;0.19316
6026530;-0.07500;63.7500;112;65;0.18950
6026540;-0.06000;64.5000;112;65;0.18755
6026550;-0.04500;65.7500;112;65;0.18510
6026560;-0.03500;70.3125;112;65;0.18242
6026570;-0.01000;73.3750;112;65;0.17680
6026580;0.00000;76.8750;112;65;0.17387
6026590;0.02000;80.6250;112;65;0.17118
6026600;0.04000;88.3125;112;65;0.16703
6026610;0.06000;92.0000;112;65;0.16508
6026620;0.08500;95.5000;112;65;0.16361
6026630;0.11500;98.6250;112;65;0.16337
6026640;0.14500;103.5000;112;65;0.16410
6026650;0.19000;105.2500;112;65;0.16410
6026660;0.22000;106.5000;112;65;0.16410
6026670;0.25500;107.4375;112;65;0.16435
6026680;0.26500;107.9375;112;65;0.16459
6026690;0.25000;108.0625;112;65;0.16557
6026700;0.19500;107.6875;112;65;0.16581
6026710;0.14000;107.0625;112;65;0.16606
6026720;0.07500;106.2500;112;65;0.16630
6026730;0.02000;104.1875;112;65;0.16874
6026740;-0.02500;102.9375;112;65;0.16947
6026750;-0.05000;101.6250;112;65;0.16972
6026760;-0.06500;100.1875;112;65;0.16996
6026770;-0.07500;97.2500;112;65;0.17118
6026780;-0.08500;95.6875;112;65;0.17289
6026790;-0.09500;94.1250;112;65;0.17631
6026800;-0.09500;90.7500;112;65;0.18217
6026810;-0.09500;89.0625;112;65;0.20537
6026820;-0.09500;87.3125;112;65;0.22418
6026830;-0.09500;85.6250;112;65;0.24420
6026840;-0.09500;82.5625;112;65;0.29377
6026850;-0.09500;81.3125;112;65;0.32503
6026860;-0.09500;80.3125;112;65;0.35849
6026870;-0.09500;79.5000;112;65;0.39292
6026880;-0.09000;78.8750;112;65;0.42686
6026890;-0.08500;78.0625;112;65;0.49035
6026900;-0.08500;77.7500;112;65;0.51844
6026910;-0.08500;77.6250;112;65;0.54310
6026920;-0.08500;77.4375;112;65;0.57998
6026930;-0.08000;77.3750;112;65;0.59170
6026940;-0.07500;77.3125;112;65;0.60269
6026950;-0.07500;77.1875;112;65;0.61172
6026960;-0.07500;77.0625;112;65;0.61856
6026970;-0.07500;76.6875;112;65;0.62515
6026980;-0.07500;76.5000;112;65;0.62540
6026990;-0.08500;76.2500;112;65;0.62320
6027000;-0.08500;75.9375;112;65;0.61880
6027010;-0.07500;75.3125;112;65;0.60415
6027020;-0.06000;75.0000;112;65;0.59414
6027030;-0.03000;74.6250;112;65;0.58364
6027040;-0.02000;74.3125;112;65;0.57265
6027050;-0.01000;73.6250;112;65;0.54603
6027060;0.02500;73.3125;112;65;0.53089
6027070;0.05500;72.9375;112;65;0.51477
6027080;0.06000;72.6250;112;65;0.49792
6027090;0.03000;71.9375;112;65;0.46374
6027100;-0.01500;71.6250;112;65;0.44689
6027110;-0.04500;71.3125;112;65;0.43053
6027120;-0.08500;71.0000;112;65;0.41490
6027130;-0.12500;70.4375;112;65;0.39096
6027140;-0.14500;70.1250;112;65;0.38022
6027150;-0.14500;69.8125;112;65;0.37045
6027160;-0.14500;69.5000;112;65;0.36142
6027170;-0.13500;68.9375;112;65;0.34603
6027180;-0.12500;68.6250;112;65;0.33944
6027190;-0.11500;68.3750;112;65;0.33358
6027200;0.00000;68.1875;112;65;0.32821
6027210;0.38000;67.8125;112;65;0.31917
6027220;0.84500;67.6250;112;65;0.31551
6027230;0.57500;67.5000;112;65;0.31282
6027240;0.02000;67.3125;112;65;0.31038
6027250;-0.30500;67.0000;112;65;0.30379
6027260;-0.24500;66.8750;112;65;0.30037
6027270;-0.20000;66.6875;112;65;0.29695
6027280;-0.20000;66.5625;112;65;0.29328
6027290;-0.19500;66.2500;112;65;0.28620
6027300;-0.19500;66.0625;112;65;0.28254
6027310;-0.19000;65.8750;112;65;0.27863
6027320;-0.18000;65.5000;112;65;0.27204
6027330;-0.17000;65.2500;112;65;0.26935
6027340;-0.16500;65.0000;112;65;0.26593
6027350;-0.16000;64.7500;112;65;0.26203
6027360;-0.15500;64.2500;112;65;0.25446
6027370;-0.14500;64.0000;112;65;0.25055
6027380;-0.13500;63.7500;112;65;0.27057
6027390;-0.12500;63.5000;112;65;0.30256
6027400;-0.11500;63.3125;112;65;0.31648
6027410;-0.10500;63.0000;112;65;0.32186
6027420;-0.09000;62.9375;112;65;0.31990
6027430;-0.07500;63.1875;112;65;0.31819
6027440;-0.05500;65.1875;112;65;0.31355
6027450;-0.04500;67.1875;112;65;0.31038
6027460;-0.03000;69.8750;112;65;0.30696
6027470;-0.01500;73.0000;112;65;0.30354
6027480;0.00500;80.3125;112;65;0.29719
6027490;0.02000;84.2500;112;65;0.29451
6027500;0.03500;88.0625;112;65;0.29206
6027510;0.05500;91.8125;112;65;0.29011
6027520;0.08000;98.4375;112;65;0.28767
6027530;0.10000;101.1875;112;65;0.28791
6027540;0.13000;103.5000;112;65;0.28791
6027550;0.17500;105.3125;112;65;0.28767
6027560;0.21000;107.6875;112;65;0.28669
6027570;0.23500;108.3125;112;65;0.28620
6027580;0.24500;108.5625;112;65;0.28571
6027590;0.21500;108.5625;112;65;0.28523
6027600;0.17500;108.3125;112;65;0.28498
6027610;0.11500;107.1875;112;65;0.28498
6027620;0.05000;106.3125;112;65;0.28498
6027630;0.00000;105.3125;112;65;0.28547
6027640;-0.03000;104.1250;112;65;0.28669
6027650;-0.05000;101.4375;112;65;0.28742
6027660;-0.07000;100.0000;112;65;0.28767
6027670;-0.08000;98.5000;112;65;0.28840
6027680;-0.08500;96.9375;112;65;0.29035
6027690;-0.09000;93.7500;112;65;0.30037
6027700;-0.09000;92.0625;112;65;0.31062
6027710;-0.09000;90.3750;112;65;0.32552
6027720;-0.09500;88.6250;112;65;0.34554
6027730;-0.09500;85.1250;112;65;0.38974
6027740;-0.09500;83.5000;112;65;0.41905
6027750;-0.10000;82.1250;112;65;0.45250
6027760;-0.09500;80.9375;112;65;0.48864
6027770;-0.09500;79.3125;112;65;0.56264
6027780;-0.09000;78.7500;112;65;0.59805
6027790;-0.09000;78.3750;112;65;0.63150
6027800;-0.09500;78.0000;112;65;0.66227
6027810;-0.09000;77.6875;112;65;0.71380
6027820;-0.08500;77.6250;112;65;0.73455
6027830;-0.09000;77.5625;112;65;0.74945
6027840;-0.09000;77.5000;112;65;0.76020
6027850;-0.09500;77.3125;112;65;0.77802
6027860;-0.09500;77.1875;112;65;0.78364
6027870;-0.09000;77.0000;112;65;0.78681
6027880;-0.09500;76.7500;112;65;0.78730
6027890;-0.09500;76.1875;112;65;0.78120
6027900;-0.09500;75.8750;112;65;0.77509
6027910;-0.08500;75.5625;112;65;0.76728
6027920;-0.05500;75.2500;112;65;0.75775
6027930;-0.02500;74.5000;112;65;0.73529
6027940;-0.01500;74.1875;112;65;0.72161
6027950;-0.01000;73.8125;112;65;0.70647
6027960;0.01500;73.4375;112;65;0.69035
6027970;0.06000;72.7500;112;65;0.65519
6027980;0.05000;72.3750;112;65;0.63614
6027990;0.02000;72.0000;112;65;0.61709
6028000;-0.01500;71.6875;113;65;0.59805
6028010;-0.05500;71.0625;113;65;0.56142
6028020;-0.10000;70.7500;113;65;0.54628
6028030;-0.12500;70.5000;113;65;0.53309
6028040;-0.14000;70.1875;113;65;0.51966
6028050;-0.14000;69.6250;113;65;0.49548
6028060;-0.15500;69.3125;113;65;0.48523
6028070;-0.16000;69.0625;113;65;0.47643
6028080;-0.15500;68.8125;113;65;0.46886
6028090;-0.10500;68.3125;113;65;0.45617
6028100;0.04500;68.1250;113;65;0.45079
6028110;0.47500;67.9375;113;65;0.44567
6028120;0.91000;67.6250;113;65;0.44103
6028130;0.49500;67.4375;113;65;0.43321
6028140;-0.05000;67.3125;113;65;0.42906
6028150;-0.29000;67.1250;113;65;0.42491
6028160;-0.22000;67.0000;113;65;0.42051
6028170;-0.19000;66.6875;113;65;0.41172
6028180;-0.18500;66.5000;113;65;0.40708
6028190;-0.18000;66.3750;113;65;0.40244
6028200;-0.17500;66.0000;113;65;0.39316
6028210;-0.17500;65.7500;113;65;0.38828
6028220;-0.17000;65.5000;113;65;0.38437
6028230;-0.16500;65.2500;113;65;0.38095
6028240;-0.16000;64.8125;113;65;0.37265
6028250;-0.15500;64.5625;113;65;0.36850
6028260;-0.15000;64.3125;113;65;0.36410
6028270;-0.13500;64.0625;113;65;0.35995
6028280;-0.12500;63.5000;113;65;0.35165
6028290;-0.11500;63.3125;113;65;0.34750
6028300;-0.10500;63.0625;113;65;0.34335
6028310;-0.09500;62.9375;113;65;0.33895
6028320;-0.09000;62.9375;113;65;0.33431
6028330;-0.08000;63.8750;113;65;0.32821
6028340;-0.06000;65.1250;113;65;0.32479
6028350;-0.05000;67.1250;113;65;0.32112
6028360;-0.03500;69.8125;113;65;0.31746
6028370;-0.01500;76.6250;113;65;0.31111
6028380;0.00000;80.4375;113;65;0.30818
6028390;0.02000;84.3750;113;65;0.30525
6028400;0.04000;92.1875;113;65;0.30256
6028410;0.06000;95.7500;113;65;0.29866
6028420;0.09000;99.0000;113;65;0.29792
6028430;0.12000;101.8750;113;65;0.29817
6028440;0.15000;106.2500;113;65;0.29768
6028450;0.17500;107.7500;113;65;0.29719
6028460;0.21000;108.8750;113;65;0.29646
6028470;0.24000;109.5625;113;65;0.29597
6028480;0.24500;110.0000;113;65;0.29548
6028490;0.22500;110.0625;113;65;0.29475
6028500;0.16500;109.6875;113;65;0.29451
6028510;0.10500;109.1250;113;65;0.29451
6028520;0.04500;108.3750;113;65;0.29475
6028530;0.00000;106.3125;113;65;0.29695
6028540;-0.04500;105.0625;113;65;0.29744
6028550;-0.06500;103.8125;113;65;0.29768
6028560;-0.07500;100.8750;113;65;0.29817
6028570;-0.08500;99.3750;113;65;0.29939
6028580;-0.08500;97.7500;113;65;0.30232
6028590;-0.09500;96.1250;113;65;0.30794
6028600;-0.09500;92.6875;113;65;0.33138
6028610;-0.09500;90.9375;113;65;0.35067
6028620;-0.09500;89.1875;113;65;0.37143
6028630;-0.09500;87.5000;113;65;0.39463
6028640;-0.09500;85.8125;113;65;0.42442
6028650;-0.09500;83.0625;113;65;0.49573
6028660;-0.09500;82.0625;113;65;0.53407
6028670;-0.09500;81.3125;113;65;0.57216
6028680;-0.09000;80.6875;113;65;0.60928
6028690;-0.09000;79.7500;113;65;0.67643
6028700;-0.08500;79.4375;113;65;0.70549
6028710;-0.08500;79.2500;113;65;0.73114
6028720;-0.09500;79.0625;113;65;0.75311
6028730;-0.09500;78.8750;113;65;0.78046
6028740;-0.10000;78.7500;113;65;0.79170
6028750;-0.10000;78.6250;113;65;0.80098
6028760;-0.10000;78.5000;113;65;0.80781
6028770;-0.10000;78.1250;113;65;0.81368
6028780;-0.09500;77.8750;113;65;0.81270
6028790;-0.09500;77.5625;113;65;0.80952
6028800;-0.09000;76.9375;113;65;0.79731
6028810;-0.07500;76.5625;113;65;0.78852
6028820;-0.05500;76.1875;113;65;0.77851
6028830;-0.02500;75.7500;113;65;0.76728
6028840;-0.01500;75.3750;113;65;0.75458
6028850;0.00000;74.5625;113;65;0.72430
6028860;0.02500;74.1875;113;65;0.70720
6028870;0.06000;73.8125;113;65;0.68889
6028880;0.06000;73.5000;113;65;0.66960
6028890;0.02000;72.7500;113;65;0.62979
6028900;-0.00500;72.3750;113;65;0.61026
6028910;-0.04000;72.0625;113;65;0.59170
6028920;-0.09500;71.3750;113;65;0.55971
6028930;-0.12500;71.0625;113;65;0.54701
6028940;-0.13500;70.7500;113;65;0.53431
6028950;-0.13500;70.4375;113;65;0.52234
6028960;-0.13500;69.8750;113;65;0.51160
6028970;-0.12500;69.6250;113;65;0.49353
6028980;-0.12500;69.3750;113;65;0.48596
6028990;-0.11500;69.1250;113;65;0.47912
6029000;0.07000;68.6875;114;66;0.46740
6029010;0.43000;68.5625;114;66;0.46227
6029020;0.88000;68.3750;114;66;0.45788
6029030;0.54000;68.2500;114;66;0.45397
6029040;-0.13500;68.0000;114;66;0.44518
6029050;-0.35000;67.8750;114;66;0.44029
6029060;-0.38000;67.7500;114;66;0.43516
6029070;-0.30000;67.5625;114;66;0.43004
6029080;-0.20000;67.3125;114;66;0.41929
6029090;-0.18500;67.1875;114;66;0.41416
6029100;-0.18000;67.0000;114;66;0.40904
6029110;-0.17500;66.8750;114;66;0.40415
6029120;-0.17000;66.6875;114;66;0.39927
6029130;-0.16000;66.3125;114;66;0.39219
6029140;-0.15500;66.0625;114;66;0.38779
6029150;-0.15000;65.8750;114;66;0.38315
6029160;-0.14500;65.3750;114;66;0.37827
6029170;-0.14000;65.1250;114;66;0.36850
6029180;-0.13500;64.8750;114;66;0.36337
6029190;-0.12000;64.6250;114;66;0.35849
6029200;-0.11000;64.4375;114;66;0.35409
6029210;-0.09500;64.2500;114;66;0.34481
6029220;-0.08500;64.3750;114;66;0.34139
6029230;-0.07000;65.0000;114;66;0.33846
6029240;-0.05500;68.0000;114;66;0.33089
6029250;-0.04500;70.5625;114;66;0.32698
6029260;-0.03500;73.6875;114;66;0.32332
6029270;-0.01500;77.3125;114;66;0.31966
6029280;-0.00500;85.2500;114;66;0.31331
6029290;0.00500;89.3750;114;66;0.31062
6029300;0.02000;93.3125;114;66;0.30842
6029310;0.04500;97.0625;114;66;0.30647
6029320;0.07000;100.5104;114;66;0.30505
6029330;0.09000;103.5625;114;66;0.30427
6029340;0.12500;106.1250;114;66;0.30427
6029350;0.15000;108.2500;114;66;0.30403
6029360;0.18500;111.1875;114;66;0.30403
6029370;0.20500;112.1250;114;66;0.30403
6029380;0.22000;112.6875;114;66;0.30427
6029390;0.20500;112.9375;114;66;0.30476
6029400;0.16500;112.6875;114;66;0.30525
6029410;0.10500;112.2500;114;66;0.30647
6029420;0.04500;111.6250;114;66;0.30720
6029430;-0.00500;110.8125;114;66;0.30867
6029440;-0.04000;109.8750;114;66;0.30110
6029450;-0.07000;107.5625;114;66;0.28230
6029460;-0.08500;106.1875;114;66;0.27937
6029470;-0.09500;104.7500;114;66;0.27839
6029480;-0.10000;103.3125;114;66;0.27863
6029490;-0.10500;100.1250;114;66;0.28474
6029500;-0.11000;98.5000;114;66;0.29231
6029510;-0.11500;96.8125;114;66;0.30427
6029520;-0.11500;93.1875;114;66;0.34359
6029530;-0.11500;91.3750;114;66;0.36654
6029540;-0.10500;89.5625;114;66;0.39096
6029550;-0.08500;87.7500;114;66;0.42149
6029560;-0.08000;84.7500;114;66;0.49182
6029570;-0.09500;83.6250;114;66;0.52821
6029580;-0.10500;82.8125;114;66;0.56386
6029590;-0.10500;82.1250;114;66;0.59805
6029600;-0.10500;81.2500;114;66;0.65836
6029610;-0.10500;81.0000;114;66;0.68376
6029620;-0.10500;80.8125;114;66;0.70623
6029630;-0.10500;80.7500;114;66;0.72259
6029640;-0.10500;80.6875;114;66;0.73480
6029650;-0.10500;80.5625;114;66;0.75775
6029660;-0.10500;80.5000;114;66;0.76630
6029670;-0.10500;80.3750;114;66;0.77265
6029680;-0.10500;80.2500;114;66;0.77680
6029690;-0.10500;79.8125;114;66;0.77827
6029700;-0.10500;79.5625;114;66;0.77558
6029710;-0.09500;79.2500;114;66;0.77070
6029720;-0.07500;78.6250;114;66;0.75556
6029730;-0.05500;78.2500;114;66;0.74579
6029740;-0.02500;77.8750;114;66;0.73480
6029750;-0.01500;77.4375;114;66;0.72234
6029760;0.00000;76.6875;114;66;0.69353
6029770;0.02500;76.3125;114;66;0.67717
6029780;0.05000;75.9375;114;66;0.65983
6029790;0.03000;75.6250;114;66;0.64151
6029800;0.03000;75.6250;114;66;0.64151
6029810;-0.03000;74.5625;114;66;0.58559
6029820;-0.07500;74.1875;114;66;0.56777
6029830;-0.10500;73.8750;114;66;0.55263
6029840;-0.13500;73.5625;114;66;0.53919
6029850;-0.14500;72.9375;114;66;0.51355
6029860;-0.14500;72.6250;114;66;0.50208
6029870;-0.14000;72.3125;114;66;0.49206
6029880;-0.13500;71.7500;114;66;0.47595
6029890;-0.13000;71.4375;114;66;0.46935
6029900;-0.11500;71.1875;114;66;0.46374
6029910;0.20500;71.0000;114;66;0.45861
6029920;0.79000;70.5625;114;66;0.45055
6029930;1.02000;70.3750;114;66;0.44737
6029940;0.36000;70.1875;114;66;0.44371
6029950;-0.22000;70.0625;114;66;0.44005
6029960;-0.26500;69.8750;114;66;0.43663
6029970;-0.21000;69.6875;114;66;0.42930
6029980;-0.20000;69.5625;114;66;0.42540
6029990;-0.20000;69.3750;114;66;0.42149
6030000;-0.20000;69.2500;113;65;0.41758
6030010;-0.19500;68.8750;113;65;0.40952
6030020;-0.19000;68.6875;113;65;0.40513
6030030;-0.18000;68.5000;113;65;0.40147
6030040;-0.17500;68.3125;113;65;0.39805
6030050;-0.17000;67.9375;113;65;0.38950
