RelativeTimeMilliseconds;ECG;ART;ART (Sys);ART (Dia);PPG
6600000;-0.08000;125.5000;138;78;0.28645
6600010;-0.08500;121.5625;138;78;0.28791
6600020;-0.08500;119.3750;138;78;0.29035
6600030;-0.08500;116.9375;138;78;0.29499
6600040;-0.08500;114.4375;138;78;0.30305
6600050;-0.08500;109.3750;138;78;0.33236
6600060;-0.08500;107.1250;138;78;0.35458
6600070;-0.08500;105.1875;138;78;0.37778
6600080;-0.08500;102.4375;138;78;0.43468
6600090;-0.08500;101.5000;138;78;0.46984
6600100;-0.08500;100.8750;138;78;0.50672
6600110;-0.08000;100.4375;138;78;0.54408
6600120;-0.08500;100.1875;138;78;0.58022
6600130;-0.08500;99.9375;138;78;0.64542
6600140;-0.08500;99.8750;138;78;0.67326
6600150;-0.08500;99.7500;138;78;0.69817
6600160;-0.09000;99.2500;138;78;0.71966
6600170;-0.09500;98.9375;138;78;0.74725
6600180;-0.09500;98.5000;138;78;0.75849
6600190;-0.09500;98.0625;138;78;0.76850
6600200;-0.09000;97.5000;138;78;0.77680
6600210;-0.08500;96.3750;138;78;0.78755
6600220;-0.07500;95.7500;138;78;0.79023
6600230;-0.06000;95.0625;138;78;0.79096
6600240;-0.02000;93.8125;138;78;0.78632
6600250;0.00000;93.1875;138;78;0.78144
6600260;0.02000;92.5625;138;78;0.77680
6600270;0.04000;92.0000;138;78;0.76996
6600280;0.07000;91.4375;138;78;0.76166
6600290;0.10500;90.3750;138;78;0.74090
6600300;0.09500;89.8750;138;78;0.72796
6600310;0.05000;89.4375;138;78;0.71380
6600320;0.02500;88.9375;138;78;0.69841
6600330;-0.02500;88.1250;138;78;0.66618
6600340;-0.06500;87.7500;138;78;0.65006
6600350;-0.09500;87.3750;138;78;0.63468
6600360;-0.10500;86.8125;138;78;0.60855
6600370;-0.11000;86.5000;138;78;0.59829
6600380;-0.11000;86.2500;138;78;0.58877
6600390;-0.10500;86.0000;138;78;0.58022
6600400;-0.11000;85.5625;138;78;0.56508
6600410;-0.09000;85.3125;138;78;0.55849
6600420;0.13000;85.1875;138;78;0.55214
6600430;0.79500;85.0000;138;78;0.54603
6600440;1.07000;84.8125;138;78;0.53993
6600450;0.43500;84.4375;138;78;0.52845
6600460;-0.12500;84.3125;138;78;0.52259
6600470;-0.26500;84.1250;138;78;0.51722
6600480;-0.22000;83.9375;138;78;0.51209
6600490;-0.20500;83.5625;138;78;0.50061
6600500;-0.20000;83.3125;138;78;0.49426
6600510;-0.20000;83.0000;138;78;0.48791
6600520;-0.19000;82.4375;138;78;0.48181
6600530;-0.18000;82.0625;138;78;0.46960
6600540;-0.18000;81.6875;138;78;0.46374
6600550;-0.17000;81.3125;138;78;0.45763
6600560;-0.16000;80.5625;138;78;0.44713
6600570;-0.15500;80.1875;138;78;0.44274
6600580;-0.14500;79.8125;138;78;0.43761
6600590;-0.13500;79.4375;138;78;0.43248
6600600;-0.12500;79.1250;138;78;0.42759
6600610;-0.11500;78.5000;138;78;0.41758
6600620;-0.10500;78.1875;138;78;0.41343
6600630;-0.09500;78.0000;138;78;0.40928
6600640;-0.08000;77.9375;138;78;0.40537
6600650;-0.07500;78.9375;138;78;0.39780
6600660;-0.05500;80.5625;138;78;0.39463
6600670;-0.04500;83.2500;138;78;0.39267
6600680;-0.03000;91.3750;138;78;0.38950
6600690;-0.01500;96.5000;138;78;0.38730
6600700;0.00500;102.0625;138;78;0.38510
6600710;0.02500;107.6875;138;78;0.38291
6600720;0.05000;113.2500;138;78;0.38095
6600730;0.07000;123.3125;138;78;0.37802
6600740;0.09500;127.5625;138;78;0.37680
6600750;0.12500;131.1250;138;78;0.37607
6600760;0.15000;134.0625;138;78;0.37534
6600770;0.17500;138.1875;138;78;0.37534
6600780;0.19500;139.3750;138;78;0.37534
6600790;0.20000;140.1875;138;78;0.37485
6600800;0.18500;140.6875;138;78;0.37436
6600810;0.13500;140.8750;138;78;0.37338
6600820;0.07500;140.6250;138;78;0.36459
6600830;0.03000;140.2500;138;78;0.35189
6600840;-0.02000;138.8750;138;78;0.34139
6600850;-0.05000;137.9375;138;78;0.33895
6600860;-0.07500;136.9375;138;78;0.33748
6600870;-0.09000;135.7500;138;78;0.33675
6600880;-0.10000;134.4375;138;78;0.33651
6600890;-0.10500;131.3750;138;78;0.33529
6600900;-0.11000;129.5625;138;78;0.33480
6600910;-0.11500;127.5625;138;78;0.33504
6600920;-0.11500;122.8750;138;78;0.34164
6600930;-0.11500;120.2500;138;78;0.35018
6600940;-0.11500;117.5625;138;78;0.36313
6600950;-0.10500;114.8125;138;78;0.38120
6600960;-0.10500;112.3125;138;78;0.40464
6600970;-0.10500;108.1875;138;78;0.45397
6600980;-0.10500;106.6250;138;78;0.48523
6600990;-0.10000;105.3750;138;78;0.51966
6601000;-0.10000;104.4375;137;78;0.55556
6601010;-0.10000;103.1875;137;78;0.62613
6601020;-0.09500;102.8750;137;78;0.65885
6601030;-0.09500;102.6875;137;78;0.68889
6601040;-0.09500;102.5000;137;78;0.71575
6601050;-0.09000;102.1875;137;78;0.76044
6601060;-0.09000;102.0000;137;78;0.77802
6601070;-0.09000;101.7500;137;78;0.79023
6601080;-0.09000;101.1250;137;78;0.80855
6601090;-0.09000;100.6875;137;78;0.81661
6601100;-0.08500;100.2500;137;78;0.82320
6601110;-0.08500;99.6875;137;78;0.82808
6601120;-0.08000;98.6250;137;78;0.83321
6601130;-0.07000;98.0000;137;78;0.83321
6601140;-0.04500;97.4375;137;78;0.83150
6601150;-0.01000;96.8125;137;78;0.82808
6601160;0.00500;96.1875;137;78;0.82271
6601170;0.01000;95.0000;137;78;0.80586
6601180;0.04000;94.4375;137;78;0.79512
6601190;0.07000;93.8750;137;78;0.78291
6601200;0.08000;92.7500;137;78;0.75458
6601210;0.06000;92.1875;137;78;0.73822
6601220;0.02000;91.6875;137;78;0.72063
6601230;-0.01000;91.1875;137;78;0.70281
6601240;-0.06000;90.6875;137;78;0.68474
6601250;-0.11000;89.8125;137;78;0.65055
6601260;-0.12500;89.4375;137;78;0.63492
6601270;-0.13000;89.0000;137;78;0.61880
6601280;-0.13000;88.3750;137;78;0.60586
6601290;-0.12000;88.0625;137;78;0.58755
6601300;-0.12000;87.7500;137;78;0.57900
6601310;-0.12500;87.4375;137;78;0.57118
6601320;-0.05500;86.9375;137;78;0.56435
6601330;0.34000;86.6875;137;78;0.55165
6601340;0.97500;86.5000;137;78;0.54554
6601350;1.02500;86.3125;137;78;0.53944
6601360;0.14500;85.9375;137;78;0.52796
6601370;-0.22000;85.7500;137;78;0.52259
6601380;-0.23000;85.5625;137;78;0.51697
6601390;-0.19000;85.3125;137;78;0.51111
6601400;-0.19500;85.0625;137;78;0.50525
6601410;-0.19500;84.6250;137;78;0.49353
6601420;-0.19500;84.3125;137;78;0.48742
6601430;-0.19000;84.0000;137;78;0.48132
6601440;-0.18000;83.3125;137;78;0.46886
6601450;-0.17500;83.0000;137;78;0.46252
6601460;-0.17000;82.6250;137;78;0.45690
6601470;-0.16000;82.3125;137;78;0.45177
6601480;-0.15500;81.9375;137;78;0.44640
6601490;-0.14500;81.2500;137;78;0.43516
6601500;-0.14000;80.8750;137;78;0.42955
6601510;-0.13500;80.5625;137;78;0.42393
6601520;-0.11500;80.0000;137;78;0.41343
6601530;-0.10500;79.7500;137;78;0.40855
6601540;-0.09500;79.6875;137;78;0.40366
6601550;-0.07500;79.9375;137;78;0.39951
6601560;-0.06500;80.7500;137;78;0.39560
6601570;-0.05500;85.2500;137;78;0.39048
6601580;-0.04000;89.0000;137;78;0.38755
6601590;-0.03000;93.5625;137;78;0.38462
6601600;-0.01500;104.3750;137;78;0.38169
6601610;0.00000;110.1250;137;78;0.37607
6601620;0.02000;115.8125;137;78;0.37338
6601630;0.04000;121.1250;137;78;0.37094
6601640;0.07000;125.9375;137;78;0.36874
6601650;0.09000;133.6250;137;78;0.36508
6601660;0.12500;136.5000;137;78;0.36410
6601670;0.15000;138.7500;137;78;0.36361
6601680;0.17500;140.5000;137;78;0.36313
6601690;0.19500;142.5000;137;78;0.36239
6601700;0.19000;143.0000;137;78;0.36239
6601710;0.16500;143.1875;137;78;0.36239
6601720;0.12000;143.1250;137;78;0.36239
6601730;0.06000;142.3750;137;78;0.36190
6601740;0.01000;141.6875;137;78;0.36166
6601750;-0.03500;140.8750;137;78;0.36093
6601760;-0.06500;138.8125;137;78;0.36020
6601770;-0.08500;137.5625;137;78;0.35995
6601780;-0.09500;136.1875;137;78;0.35971
6601790;-0.10500;134.6875;137;78;0.35946
6601800;-0.10500;134.6875;137;78;0.35946
6601810;-0.10500;129.0625;137;78;0.35995
6601820;-0.10000;126.8750;137;78;0.36239
6601830;-0.09500;124.3750;137;78;0.36728
6601840;-0.09500;121.6875;137;78;0.37607
6601850;-0.08500;115.8750;137;78;0.40757
6601860;-0.08500;113.0625;137;78;0.42735
6601870;-0.08000;110.5000;137;78;0.44933
6601880;-0.07500;108.3125;137;78;0.47790
6601890;-0.07000;105.0000;137;78;0.54530
6601900;-0.07000;103.8750;137;78;0.58120
6601910;-0.06500;103.0000;137;78;0.61636
6601920;-0.06500;102.1250;137;78;0.68230
6601930;-0.06000;101.9375;137;78;0.71184
6601940;-0.05500;101.8125;137;78;0.73846
6601950;-0.06000;101.6875;137;78;0.76215
6601960;-0.05500;101.5625;137;78;0.78291
6601970;-0.05500;101.1875;137;78;0.80855
6601980;-0.05500;100.8750;137;78;0.81978
6601990;-0.05500;100.5000;137;78;0.82979
6602000;-0.05500;100.0625;137;78;0.83834
6602010;-0.05500;99.0625;137;78;0.84908
6602020;-0.05500;98.5000;137;78;0.85153
6602030;-0.04000;97.9375;137;78;0.85201
6602040;-0.01500;96.6875;137;78;0.84762
6602050;0.01000;96.0625;137;78;0.84274
6602060;0.03000;95.3750;137;78;0.83590
6602070;0.04000;94.7500;137;78;0.82759
6602080;0.06500;93.4375;137;78;0.80659
6602090;0.09500;92.8125;137;78;0.79390
6602100;0.11000;92.1250;137;78;0.77949
6602110;0.07000;91.5000;137;78;0.76361
6602120;0.04000;90.9375;137;78;0.74603
6602130;0.00500;89.8125;137;78;0.70745
6602140;-0.05000;89.2500;137;78;0.68742
6602150;-0.08000;88.7500;137;78;0.66764
6602160;-0.09500;88.2500;137;78;0.64835
6602170;-0.10000;87.3125;137;78;0.61636
6602180;-0.10500;86.9375;137;78;0.60171
6602190;-0.10000;86.5000;137;78;0.58803
6602200;-0.10000;86.5000;137;78;0.58803
6602210;0.20000;133.0000;137;78;0.24884
6602220;0.20000;133.0000;137;78;0.24884
6602230;0.20000;133.0000;137;78;0.24884
6602240;0.20000;133.0000;137;78;0.24884
6602250;0.20000;133.0000;137;78;0.24884
6602260;0.20000;133.0000;137;78;0.24884
6602270;0.20000;133.0000;137;78;0.24884
6602280;0.20000;133.0000;137;78;0.24884
6602290;0.20000;133.0000;137;78;0.24884
6602300;0.20000;133.0000;137;78;0.24884
6602310;0.20000;133.0000;137;78;0.24884
6602320;0.20000;133.0000;137;78;0.24884
6602330;0.20000;133.0000;137;78;0.24884
6602340;0.20000;133.0000;137;78;0.24884
6602350;0.20000;133.0000;137;78;0.24884
6602360;0.20000;133.0000;137;78;0.24884
6602370;0.20000;133.0000;137;78;0.24884
6602380;-0.08500;123.5625;137;78;0.22589
6602390;-0.08500;123.5625;137;78;0.22589
6602400;-0.08500;123.5625;137;78;0.22589
6602410;-0.08500;123.5625;137;78;0.22589
6602420;-0.08500;123.5625;137;78;0.22589
6602430;-0.08500;123.5625;137;78;0.22589
6602440;-0.08500;123.5625;137;78;0.22589
6602450;-0.08500;123.5625;137;78;0.22589
6602460;-0.08500;123.5625;137;78;0.22589
6602470;-0.08500;123.5625;137;78;0.22589
6602480;-0.08500;123.5625;137;78;0.22589
6602490;-0.08500;123.5625;137;78;0.22589
6602500;-0.08500;123.5625;137;78;0.22589
6602510;-0.08500;123.5625;137;78;0.22589
6602520;-0.08500;123.5625;137;78;0.22589
6602530;-0.08500;123.5625;137;78;0.22589
6602540;-0.08500;123.5625;137;78;0.22589
6602550;-0.08500;123.5625;137;78;0.22589
6602560;-0.08500;123.5625;137;78;0.22589
6602570;-0.08500;123.5625;137;78;0.22589
6602580;-0.08500;123.5625;137;78;0.22589
6602590;-0.08500;123.5625;137;78;0.22589
6602600;-0.08500;123.5625;137;78;0.22589
6602610;-0.08500;123.5625;137;78;0.22589
6602620;-0.08500;123.5625;137;78;0.22589
6602630;-0.08500;123.5625;137;78;0.22589
6602640;-0.08500;123.5625;137;78;0.22589
6602650;-0.08500;123.5625;137;78;0.22589
6602660;-0.08500;123.5625;137;78;0.22589
6602670;-0.08500;123.5625;137;78;0.22589
6602680;-0.08500;123.5625;137;78;0.22589
6602690;-0.08500;123.5625;137;78;0.22589
6602700;-0.08500;123.5625;137;78;0.22589
6602710;-0.08500;121.5000;137;78;0.22540
6602720;-0.08500;116.8125;137;78;0.22711
6602730;-0.09000;114.1250;137;78;0.23053
6602740;-0.08500;111.2500;137;78;0.23687
6602750;-0.08000;108.3125;137;78;0.24689
6602760;-0.07500;102.8750;137;78;0.27839
6602770;-0.07500;100.7500;137;78;0.30647
6602780;-0.07500;99.1250;137;78;0.34505
6602790;-0.06500;97.8750;137;78;0.37338
6602800;-0.06500;97.8750;137;78;0.37338
6602810;-0.05500;96.1250;137;78;0.46032
6602820;-0.05500;96.0000;137;78;0.49377
6602830;-0.05500;96.0000;137;78;0.53236
6602840;-0.05500;96.0625;137;78;0.56532
6602850;-0.05500;96.1875;137;78;0.60879
6602860;-0.05500;96.1875;137;78;0.62589
6602870;-0.05500;96.0625;137;78;0.62344
6602880;-0.06000;95.6875;137;78;0.61221
6602890;-0.06500;95.3125;137;78;0.61416
6602900;-0.06500;94.9375;137;78;0.61880
6602910;-0.06500;94.5000;137;78;0.62173
6602920;-0.06000;94.0000;137;78;0.62320
6602930;-0.04500;92.9375;137;78;0.62198
6602940;-0.02500;92.3750;137;78;0.62051
6602950;0.00000;91.8750;137;78;0.61563
6602960;0.01500;90.7500;137;78;0.60098
6602970;0.03000;90.2500;137;78;0.59487
6602980;0.07000;89.6875;137;78;0.58584
6602990;0.09500;89.1875;137;78;0.57192
6603000;0.08000;88.6875;136;78;0.55775
6603010;0.03500;87.6875;136;78;0.53309
6603020;0.01000;87.2500;136;78;0.51380
6603030;-0.02500;86.8125;136;78;0.49621
6603040;-0.07000;85.9375;136;78;0.47985
6603050;-0.10000;85.5000;136;78;0.45201
6603060;-0.10500;85.1250;136;78;0.44151
6603070;-0.11000;84.7500;136;78;0.43126
6603080;-0.11000;84.3750;136;78;0.42173
6603090;-0.10500;83.6875;136;78;0.40610
6603100;-0.10500;83.3750;136;78;0.40000
6603110;-0.07500;83.1250;136;78;0.39463
6603120;0.13500;82.8125;136;78;0.39096
6603130;0.75000;82.3125;136;78;0.38291
6603140;1.00000;82.0625;136;78;0.37900
6603150;0.52500;81.8750;136;78;0.37534
6603160;-0.21000;81.3750;136;78;0.36996
6603170;-0.27000;81.1875;136;78;0.36679
6603180;-0.19000;80.9375;136;78;0.36337
6603190;-0.18000;80.6875;136;78;0.35971
6603200;-0.17000;80.5000;136;78;0.35556
6603210;-0.17000;80.0000;136;78;0.34774
6603220;-0.16000;79.7500;136;78;0.34359
6603230;-0.15500;79.4375;136;78;0.33944
6603240;-0.15500;78.8750;136;78;0.33529
6603250;-0.14500;78.5625;136;78;0.32821
6603260;-0.13500;78.2500;136;78;0.32576
6603270;-0.13000;77.8750;136;78;0.32259
6603280;-0.12000;77.1250;136;78;0.31551
6603290;-0.11500;76.8125;136;78;0.31160
6603300;-0.10500;76.5000;136;78;0.30794
6603310;-0.10000;76.1875;136;78;0.30427
6603320;-0.09500;75.9375;136;78;0.30061
6603330;-0.08500;75.3750;136;78;0.29280
6603340;-0.07000;75.2500;136;78;0.28913
6603350;-0.06000;75.2500;136;78;0.28669
6603360;-0.04500;75.7500;136;78;0.28449
6603370;-0.02500;78.7500;136;78;0.27912
6603380;-0.01500;81.5625;136;78;0.27619
6603390;0.00000;85.1875;136;78;0.27326
6603400;0.02000;94.3125;136;78;0.26789
6603410;0.04000;99.4375;136;78;0.26545
6603420;0.05500;104.6250;136;78;0.26325
6603430;0.08000;109.6875;136;78;0.26105
6603440;0.10500;114.3750;136;78;0.25885
6603450;0.13000;122.3125;136;78;0.25543
6603460;0.16000;125.3750;136;78;0.25470
6603470;0.19000;127.8750;136;78;0.25372
6603480;0.22000;131.0625;136;78;0.25201
6603490;0.22500;131.9375;136;78;0.25177
6603500;0.21000;132.4375;136;78;0.25153
6603510;0.17500;132.6250;136;78;0.25153
6603520;0.10500;132.0000;136;78;0.25153
6603530;0.06000;131.3125;136;78;0.25153
6603540;0.01000;130.5000;136;78;0.25153
6603550;-0.03500;129.4375;136;78;0.25201
6603560;-0.05000;128.2500;136;78;0.25299
6603570;-0.06500;125.3125;136;78;0.25446
6603580;-0.08000;123.6875;136;78;0.25495
6603590;-0.08500;121.8750;136;78;0.25543
6603600;-0.09000;119.9375;136;78;0.25592
6603610;-0.09500;115.5000;136;78;0.25861
6603620;-0.09500;113.0625;136;78;0.26154
6603630;-0.09500;110.5625;136;78;0.26642
6603640;-0.09000;105.5625;136;78;0.28547
6603650;-0.08500;103.3125;136;78;0.29817
6603660;-0.08000;101.5000;136;78;0.31355
6603670;-0.07500;99.9375;136;78;0.33358
6603680;-0.07500;98.7500;136;78;0.35751
6603690;-0.07500;97.1875;136;78;0.41221
6603700;-0.07000;96.7500;136;78;0.44127
6603710;-0.06500;96.5000;136;78;0.46984
6603720;-0.06500;96.3750;136;78;0.49695
6603730;-0.06500;96.3125;136;78;0.54432
6603740;-0.07000;96.2500;136;78;0.56435
6603750;-0.07500;96.1875;136;78;0.57949
6603760;-0.07500;96.0625;136;78;0.59145
6603770;-0.08000;95.5625;136;78;0.61294
6603780;-0.07500;95.2500;136;78;0.62125
6603790;-0.08000;94.8750;136;78;0.62759
6603800;-0.08000;94.8750;136;78;0.62759
6603810;-0.08500;93.5625;136;78;0.63687
6603820;-0.08000;93.0625;136;78;0.63687
6603830;-0.07000;92.5625;136;78;0.63516
6603840;-0.03500;91.3750;136;78;0.62637
6603850;-0.01500;90.8125;136;78;0.62002
6603860;-0.00500;90.2500;136;78;0.61245
6603870;0.01000;89.6875;136;78;0.60342
6603880;0.05000;88.6250;136;78;0.58120
6603890;0.07000;88.0625;136;78;0.56850
6603900;0.06000;87.5625;136;78;0.55482
6603910;0.01500;87.0625;136;78;0.54042
6603920;-0.00500;86.5625;136;78;0.52601
6603930;-0.05000;85.6250;136;78;0.49866
6603940;-0.09500;85.2500;136;78;0.48620
6603950;-0.12000;84.8125;136;78;0.47570
6603960;-0.12500;84.3750;136;78;0.46667
6603970;-0.13000;83.6250;136;78;0.44957
6603980;-0.12500;83.3125;136;78;0.44249
6603990;-0.12000;83.0000;136;78;0.43614
6604000;-0.11000;82.4375;136;78;0.42613
6604010;-0.08500;82.1250;136;78;0.42198
6604020;0.11000;81.9375;136;78;0.41783
6604030;0.72000;81.6875;136;78;0.41392
6604040;1.00000;81.5000;136;78;0.41001
6604050;0.50583;81.0625;136;78;0.40293
6604060;-0.13500;80.9375;136;78;0.40000
6604070;-0.29500;80.7500;136;78;0.39658
6604080;-0.23000;80.5625;136;78;0.39292
6604090;-0.19000;80.1250;136;78;0.38535
6604100;-0.19000;79.8750;136;78;0.38120
6604110;-0.18500;79.6875;136;78;0.37680
6604120;-0.18000;79.4375;136;78;0.37216
6604130;-0.17500;78.8750;136;78;0.36288
6604140;-0.17000;78.5625;136;78;0.35849
6604150;-0.16000;78.2500;136;78;0.35507
6604160;-0.15500;77.5625;136;78;0.34847
6604170;-0.15000;77.2500;136;78;0.34457
6604180;-0.14500;76.9375;136;78;0.34017
6604190;-0.13500;76.5625;136;78;0.33578
6604200;-0.12500;76.2500;136;78;0.33138
6604210;-0.11500;75.6250;136;78;0.32234
6604220;-0.10500;75.3125;136;78;0.31819
6604230;-0.09000;75.0625;136;78;0.31404
6604240;-0.08500;74.8750;136;78;0.31013
6604250;-0.07000;75.0625;136;78;0.30403
6604260;-0.05500;75.8750;136;78;0.30208
6604270;-0.04000;77.4375;136;78;0.29939
6604280;-0.02500;79.9375;136;78;0.29621
6604290;-0.01000;87.3750;136;78;0.29084
6604300;0.00500;92.0625;136;78;0.28816
6604310;0.02500;97.1250;136;78;0.28571
6604320;0.05000;107.5625;136;78;0.28132
6604330;0.07000;112.5000;136;78;0.27937
6604340;0.09000;117.0625;136;78;0.27766
6604350;0.12000;121.0625;136;78;0.27668
6604360;0.15000;127.2500;136;78;0.27521
6604370;0.17500;129.4375;136;78;0.27375
6604380;0.21000;131.0625;136;78;0.27253
6604390;0.22000;132.1875;136;78;0.27131
6604400;0.21500;133.2500;136;78;0.27033
6604410;0.18000;133.3125;136;78;0.26838
6604420;0.12000;133.0625;136;78;0.26764
6604430;0.07000;132.6250;136;78;0.26691
6604440;0.01500;131.9375;136;78;0.26642
6604450;-0.02500;130.0000;136;78;0.26642
6604460;-0.05500;128.7500;136;78;0.26716
6604470;-0.07000;127.3750;136;78;0.26764
6604480;-0.08500;125.8750;136;78;0.26789
6604490;-0.09500;122.4375;136;78;0.26789
6604500;-0.10000;120.4375;136;78;0.26813
6604510;-0.10000;118.2500;136;78;0.26862
6604520;-0.10500;113.3750;136;78;0.27375
6604530;-0.10500;110.8125;136;78;0.27985
6604540;-0.10000;108.1875;136;78;0.28938
6604550;-0.09500;105.6875;136;78;0.30037
6604560;-0.09000;103.3750;136;78;0.31404
6604570;-0.08500;99.8750;136;78;0.35458
6604580;-0.08000;98.6250;136;78;0.37998
6604590;-0.07500;97.6875;136;78;0.40781
6604600;-0.07000;96.6250;136;78;0.46520
6604610;-0.07000;96.3125;136;78;0.49304
6604620;-0.06500;96.1875;136;78;0.51941
6604630;-0.06500;96.1875;136;78;0.54383
6604640;-0.06500;96.1250;136;78;0.56581
6604650;-0.06000;96.0000;136;78;0.59951
6604660;-0.06000;95.8750;136;78;0.61050
6604670;-0.06500;95.6875;136;78;0.62125
6604680;-0.06500;95.1250;136;78;0.63834
6604690;-0.06500;94.7500;136;78;0.64420
6604700;-0.06500;94.3750;136;78;0.64860
6604710;-0.07000;93.9375;136;78;0.65104
6604720;-0.06500;92.9375;136;78;0.65128
6604730;-0.05500;92.3750;136;78;0.64884
6604740;-0.03500;91.8750;136;78;0.64493
6604750;-0.00500;91.3125;136;78;0.63956
6604760;0.01000;90.7500;136;78;0.63297
6604770;0.03000;89.6875;136;78;0.61563
6604780;0.05000;89.1250;136;78;0.60488
6604790;0.09000;88.5625;136;78;0.59292
6604800;0.09000;88.5625;136;78;0.59292
6604810;0.05500;87.0625;136;78;0.55043
6604820;0.02000;86.5625;136;78;0.53529
6604830;-0.01000;86.1250;136;78;0.52039
6604840;-0.06500;85.2500;136;78;0.49304
6604850;-0.09000;84.8125;136;78;0.48205
6604860;-0.10500;84.4375;136;78;0.47253
6604870;-0.10500;84.0625;136;78;0.46349
6604880;-0.10500;83.6875;136;78;0.45543
6604890;-0.10000;83.0000;136;78;0.44176
6604900;-0.09500;82.7500;136;78;0.43639
6604910;-0.07500;82.5000;136;78;0.44200
6604920;0.06000;82.2500;136;78;0.45275
6604930;0.61000;81.7500;136;78;0.45495
6604940;0.96500;81.5625;136;78;0.45201
6604950;0.75500;81.3750;136;78;0.44884
6604960;-0.09500;81.0000;136;78;0.44103
6604970;-0.28000;80.8125;136;78;0.43639
6604980;-0.22000;80.6250;136;78;0.43150
6604990;-0.18000;80.4375;136;78;0.42662
6605000;-0.18000;80.1875;137;78;0.42173
6605010;-0.18000;79.6875;137;78;0.41148
6605020;-0.17500;79.4375;137;78;0.40635
6605030;-0.17000;79.1250;137;78;0.40122
6605040;-0.17000;78.8125;137;78;0.39634
6605050;-0.16000;78.1875;137;78;0.38681
6605060;-0.15500;77.8125;137;78;0.38315
6605070;-0.14500;77.5000;137;78;0.37875
6605080;-0.14000;76.8125;137;78;0.36874
6605090;-0.13500;76.4375;137;78;0.36337
6605100;-0.12500;76.1250;137;78;0.35800
6605110;-0.11500;75.8125;137;78;0.35287
6605120;-0.10000;75.5625;137;78;0.34774
6605130;-0.08500;75.0000;137;78;0.33773
6605140;-0.07500;74.8750;137;78;0.33284
6605150;-0.06500;75.0000;137;78;0.32943
6605160;-0.04500;76.8750;137;78;0.32357
6605170;-0.03500;79.0625;137;78;0.32015
6605180;-0.02500;82.1875;137;78;0.31648
6605190;-0.00500;86.1250;137;78;0.31258
6605200;0.01000;90.6875;137;78;0.30867
6605210;0.03000;101.0625;137;78;0.30159
6605220;0.04500;106.3750;137;78;0.29866
6605230;0.06500;111.5625;137;78;0.29573
6605240;0.09000;120.6250;137;78;0.29206
6605250;0.11000;124.3125;137;78;0.29158
6605260;0.13000;127.3125;137;78;0.29035
6605270;0.16000;129.7500;137;78;0.28913
6605280;0.19500;133.0000;137;78;0.28620
6605290;0.20500;134.0000;137;78;0.28498
6605300;0.20000;134.5625;137;78;0.28400
6605310;0.16500;134.7500;137;78;0.28327
6605320;0.12000;134.7500;137;78;0.28303
6605330;0.07000;133.8750;137;78;0.28278
6605340;0.01000;133.1875;137;78;0.28278
6605350;-0.02500;132.3125;137;78;0.28327
6605360;-0.05500;131.2500;137;78;0.28425
6605370;-0.07500;128.6250;137;78;0.28449
6605380;-0.09000;127.1250;137;78;0.28449
6605390;-0.10000;125.4375;137;78;0.28449
6605400;-0.10500;123.6250;137;78;0.28449
6605410;-0.10500;119.4375;137;78;0.28547
6605420;-0.10500;117.1250;137;78;0.28840
6605430;-0.11000;114.5625;137;78;0.29402
6605440;-0.11000;109.3125;137;78;0.30354
6605450;-0.10500;106.7500;137;78;0.33065
6605460;-0.10000;104.5000;137;78;0.35165
6605470;-0.09500;102.5625;137;78;0.37778
6605480;-0.09000;99.8125;137;78;0.44151
6605490;-0.08500;98.9375;137;78;0.47717
6605500;-0.08500;98.2500;137;78;0.51331
6605510;-0.08000;97.8750;137;78;0.54847
6605520;-0.07500;97.5625;137;78;0.58193
6605530;-0.07500;97.3125;137;78;0.64151
6605540;-0.07000;97.2500;137;78;0.66667
6605550;-0.07000;97.1875;137;78;0.68547
6605560;-0.06500;97.0625;137;78;0.70037
6605570;-0.07000;96.6250;137;78;0.72869
6605580;-0.07000;96.2500;137;78;0.74042
6605590;-0.07500;95.9375;137;78;0.74994
6605600;-0.07000;95.0625;137;78;0.76215
6605610;-0.07000;94.5625;137;78;0.76508
6605620;-0.07000;94.0000;137;78;0.76557
6605630;-0.05500;93.4375;137;78;0.76435
6605640;-0.03500;92.9375;137;78;0.76117
6605650;-0.01000;91.8125;137;78;0.74945
6605660;0.00000;91.2500;137;78;0.74164
6605670;0.01000;90.6875;137;78;0.73187
6605680;0.03500;89.5625;137;78;0.72039
6605690;0.07500;89.0000;137;78;0.69182
6605700;0.07000;88.5000;137;78;0.67521
6605710;0.04000;88.0000;137;78;0.65763
6605720;-0.00500;87.0625;137;78;0.62149
6605730;-0.03000;86.6250;137;78;0.60391
6605740;-0.07500;86.2500;137;78;0.58730
6605750;-0.11000;85.8125;137;78;0.57314
6605760;-0.12500;85.0625;137;78;0.54799
6605770;-0.12500;84.6875;137;78;0.53626
6605780;-0.12000;84.3750;137;78;0.52552
6605790;-0.11000;84.1250;137;78;0.51575
6605800;-0.11000;84.1250;137;78;0.51575
6605810;-0.08000;83.3750;137;78;0.49255
6605820;0.10000;83.1250;137;78;0.48645
6605830;0.48000;82.9375;137;78;0.48059
6605840;1.03500;82.5625;137;78;0.47057
6605850;0.79500;82.3750;137;78;0.46667
6605860;0.04000;82.1875;137;78;0.46203
6605870;-0.29500;82.0000;137;78;0.45714
6605880;-0.24000;81.8125;137;78;0.45201
6605890;-0.19500;81.4375;137;78;0.44151
6605900;-0.18500;81.1875;137;78;0.43614
6605910;-0.18000;81.0000;137;78;0.43077
6605920;-0.17000;80.7500;137;78;0.42515
6605930;-0.16500;80.2500;137;78;0.41441
6605940;-0.16000;79.9375;137;78;0.40879
6605950;-0.16000;79.6250;137;78;0.40415
6605960;-0.15000;78.9375;137;78;0.39487
6605970;-0.14500;78.6250;137;78;0.38950
6605980;-0.14000;78.3125;137;78;0.38388
6605990;-0.13500;77.9375;137;78;0.37802
6606000;-0.12500;77.6250;137;78;0.37241
6606010;-0.12000;77.0000;137;78;0.36239
6606020;-0.10500;76.7500;137;78;0.35775
6606030;-0.10000;76.5000;137;78;0.35311
6606040;-0.08500;76.4375;137;78;0.34530
6606050;-0.07000;76.9375;137;78;0.34261
6606060;-0.05500;78.0625;137;78;0.33919
6606070;-0.03500;80.0625;137;78;0.33553
6606080;-0.02500;83.0000;137;78;0.33187
6606090;-0.01000;91.4375;137;78;0.32527
6606100;0.00500;96.5000;137;78;0.32210
6606110;0.02500;101.8125;137;78;0.31917
6606120;0.05000;112.6250;137;78;0.31404
6606130;0.06500;117.6250;137;78;0.31160
6606140;0.09000;122.1250;137;78;0.30940
6606150;0.11000;126.0625;137;78;0.30818
6606160;0.14500;131.9375;137;78;0.30598
6606170;0.16500;134.0000;137;78;0.30452
6606180;0.19000;135.5625;137;78;0.30330
6606190;0.20500;136.6250;137;78;0.30232
6606200;0.19500;137.3125;137;78;0.30159
6606210;0.15500;137.7500;137;78;0.30085
6606220;0.12000;137.5625;137;78;0.30061
6606230;0.06000;137.1875;137;78;0.30037
6606240;0.00000;135.8750;137;78;0.30085
6606250;-0.03000;134.9375;137;78;0.30159
6606260;-0.05500;133.8750;137;78;0.30208
6606270;-0.08000;132.6875;137;78;0.30232
6606280;-0.09000;131.3125;137;78;0.30232
6606290;-0.10000;128.1875;137;78;0.30208
6606300;-0.11000;126.3750;137;78;0.30232
6606310;-0.11500;124.4375;137;78;0.30330
6606320;-0.11500;119.8125;137;78;0.30623
6606330;-0.11500;117.1875;137;78;0.32112
6606340;-0.11500;114.4375;137;78;0.33480
6606350;-0.11500;111.5625;137;78;0.35043
6606360;-0.11000;106.3125;137;78;0.39341
6606370;-0.10500;104.2500;137;78;0.42295
6606380;-0.10500;102.6250;137;78;0.45641
6606390;-0.10000;101.3750;137;78;0.49206
6606400;-0.09500;100.4375;137;78;0.52869
6606410;-0.09000;99.4375;137;78;0.60024
6606420;-0.08500;99.2500;137;78;0.63321
6606430;-0.08500;99.1250;137;78;0.66349
6606440;-0.09000;99.1250;137;78;0.69084
6606450;-0.09000;99.1250;137;78;0.72796
6606460;-0.08500;99.0625;137;78;0.74457
6606470;-0.08500;98.9375;137;78;0.75971
6606480;-0.08000;98.4375;137;78;0.78437
6606490;-0.08000;98.0625;137;78;0.79341
6606500;-0.08000;97.6875;137;78;0.80024
6606510;-0.08000;97.2500;137;78;0.80513
6606520;-0.07500;96.7500;137;78;0.80806
6606530;-0.07000;95.6875;137;78;0.80806
6606540;-0.03500;95.1875;137;78;0.80537
6606550;-0.01000;94.6250;137;78;0.80049
6606560;0.01000;93.5000;137;78;0.79414
6606570;0.02500;93.0000;137;78;0.77753
6606580;0.04500;92.5000;137;78;0.76654
6606590;0.07500;92.0000;137;78;0.75385
6606600;0.08500;91.5000;137;78;0.73919
6606610;0.06000;90.5000;137;78;0.70574
6606620;0.03000;90.0625;137;78;0.68718
6606630;0.00000;89.6250;137;78;0.66813
6606640;-0.05500;89.1875;137;78;0.64933
6606650;-0.09500;88.3750;137;78;0.61783
6606660;-0.12000;87.9375;137;78;0.60317
6606670;-0.13000;87.5000;137;78;0.58950
6606680;-0.13500;87.1875;137;78;0.57729
6606690;-0.13000;86.5000;137;78;0.55800
6606700;-0.12500;86.1875;137;78;0.55067
6606710;-0.12500;85.8750;137;78;0.54408
6606720;-0.03500;85.6250;137;78;0.53822
6606730;0.47500;85.1875;137;78;0.52772
6606740;0.95000;84.9375;137;78;0.52308
6606750;1.00000;84.6875;137;78;0.51893
6606760;0.10500;84.1875;137;78;0.51013
6606770;-0.24000;84.0000;137;78;0.50574
6606780;-0.24000;83.8125;137;78;0.50110
6606790;-0.20000;83.6250;137;78;0.49646
6606800;-0.20000;83.6250;137;78;0.49646
6606810;-0.19500;82.8125;137;78;0.48254
6606820;-0.19000;82.5625;137;78;0.47814
6606830;-0.18500;82.2500;137;78;0.47375
6606840;-0.18000;81.9375;137;78;0.46935
6606850;-0.17500;81.3125;137;78;0.46203
6606860;-0.17000;81.0000;137;78;0.45812
6606870;-0.16500;80.6250;137;78;0.45372
6606880;-0.15500;80.3125;137;78;0.44957
6606890;-0.15000;79.6250;137;78;0.44103
6606900;-0.14500;79.3125;137;78;0.43687
6606910;-0.13500;79.0000;137;78;0.43272
6606920;-0.12500;78.7500;137;78;0.42833
6606930;-0.11500;78.3125;137;78;0.41978
6606940;-0.10500;78.3125;137;78;0.41661
6606950;-0.09000;78.6875;137;78;0.41392
6606960;-0.07500;79.7500;137;78;0.40098
6606970;-0.06000;84.5000;137;78;0.37265
6606980;-0.05000;88.3750;137;78;0.36606
6606990;-0.03500;93.0000;137;78;0.36142
6607000;-0.01000;103.8125;137;78;0.35458
6607010;0.00000;109.5000;137;78;0.35189
6607020;0.04000;115.0000;137;78;0.34921
6607030;0.07500;120.2500;137;78;0.34701
6607040;0.07500;129.0625;137;78;0.34481
6607050;0.09000;132.5625;137;78;0.34237
6607060;0.11000;135.3750;137;78;0.34115
6607070;0.14000;137.5625;137;78;0.34017
6607080;0.17500;140.3750;137;78;0.33846
6607090;0.19000;141.1875;137;78;0.33773
6607100;0.19000;141.6250;137;78;0.33700
6607110;0.15500;141.7500;137;78;0.33626
6607120;0.12000;141.6875;137;78;0.33553
6607130;0.06500;141.0000;137;78;0.33480
6607140;0.00000;140.4375;137;78;0.33480
6607150;-0.03500;139.7500;137;78;0.33504
6607160;-0.06000;138.8750;137;78;0.33504
6607170;-0.08000;136.8125;137;78;0.33431
6607180;-0.09500;135.5625;137;78;0.33382
6607190;-0.11000;134.1250;137;78;0.33358
6607200;-0.11500;132.6250;137;78;0.33382
6607210;-0.11500;128.8750;137;78;0.33724
6607220;-0.11500;126.6875;137;78;0.34164
6607230;-0.11500;124.2500;137;78;0.34896
6607240;-0.11500;121.5625;137;78;0.35995
6607250;-0.11000;115.7500;137;78;0.38828
6607260;-0.10500;112.8750;137;78;0.41026
6607270;-0.10000;110.1875;137;78;0.43712
6607280;-0.09500;106.1250;137;78;0.46764
6607290;-0.09500;104.7500;137;78;0.53455
6607300;-0.09500;103.7500;137;78;0.56850
6607310;-0.09500;103.0625;137;78;0.60122
6607320;-0.09000;102.4375;137;78;0.65934
6607330;-0.08500;102.3750;137;78;0.68425
6607340;-0.08500;102.3750;137;78;0.70305
6607350;-0.08500;102.3750;137;78;0.71770
6607360;-0.08500;102.3125;137;78;0.73260
6607370;-0.08500;102.0625;137;78;0.75873
6607380;-0.08500;101.8125;137;78;0.76899
6607390;-0.08500;101.4375;137;78;0.77729
6607400;-0.08500;101.0625;137;78;0.78364
6607410;-0.08000;100.0625;137;78;0.79121
6607420;-0.07500;99.5625;137;78;0.79267
6607430;-0.06500;98.9375;137;78;0.79243
6607440;-0.04000;97.7500;137;78;0.78706
6607450;-0.01500;97.1250;137;78;0.78168
6607460;0.01500;96.5625;137;78;0.77582
6607470;0.02000;95.9375;137;78;0.76850
6607480;0.03500;95.3750;137;78;0.75946
6607490;0.07000;94.3125;137;78;0.73675
6607500;0.08500;93.7500;137;78;0.72283
6607510;0.07000;93.2500;137;78;0.70745
6607520;0.04500;92.7500;137;78;0.69060
6607530;0.00000;91.7500;137;78;0.65495
6607540;-0.03500;91.3125;137;78;0.63858
6607550;-0.08500;90.8750;137;78;0.62344
6607560;-0.11500;90.0625;137;78;0.59365
6607570;-0.11500;89.6875;137;78;0.58046
6607580;-0.11500;89.3125;137;78;0.56874
6607590;-0.11000;89.0000;137;78;0.55849
6607600;-0.10500;88.4375;137;78;0.54164
6607610;-0.11000;88.1250;137;78;0.53480
6607620;-0.06000;87.8750;137;78;0.52869
6607630;0.18500;87.6875;137;78;0.52308
6607640;0.80500;87.5000;137;78;0.51746
6607650;1.17000;87.1250;137;78;0.50720
6607660;0.40500;86.9375;137;78;0.50232
6607670;-0.14500;86.6875;137;78;0.49719
6607680;-0.25000;86.5000;137;78;0.49182
6607690;-0.20500;86.0625;137;78;0.48059
6607700;-0.21000;85.8750;137;78;0.47521
6607710;-0.21000;85.6250;137;78;0.47009
6607720;-0.21000;85.0000;137;78;0.45958
6607730;-0.20000;84.6875;137;78;0.45421
6607740;-0.20000;84.3125;137;78;0.44933
6607750;-0.19000;83.9375;137;78;0.44493
6607760;-0.17500;83.0625;137;78;0.43541
6607770;-0.17000;82.6250;137;78;0.43053
6607780;-0.16000;82.1875;137;78;0.42589
6607790;-0.15500;81.7500;137;78;0.42125
6607800;-0.15500;81.7500;137;78;0.42125
6607810;-0.12000;80.3750;137;78;0.40781
6607820;-0.10500;80.0000;137;78;0.40366
6607830;-0.09500;79.5625;137;78;0.39951
6607840;-0.08000;79.1875;137;78;0.39560
6607850;-0.06500;79.5625;137;78;0.38999
6607860;-0.05000;80.5625;137;78;0.38755
6607870;-0.03500;82.4375;137;78;0.38486
6607880;-0.02000;89.3125;137;78;0.37998
6607890;-0.00500;94.0000;137;78;0.37778
6607900;0.01500;99.1875;137;78;0.37558
6607910;0.03000;104.7500;137;78;0.37363
6607920;0.05000;115.8750;137;78;0.36947
6607930;0.07000;121.0000;137;78;0.36777
6607940;0.09000;125.6250;137;78;0.36679
6607950;0.11500;129.5625;137;78;0.36606
6607960;0.13500;132.9375;137;78;0.36532
6607970;0.15500;137.6875;137;78;0.36337
6607980;0.18500;139.3125;137;78;0.36239
6607990;0.21000;140.4375;137;78;0.36166
6608000;0.20500;141.1875;136;77;0.36142
6608010;0.18000;141.7500;136;77;0.36093
6608020;0.14500;141.6250;136;77;0.36068
6608030;0.10000;141.3750;136;77;0.36044
6608040;0.03500;140.3125;136;77;0.35995
6608050;0.00000;139.5625;136;77;0.35995
6608060;-0.00500;138.6250;136;77;0.35946
6608070;0.00000;137.6250;136;77;0.35849
6608080;-0.01000;136.5000;136;77;0.35726
6608090;-0.05500;133.6875;136;77;0.35409
6608100;-0.09500;132.0000;136;77;0.35263
6608110;-0.10000;130.1250;136;77;0.35189
6608120;-0.10000;125.7500;136;77;0.35531
6608130;-0.10000;123.1875;136;77;0.36166
6608140;-0.10000;120.3750;136;77;0.37021
6608150;-0.09500;117.3125;136;77;0.38169
6608160;-0.09000;114.1250;136;77;0.39829
6608170;-0.08500;108.0000;136;77;0.44615
6608180;-0.07000;105.4375;136;77;0.47546
6608190;-0.06500;103.3125;136;77;0.50647
6608200;-0.06000;100.6250;136;77;0.56947
6608210;-0.05500;99.8750;136;77;0.59927
6608220;-0.05500;99.3750;136;77;0.62686
6608230;-0.05500;99.1875;136;77;0.65201
6608240;-0.05000;99.1250;136;77;0.67448
6608250;-0.05000;99.3125;136;77;0.70403
6608260;-0.05000;99.3750;136;77;0.71648
6608270;-0.05500;99.3750;136;77;0.72772
6608280;-0.05500;99.3125;136;77;0.73700
6608290;-0.05000;98.8750;136;77;0.75043
6608300;-0.04500;98.5625;136;77;0.75458
6608310;-0.05000;98.1875;136;77;0.75702
6608320;-0.04500;97.7500;136;77;0.75775
6608330;-0.03000;96.6875;136;77;0.75360
6608340;-0.01000;96.1875;136;77;0.74872
6608350;0.01500;95.6250;136;77;0.74237
6608360;0.02500;94.4375;136;77;0.72650
6608370;0.04000;93.8125;136;77;0.71600
6608380;0.07000;93.1875;136;77;0.70379
6608390;0.09000;92.6250;136;77;0.68987
6608400;0.07000;92.0000;136;77;0.67424
6608410;0.03000;90.8750;136;77;0.63810
6608420;0.00000;90.3125;136;77;0.61807
6608430;-0.03500;89.7500;136;77;0.59707
6608440;-0.09000;88.7500;136;77;0.55653
6608450;-0.10500;88.2500;136;77;0.53919
6608460;-0.11500;87.8125;136;77;0.52112
6608470;-0.11500;87.3750;136;77;0.50330
6608480;-0.11500;86.9375;136;77;0.48669
6608490;-0.11000;86.1875;136;77;0.45861
6608500;-0.11000;85.8750;136;77;0.44713
6608510;-0.08500;85.5625;136;77;0.43712
6608520;0.24500;85.0000;136;77;0.42076
6608530;0.69500;84.7500;136;77;0.41392
6608540;1.00000;84.5000;136;77;0.40830
6608550;0.32500;84.2500;136;77;0.40342
6608560;-0.24000;83.8125;136;77;0.39292
6608570;-0.26000;83.5625;136;77;0.38730
6608580;-0.19000;83.3125;136;77;0.38169
6608590;-0.16000;83.0625;136;77;0.37607
6608600;-0.15500;82.5625;136;77;0.36361
6608610;-0.15000;82.2500;136;77;0.35726
6608620;-0.14500;81.9375;136;77;0.35092
6608630;-0.13500;81.6250;136;77;0.34481
6608640;-0.13500;81.2500;136;77;0.33871
6608650;-0.12500;80.5625;136;77;0.33016
6608660;-0.11917;80.1875;136;77;0.32527
6608670;-0.11500;79.8750;136;77;0.31966
6608680;-0.11000;79.1875;136;77;0.30769
6608690;-0.10500;78.8750;136;77;0.30159
6608700;-0.09500;78.5000;136;77;0.29524
6608710;-0.08000;78.1875;136;77;0.28889
6608720;-0.07000;77.8750;136;77;0.28303
6608730;-0.06000;77.3750;136;77;0.27155
6608740;-0.04500;77.2500;136;77;0.26764
6608750;-0.03500;77.4375;136;77;0.26471
6608760;-0.02000;79.4375;136;77;0.26105
6608770;-0.00500;81.6875;136;77;0.25299
6608780;0.00500;84.8125;136;77;0.24908
6608790;0.02000;88.7500;136;77;0.24518
6608800;0.02000;88.7500;136;77;0.24518
6608810;0.06000;103.4375;136;77;0.23394
6608820;0.09000;108.6875;136;77;0.23053
6608830;0.10000;113.6875;136;77;0.22759
6608840;0.12500;122.5000;136;77;0.22491
6608850;0.14000;126.0000;136;77;0.22320
6608860;0.16500;128.8125;136;77;0.22149
6608870;0.20500;131.0000;136;77;0.22002
6608880;0.22500;132.6875;136;77;0.21880
6608890;0.23500;134.5625;136;77;0.21661
6608900;0.22000;134.8750;136;77;0.21563
6608910;0.18500;134.9375;136;77;0.21465
6608920;0.11500;134.1875;136;77;0.21294
6608930;0.07000;133.5000;136;77;0.21245
6608940;0.02000;132.6875;136;77;0.21319
6608950;-0.01500;131.6875;136;77;0.21441
6608960;-0.03500;130.5000;136;77;0.21514
6608970;-0.05500;127.5625;136;77;0.21563
6608980;-0.07500;125.9375;136;77;0.21612
6608990;-0.07500;124.1250;136;77;0.21661
6609000;-0.08000;122.1250;136;77;0.21734
6609010;-0.07500;117.5625;136;77;0.24298
6609020;-0.08000;115.0000;136;77;0.25299
6609030;-0.08000;112.3125;136;77;0.26178
6609040;-0.08500;106.9375;136;77;0.28107
6609050;-0.08500;104.5625;136;77;0.29475
6609060;-0.08500;102.5625;136;77;0.31209
6609070;-0.08500;101.0000;136;77;0.33333
6609080;-0.09500;99.7500;136;77;0.35751
6609090;-0.10500;98.2500;136;77;0.41172
6609100;-0.09500;97.8125;136;77;0.43956
6609110;-0.09500;97.5625;136;77;0.46691
6609120;-0.08500;97.5000;136;77;0.51648
6609130;-0.08500;97.5000;136;77;0.53773
6609140;-0.08000;97.5000;136;77;0.55433
6609150;-0.07500;97.4375;136;77;0.56752
6609160;-0.07500;97.1250;136;77;0.59219
6609170;-0.07500;96.8750;136;77;0.60220
6609180;-0.08000;96.5625;136;77;0.61050
6609190;-0.08000;96.1250;136;77;0.61685
6609200;-0.07500;95.2500;136;77;0.62149
6609210;-0.07500;94.7500;136;77;0.62564
6609220;-0.07000;94.1875;136;77;0.62515
6609230;-0.05500;93.6250;136;77;0.62320
6609240;-0.02500;92.4375;136;77;0.61538
6609250;-0.00500;91.8750;136;77;0.60952
6609260;0.01000;91.3125;136;77;0.60220
6609270;0.03000;90.7500;136;77;0.59341
6609280;0.06000;90.1875;136;77;0.58315
6609290;0.09000;89.1250;136;77;0.55849
6609300;0.09000;88.5625;136;77;0.54481
6609310;0.05000;88.0625;136;77;0.53040
6609320;0.01500;87.5625;136;77;0.51575
6609330;-0.02500;86.6875;136;77;0.48742
6609340;-0.06000;86.2500;136;77;0.47546
6609350;-0.09500;85.8750;136;77;0.46520
6609360;-0.11000;85.1250;136;77;0.44615
6609370;-0.11500;84.8125;136;77;0.43810
6609380;-0.11500;84.5000;136;77;0.43101
6609390;-0.11000;84.1875;136;77;0.42491
6609400;-0.11000;83.9375;136;77;0.41978
6609410;-0.09500;83.4375;136;77;0.41074
6609420;0.14500;83.1250;136;77;0.40684
6609430;0.53500;82.9375;136;77;0.40293
6609440;0.97500;82.6875;136;77;0.39976
6609450;0.50500;82.2500;136;77;0.39365
6609460;-0.07500;82.0625;136;77;0.39023
6609470;-0.28000;81.8750;136;77;0.38681
6609480;-0.21000;81.6875;136;77;0.38315
6609490;-0.17500;81.1875;136;77;0.37558
6609500;-0.17000;80.8750;136;77;0.37167
6609510;-0.17000;80.6250;136;77;0.36777
6609520;-0.16000;80.3750;136;77;0.36386
6609530;-0.16000;79.8750;136;77;0.35531
6609540;-0.15500;79.5625;136;77;0.35165
6609550;-0.15500;79.2500;136;77;0.34847
6609560;-0.15000;78.9375;136;77;0.34457
6609570;-0.14500;78.2500;136;77;0.33578
6609580;-0.14500;77.9375;136;77;0.33162
6609590;-0.13500;77.5625;136;77;0.32747
6609600;-0.12500;77.0000;136;77;0.32332
6609610;-0.11500;76.6875;136;77;0.31551
6609620;-0.10500;76.3750;136;77;0.31184
6609630;-0.09500;76.1250;136;77;0.30818
6609640;-0.08500;75.9375;136;77;0.30379
6609650;-0.07500;76.3125;136;77;0.30134
6609660;-0.05500;77.2500;136;77;0.29841
6609670;-0.03500;79.0625;136;77;0.29548
6609680;-0.02000;81.6875;136;77;0.29255
6609690;0.00000;89.3125;136;77;0.28669
6609700;0.01500;94.0625;136;77;0.28400
6609710;0.04000;99.1250;136;77;0.28132
6609720;0.05000;104.3125;136;77;0.27888
6609730;0.07500;114.3125;136;77;0.27473
6609740;0.09000;118.7500;136;77;0.27375
6609750;0.11000;122.6250;136;77;0.27326
6609760;0.14000;125.8750;136;77;0.27228
6609770;0.16500;130.4375;136;77;0.27082
6609780;0.19000;131.8750;136;77;0.27033
6609790;0.20500;132.8750;136;77;0.26984
6609800;0.19000;133.6875;136;77;0.26911
6609810;0.16000;133.6250;136;77;0.26886
6609820;0.11000;133.3125;136;77;0.26886
6609830;0.04000;132.6875;136;77;0.26911
6609840;-0.00500;130.9375;136;77;0.27106
6609850;-0.03500;129.8125;136;77;0.27155
6609860;-0.06500;128.5625;136;77;0.27179
6609870;-0.08500;127.0625;136;77;0.27204
6609880;-0.09500;125.5000;136;77;0.27228
6609890;-0.10500;121.7500;136;77;0.27253
6609900;-0.11500;119.6875;136;77;0.27302
6609910;-0.11500;117.4375;136;77;0.27399
6609920;-0.11500;115.0000;136;77;0.27595
6609930;-0.11500;109.7500;136;77;0.28571
6609940;-0.10500;107.1250;136;77;0.29377
6609950;-0.10500;104.6875;136;77;0.30427
6609960;-0.10000;100.7500;136;77;0.33748
6609970;-0.09500;99.3750;136;77;0.35995
6609980;-0.09000;98.3750;136;77;0.38510
6609990;-0.08500;97.6250;136;77;0.41221
6610000;-0.08000;97.1250;136;77;0.44029
6610010;-0.07500;96.6875;136;77;0.49573
6610020;-0.07000;96.6250;136;77;0.52161
6610030;-0.06500;96.6250;136;77;0.54530
6610040;-0.06000;96.6250;136;77;0.56410
6610050;-0.06500;96.5000;136;77;0.59487
6610060;-0.06500;96.3750;136;77;0.60879
6610070;-0.06500;96.1250;136;77;0.62051
6610080;-0.06500;95.5000;136;77;0.63785
6610090;-0.06500;95.1250;136;77;0.64347
6610100;-0.06500;94.6875;136;77;0.64737
6610110;-0.07000;94.1875;136;77;0.64933
6610120;-0.06500;93.1875;136;77;0.64835
6610130;-0.05000;92.6875;136;77;0.64567
6610140;-0.02500;92.1250;136;77;0.64127
6610150;0.00000;91.5625;136;77;0.63565
6610160;0.01000;90.4375;136;77;0.62100
6610170;0.02000;89.8750;136;77;0.61172
6610180;0.06000;89.3750;136;77;0.60098
6610190;0.09000;88.8125;136;77;0.58901
6610200;0.08000;88.3125;136;77;0.57607
6610210;0.04000;87.4375;136;77;0.54750
6610220;0.00000;87.0000;136;77;0.53284
6610230;-0.03000;86.5625;136;77;0.51868
6610240;-0.07500;86.1250;136;77;0.50647
6610250;-0.10500;85.3125;136;77;0.48498
6610260;-0.11500;84.9375;136;77;0.47473
6610270;-0.12500;84.6250;136;77;0.46545
6610280;-0.12500;84.0000;136;77;0.45031
6610290;-0.12500;83.6875;136;77;0.44420
6610300;-0.11500;83.3750;136;77;0.43907
6610310;-0.08500;83.1250;136;77;0.43443
6610320;0.09000;82.8750;136;77;0.43028
6610330;0.58000;82.4375;136;77;0.42222
6610340;0.96000;82.1875;136;77;0.41905
6610350;0.58000;82.0000;136;77;0.41636
6610360;-0.12500;81.7500;136;77;0.41319
6610370;-0.28500;81.3750;136;77;0.40562
6610380;-0.21000;81.1875;136;77;0.40171
6610390;-0.19000;80.9375;136;77;0.39780
6610400;-0.18000;80.5000;136;77;0.39414
6610410;-0.17500;80.1875;136;77;0.38608
6610420;-0.16500;79.9375;136;77;0.38193
6610430;-0.16000;79.6250;136;77;0.37753
6610440;-0.15500;79.0000;136;77;0.37045
6610450;-0.15000;78.6875;136;77;0.36654
6610460;-0.14500;78.3125;136;77;0.36264
6610470;-0.14000;78.0000;136;77;0.35873
6610480;-0.13500;77.6250;136;77;0.35482
6610490;-0.13000;76.9375;136;77;0.34725
6610500;-0.11500;76.6250;136;77;0.34335
6610510;-0.10500;76.3125;136;77;0.33968
6610520;-0.09500;76.0625;136;77;0.33602
6610530;-0.09000;75.6250;136;77;0.32918
6610540;-0.07500;75.5625;136;77;0.32674
6610550;-0.06500;75.8125;136;77;0.32479
6610560;-0.04500;76.6875;136;77;0.32210
6610570;-0.03000;80.7500;136;77;0.31551
6610580;-0.01000;84.1250;136;77;0.31209
6610590;0.00000;88.3125;136;77;0.30891
6610600;0.02000;93.0625;136;77;0.30598
6610610;0.04000;103.5000;136;77;0.30037
6610620;0.06000;108.7500;136;77;0.29792
6610630;0.08000;113.7500;136;77;0.29573
6610640;0.10500;122.3125;136;77;0.29426
6610650;0.13000;125.6875;136;77;0.29353
6610660;0.14500;128.4375;136;77;0.29255
6610670;0.17500;130.6250;136;77;0.29133
6610680;0.20000;133.4375;136;77;0.28889
6610690;0.20500;134.1875;136;77;0.28767
6610700;0.19500;134.5000;136;77;0.28669
6610710;0.14500;134.5625;136;77;0.28596
6610720;0.10000;134.3750;136;77;0.28523
6610730;0.03500;133.2500;136;77;0.28474
6610740;-0.00500;132.3750;136;77;0.28523
6610750;-0.03500;131.3750;136;77;0.28523
6610760;-0.05500;130.1875;136;77;0.28498
6610770;-0.07000;127.3125;136;77;0.28498
6610780;-0.07500;125.6875;136;77;0.28523
6610790;-0.09000;123.8750;136;77;0.28547
6610800;-0.09000;123.8750;136;77;0.28547
6610810;-0.10000;117.5000;136;77;0.28742
6610820;-0.10000;115.0625;136;77;0.29035
6610830;-0.10000;112.4375;136;77;0.29548
6610840;-0.10000;107.1875;136;77;0.31136
6610850;-0.09500;104.8125;136;77;0.32479
6610860;-0.09500;102.7500;136;77;0.34261
6610870;-0.09000;101.0625;136;77;0.36435
6610880;-0.08500;98.8125;136;77;0.41734
6610890;-0.08500;98.1875;136;77;0.44640
6610900;-0.08000;97.6875;136;77;0.47595
6610910;-0.07500;97.4375;136;77;0.50476
6610920;-0.07500;97.3125;136;77;0.53187
6610930;-0.07000;97.3125;136;77;0.57656
6610940;-0.06500;97.3125;136;77;0.59243
6610950;-0.06500;97.2500;136;77;0.60855
6610960;-0.06500;97.1875;136;77;0.62344
6610970;-0.07000;96.6875;136;77;0.64713
6610980;-0.07500;96.3750;136;77;0.65568
6610990;-0.08000;95.9375;136;77;0.66252
6611000;-0.08000;95.5000;137;77;0.66740
6611010;-0.08000;94.5625;137;77;0.67204
6611020;-0.07500;94.0000;137;77;0.67204
6611030;-0.05500;93.4375;137;77;0.67033
6611040;-0.02000;92.3750;137;77;0.66178
6611050;-0.00500;91.7500;137;77;0.67326
6611060;0.00000;91.1875;137;77;0.69182
6611070;0.03000;90.5625;137;77;0.69524
6611080;0.06000;90.0000;137;77;0.69035
6611090;0.07000;88.9375;137;77;0.66789
6611100;0.05000;88.3750;137;77;0.65275
6611110;0.01000;87.8750;137;77;0.63614
6611120;-0.01500;87.3750;137;77;0.61856
6611130;-0.05500;86.5000;137;77;0.58510
6611140;-0.09500;86.0000;137;77;0.57094
6611150;-0.11500;85.6250;137;77;0.55678
6611160;-0.12500;85.2500;137;77;0.54335
6611170;-0.13000;84.5625;137;77;0.52015
6611180;-0.12500;84.2500;137;77;0.51062
6611190;-0.11500;83.9375;137;77;0.50256
6611200;-0.11500;83.6875;137;77;0.49573
6611210;-0.04500;83.1875;137;77;0.48425
6611220;0.39500;82.9375;137;77;0.47937
6611230;0.83000;82.7500;137;77;0.47473
6611240;0.91000;82.5000;137;77;0.47082
6611250;0.08000;82.1250;137;77;0.46252
6611260;-0.28000;81.9375;137;77;0.45788
6611270;-0.25000;81.7500;137;77;0.45275
6611280;-0.21000;81.5625;137;77;0.44762
6611290;-0.20000;81.1250;137;77;0.43712
6611300;-0.20000;80.8750;137;77;0.43175
6611310;-0.21000;80.6250;137;77;0.42613
6611320;-0.21000;80.3750;137;77;0.42051
6611330;-0.19500;79.7500;137;77;0.41074
6611340;-0.09500;79.4375;137;77;0.40659
6611350;-0.01500;79.0625;137;77;0.40147
6611360;0.01500;78.3750;137;77;0.39048
6611370;0.00500;78.0000;137;77;0.38486
6611380;0.00000;77.6875;137;77;0.37949
6611390;0.02500;77.3125;137;77;0.37411
6611400;0.07000;76.6875;137;77;0.36410
6611410;0.11000;76.3750;137;77;0.35922
6611420;0.17000;76.0625;137;77;0.35433
6611430;0.20000;75.8750;137;77;0.34969
6611440;0.18000;75.8750;137;77;0.34628
6611450;0.15000;77.2500;137;77;0.34042
6611460;0.13500;79.0625;137;77;0.33675
6611470;0.10000;81.7500;137;77;0.33284
6611480;0.06000;85.3750;137;77;0.32918
6611490;0.01000;94.7500;137;77;0.32186
6611500;-0.02000;100.0000;137;77;0.31844
6611510;-0.01500;105.3750;137;77;0.31526
6611520;0.01000;110.6250;137;77;0.31282
6611530;0.03000;120.1875;137;77;0.30916
6611540;0.06000;124.1250;137;77;0.30842
6611550;0.07000;127.5000;137;77;0.30720
6611560;0.09000;130.2500;137;77;0.30574
6611570;0.11000;133.9375;137;77;0.30281
6611580;0.11000;135.0625;137;77;0.30159
6611590;0.10500;135.6875;137;77;0.30037
6611600;0.08000;136.0625;137;77;0.29866
6611610;0.05000;135.8125;137;77;0.29817
6611620;0.01000;135.4375;137;77;0.29744
6611630;-0.05500;134.8125;137;77;0.29695
6611640;-0.09000;133.9375;137;77;0.29719
6611650;-0.12500;131.8750;137;77;0.29792
6611660;-0.15500;130.6250;137;77;0.29768
6611670;-0.17000;129.1875;137;77;0.29744
6611680;-0.18000;127.6250;137;77;0.29744
6611690;-0.18000;124.0000;137;77;0.29768
6611700;-0.18000;121.8750;137;77;0.29841
6611710;-0.18000;119.5625;137;77;0.30012
6611720;-0.17500;117.1250;137;77;0.30379
6611730;-0.17000;111.6875;137;77;0.31917
6611740;-0.17000;109.0625;137;77;0.33114
6611750;-0.17000;106.5625;137;77;0.34847
6611760;-0.16500;102.7500;137;77;0.39805
6611770;-0.16000;101.3750;137;77;0.42882
6611780;-0.15000;100.3125;137;77;0.46227
6611790;-0.14500;99.6250;137;77;0.49744
6611800;-0.14500;99.6250;137;77;0.49744
6611810;-0.14000;98.7500;137;77;0.60073
6611820;-0.13500;98.6875;137;77;0.63150
6611830;-0.13500;98.6875;137;77;0.65910
6611840;-0.13000;98.5625;137;77;0.69670
6611850;-0.12500;98.5000;137;77;0.71306
6611860;-0.13000;98.3125;137;77;0.72772
6611870;-0.13000;98.0625;137;77;0.74042
6611880;-0.12500;97.8125;137;77;0.75092
6611890;-0.12500;97.0000;137;77;0.76508
6611900;-0.12500;96.5625;137;77;0.76899
6611910;-0.12500;96.0625;137;77;0.77094
6611920;-0.11500;95.5000;137;77;0.77118
6611930;-0.09500;94.4375;137;77;0.76630
6611940;-0.06500;93.8125;137;77;0.76093
6611950;-0.04500;93.1875;137;77;0.75458
6611960;-0.03500;92.6250;137;77;0.74676
6611970;0.00000;91.5000;137;77;0.72503
6611980;0.03000;91.0000;137;77;0.71160
6611990;0.04000;90.4375;137;77;0.69621
6612000;0.00000;89.4375;137;78;0.66178
6612010;-0.02500;88.8750;137;78;0.64371
6612020;-0.05500;88.4375;137;78;0.62564
6612030;-0.10500;88.0000;137;78;0.60830
6612040;-0.14000;87.5625;137;78;0.59316
6612050;-0.15500;86.7500;137;78;0.56630
6612060;-0.15500;86.3750;137;78;0.55385
6612070;-0.15500;86.0625;137;78;0.54237
6612080;-0.15500;85.7500;137;78;0.53236
6612090;-0.14500;85.1875;137;78;0.51551
6612100;-0.14500;84.9375;137;78;0.50867
6612110;-0.05000;84.7500;137;78;0.50281
6612120;0.34000;84.5000;137;78;0.49719
6612130;0.98000;84.1250;137;78;0.48840
6612140;0.87000;83.9375;137;78;0.48474
6612150;0.14500;83.7500;137;78;0.48059
6612160;-0.30500;83.3750;137;78;0.47204
6612170;-0.27500;83.1875;137;78;0.46716
6612180;-0.23000;83.0000;137;78;0.46227
6612190;-0.22000;82.8125;137;78;0.45739
6612200;-0.21500;82.5625;137;78;0.45201
6612210;-0.21000;82.0000;137;78;0.44127
6612220;-0.20500;81.7500;137;78;0.43565
6612230;-0.19500;81.4375;137;78;0.43004
6612240;-0.19000;81.0625;137;78;0.42515
6612250;-0.18500;80.4375;137;78;0.41587
6612260;-0.18000;80.0625;137;78;0.41099
6612270;-0.17500;79.7500;137;78;0.40586
6612280;-0.16500;79.0625;137;78;0.39585
6612290;-0.16000;78.7500;137;78;0.39096
6612300;-0.15500;78.4375;137;78;0.38608
6612310;-0.14500;78.1250;137;78;0.38144
6612320;-0.14500;77.9375;137;78;0.37705
6612330;-0.13500;77.8750;137;78;0.36947
6612340;-0.12000;78.3750;137;78;0.36679
6612350;-0.10500;79.5000;137;78;0.36361
6612360;-0.08000;84.6250;137;78;0.35653
6612370;-0.06500;88.5625;137;78;0.35336
6612380;-0.04500;93.2500;137;78;0.35043
6612390;-0.02500;98.4375;137;78;0.34799
6612400;0.00000;103.9375;137;78;0.34579
6612410;0.02000;114.8125;137;78;0.34139
6612420;0.05000;119.8750;137;78;0.33919
6612430;0.06500;124.3750;137;78;0.33797
6612440;0.09500;128.3125;137;78;0.33700
6612450;0.13000;134.1875;137;78;0.33480
6612460;0.15500;136.2500;137;78;0.33382
6612470;0.17500;137.7500;137;78;0.33333
6612480;0.20000;139.5625;137;78;0.33284
6612490;0.19500;139.9375;137;78;0.33260
6612500;0.16500;140.0000;137;78;0.33211
6612510;0.10000;139.8750;137;78;0.33162
6612520;0.05000;139.5000;137;78;0.33114
6612530;0.00000;138.3750;137;78;0.33114
6612540;-0.05000;137.5625;137;78;0.33187
6612550;-0.07500;136.6875;137;78;0.33236
6612560;-0.09000;135.5625;137;78;0.33260
6612570;-0.10500;132.9375;137;78;0.33260
6612580;-0.11500;131.3750;137;78;0.33260
6612590;-0.12500;129.6250;137;78;0.33260
6612600;-0.12500;125.5625;137;78;0.33309
6612610;-0.12500;123.2500;137;78;0.33895
6612620;-0.12500;120.7500;137;78;0.34652
6612630;-0.12500;118.0000;137;78;0.35629
6612640;-0.12000;112.3125;137;78;0.38755
6612650;-0.11500;109.6875;137;78;0.41148
6612660;-0.10500;107.4375;137;78;0.44005
6612670;-0.10000;105.6250;137;78;0.47228
6612680;-0.09500;103.1875;137;78;0.54310
6612690;-0.08500;102.4375;137;78;0.57924
6612700;-0.08000;101.9375;137;78;0.61441
6612710;-0.07500;101.6875;137;78;0.64762
6612720;-0.07500;101.5625;137;78;0.70598
6612730;-0.07500;101.5625;137;78;0.72723
6612740;-0.08000;101.5000;137;78;0.74383
6612750;-0.08000;101.4375;137;78;0.76068
6612760;-0.08500;101.3125;137;78;0.77607
6612770;-0.09500;100.7500;137;78;0.80122
6612780;-0.09500;100.3750;137;78;0.81099
6612790;-0.09500;100.3750;137;78;0.81099
6612800;-0.10000;99.4375;137;78;0.81880
6612810;-0.10000;98.9375;137;78;0.82906
6612820;-0.07500;97.8125;137;78;0.83223
6612830;-0.05000;97.2500;137;78;0.83028
6612840;-0.02500;96.6875;137;78;0.82637
6612850;-0.00500;95.5000;137;78;0.81563
6612860;0.01000;94.8750;137;78;0.80781
6612870;0.03500;94.2500;137;78;0.79805
6612880;0.07000;93.6875;137;78;0.78632
6612890;0.07000;92.5625;137;78;0.75775
6612900;0.04000;92.0625;137;78;0.74139
6612910;0.01000;91.5000;137;78;0.72430
6612920;-0.03500;90.5000;137;78;0.68889
6612930;-0.07500;90.0625;137;78;0.67277
6612940;-0.11500;89.6250;137;78;0.65788
6612950;-0.12500;89.2500;137;78;0.64298
6612960;-0.13000;88.8750;137;78;0.62857
6612970;-0.13000;88.1250;137;78;0.60415
6612980;-0.12500;87.8125;137;78;0.59438
6612990;-0.13000;87.5000;137;78;0.58559
6613000;-0.11500;87.0000;137;78;0.57094
6613010;0.04000;86.7500;137;78;0.56484
6613020;0.41000;86.5000;137;78;0.55922
6613030;1.01000;86.3125;137;78;0.55433
6613040;0.81000;85.8750;137;78;0.54432
6613050;0.16500;85.6875;137;78;0.53944
6613060;-0.28000;85.5000;137;78;0.53455
6613070;-0.24000;85.3125;137;78;0.52967
6613080;-0.22000;85.1250;137;78;0.52479
6613090;-0.22000;84.6875;137;78;0.51477
6613100;-0.22000;84.4375;137;78;0.49451
6613110;-0.21000;84.1250;137;78;0.46642
6613120;-0.19500;83.4375;137;78;0.43932
6613130;-0.19000;83.1250;137;78;0.43199
6613140;-0.17500;82.7500;137;78;0.42613
6613150;-0.16500;82.4375;137;78;0.42027
6613160;-0.16000;81.7500;137;78;0.41441
6613170;-0.15000;81.4375;137;78;0.40342
6613180;-0.14000;81.1250;137;78;0.39805
6613190;-0.12500;80.8125;137;78;0.39267
6613200;-0.11500;80.1875;137;78;0.38266
6613210;-0.10500;80.0000;137;78;0.37778
6613220;-0.09500;79.8750;137;78;0.37338
6613230;-0.08500;80.0000;137;78;0.36996
6613240;-0.08000;80.5625;137;78;0.36703
6613250;-0.07000;84.2500;137;78;0.35971
6613260;-0.06500;87.5625;137;78;0.35604
6613270;-0.05000;91.8125;137;78;0.35238
6613280;-0.03500;102.2500;137;78;0.34603
6613290;-0.01500;107.8750;137;78;0.34310
6613300;0.00000;113.5625;137;78;0.34042
6613310;0.03000;119.0000;137;78;0.33797
6613320;0.05000;124.0625;137;78;0.33602
6613330;0.07500;132.2500;137;78;0.33309
6613340;0.10000;135.3750;137;78;0.33260
6613350;0.12000;137.8125;137;78;0.33211
6613360;0.15000;139.6250;137;78;0.33162
6613370;0.18500;142.0000;137;78;0.33065
6613380;0.19500;142.5625;137;78;0.33016
6613390;0.19500;142.8750;137;78;0.32967
6613400;0.17500;142.7500;137;78;0.32869
6613410;0.13000;142.4375;137;78;0.32796
6613420;0.09000;142.0000;137;78;0.32723
6613430;0.03500;141.3750;137;78;0.32698
6613440;0.00000;140.6875;137;78;0.32698
6613450;-0.05500;138.8750;137;78;0.32650
6613460;-0.07500;137.7500;137;78;0.32650
6613470;-0.08500;136.5000;137;78;0.32650
6613480;-0.09500;133.4375;137;78;0.32650
6613490;-0.10500;131.6250;137;78;0.32698
6613500;-0.10500;129.5625;137;78;0.32869
6613510;-0.10500;127.2500;137;78;0.33284
6613520;-0.10500;124.7500;137;78;0.33993
6613530;-0.10500;119.1250;137;78;0.36410
6613540;-0.10500;116.3125;137;78;0.37973
6613550;-0.10500;113.6250;137;78;0.40073
6613560;-0.10000;111.3125;137;78;0.42662
6613570;-0.09500;107.7500;137;78;0.48791
6613580;-0.09500;106.5625;137;78;0.52063
6613590;-0.09500;105.6250;137;78;0.55311
6613600;-0.09500;105.0000;137;78;0.58462
6613610;-0.09500;104.3750;137;78;0.64127
6613620;-0.09000;104.2500;137;78;0.66569
6613630;-0.09000;104.1250;137;78;0.68400
6613640;-0.09000;103.8125;137;78;0.71331
6613650;-0.09000;103.6250;137;78;0.72723
6613660;-0.08500;103.3125;137;78;0.73944
6613670;-0.08500;103.0000;137;78;0.74969
6613680;-0.08500;102.5625;137;78;0.75824
6613690;-0.08500;101.6250;137;78;0.77045
6613700;-0.08500;101.1250;137;78;0.77363
6613710;-0.08000;100.5625;137;78;0.77509
6613720;-0.06500;99.3750;137;78;0.77411
6613730;-0.05000;98.7500;137;78;0.77045
6613740;-0.02000;98.1250;137;78;0.76508
6613750;0.01000;97.5000;137;78;0.75946
6613760;0.01500;96.8750;137;78;0.75263
6613770;0.03500;95.6250;137;78;0.73407
6613780;0.06000;95.0000;137;78;0.72210
6613790;0.08000;94.3750;137;78;0.70842
6613800;0.08000;94.3750;137;78;0.70842
6613810;0.03000;92.5000;137;78;0.66105
6613820;-0.01000;91.8750;137;78;0.64420
6613830;-0.05000;91.3125;137;78;0.62857
6613840;-0.09500;90.7500;137;78;0.61416
6613850;-0.12500;89.6875;137;78;0.58535
6613860;-0.13500;89.1875;137;78;0.57216
6613870;-0.13500;88.7500;137;78;0.56020
6613880;-0.12500;87.8750;137;78;0.54969
6613890;-0.11500;87.5000;137;78;0.53260
6613900;-0.12000;87.1250;137;78;0.52527
6613910;-0.08500;86.8125;137;78;0.51868
6613920;0.30000;86.1250;137;78;0.50720
6613930;0.80000;85.8125;137;78;0.50183
6613940;1.07000;85.6250;137;78;0.49695
6613950;0.31000;85.3750;137;78;0.49206
6613960;-0.17500;85.1250;137;78;0.48694
6613970;-0.24000;84.5625;137;78;0.47668
6613980;-0.20000;84.3125;137;78;0.47131
6613990;-0.19500;84.0625;137;78;0.46593
6614000;-0.19000;83.4375;137;78;0.46056
6614010;-0.18500;83.1250;137;78;0.44908
6614020;-0.18000;82.7500;137;78;0.44322
6614030;-0.17000;82.3750;137;78;0.43810
6614040;-0.16000;81.6250;137;78;0.42735
6614050;-0.15500;81.1875;137;78;0.42149
6614060;-0.14500;80.8125;137;78;0.41563
6614070;-0.14000;80.4375;137;78;0.40977
6614080;-0.13500;80.0625;137;78;0.40415
6614090;-0.12500;79.3125;137;78;0.39292
6614100;-0.11500;79.0000;137;78;0.38730
6614110;-0.10000;78.6875;137;78;0.38144
6614120;-0.09000;78.3750;137;78;0.37582
6614130;-0.08000;78.1250;137;78;0.36703
6614140;-0.07000;78.4375;137;78;0.36239
6614150;-0.05500;79.3750;137;78;0.35775
6614160;-0.04000;84.0000;137;78;0.35287
6614170;-0.02500;87.8125;137;78;0.34359
6614180;-0.01500;92.3750;137;78;0.33895
6614190;-0.00500;97.5000;137;78;0.33455
6614200;0.01000;108.4375;137;78;0.32625
6614210;0.03000;113.8125;137;78;0.32283
6614220;0.06000;118.8750;137;78;0.31966
6614230;0.09000;123.5000;137;78;0.31722
6614240;0.11500;127.5000;137;78;0.31502
6614250;0.14500;133.4375;137;78;0.30989
6614260;0.17500;135.5000;137;78;0.30720
6614270;0.20000;137.0625;137;78;0.30452
6614280;0.22000;138.1875;137;78;0.30208
6614290;0.22000;139.2500;137;78;0.29744
6614300;0.19500;139.3125;137;78;0.29548
6614310;0.16500;139.1875;137;78;0.29353
6614320;0.11000;138.3125;137;78;0.29158
6614330;0.05500;137.6250;137;78;0.28962
6614340;0.01000;136.8125;137;78;0.28816
6614350;-0.01500;135.8125;137;78;0.28645
6614360;-0.04000;134.7500;137;78;0.28474
6614370;-0.06000;132.0625;137;78;0.28181
6614380;-0.07500;130.5000;137;78;0.28034
6614390;-0.07500;128.6875;137;78;0.27937
6614400;-0.08000;124.5625;137;78;0.27863
6614410;-0.08500;122.1250;137;78;0.28059
6614420;-0.08500;119.5000;137;78;0.28474
6614430;-0.08500;116.6875;137;78;0.29109
6614440;-0.08000;110.8750;137;78;0.31404
6614450;-0.07000;108.2500;137;78;0.33284
6614460;-0.02000;105.9375;137;78;0.35604
6614470;0.02500;104.0625;137;78;0.38315
6614480;0.03000;102.6250;137;78;0.41270
6614490;0.02500;100.6875;137;78;0.47448
6614500;0.00000;100.1875;137;78;0.50452
6614510;-0.00500;99.8750;137;78;0.53284
6614520;-0.03000;99.7500;137;78;0.55897
6614530;-0.03500;99.6250;137;78;0.59609
6614540;-0.03500;99.6250;137;78;0.61270
6614550;-0.05500;99.5625;137;78;0.62784
6614560;-0.06500;99.4375;137;78;0.64078
6614570;-0.07000;98.8750;137;78;0.66056
6614580;-0.07500;98.5000;137;78;0.66716
6614590;-0.07500;98.0625;137;78;0.67155
6614600;-0.08000;97.0625;137;78;0.67473
6614610;-0.08000;96.5625;137;78;0.67399
6614620;-0.06500;96.0000;137;78;0.67155
6614630;-0.01500;95.4375;137;78;0.66740
6614640;0.02000;94.8125;137;78;0.66203
6614650;0.04000;93.5625;137;78;0.64811
6614660;0.05000;93.0000;137;78;0.63907
6614670;0.08000;92.3750;137;78;0.62833
6614680;0.11000;91.2500;137;78;0.61612
6614690;0.09000;90.6875;137;78;0.58632
6614700;0.05500;90.1250;137;78;0.56923
6614710;0.01500;89.5625;137;78;0.55092
6614720;-0.02500;89.0625;137;78;0.53187
6614730;-0.07500;88.1250;137;78;0.49939
6614740;-0.11500;87.6875;137;78;0.48327
6614750;-0.13000;87.2500;137;78;0.46716
6614760;-0.14000;86.8125;137;78;0.45226
6614770;-0.14000;86.0625;137;78;0.42662
6614780;-0.13500;85.7500;137;78;0.41587
6614790;-0.13500;85.4375;137;78;0.40684
6614800;-0.11500;85.0625;137;78;0.39878
6614810;0.07000;84.5000;137;78;0.38510
6614820;0.56000;84.3125;137;78;0.37924
6614830;0.95000;84.0625;137;78;0.37460
6614840;0.57500;83.8750;137;78;0.37045
6614850;-0.13500;83.4375;137;78;0.36068
6614860;-0.30500;83.1250;137;78;0.35531
6614870;-0.22500;82.9375;137;78;0.34969
6614880;-0.20500;82.6875;137;78;0.34432
6614890;-0.20000;82.1875;137;78;0.33309
6614900;-0.19000;81.9375;137;78;0.32723
6614910;-0.19000;81.6875;137;78;0.32161
6614920;-0.18500;81.0625;137;78;0.31087
6614930;-0.18000;80.7500;137;78;0.30647
6614940;-0.17000;80.3750;137;78;0.30110
6614950;-0.15500;80.0625;137;78;0.29548
6614960;-0.13000;79.3125;137;78;0.28425
6614970;-0.12000;78.9375;137;78;0.27839
6614980;-0.11500;78.6250;137;78;0.27277
6614990;-0.10500;78.3125;137;78;0.26740
6615000;-0.12500;77.6875;137;78;0.25690
6615010;-0.13000;77.3750;137;78;0.25201
6615020;-0.11000;77.1250;137;78;0.24713
6615030;-0.10000;76.9375;137;78;0.24347
6615040;-0.08500;77.6250;137;78;0.23687
6615050;-0.07500;78.8125;137;78;0.23297
6615060;-0.05500;80.9375;137;78;0.22906
6615070;-0.03500;83.9375;137;78;0.22540
6615080;-0.01500;92.1875;137;78;0.21832
6615090;0.00000;97.0625;137;78;0.21490
6615100;0.02000;102.1875;137;78;0.21197
6615110;0.04000;107.3125;137;78;0.20952
6615120;0.06500;112.3125;137;78;0.20733
6615130;0.09000;121.0625;137;78;0.20611
6615140;0.11500;124.5625;137;78;0.20562
6615150;0.14500;127.4375;137;78;0.21636
6615160;0.17000;131.3750;137;78;0.23272
6615170;0.19500;132.5625;137;78;0.24396
6615180;0.20500;133.3125;137;78;0.24542
6615190;0.19500;133.7500;137;78;0.24615
6615200;0.14500;133.5625;137;78;0.24689
6615210;0.10500;133.1250;137;78;0.24689
6615220;0.04500;132.5000;137;78;0.24737
6615230;-0.01500;131.6875;137;78;0.24860
6615240;-0.04500;130.6875;137;78;0.25006
6615250;-0.07000;128.1875;137;78;0.25153
6615260;-0.08500;126.6875;137;78;0.25201
6615270;-0.09500;125.0625;137;78;0.25201
6615280;-0.10000;123.2500;137;78;0.25201
6615290;-0.10500;119.0625;137;78;0.25226
6615300;-0.10500;116.6875;137;78;0.25299
6615310;-0.11000;114.1250;137;78;0.25495
6615320;-0.11500;108.8125;137;78;0.25885
6615330;-0.11500;106.2500;137;78;0.27204
6615340;-0.11500;104.0000;137;78;0.28327
6615350;-0.11000;102.1250;137;78;0.29841
6615360;-0.10500;99.5000;137;78;0.33944
6615370;-0.09500;98.6250;137;78;0.36459
6615380;-0.09500;98.0625;137;78;0.39194
6615390;-0.09500;97.6875;137;78;0.42002
6615400;-0.09500;97.5000;137;78;0.44811
6615410;-0.09500;97.3125;137;78;0.50110
6615420;-0.09000;97.2500;137;78;0.52454
6615430;-0.09000;97.1875;137;78;0.54310
6615440;-0.09000;97.0625;137;78;0.55800
6615450;-0.08500;96.7500;137;78;0.58584
6615460;-0.07500;96.4375;137;78;0.59756
6615470;-0.06500;96.0625;137;78;0.60708
6615480;-0.06500;95.6250;137;78;0.61441
6615490;-0.06500;94.6875;137;78;0.62442
6615500;-0.08500;94.1250;137;78;0.62686
6615510;-0.10500;93.6250;137;78;0.62759
6615520;-0.10000;93.0625;137;78;0.62686
6615530;-0.06500;91.9375;137;78;0.62002
6615540;-0.00500;91.4375;137;78;0.61465
6615550;-0.00500;90.8750;137;78;0.60781
6615560;0.00500;90.3125;137;78;0.59951
6615570;0.04500;89.2500;137;78;0.57851
6615580;0.06000;88.7500;137;78;0.56606
6615590;0.04000;88.2500;137;78;0.55238
6615600;0.00000;87.2500;137;78;0.53797
6615610;-0.03500;86.8125;137;78;0.50818
6615620;-0.06500;86.3750;137;78;0.49377
6615630;-0.11500;86.0000;137;78;0.48181
6615640;-0.14000;85.3125;137;78;0.47106
6615650;-0.14500;84.9375;137;78;0.45079
6615660;-0.15000;84.6250;137;78;0.44200
6615670;-0.14500;84.2500;137;78;0.43419
6615680;-0.13500;83.6875;137;78;0.42222
6615690;-0.13500;83.4375;137;78;0.41709
6615700;-0.09000;83.1875;137;78;0.41245
6615710;0.25500;82.9375;137;78;0.40781
6615720;0.68000;82.7500;137;78;0.40317
6615730;0.95000;82.3125;137;78;0.39634
6615740;0.25500;82.1250;137;78;0.39243
6615750;-0.22000;81.8750;137;78;0.38828
6615760;-0.29000;81.6875;137;78;0.38413
6615770;-0.21500;81.2500;137;78;0.37582
6615780;-0.20000;81.0000;137;78;0.37192
6615790;-0.19500;80.7500;137;78;0.36801
6615800;-0.19500;80.7500;137;78;0.36801
6615810;-0.18000;79.9375;137;78;0.35580
6615820;-0.17000;79.6250;137;78;0.35165
6615830;-0.17000;79.3125;137;78;0.34823
6615840;-0.16500;78.9375;137;78;0.34530
6615850;-0.16000;78.2500;137;78;0.33773
6615860;-0.15500;77.8750;137;78;0.33358
6615870;-0.15000;77.5000;137;78;0.32918
6615880;-0.14000;76.8750;137;78;0.32088
6615890;-0.13500;76.6250;137;78;0.31697
6615900;-0.12500;76.3125;137;78;0.31306
6615910;-0.11500;76.0625;137;78;0.30916
6615920;-0.10500;75.7500;137;78;0.30549
6615930;-0.08500;75.7500;137;78;0.30061
6615940;-0.07500;76.3125;137;78;0.29744
6615950;-0.05500;77.5625;137;78;0.29426
6615960;-0.02000;82.6875;137;78;0.28816
6615970;0.00500;86.5625;137;78;0.28523
6615980;0.02500;91.0000;137;78;0.28230
6615990;0.05000;95.9375;137;78;0.27961
6616000;0.06500;101.1250;136;77;0.27692
6616010;0.08000;111.4375;136;77;0.27179
6616020;0.07500;116.1250;136;77;0.27033
6616030;0.09000;120.3125;136;77;0.26935
6616040;0.13000;123.9375;136;77;0.26789
6616050;0.16500;129.3125;136;77;0.26496
6616060;0.19000;131.0625;136;77;0.26374
6616070;0.21500;132.3750;136;77;0.26300
6616080;0.21500;133.1875;136;77;0.26252
6616090;0.19500;133.6875;136;77;0.26154
6616100;0.14500;133.5625;136;77;0.26105
6616110;0.10000;133.1250;136;77;0.26081
6616120;0.04000;132.5000;136;77;0.26056
6616130;-0.01500;130.6875;136;77;0.26203
6616140;-0.04000;129.5000;136;77;0.26276
6616150;-0.06500;128.1250;136;77;0.26325
6616160;-0.08500;125.0000;136;77;0.26374
6616170;-0.09500;123.2500;136;77;0.26398
6616180;-0.10000;121.3125;136;77;0.26398
6616190;-0.10000;119.1875;136;77;0.26422
6616200;-0.10000;116.8125;136;77;0.26496
6616210;-0.10000;111.7500;136;77;0.27009
6616220;-0.10000;109.1250;136;77;0.27521
6616230;-0.09500;106.5625;136;77;0.28254
6616240;-0.09500;104.2500;136;77;0.29353
6616250;-0.09000;100.6250;136;77;0.32698
6616260;-0.08500;99.3125;136;77;0.34945
6616270;-0.08500;98.3750;136;77;0.37460
6616280;-0.08000;97.7500;136;77;0.40195
6616290;-0.07500;97.1250;136;77;0.45861
6616300;-0.07000;97.0000;136;77;0.48620
6616310;-0.07000;97.0000;136;77;0.51233
6616320;-0.07500;96.9375;136;77;0.53626
6616330;-0.07500;96.8125;136;77;0.56996
6616340;-0.07500;96.6875;136;77;0.58486
6616350;-0.08000;96.5000;136;77;0.59853
6616360;-0.08500;95.8750;136;77;0.62051
6616370;-0.08500;95.5000;136;77;0.62857
6616380;-0.08500;95.0625;136;77;0.63443
6616390;-0.08500;94.5625;136;77;0.63883
6616400;-0.08500;94.0625;136;77;0.64127
6616410;-0.08500;93.0000;136;77;0.64103
6616420;-0.07000;92.4375;136;77;0.63810
6616430;-0.04500;91.8750;136;77;0.63370
6616440;-0.02500;91.3125;136;77;0.62808
6616450;-0.00500;90.1250;136;77;0.61270
6616460;0.00000;89.5625;136;77;0.60269
6616470;0.03000;89.0000;136;77;0.59145
6616480;0.06000;88.5000;136;77;0.57924
6616490;0.05500;87.5625;136;77;0.55189
6616500;0.02000;87.0625;136;77;0.53724
6616510;-0.02000;86.6250;136;77;0.52234
6616520;-0.04500;86.1875;136;77;0.50818
6616530;-0.09000;85.3125;136;77;0.48523
6616540;-0.13000;84.9375;136;77;0.47448
6616550;-0.14000;84.5625;136;77;0.46447
6616560;-0.14000;84.2500;136;77;0.45543
6616570;-0.13500;83.6250;136;77;0.44005
6616580;-0.13000;83.3750;136;77;0.43370
6616590;-0.12500;83.1250;136;77;0.42833
6616600;-0.11000;82.8750;136;77;0.42344
6616610;0.05000;82.4375;136;77;0.41490
6616620;0.52500;82.2500;136;77;0.41172
6616630;0.98000;82.0000;136;77;0.40904
6616640;0.50500;81.6250;136;77;0.40195
6616650;-0.08500;81.4375;136;77;0.39780
6616660;-0.30000;81.1875;136;77;0.39341
6616670;-0.22000;81.0000;136;77;0.38901
6616680;-0.19500;80.8125;136;77;0.38462
6616690;-0.19000;80.3125;136;77;0.37607
6616700;-0.18000;80.0625;136;77;0.37192
6616710;-0.17500;79.7500;136;77;0.36752
6616720;-0.17000;79.1250;136;77;0.35971
6616730;-0.17000;78.8125;136;77;0.35653
6616740;-0.16500;78.5000;136;77;0.35238
6616750;-0.16000;78.1250;136;77;0.34774
6616760;-0.16000;77.3750;136;77;0.33846
6616770;-0.16000;77.0625;136;77;0.33407
6616780;-0.16000;76.7500;136;77;0.32967
6616790;-0.14500;76.4375;136;77;0.32552
6616800;-0.14500;76.4375;136;77;0.32552
6616810;-0.11500;75.5625;136;77;0.31404
6616820;-0.10000;75.3750;136;77;0.31136
6616830;-0.08000;75.3125;136;77;0.30891
6616840;-0.07000;75.5625;136;77;0.30598
6616850;-0.05500;77.8750;136;77;0.29963
6616860;-0.03000;80.3750;136;77;0.29670
6616870;-0.01500;83.7500;136;77;0.29377
6616880;0.00000;87.9375;136;77;0.29084
6616890;0.02500;97.8125;136;77;0.28498
6616900;0.04000;103.1875;136;77;0.28230
6616910;0.06500;108.5000;136;77;0.27985
6616920;0.14000;118.1875;136;77;0.27668
6616930;0.22500;122.2500;136;77;0.27619
6616940;0.29500;125.6875;136;77;0.27497
6616950;0.26000;128.4375;136;77;0.27375
6616960;0.23000;130.6250;136;77;0.27253
6616970;0.25500;133.5000;136;77;0.27057
6616980;0.29500;134.2500;136;77;0.26960
6616990;0.29500;134.6250;136;77;0.26886
6617000;0.25500;134.6875;137;77;0.26813
6617010;0.17000;134.1250;137;77;0.26642
6617020;0.11000;133.5000;137;77;0.26618
6617030;0.04000;132.7500;137;77;0.26642
6617040;-0.02000;130.7500;137;77;0.26618
6617050;-0.07500;129.5000;137;77;0.26618
6617060;-0.13000;128.1250;137;77;0.26618
6617070;-0.14000;126.5625;137;77;0.26618
6617080;-0.08500;122.9375;137;77;0.26691
6617090;-0.05500;120.8750;137;77;0.26764
6617100;-0.06000;118.6250;137;77;0.26911
6617110;-0.07500;116.1875;137;77;0.27179
6617120;-0.10500;113.5625;137;77;0.27643
6617130;-0.15000;108.2500;137;77;0.29084
6617140;-0.17000;105.8125;137;77;0.30305
6617150;-0.16500;103.7500;137;77;0.31917
6617160;-0.15500;100.6875;137;77;0.36313
6617170;-0.14500;99.6250;137;77;0.38950
6617180;-0.12500;98.8750;137;77;0.41758
6617190;-0.11000;98.3125;137;77;0.44640
6617200;-0.10500;98.0000;137;77;0.49304
6617210;-0.10500;97.6250;137;77;0.59267
6617220;-0.11000;97.5625;137;77;0.62369
6617230;-0.11500;97.4375;137;77;0.64762
6617240;-0.11500;97.3750;137;77;0.67033
6617250;-0.09500;97.0000;137;77;0.70867
6617260;-0.09500;96.7500;137;77;0.72381
6617270;-0.10000;96.3750;137;77;0.73626
6617280;-0.11500;95.5000;137;77;0.74628
6617290;-0.10500;95.0000;137;77;0.75922
6617300;-0.09000;94.5000;137;77;0.76264
6617310;-0.07000;94.0000;137;77;0.76361
6617320;-0.05000;93.4375;137;77;0.76264
6617330;-0.02500;92.3125;137;77;0.75409
6617340;-0.00500;91.7500;137;77;0.74774
6617350;-0.01000;91.1875;137;77;0.73968
6617360;-0.00500;90.6875;137;77;0.72991
6617370;0.04000;89.5625;137;77;0.70525
6617380;0.07000;89.0625;137;77;0.69035
6617390;0.06500;88.5625;137;77;0.67399
6617400;0.02000;87.5625;137;77;0.65641
6617410;-0.01500;87.0625;137;77;0.61978
6617420;-0.06500;86.6250;137;77;0.60366
6617430;-0.12500;86.1875;137;77;0.58901
6617440;-0.14500;85.8125;137;77;0.57363
6617450;-0.14500;85.0625;137;77;0.54505
6617460;-0.14500;84.7500;137;77;0.53260
6617470;-0.12500;84.4375;137;77;0.52137
6617480;-0.12000;84.1250;137;77;0.51136
6617490;-0.11000;83.5625;137;77;0.49475
6617500;-0.06500;83.3125;137;77;0.48791
6617510;0.21500;83.0000;137;77;0.48181
6617520;0.75500;82.5625;137;77;0.47619
6617530;0.91500;82.3750;137;77;0.46789
6617540;0.41000;82.1250;137;77;0.46325
6617550;-0.23500;81.8750;137;77;0.45812
6617560;-0.24500;81.6875;137;77;0.45299
6617570;-0.17500;81.2500;137;77;0.44249
6617580;-0.16000;81.0000;137;77;0.43736
6617590;-0.15000;80.7500;137;77;0.43199
6617600;-0.14500;80.5000;137;77;0.42662
6617610;-0.13500;79.9375;137;77;0.41490
6617620;-0.13500;79.7604;137;77;0.41193
6617630;-0.13000;79.5625;137;77;0.40977
6617640;-0.12500;78.9375;137;77;0.40049
6617650;-0.12500;78.5625;137;77;0.39512
6617660;-0.13000;78.1875;137;77;0.38974
6617670;-0.12500;77.8750;137;77;0.38437
6617680;-0.12000;77.5000;137;77;0.37924
6617690;-0.11000;76.8750;137;77;0.36923
6617700;-0.10500;76.5625;137;77;0.36386
6617710;-0.09500;76.3125;137;77;0.35849
6617720;-0.09000;76.0625;137;77;0.35311
6617730;-0.08500;75.8125;137;77;0.34359
6617740;-0.07000;76.0625;137;77;0.34017
6617750;-0.05500;76.8750;137;77;0.33626
6617760;-0.04500;81.0625;137;77;0.33211
6617770;-0.02000;84.5625;137;77;0.32405
6617780;-0.00500;88.8125;137;77;0.32015
6617790;0.01500;93.6250;137;77;0.31648
6617800;0.01500;93.6250;137;77;0.31648
6617810;0.05000;109.6875;137;77;0.30647
6617820;0.07000;114.8125;137;77;0.30354
6617830;0.09500;119.5625;137;77;0.30183
6617840;0.13000;127.1875;137;77;0.29890
6617850;0.15500;130.0625;137;77;0.29670
6617860;0.18000;132.3125;137;77;0.29475
6617870;0.20500;134.0000;137;77;0.29328
6617880;0.20500;135.1875;137;77;0.29231
6617890;0.19000;136.4375;137;77;0.29084
6617900;0.14000;136.5625;137;77;0.29011
6617910;0.09000;136.4375;137;77;0.28962
6617920;0.03500;136.0625;137;77;0.28889
6617930;-0.02000;134.8750;137;77;0.28938
6617940;-0.05000;134.0000;137;77;0.28938
6617950;-0.07500;133.0000;137;77;0.28938
6617960;-0.09000;130.5000;137;77;0.28938
6617970;-0.11000;129.0625;137;77;0.28938
6617980;-0.11500;127.4375;137;77;0.28938
6617990;-0.12500;125.5625;137;77;0.28938
6618000;-0.12500;121.3125;137;78;0.29109
6618010;-0.12500;118.9375;137;78;0.29426
6618020;-0.12500;116.3125;137;78;0.29963
6618030;-0.12500;113.6250;137;78;0.30720
6618040;-0.12500;108.3125;137;78;0.31795
6618050;-0.12000;106.0000;137;78;0.35360
6618060;-0.11500;104.1250;137;78;0.37900
6618070;-0.11500;102.6250;137;78;0.40904
6618080;-0.11000;100.6250;137;78;0.47766
6618090;-0.11000;100.0625;137;78;0.51429
6618100;-0.10500;99.6875;137;78;0.55043
6618110;-0.11000;99.4375;137;78;0.58486
6618120;-0.11000;99.3125;137;78;0.61709
6618130;-0.11000;99.1875;137;78;0.66398
6618140;-0.11000;99.1250;137;78;0.68547
6618150;-0.11000;99.0000;137;78;0.70574
6618160;-0.10500;98.5625;137;78;0.73919
6618170;-0.11000;98.2500;137;78;0.75214
6618180;-0.11500;97.8750;137;78;0.76239
6618190;-0.11000;97.4375;137;78;0.77021
6618200;-0.11000;96.5000;137;78;0.77973
6618210;-0.10500;96.0000;137;78;0.78168
6618220;-0.09500;95.4375;137;78;0.78168
6618230;-0.06500;94.8750;137;78;0.77949
6618240;-0.03500;93.6875;137;78;0.77021
6618250;-0.02000;93.1250;137;78;0.76361
6618260;-0.00500;92.5625;137;78;0.75531
6618270;0.02500;92.0625;137;78;0.74505
6618280;0.06000;91.0000;137;78;0.71966
6618290;0.05000;90.5000;137;78;0.70452
6618300;0.02000;90.0000;137;78;0.68816
6618310;-0.01500;89.5625;137;78;0.67082
6618320;-0.04500;89.0625;137;78;0.65299
6618330;-0.09000;88.1875;137;78;0.62198
6618340;-0.12500;87.8125;137;78;0.60659
6618350;-0.13500;87.4375;137;78;0.59194
6618360;-0.14000;87.0000;137;78;0.57827
6618370;-0.14000;86.3125;137;78;0.55458
6618380;-0.13500;86.0625;137;78;0.54481
6618390;-0.13000;85.7500;137;78;0.53626
6618400;-0.12000;85.2500;137;78;0.52894
6618410;0.12000;85.0000;137;78;0.51673
6618420;0.54500;84.7500;137;78;0.51111
6618430;1.02500;84.5000;137;78;0.50672
6618440;0.57500;84.1250;137;78;0.49841
6618450;-0.02500;83.9375;137;78;0.49377
6618460;-0.29500;83.7500;137;78;0.48913
6618470;-0.23500;83.5625;137;78;0.48425
6618480;-0.21000;83.1875;137;78;0.47375
6618490;-0.21500;82.9375;137;78;0.46838
6618500;-0.21000;82.6875;137;78;0.46276
6618510;-0.21000;82.4375;137;78;0.45714
6618520;-0.20000;82.1250;137;78;0.45153
6618530;-0.19500;81.5000;137;78;0.44298
6618540;-0.19000;81.1875;137;78;0.43858
6618550;-0.18500;80.8125;137;78;0.43394
6618560;-0.17500;80.1250;137;78;0.42442
6618570;-0.16500;79.8125;137;78;0.41978
6618580;-0.15500;79.5000;137;78;0.41490
6618590;-0.14500;79.1875;137;78;0.41026
6618600;-0.13000;78.8750;137;78;0.40586
6618610;-0.11500;78.3750;137;78;0.39756
6618620;-0.09500;78.1250;137;78;0.39316
6618630;-0.07500;78.0625;137;78;0.38974
6618640;-0.06500;78.3125;137;78;0.38681
6618650;-0.05000;80.7500;137;78;0.37973
6618660;-0.03500;83.3750;137;78;0.37607
6618670;-0.00500;86.8750;137;78;0.37289
6618680;0.02000;91.3125;137;78;0.36996
6618690;0.05000;101.7500;137;78;0.36459
6618700;0.08000;107.4375;137;78;0.36190
6618710;0.09000;113.0000;137;78;0.35971
6618720;0.11000;123.0625;137;78;0.35629
6618730;0.12000;127.3125;137;78;0.35580
6618740;0.14000;130.8750;137;78;0.35507
6618750;0.16000;133.8125;137;78;0.35433
6618760;0.17500;136.1250;137;78;0.35385
6618770;0.18500;139.1875;137;78;0.35263
6618780;0.19000;140.1250;137;78;0.35238
6618790;0.17000;140.6250;137;78;0.35214
6618800;0.17000;140.6250;137;78;0.35214
6618810;0.08500;140.6875;137;78;0.35214
6618820;0.03000;140.3125;137;78;0.35214
6618830;-0.02500;139.7500;137;78;0.35238
6618840;-0.06500;138.2500;137;78;0.35311
6618850;-0.09500;137.3125;137;78;0.35311
6618860;-0.11500;136.1875;137;78;0.35311
6618870;-0.13500;134.9375;137;78;0.35311
6618880;-0.14000;131.8750;137;78;0.35311
6618890;-0.14500;130.1250;137;78;0.35336
6618900;-0.14500;128.1250;137;78;0.35385
6618910;-0.14500;125.8750;137;78;0.35580
6618920;-0.14500;123.4375;137;78;0.36020
6618930;-0.14000;117.9375;137;78;0.37582
6618940;-0.13500;115.1250;137;78;0.39048
6618950;-0.13500;112.4375;137;78;0.41050
6618960;-0.13000;110.0625;137;78;0.43590
6618970;-0.12500;106.4375;137;78;0.49963
6618980;-0.11500;105.1875;137;78;0.53578
6618990;-0.11000;104.1875;137;78;0.57314
6619000;-0.10500;103.0000;138;78;0.61001
6619010;-0.10500;102.7500;138;78;0.67790
6619020;-0.10000;102.5625;138;78;0.70769
6619030;-0.09500;102.4375;138;78;0.73065
6619040;-0.09000;102.3125;138;78;0.74921
6619050;-0.09000;102.0000;138;78;0.78559
6619060;-0.09500;101.8125;138;78;0.80122
6619070;-0.09500;101.5000;138;78;0.81441
6619080;-0.09500;100.7500;138;78;0.82564
6619090;-0.09500;100.3125;138;78;0.84151
6619100;-0.09500;99.8125;138;78;0.84640
6619110;-0.09500;99.2500;138;78;0.84957
6619120;-0.08500;98.0625;138;78;0.85031
6619130;-0.06500;97.5000;138;78;0.84737
6619140;-0.03500;96.8750;138;78;0.84396
6619150;-0.01500;96.3125;138;78;0.83932
6619160;-0.01000;95.6875;138;78;0.83297
6619170;0.01000;94.5625;138;78;0.81563
6619180;0.05000;94.0000;138;78;0.80391
6619190;0.05000;93.4375;138;78;0.79023
6619200;0.03000;92.9375;138;78;0.77485
6619210;-0.00500;91.8750;138;78;0.73993
6619220;-0.03500;91.4375;138;78;0.72112
6619230;-0.08500;90.9375;138;78;0.70379
6619240;-0.13000;90.5000;138;78;0.68767
6619250;-0.15000;89.5625;138;78;0.63590
6619260;-0.15500;89.1875;138;78;0.59219
6619270;-0.15000;88.8125;138;78;0.56508
6619280;-0.14000;88.0625;138;78;0.53358
6619290;-0.13500;87.7500;138;78;0.52357
6619300;-0.13500;87.5000;138;78;0.51575
6619310;0.01000;87.2500;138;78;0.50891
6619320;0.38000;87.0000;138;78;0.50281
6619330;0.99000;86.5000;138;78;0.49280
6619340;0.97500;86.3125;138;78;0.48791
6619350;0.04500;86.0625;138;78;0.48303
6619360;-0.26500;85.8125;138;78;0.47839
6619370;-0.24000;85.4375;138;78;0.46838
6619380;-0.22000;85.1875;138;78;0.46325
6619390;-0.22000;85.0000;138;78;0.45836
6619400;-0.22000;84.4375;138;78;0.45348
6619410;-0.21500;84.1250;138;78;0.44347
6619420;-0.21000;83.8750;138;78;0.43810
6619430;-0.20000;83.5625;138;78;0.43346
6619440;-0.19000;82.8750;138;78;0.42491
6619450;-0.18500;82.5625;138;78;0.42027
6619460;-0.17500;82.1875;138;78;0.41563
6619470;-0.17000;81.8750;138;78;0.41074
6619480;-0.16000;81.5000;138;78;0.40586
6619490;-0.15500;80.8125;138;78;0.39609
6619500;-0.14000;80.5625;138;78;0.39121
6619510;-0.13000;80.2500;138;78;0.38657
6619520;-0.12000;79.8125;138;78;0.38217
6619530;-0.11000;79.8125;138;78;0.37509
6619540;-0.10000;80.1875;138;78;0.37143
6619550;-0.08500;81.2500;138;78;0.36777
6619560;-0.06500;86.1250;138;78;0.36020
6619570;-0.05500;90.0625;138;78;0.35678
6619580;-0.04500;94.8125;138;78;0.35360
6619590;-0.02500;100.0625;138;78;0.35067
6619600;-0.01000;105.6250;138;78;0.34799
6619610;0.02000;116.8125;138;78;0.34310
6619620;0.03500;122.0000;138;78;0.34090
6619630;0.06000;126.6250;138;78;0.33968
6619640;0.08500;134.0625;138;78;0.33895
6619650;0.12000;136.7500;138;78;0.33724
6619660;0.14000;138.8750;138;78;0.33626
6619670;0.16000;140.4375;138;78;0.33529
6619680;0.17500;142.2500;138;78;0.33333
6619690;0.16500;142.6875;138;78;0.33284
6619700;0.14000;142.8125;138;78;0.33260
6619710;0.08000;142.7500;138;78;0.33236
6619720;0.03500;142.4375;138;78;0.33236
6619730;-0.01500;141.3750;138;78;0.33309
6619740;-0.06000;140.6250;138;78;0.33309
6619750;-0.08500;139.7500;138;78;0.33284
6619760;-0.10500;138.7500;138;78;0.33236
6619770;-0.11500;136.2500;138;78;0.33114
6619780;-0.12500;134.7500;138;78;0.33040
6619790;-0.12500;133.1250;138;78;0.32991
6619800;-0.13000;131.2500;138;78;0.32967
6619810;-0.13500;126.8125;138;78;0.33260
6619820;-0.13000;124.2500;138;78;0.33651
6619830;-0.12500;121.5000;138;78;0.34237
6619840;-0.12500;118.6250;138;78;0.35189
6619850;-0.12500;113.0625;138;78;0.38535
6619860;-0.11500;110.7500;138;78;0.40879
6619870;-0.10500;108.7500;138;78;0.43614
6619880;-0.09500;107.1250;138;78;0.46593
6619890;-0.09000;104.7500;138;78;0.52918
6619900;-0.08500;104.0000;138;78;0.56020
6619910;-0.08500;103.5000;138;78;0.58974
6619920;-0.08000;103.1250;138;78;0.61709
6619930;-0.08000;102.6250;138;78;0.65568
6619940;-0.08500;102.4375;138;78;0.67326
6619950;-0.08500;102.1875;138;78;0.68987
6619960;-0.08500;101.9375;138;78;0.70452
6619970;-0.08500;101.2500;138;78;0.72747
6619980;-0.08500;100.8125;138;78;0.73626
6619990;-0.08500;100.2500;138;78;0.74335
6620000;-0.08500;99.1875;137;78;0.74896
6620010;-0.07500;98.5625;137;78;0.75531
6620020;-0.06500;98.0000;137;78;0.75507
6620030;-0.03500;97.3750;137;78;0.75287
6620040;0.00000;96.0625;137;78;0.74676
6620050;0.01000;95.3750;137;78;0.74188
6620060;0.02000;94.6875;137;78;0.73578
6620070;0.05000;94.0625;137;78;0.72796
6620080;0.07500;93.4375;137;78;0.71844
6620090;0.08000;92.2500;137;78;0.69451
6620100;0.04000;91.6250;137;78;0.68034
6620110;0.01000;91.0625;137;78;0.66520
6620120;-0.02000;90.5000;137;78;0.64933
6620130;-0.07500;89.4375;137;78;0.61978
6620140;-0.10500;88.9375;137;78;0.60464
6620150;-0.11500;88.5000;137;78;0.58950
6620160;-0.12500;87.6250;137;78;0.56117
6620170;-0.12500;87.2500;137;78;0.54872
6620180;-0.12500;86.8750;137;78;0.53724
6620190;-0.11500;86.5000;137;78;0.52674
6620200;-0.10500;86.1250;137;78;0.51722
6620210;0.04000;85.5000;137;78;0.50061
6620220;0.60000;85.2500;137;78;0.49377
6620230;0.98500;85.0000;137;78;0.48742
6620240;0.79500;84.8125;137;78;0.48083
6620250;-0.08000;84.3750;137;78;0.46740
6620260;-0.27500;84.1250;137;78;0.46056
6620270;-0.22000;83.8750;137;78;0.45397
6620280;-0.18000;83.4375;137;78;0.44029
6620290;-0.17500;83.1250;137;78;0.43346
6620300;-0.17000;82.8750;137;78;0.42637
6620310;-0.16500;82.5625;137;78;0.41929
6620320;-0.16000;82.2500;137;78;0.41197
6620330;-0.15500;81.4375;137;78;0.39951
6620340;-0.14500;81.0625;137;78;0.39267
6620350;-0.14000;80.6875;137;78;0.38559
6620360;-0.12500;80.2500;137;78;0.37875
6620370;-0.11500;79.4375;137;78;0.36508
6620380;-0.11000;79.0625;137;78;0.35849
6620390;-0.10500;78.6875;137;78;0.35189
6620400;-0.09500;77.9375;137;78;0.34554
6620410;-0.09500;77.6250;137;78;0.33260
6620420;-0.09000;77.3125;137;78;0.32747
6620430;-0.08500;77.0625;137;78;0.32308
6620440;-0.07500;77.0000;137;78;0.31770
6620450;-0.06000;78.0000;137;78;0.30672
6620460;-0.04000;79.5625;137;78;0.30183
6620470;-0.03000;82.0625;137;78;0.29719
6620480;-0.01500;85.4375;137;78;0.29255
6620490;0.00500;94.3750;137;78;0.28303
6620500;0.02000;99.5625;137;78;0.27863
6620510;0.03500;104.8750;137;78;0.27424
6620520;0.06000;115.1875;137;78;0.26789
6620530;0.07500;119.7500;137;78;0.26593
6620540;0.11000;123.8125;137;78;0.26349
6620550;0.13000;127.1875;137;78;0.26081
6620560;0.17000;132.1250;137;78;0.25519
6620570;0.19000;133.6875;137;78;0.25250
6620580;0.20500;134.7500;137;78;0.25006
6620590;0.19500;135.3750;137;78;0.24786
6620600;0.16500;135.6875;137;78;0.24591
6620610;0.12000;135.5000;137;78;0.24200
6620620;0.05000;135.0625;137;78;0.24103
6620630;0.01500;134.4375;137;78;0.24078
6620640;-0.02000;132.5625;137;78;0.24005
6620650;-0.05500;131.3750;137;78;0.23810
6620660;-0.06500;130.0625;137;78;0.23712
6620670;-0.07500;128.5625;137;78;0.23614
6620680;-0.09000;125.2500;137;78;0.23443
6620690;-0.09500;123.3125;137;78;0.23346
6620700;-0.10000;121.1875;137;78;0.23272
6620710;-0.10500;118.8750;137;78;0.23272
6620720;-0.10500;113.6250;137;78;0.23394
6620730;-0.10000;110.8125;137;78;0.24249
6620740;-0.09500;108.0625;137;78;0.25079
6620750;-0.09500;105.5625;137;78;0.26276
6620760;-0.08500;103.4375;137;78;0.27912
6620770;-0.08500;100.3750;137;78;0.32454
6620780;-0.07500;99.3750;137;78;0.35238
6620790;-0.07500;98.6875;137;78;0.38193
6620800;-0.07500;98.6875;137;78;0.38193
6620810;-0.06500;97.8750;137;78;0.47009
6620820;-0.06500;97.8125;137;78;0.49377
6620830;-0.06500;97.8125;137;78;0.51380
6620840;-0.06500;97.6875;137;78;0.55336
6620850;-0.07000;97.5625;137;78;0.57045
6620860;-0.07000;97.3125;137;78;0.58510
6620870;-0.07500;97.0000;137;78;0.59756
6620880;-0.07500;96.2500;137;78;0.60733
6620890;-0.08000;95.8125;137;78;0.62076
6620900;-0.08000;95.3125;137;78;0.62466
6620910;-0.07500;94.8125;137;78;0.62686
6620920;-0.05500;93.6875;137;78;0.62540
6620930;-0.03000;93.1250;137;78;0.62198
6620940;0.00000;92.5000;137;78;0.61734
6620950;0.00500;91.9375;137;78;0.61148
6620960;0.02000;90.8125;137;78;0.60415
6620970;0.06000;90.3125;137;78;0.58535
6620980;0.08000;89.7500;137;78;0.57363
6620990;0.07000;89.1875;137;78;0.56068
6621000;0.02000;88.1875;137;78;0.53114
6621010;-0.00500;87.6875;137;78;0.51526
6621020;-0.04000;87.2500;137;78;0.50085
6621030;-0.09500;86.8125;137;78;0.48742
6621040;-0.11500;86.3750;137;78;0.47302
6621050;-0.12500;85.5625;137;78;0.44518
6621060;-0.12500;85.1875;137;78;0.43272
6621070;-0.12500;84.8750;137;78;0.42173
6621080;-0.11500;84.5000;137;78;0.41245
6621090;-0.11500;83.8750;137;78;0.39707
6621100;-0.06500;83.6250;137;78;0.39072
6621110;0.13000;83.3750;137;78;0.38510
6621120;0.72500;82.9375;137;78;0.37656
6621130;0.96500;82.6875;137;78;0.37314
6621140;0.53000;82.5000;137;78;0.36947
6621150;-0.14500;82.2500;137;78;0.36557
6621160;-0.29000;82.0625;137;78;0.36142
6621170;-0.21000;81.6250;137;78;0.35287
6621180;-0.18500;81.3750;137;78;0.34847
6621190;-0.18000;81.1250;137;78;0.34408
6621200;-0.18000;80.8750;137;78;0.33944
6621210;-0.17500;80.3125;137;78;0.33016
6621220;-0.17000;80.0000;137;78;0.32674
6621230;-0.16500;79.6875;137;78;0.32357
6621240;-0.15500;79.3750;137;78;0.31941
6621250;-0.14500;78.6875;137;78;0.31038
6621260;-0.14500;78.3750;137;78;0.30574
6621270;-0.14000;78.0000;137;78;0.30110
6621280;-0.13500;77.3125;137;78;0.29231
6621290;-0.13000;77.0000;137;78;0.28791
6621300;-0.12000;76.6875;137;78;0.28767
6621310;-0.11000;76.4375;137;78;0.28938
6621320;-0.10000;76.1250;137;78;0.28840
6621330;-0.08500;75.7500;137;78;0.28547
6621340;-0.07000;75.8125;137;78;0.28278
6621350;-0.05500;76.3125;137;78;0.27961
6621360;-0.04000;79.3125;137;78;0.27619
6621370;-0.02500;82.1250;137;78;0.26935
6621380;-0.01000;85.7500;137;78;0.26618
6621390;0.00500;90.0000;137;78;0.26325
6621400;0.02500;94.7500;137;78;0.26056
6621410;0.04500;104.8750;137;78;0.25568
6621420;0.08000;109.8125;137;78;0.25470
6621430;0.10500;114.4375;137;78;0.25397
6621440;0.13000;118.6250;137;78;0.25299
6621450;0.16000;125.2500;137;78;0.25055
6621460;0.18500;127.6250;137;78;0.24957
6621470;0.21000;129.4375;137;78;0.24884
6621480;0.22000;130.7500;137;78;0.24811
6621490;0.20000;132.1250;137;78;0.24713
6621500;0.16500;132.2500;137;78;0.24664
6621510;0.11000;132.0625;137;78;0.24615
6621520;0.05000;131.0000;137;78;0.24640
6621530;-0.01000;130.1875;137;78;0.24737
6621540;-0.04000;129.1250;137;78;0.24713
6621550;-0.06000;127.9375;137;78;0.24713
6621560;-0.08000;125.0625;137;78;0.24786
6621570;-0.08500;123.3750;137;78;0.24835
6621580;-0.09500;121.5000;137;78;0.24908
6621590;-0.09500;119.5000;137;78;0.24982
6621600;-0.09500;117.3750;137;78;0.25055
6621610;-0.10000;112.4375;137;78;0.25324
6621620;-0.10000;109.8125;137;78;0.25617
6621630;-0.10000;107.1875;137;78;0.26056
6621640;-0.09500;104.6250;137;78;0.26716
6621650;-0.09500;100.5000;137;78;0.29060
6621660;-0.08500;99.0000;137;78;0.30818
6621670;-0.07500;97.8125;137;78;0.32967
6621680;-0.07000;96.4375;137;78;0.35433
6621690;-0.06500;96.0625;137;78;0.41026
6621700;-0.06500;95.8750;137;78;0.43956
6621710;-0.06500;95.8125;137;78;0.46838
6621720;-0.06000;95.8125;137;78;0.49280
6621730;-0.06500;95.7500;137;78;0.53578
6621740;-0.06500;95.6875;137;78;0.55653
6621750;-0.06500;95.5625;137;78;0.57534
6621760;-0.06500;95.3750;137;78;0.59170
6621770;-0.06500;94.7500;137;78;0.61709
6621780;-0.07000;94.3750;137;78;0.62637
6621790;-0.07500;94.0000;137;78;0.63346
6621800;-0.07500;94.0000;137;78;0.63346
6621810;-0.07500;92.5000;137;78;0.64322
6621820;-0.06500;92.0000;137;78;0.64225
6621830;-0.03500;91.4375;137;78;0.63956
6621840;-0.01500;90.9375;137;78;0.63590
6621850;0.00000;89.8750;137;78;0.62393
6621860;0.01000;89.3125;137;78;0.61563
6621870;0.05000;88.8125;137;78;0.60586
6621880;0.08000;88.3125;137;78;0.59438
6621890;0.08000;87.2500;137;78;0.56825
6621900;0.05000;86.7500;137;78;0.55360
6621910;0.00500;86.3125;137;78;0.53822
6621920;-0.02000;85.8750;137;78;0.52430
6621930;-0.06500;85.0625;137;78;0.49792
6621940;-0.11000;84.6250;137;78;0.48474
6621950;-0.12000;84.2500;137;78;0.47277
6621960;-0.12000;83.5000;137;78;0.46178
6621970;-0.11500;83.1875;137;78;0.44347
6621980;-0.11500;82.9375;137;78;0.43614
6621990;-0.10500;82.6250;137;78;0.42979
6622000;-0.10000;82.3750;136;78;0.42418
6622010;-0.02500;81.9375;136;78;0.41514
6622020;0.31500;81.6875;136;78;0.41148
6622030;0.90500;81.5000;136;78;0.40830
6622040;0.86500;81.3125;136;78;0.40488
6622050;0.20500;80.9375;136;78;0.39756
6622060;-0.26000;80.7500;136;78;0.39365
6622070;-0.22500;80.5625;136;78;0.38974
6622080;-0.19000;80.4375;136;78;0.38584
6622090;-0.17500;79.9375;136;78;0.37753
6622100;-0.17000;79.6875;136;78;0.37314
6622110;-0.16500;79.3750;136;78;0.36874
6622120;-0.16000;79.1250;136;78;0.36532
6622130;-0.15500;78.5625;136;78;0.35849
6622140;-0.15000;78.2500;136;78;0.35433
6622150;-0.14500;77.8750;136;78;0.35018
6622160;-0.13500;77.1875;136;78;0.34579
6622170;-0.13500;76.8125;136;78;0.33724
6622180;-0.13000;76.5000;136;78;0.33309
6622190;-0.12000;76.1875;136;78;0.32869
6622200;-0.11000;75.5625;136;78;0.32063
6622210;-0.10500;75.3125;136;78;0.31673
6622220;-0.10500;75.0625;136;78;0.31355
6622230;-0.09000;74.8750;136;78;0.31087
6622240;-0.08000;74.7500;136;78;0.30745
6622250;-0.06500;75.5625;136;78;0.30012
6622260;-0.04500;76.8750;136;78;0.29646
6622270;-0.03500;79.0625;136;78;0.29280
6622280;-0.02000;82.1250;136;78;0.28938
6622290;0.00000;90.4375;136;78;0.28352
6622300;0.02000;95.3750;136;78;0.28107
6622310;0.04000;100.5000;136;78;0.27888
6622320;0.06000;110.6250;136;78;0.27766
6622330;0.09000;115.2500;136;78;0.27521
6622340;0.11500;119.3125;136;78;0.27326
6622350;0.14500;122.8750;136;78;0.27155
6622360;0.18000;128.0000;136;78;0.26862
6622370;0.20500;129.6875;136;78;0.26764
6622380;0.22500;130.8750;136;78;0.26667
6622390;0.22500;131.6875;136;78;0.26569
6622400;0.19500;132.1875;136;78;0.26447
6622410;0.15500;132.0000;136;78;0.26422
6622420;0.09500;131.6250;136;78;0.26471
6622430;0.03000;131.0000;136;78;0.26569
6622440;-0.01500;129.1250;136;78;0.26667
6622450;-0.04000;128.0000;136;78;0.26716
6622460;-0.06500;126.6875;136;78;0.26764
6622470;-0.08500;125.1875;136;78;0.26789
6622480;-0.09000;123.6250;136;78;0.26813
6622490;-0.09500;119.9375;136;78;0.26862
6622500;-0.09500;117.8750;136;78;0.26911
6622510;-0.09500;115.5625;136;78;0.26984
6622520;-0.10000;113.1250;136;78;0.27155
6622530;-0.10000;107.8750;136;78;0.27937
6622540;-0.09500;105.2500;136;78;0.28669
6622550;-0.09500;102.8750;136;78;0.29744
6622560;-0.09000;99.1875;136;78;0.33089
6622570;-0.08500;97.9375;136;78;0.35360
6622580;-0.08000;97.0000;136;78;0.37973
6622590;-0.07500;96.3750;136;78;0.40830
6622600;-0.07000;95.7500;136;78;0.46862
6622610;-0.06500;95.6875;136;78;0.49841
6622620;-0.06500;95.7500;136;78;0.52308
6622630;-0.07000;95.8125;136;78;0.54408
6622640;-0.07000;95.8125;136;78;0.56581
6622650;-0.07500;95.6875;136;78;0.60488
6622660;-0.07500;95.5625;136;78;0.62100
6622670;-0.08000;95.3125;136;78;0.63468
6622680;-0.08000;94.6250;136;78;0.64591
6622690;-0.08000;94.1875;136;78;0.66227
6622700;-0.08000;93.6875;136;78;0.66740
6622710;-0.08500;93.1875;136;78;0.67082
6622720;-0.08000;92.0625;136;78;0.66984
6622730;-0.07000;91.5000;136;78;0.66789
6622740;-0.04000;90.9375;136;78;0.66471
6622750;-0.02500;90.3750;136;78;0.66007
6622760;-0.01500;89.8125;136;78;0.65372
6622770;0.00000;88.7500;136;78;0.63614
6622780;0.03000;88.1875;136;78;0.62515
6622790;0.06500;87.6250;136;78;0.61245
6622800;0.05000;86.6250;136;78;0.58339
6622810;0.02000;86.1250;136;78;0.56777
6622820;-0.00500;85.6875;136;78;0.55336
6622830;-0.03000;85.2500;136;78;0.53993
6622840;-0.07500;84.8125;136;78;0.52552
6622850;-0.10500;84.0625;136;78;0.49890
6622860;-0.11500;83.7500;136;78;0.48718
6622870;-0.12000;83.4375;136;78;0.47668
6622880;-0.12000;83.1250;136;78;0.46764
6622890;-0.11500;82.6250;136;78;0.45324
6622900;-0.11500;82.3750;136;78;0.44786
6622910;-0.09500;82.1875;136;78;0.44298
6622920;0.14500;81.7500;136;78;0.43565
6622930;0.54500;81.5625;136;78;0.43199
6622940;0.96500;81.3750;136;78;0.42808
6622950;0.48000;81.1875;136;78;0.42418
6622960;-0.08000;81.0000;136;78;0.42027
6622970;-0.29500;80.6250;136;78;0.41172
6622980;-0.22500;80.4375;136;78;0.40708
6622990;-0.19000;80.2500;136;78;0.40269
6623000;-0.19000;80.0000;137;78;0.39829
6623010;-0.18500;79.5000;137;78;0.38877
6623020;-0.18000;79.1875;137;78;0.38462
6623030;-0.17500;78.8750;137;78;0.38120
6623040;-0.17000;78.5625;137;78;0.37729
6623050;-0.16000;77.8125;137;78;0.36825
6623060;-0.15500;77.4375;137;78;0.36337
6623070;-0.14500;77.0625;137;78;0.35849
6623080;-0.14000;76.6875;137;78;0.35360
6623090;-0.13000;76.0000;137;78;0.34408
6623100;-0.12500;75.6875;137;78;0.33968
6623110;-0.11500;75.4375;137;78;0.33553
6623120;-0.10500;75.1250;137;78;0.33236
6623130;-0.09000;74.6875;137;78;0.32650
6623140;-0.08500;74.6250;137;78;0.32308
6623150;-0.07500;74.8125;137;78;0.31966
6623160;-0.05500;76.8750;137;78;0.31282
6623170;-0.04000;79.1875;137;78;0.30965
6623180;-0.02500;82.3750;137;78;0.30647
6623190;-0.00500;86.3750;137;78;0.30330
6623200;0.02000;96.0625;137;78;0.29719
6623210;0.03500;101.3125;137;78;0.29475
6623220;0.05500;106.6250;137;78;0.29328
6623230;0.08500;111.6875;137;78;0.29231
6623240;0.10500;116.3750;137;78;0.29084
6623250;0.12500;124.1250;137;78;0.28767
6623260;0.15000;127.0625;137;78;0.28596
6623270;0.16500;129.3750;137;78;0.28425
6623280;0.17500;132.3125;137;78;0.28303
6623290;0.16500;133.1250;137;78;0.28107
6623300;0.14000;133.6250;137;78;0.28034
6623310;0.08000;133.7500;137;78;0.27985
6623320;0.01000;133.6250;137;78;0.27985
6623330;-0.09500;132.7500;137;78;0.28034
6623340;-0.14500;132.0000;137;78;0.28010
6623350;-0.19000;131.1250;137;78;0.28230
6623360;-0.22000;128.9375;137;78;0.28718
6623370;-0.21000;127.5625;137;78;0.28767
6623380;-0.18000;126.0625;137;78;0.28767
6623390;-0.13000;124.4375;137;78;0.28767
6623400;-0.06000;122.5625;137;78;0.28767
6623410;-0.00500;118.3750;137;78;0.28938
6623420;0.00000;116.0000;137;78;0.29158
6623430;0.00000;113.5000;137;78;0.29499
6623440;0.00000;108.1250;137;78;0.30940
6623450;0.00000;105.6250;137;78;0.32234
6623460;0.02000;103.3750;137;78;0.34017
6623470;0.17500;101.5625;137;78;0.36313
6623480;0.67000;99.0625;137;78;0.42247
6623490;0.92000;98.3750;137;78;0.45690
6623500;0.51500;97.9375;137;78;0.49304
6623510;0.09500;97.6875;137;78;0.52943
6623520;-0.03000;97.5000;137;78;0.56044
6623530;-0.02000;97.5625;137;78;0.61661
6623540;-0.06000;97.6250;137;78;0.64444
6623550;-0.08500;97.6250;137;78;0.67033
6623560;-0.09000;97.3750;137;78;0.69353
6623570;-0.09500;97.1250;137;78;0.73114
6623580;-0.09500;96.7500;137;78;0.74554
6623590;-0.09500;96.3750;137;78;0.75751
6623600;-0.09500;95.8750;137;78;0.76703
6623610;-0.10000;94.7500;137;78;0.77802
6623620;-0.10000;94.1875;137;78;0.77900
6623630;-0.10500;93.5625;137;78;0.77900
6623640;-0.11500;93.0000;137;78;0.77802
6623650;-0.12500;91.7500;137;78;0.77070
6623660;-0.13000;91.1250;137;78;0.76410
6623670;-0.11000;90.5625;137;78;0.75556
6623680;-0.09500;89.5625;137;78;0.74505
6623690;-0.08000;89.0625;137;78;0.71868
6623700;-0.07000;88.5625;137;78;0.70305
6623710;-0.05500;88.0625;137;78;0.68596
6623720;-0.03500;87.0625;137;78;0.66960
6623730;-0.01500;86.5625;137;78;0.63663
6623740;0.00500;86.1250;137;78;0.61929
6623750;0.03500;85.7500;137;78;0.60244
6623760;0.07000;85.6250;137;78;0.57192
6623770;0.09000;86.0000;137;78;0.55873
6623780;0.12500;86.7500;137;78;0.54750
6623790;0.17000;87.8750;137;78;0.53773
6623800;0.17000;87.8750;137;78;0.53773
6623810;0.23000;91.1875;137;78;0.52161
6623820;0.24500;95.3125;137;78;0.50989
6623830;0.21500;97.3750;137;78;0.50476
6623840;0.13000;101.1250;137;78;0.49548
6623850;0.06500;102.5625;137;78;0.49133
6623860;-0.01000;103.6250;137;78;0.48742
6623870;-0.08000;104.3125;137;78;0.48376
6623880;-0.11000;104.5000;137;78;0.47985
6623890;-0.13500;103.5625;137;78;0.47179
6623900;-0.15500;102.5000;137;78;0.46716
6623910;-0.15500;101.0625;137;78;0.46203
6623920;-0.15500;99.3125;137;78;0.45763
6623930;-0.15500;95.2500;137;78;0.44835
6623940;-0.15000;93.1250;137;78;0.44347
6623950;-0.14500;91.1875;137;78;0.43858
6623960;-0.14000;87.9375;137;78;0.42930
6623970;-0.13500;86.5625;137;78;0.42466
6623980;-0.13500;85.4375;137;78;0.42002
6623990;-0.12500;84.5625;137;78;0.41538
6624000;-0.12500;83.2500;138;78;0.40586
6624010;-0.12500;82.8750;138;78;0.40171
6624020;-0.12000;82.5625;138;78;0.39780
6624030;-0.12000;82.4375;138;78;0.39341
6624040;-0.12000;82.1875;138;78;0.38632
6624050;-0.12000;82.1250;138;78;0.38486
6624060;-0.12500;82.0625;138;78;0.38535
6624070;-0.13000;81.9375;138;78;0.38803
6624080;-0.13000;81.8750;138;78;0.39316
6624090;-0.13500;81.7500;138;78;0.41001
6624100;-0.13500;81.6250;138;78;0.42076
6624110;-0.13500;81.5000;138;78;0.43248
6624120;-0.13000;81.3750;138;78;0.44322
6624130;-0.12500;81.0000;138;78;0.46349
6624140;-0.12500;80.8750;138;78;0.47326
6624150;-0.13000;80.6875;138;78;0.48156
6624160;-0.13000;80.5000;138;78;0.48767
6624170;-0.12500;80.0625;138;78;0.49328
6624180;-0.12500;79.8125;138;78;0.49231
6624190;-0.12500;79.6250;138;78;0.48913
6624200;-0.12500;79.3750;138;78;0.48400
6624210;-0.12500;78.8125;138;78;0.47009
6624220;-0.12500;78.5000;138;78;0.46276
6624230;-0.12000;78.1875;138;78;0.45372
6624240;-0.11500;77.9375;138;78;0.44396
6624250;-0.11500;77.3750;138;78;0.42466
6624260;-0.11500;77.0625;138;78;0.41563
6624270;-0.11000;76.8125;138;78;0.40733
6624280;-0.10500;76.3125;138;78;0.39341
6624290;-0.10500;76.0625;138;78;0.38803
6624300;-0.10000;75.8125;138;78;0.38388
6624310;-0.09500;75.5625;138;78;0.38071
6624320;-0.09500;75.1250;138;78;0.37875
6624330;-0.09500;74.9375;138;78;0.37607
6624340;-0.09500;74.7500;138;78;0.37509
6624350;-0.09500;74.6250;138;78;0.37436
6624360;-0.09000;74.4375;138;78;0.37363
6624370;-0.09500;74.1250;138;78;0.37216
6624380;-0.09500;73.9375;138;78;0.37118
6624390;-0.09000;73.7500;138;78;0.37021
6624400;-0.08500;73.6250;138;78;0.36923
6624410;-0.08500;73.3125;138;78;0.36752
6624420;-0.08500;73.1875;138;78;0.36728
6624430;-0.08000;73.0000;138;78;0.36654
6624440;-0.08000;72.7500;138;78;0.36581
6624450;-0.08000;72.6250;138;78;0.36337
6624460;-0.08000;72.5000;138;78;0.36166
6624470;-0.07500;72.3125;138;78;0.35971
6624480;-0.06500;72.1875;138;78;0.35800
6624490;-0.03500;71.8125;138;78;0.35385
6624500;0.00000;71.6875;138;78;0.35140
6624510;0.01500;71.5625;138;78;0.34896
6624520;0.02000;71.2500;138;78;0.34530
6624530;0.04500;71.0625;138;78;0.34310
6624540;0.07500;70.9375;138;78;0.34042
6624550;0.08000;70.7500;138;78;0.33748
6624560;0.04500;70.4375;138;78;0.33162
6624570;0.02000;70.3125;138;78;0.32869
6624580;-0.01500;70.1875;138;78;0.32576
6624590;-0.05500;70.0625;138;78;0.32332
6624600;-0.08500;69.8750;138;78;0.32137
6624610;-0.10000;69.6250;138;78;0.31893
6624620;-0.10500;69.5625;138;78;0.31868
6624630;-0.10500;69.4375;138;78;0.31819
6624640;-0.10500;69.3750;138;78;0.31770
6624650;-0.10500;69.3750;138;78;0.31770
6624660;-0.10500;69.3750;138;78;0.31770
6624670;-0.10500;69.3750;138;78;0.31770
6624680;0.94000;68.8750;138;78;0.31526
6624690;0.88500;68.8125;138;78;0.31551
6624700;0.28000;68.7500;138;78;0.31600
6624710;-0.25000;68.6875;138;78;0.31648
6624720;-0.24000;68.6875;138;78;0.31893
6624730;-0.21000;68.6875;138;78;0.32015
6624740;-0.21000;68.6875;138;78;0.32161
6624750;-0.21000;68.6250;138;78;0.32308
6624760;-0.20000;68.5000;138;78;0.32552
6624770;-0.20000;68.4375;138;78;0.32674
6624780;-0.19000;68.3750;138;78;0.32796
6624790;-0.18000;68.2500;138;78;0.32894
6624800;-0.18000;68.2500;138;78;0.32894
6624810;-0.16500;67.7500;138;78;0.33260
6624820;-0.16000;67.5625;138;78;0.33431
6624830;-0.15000;67.4375;138;78;0.33553
6624840;-0.14500;67.0625;138;78;0.33773
6624850;-0.14000;67.0625;138;78;0.33895
6624860;-0.13500;67.3750;138;78;0.34017
6624870;-0.12000;68.3125;138;78;0.34139
6624880;-0.11000;73.3750;138;78;0.34432
6624890;-0.10500;77.6875;138;78;0.34579
6624900;-0.09500;82.9375;138;78;0.34750
6624910;-0.08000;88.8750;138;78;0.34921
6624920;-0.06500;95.1250;138;78;0.35116
6624930;-0.05000;107.6250;138;78;0.35482
6624940;-0.03500;113.5000;138;78;0.35629
6624950;-0.01500;118.8750;138;78;0.35751
6624960;0.00000;123.6250;138;78;0.35873
6624970;0.02000;130.9375;138;78;0.36142
6624980;0.04000;133.6250;138;78;0.36313
6624990;0.06000;135.6875;138;78;0.36508
6625000;0.08000;137.3125;137;78;0.36703
6625010;0.11000;139.3125;137;78;0.37118
6625020;0.13000;139.8125;137;78;0.37314
6625030;0.15500;140.0000;137;78;0.37485
6625040;0.17500;139.6875;137;78;0.37680
6625050;0.17500;139.1875;137;78;0.38144
6625060;0.16500;138.4375;137;78;0.38364
6625070;0.12000;137.5000;137;78;0.38584
6625080;0.07000;135.0000;137;78;0.38877
6625090;0.04000;133.5000;137;78;0.38974
6625100;0.00000;131.8750;137;78;0.38999
6625110;-0.02500;130.0625;137;78;0.38974
6625120;-0.05000;128.1875;137;78;0.38974
6625130;-0.06500;124.1250;137;78;0.39145
6625140;-0.07500;121.9375;137;78;0.39438
6625150;-0.08500;119.6875;137;78;0.40049
6625160;-0.08500;117.3750;137;78;0.41123
6625170;-0.08500;112.7500;137;78;0.44957
6625180;-0.09000;110.5625;137;78;0.47839
6625190;-0.08500;108.6250;137;78;0.51306
6625200;-0.08500;106.9375;137;78;0.55263
6625210;-0.07500;104.3125;137;78;0.63394
6625220;-0.07500;103.3750;137;78;0.66960
6625230;-0.06500;102.6875;137;78;0.70965
6625240;-0.06500;102.1250;137;78;0.75018
6625250;-0.06500;101.3750;137;78;0.82564
6625260;-0.05500;101.1875;137;78;0.85910
6625270;-0.05500;100.9375;137;78;0.88938
6625280;-0.05500;100.7500;137;78;0.91600
6625290;-0.06000;100.2500;137;78;0.95946
6625300;-0.06000;99.9375;137;78;0.97607
6625310;-0.06000;99.5625;137;78;0.98681
6625320;-0.06500;99.1250;137;78;0.99243
6625330;-0.06500;98.2500;137;78;0.99805
6625340;-0.07000;97.6875;137;78;0.99902
6625350;-0.07000;97.1875;137;78;0.99951
6625360;-0.06500;96.0625;137;78;0.99976
6625370;-0.07000;95.5000;137;78;0.99951
6625380;-0.07000;94.8750;137;78;0.99658
6625390;-0.07000;94.3125;137;78;0.98950
6625400;-0.07000;93.7500;137;78;0.91722
6625410;-0.07000;92.6250;137;78;0.75482
6625420;-0.07000;92.1250;137;78;0.72039
6625430;-0.07500;91.6250;137;78;0.69695
6625440;-0.07500;90.7500;137;78;0.66227
6625450;-0.06000;90.3125;137;78;0.64713
6625460;-0.04500;89.8750;137;78;0.63272
6625470;-0.01000;89.5000;137;78;0.61880
6625480;0.01500;88.6250;137;78;0.59243
6625490;0.02000;88.2500;137;78;0.58046
6625500;0.04000;87.8750;137;78;0.56947
6625510;0.08000;87.5625;137;78;0.55971
6625520;0.08500;87.2500;137;78;0.55092
6625530;0.06500;86.5625;137;78;0.53480
6625540;0.02000;86.1875;137;78;0.52772
6625550;-0.00500;85.8750;137;78;0.52112
6625560;-0.05500;85.5625;137;78;0.51477
6625570;-0.10500;85.0000;137;78;0.50305
6625580;-0.12000;84.6875;137;78;0.49768
6625590;-0.12500;84.3750;137;78;0.49231
6625600;-0.12500;84.0625;137;78;0.48718
6625610;-0.11500;83.5625;137;78;0.47717
6625620;-0.11500;83.3750;137;78;0.47228
6625630;-0.11500;83.1250;137;78;0.46716
6625640;-0.00500;82.9375;137;78;0.46227
6625650;0.43500;82.5000;137;78;0.45201
6625660;1.13500;82.2500;137;78;0.44689
6625670;0.97000;82.0625;137;78;0.44151
6625680;0.18500;81.6875;137;78;0.43614
6625690;-0.24500;81.5625;137;78;0.42540
6625700;-0.21500;81.3750;137;78;0.42027
6625710;-0.19500;81.1875;137;78;0.41563
6625720;-0.19500;81.0000;137;78;0.41123
6625730;-0.19500;80.6250;137;78;0.40244
6625740;-0.19000;80.3750;137;78;0.39805
6625750;-0.18500;80.1250;137;78;0.39365
6625760;-0.18000;79.8125;137;78;0.38950
6625770;-0.17000;79.1875;137;78;0.38169
6625780;-0.16500;78.8750;137;78;0.37802
6625790;-0.16000;78.5625;137;78;0.37436
6625800;-0.16000;78.5625;137;78;0.37436
6625810;-0.13500;77.5625;137;78;0.36361
6625820;-0.13000;77.1875;137;78;0.36093
6625830;-0.12000;76.8125;137;78;0.35800
6625840;-0.10500;76.5000;137;78;0.35507
6625850;-0.09000;76.0625;137;78;0.34921
6625860;-0.08500;76.3125;137;78;0.34628
6625870;-0.07000;77.1250;137;78;0.34359
6625880;-0.05500;81.4375;137;78;0.33919
6625890;-0.04500;85.1250;137;78;0.33724
6625900;-0.03500;89.6250;137;78;0.33529
6625910;-0.01500;94.6875;137;78;0.33382
6625920;0.00000;100.0625;137;78;0.33260
6625930;0.01500;110.9375;137;78;0.33040
6625940;0.04000;116.0000;137;78;0.32943
6625950;0.05000;120.6250;137;78;0.32869
6625960;0.07000;124.6250;137;78;0.32821
6625970;0.10000;130.7500;137;78;0.32796
6625980;0.12000;132.8750;137;78;0.32796
6625990;0.14500;134.5000;137;78;0.32821
6626000;0.17000;135.6875;137;78;0.32845
6626010;0.18500;137.0000;137;78;0.32967
6626020;0.18500;137.2500;137;78;0.33040
6626030;0.17000;137.2500;137;78;0.33065
6626040;0.13000;137.0625;137;78;0.33089
6626050;0.08500;136.1875;137;78;0.33089
6626060;0.03000;135.5625;137;78;0.33089
6626070;0.00000;134.7500;137;78;0.33089
6626080;-0.03000;133.8125;137;78;0.33065
6626090;-0.05500;131.5625;137;78;0.32967
6626100;-0.06500;130.1875;137;78;0.32894
6626110;-0.06500;128.6250;137;78;0.32845
6626120;-0.07500;126.9375;137;78;0.32821
6626130;-0.08000;123.0000;137;78;0.32821
6626140;-0.08000;120.7500;137;78;0.32918
6626150;-0.08000;118.3750;137;78;0.33187
6626160;-0.07500;113.3125;137;78;0.34554
6626170;-0.07000;110.8750;137;78;0.35751
6626180;-0.07000;108.5625;137;78;0.37289
6626190;-0.06500;106.5625;137;78;0.39170
6626200;-0.06500;104.8750;137;78;0.41319
6626210;-0.05500;102.3125;137;78;0.45714
6626220;-0.05500;101.4375;137;78;0.47643
6626230;-0.05500;100.7500;137;78;0.49768
6626240;-0.05500;100.2500;137;78;0.51941
6626250;-0.05500;99.5625;137;78;0.55922
6626260;-0.05000;99.2500;137;78;0.57631
6626270;-0.05000;99.0000;137;78;0.59145
6626280;-0.05000;98.5000;137;78;0.60464
6626290;-0.04500;98.1250;137;78;0.62515
6626300;-0.04500;97.7500;137;78;0.63272
6626310;-0.04500;97.3750;137;78;0.63712
6626320;-0.05500;96.4375;137;78;0.64200
6626330;-0.05500;95.9375;137;78;0.64396
6626340;-0.05500;95.3750;137;78;0.64493
6626350;-0.05500;94.8125;137;78;0.64469
6626360;-0.05500;93.6250;137;78;0.64054
6626370;-0.05000;93.0625;137;78;0.63663
6626380;-0.04500;92.4375;137;78;0.63126
6626390;-0.02500;91.8125;137;78;0.62466
6626400;0.00500;91.2500;137;78;0.61661
6626410;0.02000;90.0625;137;78;0.59756
6626420;0.03000;89.5000;137;78;0.58730
6626430;0.06000;88.9375;137;78;0.57558
6626440;0.09000;88.3750;137;78;0.56288
6626450;0.10000;87.3750;137;78;0.53529
6626460;0.07000;86.9375;137;78;0.52112
6626470;0.03500;86.5000;137;78;0.50696
6626480;0.00000;86.0625;137;78;0.49328
6626490;-0.05000;85.2500;137;78;0.46838
6626500;-0.09000;84.8750;137;78;0.45714
6626510;-0.10500;84.5000;137;78;0.44762
6626520;-0.10500;84.1250;137;78;0.43956
6626530;-0.11000;83.5000;137;78;0.42393
6626540;-0.10500;83.1875;137;78;0.41661
6626550;-0.09500;82.8750;137;78;0.40977
6626560;-0.08500;82.6250;137;78;0.40342
6626570;0.10000;82.0625;137;78;0.39096
6626580;0.46000;81.8750;137;78;0.38510
6626590;0.95500;81.6250;137;78;0.37949
6626600;0.78000;81.3750;137;78;0.37387
6626610;0.05000;80.9375;137;78;0.36361
6626620;-0.27000;80.7500;137;78;0.35922
6626630;-0.21000;80.5625;137;78;0.35433
6626640;-0.17000;80.3750;137;78;0.34921
6626650;-0.16000;79.8750;137;78;0.33797
6626660;-0.16000;79.6250;137;78;0.33236
6626670;-0.16000;79.3125;137;78;0.32674
6626680;-0.15500;78.6875;137;78;0.32137
6626690;-0.15000;78.3750;137;78;0.31087
6626700;-0.14500;78.0625;137;78;0.30574
6626710;-0.14000;77.6875;137;78;0.30134
6626720;-0.13500;77.3125;137;78;0.29768
6626730;-0.13500;76.6250;137;78;0.28864
6626740;-0.13000;76.2500;137;78;0.28376
6626750;-0.12500;75.9375;137;78;0.27888
6626760;-0.11000;75.3750;137;78;0.26984
6626770;-0.10000;75.0625;137;78;0.26569
6626780;-0.08500;74.8750;137;78;0.26154
6626790;-0.07500;74.6875;137;78;0.25763
6626800;-0.07500;74.6875;137;78;0.25763
6626810;-0.05500;75.8750;137;78;0.24786
6626820;-0.04000;77.6250;137;78;0.24591
6626830;-0.02500;80.1250;137;78;0.24347
6626840;-0.00500;83.5625;137;78;0.24078
6626850;0.01000;92.1875;137;78;0.23541
6626860;0.03000;97.0000;137;78;0.23272
6626870;0.05000;101.9375;137;78;0.23053
6626880;0.07000;106.8125;137;78;0.22833
6626890;0.09000;115.5000;137;78;0.22466
6626900;0.11500;119.1250;137;78;0.22320
6626910;0.14000;122.1250;137;78;0.22247
6626920;0.17000;126.3750;137;78;0.22198
6626930;0.19000;127.7500;137;78;0.22125
6626940;0.21500;128.6250;137;78;0.22076
6626950;0.21500;129.0625;137;78;0.22027
6626960;0.18500;129.2500;137;78;0.22002
6626970;0.14000;128.7500;137;78;0.22002
6626980;0.06500;128.1875;137;78;0.22002
6626990;0.02500;127.4375;137;78;0.22002
6627000;-0.01500;125.3750;136;77;0.22002
6627010;-0.05500;124.0625;136;77;0.22125
6627020;-0.07000;122.6875;136;77;0.22149
6627030;-0.08500;121.1250;136;77;0.22198
6627040;-0.09500;117.5625;136;77;0.22247
6627050;-0.09500;115.5625;136;77;0.22247
6627060;-0.10000;113.4375;136;77;0.22271
6627070;-0.10500;111.1250;136;77;0.22344
6627080;-0.10000;108.7500;136;77;0.22515
6627090;-0.10000;104.1250;136;77;0.23272
6627100;-0.09500;102.0000;136;77;0.24005
6627110;-0.09500;100.1875;136;77;0.24884
6627120;-0.09000;97.5000;136;77;0.25934
6627130;-0.08500;96.5625;136;77;0.29109
6627140;-0.08500;95.9375;136;77;0.31136
6627150;-0.07500;95.5000;136;77;0.33358
6627160;-0.07500;95.1875;136;77;0.35702
6627170;-0.07000;94.8750;136;77;0.40513
6627180;-0.07000;94.8125;136;77;0.42833
6627190;-0.07000;94.7500;136;77;0.44982
6627200;-0.07000;94.6250;136;77;0.46960
6627210;-0.07000;94.2500;136;77;0.49744
6627220;-0.07000;94.0000;136;77;0.50965
6627230;-0.07500;93.6875;136;77;0.52063
6627240;-0.07500;92.9375;136;77;0.53773
6627250;-0.07500;92.4375;136;77;0.54335
6627260;-0.07500;91.9375;136;77;0.54750
6627270;-0.07500;91.4375;136;77;0.54969
6627280;-0.07500;90.4375;136;77;0.54945
6627290;-0.07000;89.9375;136;77;0.54750
6627300;-0.06500;89.4375;136;77;0.54432
6627310;-0.05500;88.8750;136;77;0.53993
6627320;-0.02500;87.8750;136;77;0.52821
6627330;-0.00500;87.3125;136;77;0.52039
6627340;0.00000;86.8125;136;77;0.51160
6627350;0.02000;86.3125;136;77;0.50159
6627360;0.04500;85.8125;136;77;0.49060
6627370;0.07000;85.0000;136;77;0.46691
6627380;0.05500;84.5625;136;77;0.45470
6627390;0.02000;84.1250;136;77;0.44249
6627400;-0.00500;83.7500;136;77;0.43077
6627410;-0.05000;83.0625;136;77;0.41221
6627420;-0.08500;82.6875;136;77;0.40366
6627430;-0.11500;82.3750;136;77;0.39560
6627440;-0.12500;81.7500;136;77;0.39048
6627450;-0.12500;81.4375;136;77;0.39731
6627460;-0.12500;81.1875;136;77;0.39853
6627470;-0.12000;80.9375;136;77;0.39731
6627480;-0.10500;80.6875;136;77;0.39487
6627490;-0.06500;80.2500;136;77;0.38828
6627500;0.19500;80.0625;136;77;0.38486
6627510;0.81500;79.8750;136;77;0.38193
6627520;0.96000;79.6875;136;77;0.37924
6627530;0.40500;79.3750;136;77;0.37289
6627540;-0.24500;79.1875;136;77;0.36972
6627550;-0.26500;79.0000;136;77;0.36630
6627560;-0.19000;78.8125;136;77;0.36264
6627570;-0.17500;78.4375;136;77;0.35507
6627580;-0.17000;78.1875;136;77;0.35116
6627590;-0.17000;77.9375;136;77;0.34701
6627600;-0.17000;77.4375;136;77;0.33944
6627610;-0.16000;77.1250;136;77;0.33651
6627620;-0.15500;76.8750;136;77;0.33309
6627630;-0.14500;76.5000;136;77;0.32967
6627640;-0.14500;76.1875;136;77;0.32625
6627650;-0.14000;75.5625;136;77;0.31893
6627660;-0.13500;75.1875;136;77;0.31526
6627670;-0.12500;74.8750;136;77;0.31160
6627680;-0.11500;74.5625;136;77;0.30818
6627690;-0.10000;74.0625;136;77;0.30110
6627700;-0.09500;73.8125;136;77;0.29768
6627710;-0.07500;73.6250;136;77;0.29499
6627720;-0.06500;73.6250;136;77;0.29060
6627730;-0.05500;74.1250;136;77;0.28791
6627740;-0.04500;75.2500;136;77;0.28523
6627750;-0.03000;77.1875;136;77;0.28254
6627760;-0.01500;79.9375;136;77;0.27985
6627770;0.00000;87.6250;136;77;0.27497
6627780;0.02000;92.1875;136;77;0.27277
6627790;0.04500;97.0625;136;77;0.27082
6627800;0.04500;97.0625;136;77;0.27082
6627810;0.08000;111.1250;136;77;0.26764
6627820;0.10000;115.1250;136;77;0.26691
6627830;0.12500;118.6250;136;77;0.26593
6627840;0.15500;123.7500;136;77;0.26447
6627850;0.18000;125.5000;136;77;0.26374
6627860;0.21000;126.7500;136;77;0.26300
6627870;0.21500;127.6250;136;77;0.26227
6627880;0.20500;128.0625;136;77;0.26203
6627890;0.15000;128.1250;136;77;0.26178
6627900;0.10500;127.7500;136;77;0.26178
6627910;0.05000;127.1875;136;77;0.26227
6627920;-0.00500;125.5000;136;77;0.26349
6627930;-0.04000;124.3125;136;77;0.26374
6627940;-0.06500;123.0625;136;77;0.26398
6627950;-0.08500;121.6250;136;77;0.26422
6627960;-0.09500;118.3750;136;77;0.26520
6627970;-0.10000;116.5000;136;77;0.26545
6627980;-0.10500;114.5000;136;77;0.26545
6627990;-0.10500;112.3125;136;77;0.26569
6628000;-0.10500;110.0000;136;77;0.26667
6628010;-0.10000;105.0625;136;77;0.27131
6628020;-0.09500;102.6250;136;77;0.27595
6628030;-0.09500;100.3125;136;77;0.28278
6628040;-0.08500;98.3750;136;77;0.29255
6628050;-0.08500;95.6250;136;77;0.32283
6628060;-0.08000;94.8125;136;77;0.34286
6628070;-0.07500;94.1875;136;77;0.36532
6628080;-0.07000;93.8750;136;77;0.38950
6628090;-0.06500;93.5625;136;77;0.43980
6628100;-0.06500;93.5625;136;77;0.46422
6628110;-0.06500;93.6250;136;77;0.48425
6628120;-0.06500;93.6250;136;77;0.50159
6628130;-0.07000;93.5625;136;77;0.53700
6628140;-0.07500;93.4375;136;77;0.55287
6628150;-0.07500;93.1875;136;77;0.56679
6628160;-0.07500;92.9375;136;77;0.57851
6628170;-0.07500;92.1875;136;77;0.59609
6628180;-0.07500;91.8125;136;77;0.60195
6628190;-0.07500;91.3750;136;77;0.60586
6628200;-0.07500;90.3750;136;77;0.60806
6628210;-0.07500;89.8750;136;77;0.60635
6628220;-0.07000;89.3750;136;77;0.60391
6628230;-0.05500;88.8750;136;77;0.60024
6628240;-0.03000;87.8125;136;77;0.58974
6628250;-0.01000;87.3125;136;77;0.58266
6628260;0.00000;86.7500;136;77;0.57436
6628270;0.01500;86.2500;136;77;0.56459
6628280;0.04000;85.7500;136;77;0.55360
6628290;0.07000;84.8750;136;77;0.52869
6628300;0.05500;84.4375;136;77;0.51551
6628310;0.02500;84.0625;136;77;0.50330
6628320;-0.01000;83.3125;136;77;0.48034
6628330;-0.04500;82.9375;136;77;0.46886
6628340;-0.10000;82.5625;136;77;0.45812
6628350;-0.12000;82.2500;136;77;0.44860
6628360;-0.13000;81.6250;136;77;0.43297
6628370;-0.13500;81.3125;136;77;0.42662
6628380;-0.13000;81.0625;136;77;0.42125
6628390;-0.12500;80.8125;136;77;0.41636
6628400;-0.12500;80.5625;136;77;0.41221
6628410;-0.09000;80.1875;136;77;0.40586
6628420;0.22000;80.0000;136;77;0.40269
6628430;0.64500;79.8125;136;77;0.39951
6628440;0.99000;79.6250;136;77;0.39634
6628450;0.34000;79.2500;136;77;0.38999
6628460;-0.18000;79.0625;136;77;0.38681
6628470;-0.28000;78.8750;136;77;0.38339
6628480;-0.20500;78.5625;136;77;0.37998
6628490;-0.18000;78.3750;136;77;0.37265
6628500;-0.17500;78.1250;136;77;0.36874
6628510;-0.17500;77.8750;136;77;0.36532
6628520;-0.17000;77.3125;136;77;0.35824
6628530;-0.17000;77.0625;136;77;0.35433
6628540;-0.16000;76.7500;136;77;0.35043
6628550;-0.16000;76.4375;136;77;0.34628
6628560;-0.15500;76.1250;136;77;0.34237
6628570;-0.15000;75.4375;136;77;0.33504
6628580;-0.14500;75.1250;136;77;0.33138
6628590;-0.13500;74.7500;136;77;0.32772
6628600;-0.12500;74.5000;136;77;0.32405
6628610;-0.10500;74.0000;136;77;0.31893
6628620;-0.09500;73.7500;136;77;0.31624
6628630;-0.08500;73.5625;136;77;0.31306
6628640;-0.07500;73.5625;136;77;0.30989
6628650;-0.06500;74.0625;136;77;0.30379
6628660;-0.05500;75.2500;136;77;0.30061
6628670;-0.04000;77.3125;136;77;0.29768
6628680;-0.02500;83.9375;136;77;0.29231
6628690;-0.01500;88.2500;136;77;0.28987
6628700;0.00000;93.0000;136;77;0.28767
6628710;0.02000;98.0000;136;77;0.28620
6628720;0.04000;103.0000;136;77;0.28523
6628730;0.06000;112.3125;136;77;0.28230
6628740;0.09000;116.3750;136;77;0.28059
6628750;0.11000;119.9375;136;77;0.27912
6628760;0.14000;125.1875;136;77;0.27766
6628770;0.16500;127.0000;136;77;0.27521
6628780;0.19000;128.2500;136;77;0.27424
6628790;0.20000;129.1250;136;77;0.27350
6628800;0.19000;129.6250;136;77;0.27326
6628810;0.14500;129.7500;136;77;0.27399
6628820;0.10000;129.5000;136;77;0.27399
6628830;0.04000;129.0000;136;77;0.27399
6628840;-0.00500;128.3750;136;77;0.27375
6628850;-0.04000;126.5000;136;77;0.27375
6628860;-0.06500;125.3125;136;77;0.27399
6628870;-0.08500;124.0000;136;77;0.27424
6628880;-0.10000;121.0000;136;77;0.27448
6628890;-0.10500;119.2500;136;77;0.27473
6628900;-0.11000;117.3750;136;77;0.27521
6628910;-0.11500;115.3125;136;77;0.27619
6628920;-0.11500;113.0625;136;77;0.27717
6628930;-0.11500;108.2500;136;77;0.28181
6628940;-0.10500;105.6875;136;77;0.28669
6628950;-0.10500;103.3125;136;77;0.29426
6628960;-0.10000;101.1875;136;77;0.30476
6628970;-0.09500;97.9375;136;77;0.33578
6628980;-0.09500;96.8750;136;77;0.35629
6628990;-0.09500;96.0625;136;77;0.37924
6629000;-0.09000;95.5625;136;77;0.40391
6629010;-0.08500;95.0625;136;77;0.44640
6629020;-0.08500;95.0000;136;77;0.46911
6629030;-0.08500;95.0000;136;77;0.49231
6629040;-0.08000;95.0000;136;77;0.51429
6629050;-0.08000;94.8125;136;77;0.55311
6629060;-0.08000;94.6875;136;77;0.56947
6629070;-0.07500;94.4375;136;77;0.58388
6629080;-0.07500;93.8125;136;77;0.60635
6629090;-0.07500;93.4375;136;77;0.61465
6629100;-0.07500;93.0000;136;77;0.61978
6629110;-0.07500;92.5000;136;77;0.62271
6629120;-0.07500;92.0000;136;77;0.62540
6629130;-0.08000;90.8750;136;77;0.62711
6629140;-0.06500;90.3750;136;77;0.62589
6629150;-0.04500;89.8125;136;77;0.62320
6629160;-0.02000;89.2500;136;77;0.61905
6629170;0.00000;88.2500;136;77;0.60659
6629180;0.00500;87.6875;136;77;0.59853
6629190;0.03000;87.1875;136;77;0.58901
6629200;0.07000;86.1250;136;77;0.57851
6629210;0.08000;85.6875;136;77;0.55678
6629220;0.05000;85.2500;136;77;0.54481
6629230;0.00500;84.8750;136;77;0.53187
6629240;-0.01500;84.5000;136;77;0.51868
6629250;-0.06500;83.7500;136;77;0.49353
6629260;-0.11000;83.3750;136;77;0.48181
6629270;-0.12500;83.0000;136;77;0.47131
6629280;-0.12500;82.3750;136;77;0.46203
6629290;-0.12500;82.1250;136;77;0.44689
6629300;-0.12500;81.8750;136;77;0.44103
6629310;-0.11500;81.6250;136;77;0.43639
6629320;-0.11500;81.3125;136;77;0.43175
6629330;0.02500;80.8750;136;77;0.42295
6629340;0.35500;80.6875;136;77;0.41905
6629350;0.88000;80.5000;136;77;0.41514
6629360;0.85500;80.2500;136;77;0.41123
6629370;0.14500;79.8750;136;77;0.40391
6629380;-0.29000;79.6875;136;77;0.40024
6629390;-0.23000;79.5625;136;77;0.39634
6629400;-0.20000;79.1875;136;77;0.38901
6629410;-0.19000;79.0000;136;77;0.38584
6629420;-0.18500;78.7500;136;77;0.38217
6629430;-0.18000;78.4375;136;77;0.37827
6629440;-0.17000;78.1875;136;77;0.37411
6629450;-0.16500;77.5000;136;77;0.36508
6629460;-0.16000;77.1875;136;77;0.36068
6629470;-0.16000;76.8750;136;77;0.35629
6629480;-0.15500;76.5000;136;77;0.35214
6629490;-0.15500;75.8125;136;77;0.34847
6629500;-0.14500;75.4375;136;77;0.35165
6629510;-0.13500;75.1250;136;77;0.35165
6629520;-0.12500;74.8125;136;77;0.34921
6629530;-0.11500;74.2500;136;77;0.34139
6629540;-0.09500;74.0625;136;77;0.33651
6629550;-0.08500;73.9375;136;77;0.33162
6629560;-0.07500;74.3750;136;77;0.32210
6629570;-0.06500;75.3750;136;77;0.31770
6629580;-0.05000;77.2500;136;77;0.31355
6629590;-0.04000;80.0625;136;77;0.30965
6629600;-0.02500;83.6250;136;77;0.30598
6629610;-0.00500;92.6875;136;77;0.30134
6629620;0.01000;97.7500;136;77;0.29890
6629630;0.02500;102.8750;136;77;0.29646
6629640;0.05000;112.6250;136;77;0.29182
6629650;0.06500;116.9375;136;77;0.28962
6629660;0.09000;120.6875;136;77;0.28742
6629670;0.11500;123.8125;136;77;0.28547
6629680;0.14500;128.2500;136;77;0.28181
6629690;0.16500;129.7500;136;77;0.28059
6629700;0.18500;130.7500;136;77;0.28010
6629710;0.18500;131.3750;136;77;0.28010
6629720;0.16500;131.7500;136;77;0.27961
6629730;0.11500;131.6250;136;77;0.27839
6629740;0.04500;131.2500;136;77;0.27790
6629750;0.00500;130.7500;136;77;0.27741
6629760;-0.03500;130.0625;136;77;0.27692
6629770;-0.07000;128.1875;136;77;0.27668
6629780;-0.08500;127.0625;136;77;0.27643
6629790;-0.10500;125.7500;136;77;0.27643
6629800;-0.10500;125.7500;136;77;0.27643
6629810;-0.12500;121.0625;136;77;0.27790
6629820;-0.12500;119.1250;136;77;0.27863
6629830;-0.12500;117.0625;136;77;0.27937
6629840;-0.12500;112.3750;136;77;0.28425
6629850;-0.12500;109.8125;136;77;0.28987
6629860;-0.12000;107.2500;136;77;0.29890
6629870;-0.11500;104.8750;136;77;0.31258
6629880;-0.10500;101.0625;136;77;0.33089
6629890;-0.10000;99.6875;136;77;0.38144
6629900;-0.10000;98.6250;136;77;0.40806
6629910;-0.09500;97.8750;136;77;0.43492
6629920;-0.09500;97.1250;136;77;0.50037
6629930;-0.09500;96.9375;136;77;0.53455
