RelativeTimeMilliseconds;ECG;ART;ART (Sys);ART (Dia);PPG
7200000;0.05000;94.0000;146;83;0.63687
7200010;0.02000;93.5000;146;83;0.62125
7200020;-0.01000;93.0000;146;83;0.60611
7200030;-0.04000;92.5000;146;83;0.58974
7200040;-0.09500;91.5625;146;83;0.55824
7200050;-0.12500;91.1875;146;83;0.54432
7200060;-0.14000;90.8125;146;83;0.53211
7200070;-0.14500;90.4375;146;83;0.52161
7200080;-0.14500;90.0625;146;83;0.51258
7200090;-0.14000;89.4375;146;83;0.49817
7200100;-0.13500;89.1250;146;83;0.49206
7200110;-0.12500;88.8750;146;83;0.48694
7200120;0.01000;88.6250;146;83;0.48230
7200130;0.46000;88.1875;146;83;0.47277
7200140;0.96000;88.0000;146;83;0.46813
7200150;0.69500;87.7500;146;83;0.46349
7200160;-0.12500;87.3125;146;83;0.45397
7200170;-0.29000;87.0625;146;83;0.44933
7200180;-0.23000;86.8750;146;83;0.44444
7200190;-0.20500;86.6250;146;83;0.43956
7200200;-0.19500;86.3750;146;83;0.43443
7200210;-0.19000;85.8125;146;83;0.42466
7200220;-0.18500;85.5000;146;83;0.42027
7200230;-0.18000;85.1250;146;83;0.41538
7200240;-0.17000;84.4375;146;83;0.40464
7200250;-0.16000;84.0625;146;83;0.39878
7200260;-0.15500;83.6250;146;83;0.39316
7200270;-0.15000;83.2500;146;83;0.38755
7200280;-0.14500;82.5000;146;83;0.37656
7200290;-0.14000;82.1250;146;83;0.37143
7200300;-0.13000;81.7500;146;83;0.36630
7200310;-0.12500;81.4375;146;83;0.36239
7200320;-0.11500;81.1250;146;83;0.35897
7200330;-0.10500;80.6250;146;83;0.35092
7200340;-0.08500;80.4375;146;83;0.34676
7200350;-0.07000;80.4375;146;83;0.34261
7200360;-0.05500;80.6875;146;83;0.33871
7200370;-0.03500;83.0625;146;83;0.33138
7200380;-0.01500;85.5625;146;83;0.32747
7200390;0.00000;89.0000;146;83;0.32381
7200400;0.03000;98.0625;146;83;0.31966
7200410;0.05500;103.3750;146;83;0.31844
7200420;0.08500;108.8750;146;83;0.31648
7200430;0.12000;114.3750;146;83;0.31429
7200440;0.14500;119.6250;146;83;0.31258
7200450;0.18000;128.8125;146;83;0.30965
7200460;0.21500;132.4375;146;83;0.30818
7200470;0.24000;135.4375;146;83;0.30672
7200480;0.25500;137.7500;146;83;0.30574
7200490;0.24000;140.8125;146;83;0.30379
7200500;0.20500;141.6875;146;83;0.30305
7200510;0.14500;142.2500;146;83;0.30305
7200520;0.07000;142.5000;146;83;0.30330
7200530;0.02500;142.2500;146;83;0.30281
7200540;-0.02000;141.8750;146;83;0.30208
7200550;-0.05500;141.3750;146;83;0.30134
7200560;-0.07500;140.6875;146;83;0.30085
7200570;-0.09500;138.8125;146;83;0.29988
7200580;-0.10500;137.5625;146;83;0.29939
7200590;-0.11500;136.0625;146;83;0.29915
7200600;-0.12500;134.3750;146;83;0.29890
7200610;-0.13000;129.9375;146;83;0.30110
7200620;-0.13000;127.2500;146;83;0.30305
7200630;-0.13500;124.1875;146;83;0.30647
7200640;-0.13000;120.9375;146;83;0.31209
7200650;-0.12500;114.6250;146;83;0.33333
7200660;-0.12500;111.9375;146;83;0.35018
7200670;-0.12500;109.7500;146;83;0.37143
7200680;-0.11500;106.8750;146;83;0.39634
7200690;-0.11500;106.0625;146;83;0.45519
7200700;-0.11000;105.5625;146;83;0.48669
7200710;-0.10500;105.3750;146;83;0.51404
7200720;-0.10000;105.3750;146;83;0.56508
7200730;-0.10000;105.5000;146;83;0.59072
7200740;-0.10500;105.6250;146;83;0.61490
7200750;-0.10500;105.6250;146;83;0.63712
7200760;-0.11000;105.5000;146;83;0.65690
7200770;-0.11000;105.0000;146;83;0.68889
7200780;-0.11500;104.6250;146;83;0.70110
7200790;-0.11500;104.1875;146;83;0.71111
7200800;-0.11500;103.1250;146;83;0.71917
7200810;-0.11500;102.5625;146;83;0.72650
7200820;-0.11000;102.0000;146;83;0.72894
7200830;-0.11000;101.3750;146;83;0.73040
7200840;-0.09000;100.1250;146;83;0.73284
7200850;-0.05500;99.4375;146;83;0.73553
7200860;-0.03500;98.8125;146;83;0.73284
7200870;-0.02500;98.1875;146;83;0.72625
7200880;-0.01000;97.6250;146;83;0.71624
7200890;0.02000;96.5000;146;83;0.68840
7200900;0.05000;95.9375;146;83;0.67155
7200910;0.03500;95.4375;146;83;0.65519
7200920;0.00000;94.9375;146;83;0.63883
7200930;-0.03500;94.0000;146;83;0.60244
7200940;-0.06500;93.5625;146;83;0.58486
7200950;-0.11500;93.1875;146;83;0.56850
7200960;-0.14500;92.3750;146;83;0.55360
7200970;-0.14500;92.0000;146;83;0.52943
7200980;-0.15000;91.6875;146;83;0.51990
7200990;-0.14500;91.3750;146;83;0.51160
7201000;-0.13500;90.7500;146;83;0.49841
7201010;-0.13500;90.5000;146;83;0.49328
7201020;-0.10000;90.2500;146;83;0.48816
7201030;0.27500;90.0000;146;83;0.48327
7201040;0.75500;89.8125;146;83;0.47839
7201050;1.01000;89.3750;146;83;0.46911
7201060;0.43000;89.1875;146;83;0.46422
7201070;-0.13500;88.9375;146;83;0.45910
7201080;-0.28000;88.5625;146;83;0.44835
7201090;-0.23000;88.3125;146;83;0.44298
7201100;-0.21000;88.0625;146;83;0.43761
7201110;-0.21000;87.7500;146;83;0.43272
7201120;-0.20500;87.5000;146;83;0.42808
7201130;-0.20000;86.8125;146;83;0.41783
7201140;-0.19000;86.4375;146;83;0.41270
7201150;-0.18000;86.1250;146;83;0.40757
7201160;-0.17500;85.7500;146;83;0.40244
7201170;-0.16500;85.0000;146;83;0.39243
7201180;-0.16000;84.6250;146;83;0.38755
7201190;-0.15000;84.2500;146;83;0.38266
7201200;-0.14500;83.6250;146;83;0.37436
7201210;-0.13500;83.3125;146;83;0.37118
7201220;-0.13000;83.0625;146;83;0.36752
7201230;-0.11500;82.7500;146;83;0.36361
7201240;-0.10000;82.5625;146;83;0.35946
7201250;-0.08500;82.5000;146;83;0.35165
7201260;-0.07500;83.0000;146;83;0.34799
7201270;-0.06000;84.1875;146;83;0.34457
7201280;-0.04500;89.4375;146;83;0.34115
7201290;-0.02500;93.4375;146;83;0.33529
7201300;-0.01000;98.1875;146;83;0.33284
7201310;0.01000;103.5000;146;83;0.33162
7201320;0.05000;114.9375;146;83;0.32991
7201330;0.07000;120.6250;146;83;0.32894
7201340;0.10000;125.8750;146;83;0.32796
7201350;0.14000;130.6250;146;83;0.32698
7201360;0.16500;134.7500;146;83;0.32601
7201370;0.19500;140.8125;146;83;0.32454
7201380;0.23000;142.9375;146;83;0.32405
7201390;0.23500;144.5000;146;83;0.32357
7201400;0.21500;145.5625;146;83;0.32283
7201410;0.15500;146.6875;146;83;0.32234
7201420;0.10500;146.8750;146;83;0.32210
7201430;0.04000;146.8750;146;83;0.32137
7201440;-0.02000;146.3125;146;83;0.32015
7201450;-0.05000;145.8750;146;83;0.31990
7201460;-0.08000;145.2500;146;83;0.31990
7201470;-0.10500;144.5625;146;83;0.31966
7201480;-0.11500;143.6875;146;83;0.31941
7201490;-0.12500;141.2500;146;83;0.31917
7201500;-0.13000;139.6875;146;83;0.31917
7201510;-0.13500;137.8750;146;83;0.31990
7201520;-0.13500;135.6250;146;83;0.32137
7201530;-0.13500;130.1250;146;83;0.32869
7201540;-0.13500;126.9375;146;83;0.33602
7201550;-0.13500;123.6250;146;83;0.34701
7201560;-0.13000;120.4375;146;83;0.36288
7201570;-0.12500;115.1875;146;83;0.40904
7201580;-0.12500;113.2500;146;83;0.43810
7201590;-0.11500;111.7500;146;83;0.47033
7201600;-0.11500;109.9375;146;83;0.53480
7201610;-0.10500;109.5000;146;83;0.56239
7201620;-0.10500;109.3125;146;83;0.59267
7201630;-0.10500;109.2500;146;83;0.62295
7201640;-0.10500;109.2500;146;83;0.65153
7201650;-0.10000;109.1875;146;83;0.70159
7201660;-0.10000;109.0625;146;83;0.72259
7201670;-0.09500;108.8125;146;83;0.74115
7201680;-0.08500;108.1250;146;83;0.77045
7201690;-0.08500;107.6875;146;83;0.78144
7201700;-0.08500;107.1875;146;83;0.79048
7201710;-0.08500;106.6250;146;83;0.79560
7201720;-0.08500;106.0625;146;83;0.79829
7201730;-0.08500;104.8125;146;83;0.80293
7201740;-0.07500;104.1250;146;83;0.80342
7201750;-0.05500;103.5000;146;83;0.80244
7201760;-0.03000;102.8750;146;83;0.79976
7201770;-0.00500;101.5000;146;83;0.78803
7201780;0.00000;100.8750;146;83;0.77875
7201790;0.02000;100.2500;146;83;0.76703
7201800;0.06000;99.1250;146;83;0.73846
7201810;0.06000;98.5625;146;83;0.72308
7201820;0.04000;98.0625;146;83;0.70549
7201830;0.00500;97.5000;146;83;0.68718
7201840;-0.03000;96.5625;146;83;0.65055
7201850;-0.08500;96.0625;146;83;0.63346
7201860;-0.12000;95.6250;146;83;0.61783
7201870;-0.14000;95.2500;146;83;0.60415
7201880;-0.14500;94.5000;146;83;0.58144
7201890;-0.14500;94.1250;146;83;0.57265
7201900;-0.13500;93.8125;146;83;0.56508
7201910;-0.13000;93.5000;146;83;0.55849
7201920;-0.13500;93.1875;146;83;0.55287
7201930;-0.04500;92.6875;146;83;0.54261
7201940;0.49000;92.4375;146;83;0.53748
7201950;0.99000;92.1875;146;83;0.53236
7201960;0.97000;91.9375;146;83;0.52698
7201970;0.08500;91.5000;146;83;0.51673
7201980;-0.23500;91.2500;146;83;0.51111
7201990;-0.23000;91.0000;146;83;0.50549
7202000;-0.19500;90.5625;145;83;0.49402
7202010;-0.19500;90.3125;145;83;0.48864
7202020;-0.19500;90.0000;145;83;0.48278
7202030;-0.19000;89.6875;145;83;0.47692
7202040;-0.19000;88.9375;145;83;0.46545
7202050;-0.18500;88.5625;145;83;0.45983
7202060;-0.18000;88.2500;145;83;0.45397
7202070;-0.17000;87.8750;145;83;0.44811
7202080;-0.16500;87.5000;145;83;0.44249
7202090;-0.15500;86.8125;145;83;0.43199
7202100;-0.15500;86.5000;145;83;0.42686
7202110;-0.15000;86.1250;145;83;0.42222
7202120;-0.14000;85.5625;145;83;0.41807
7202130;-0.13000;85.2500;145;83;0.40806
7202140;-0.12500;85.0625;145;83;0.40317
7202150;-0.11000;84.9375;145;83;0.39878
7202160;-0.09500;85.6875;145;83;0.39072
7202170;-0.08500;87.0625;145;83;0.38730
7202180;-0.07000;89.4375;145;83;0.38413
7202190;-0.04500;92.8125;145;83;0.38144
7202200;-0.03000;97.1250;145;83;0.37900
7202210;-0.00500;107.7500;145;83;0.37607
7202220;0.03000;113.5625;145;83;0.37485
7202230;0.05500;119.4375;145;83;0.37338
7202240;0.09000;130.3750;145;83;0.37094
7202250;0.11500;135.0000;145;83;0.36996
7202260;0.14500;138.8750;145;83;0.36899
7202270;0.19000;142.0625;145;83;0.36825
7202280;0.21500;144.5000;145;83;0.36777
7202290;0.23500;147.7500;145;83;0.36679
7202300;0.22000;148.6875;145;83;0.36654
7202310;0.19000;149.3125;145;83;0.36654
7202320;0.13000;149.6875;145;83;0.36630
7202330;0.06000;149.7500;145;83;0.36557
7202340;0.00000;149.5625;145;83;0.36508
7202350;-0.05000;149.3125;145;83;0.36484
7202360;-0.08500;148.3125;145;83;0.36459
7202370;-0.10500;147.5625;145;83;0.36435
7202380;-0.12500;146.7500;145;83;0.36386
7202390;-0.13000;145.7500;145;83;0.36313
7202400;-0.13500;142.9375;145;83;0.36215
7202410;-0.14000;141.1250;145;83;0.36239
7202420;-0.14500;138.9375;145;83;0.36288
7202430;-0.14000;136.4375;145;83;0.36679
7202440;-0.14000;133.5625;145;83;0.37192
7202450;-0.13500;127.0000;145;83;0.38852
7202460;-0.13000;123.6875;145;83;0.40440
7202470;-0.12500;120.6250;145;83;0.42515
7202480;-0.12000;118.0000;145;83;0.45055
7202490;-0.11000;114.1875;145;83;0.51136
7202500;-0.10500;113.0000;145;83;0.53968
7202510;-0.09500;112.1875;145;83;0.56630
7202520;-0.09000;111.6875;145;83;0.59609
7202530;-0.08500;111.3750;145;83;0.65470
7202540;-0.08500;111.3750;145;83;0.68107
7202550;-0.08500;111.3125;145;83;0.70476
7202560;-0.08000;111.2500;145;83;0.72576
7202570;-0.07500;110.6875;145;83;0.75995
7202580;-0.07500;110.3125;145;83;0.77338
7202590;-0.07500;109.8125;145;83;0.78462
7202600;-0.07500;108.6875;145;83;0.79927
7202610;-0.07500;108.0000;145;83;0.80293
7202620;-0.07000;107.2500;145;83;0.80659
7202630;-0.07000;106.5000;145;83;0.80879
7202640;-0.06500;105.7500;145;83;0.81026
7202650;-0.04500;104.1250;145;83;0.80977
7202660;-0.01500;103.3750;145;83;0.80684
7202670;0.01000;102.5625;145;83;0.80195
7202680;0.03000;101.1250;145;83;0.78559
7202690;0.04000;100.4375;145;83;0.77411
7202700;0.06500;99.7500;145;83;0.76117
7202710;0.10000;99.0625;145;83;0.74676
7202720;0.10000;98.4375;145;83;0.73065
7202730;0.07000;97.2500;145;83;0.69451
7202740;0.03000;96.6875;145;83;0.67595
7202750;-0.00500;96.1875;145;83;0.65788
7202760;-0.05000;95.6875;145;83;0.64078
7202770;-0.08500;94.7500;145;83;0.61074
7202780;-0.10000;94.3125;145;83;0.59829
7202790;-0.10500;93.9375;145;83;0.58755
7202800;-0.10500;93.9375;145;83;0.58755
7202810;-0.09500;92.8125;145;83;0.56361
7202820;-0.09500;92.5000;145;83;0.55727
7202830;-0.09000;92.1875;145;83;0.55116
7202840;0.14500;91.5625;145;83;0.53895
7202850;0.57500;91.3125;145;83;0.53284
7202860;1.06500;91.0000;145;83;0.52650
7202870;0.60000;90.7500;145;83;0.52015
7202880;0.00500;90.5000;145;83;0.51355
7202890;-0.24500;89.9375;145;83;0.48376
7202900;-0.17000;89.6250;145;83;0.45250
7202910;-0.15500;89.3125;145;83;0.43419
7202920;-0.15500;89.0000;145;83;0.42125
7202930;-0.15500;88.2500;145;83;0.40220
7202940;-0.15500;87.8750;145;83;0.39390
7202950;-0.14500;87.4375;145;83;0.38584
7202960;-0.14000;86.5625;145;83;0.37802
7202970;-0.13500;86.1250;145;83;0.36313
7202980;-0.13000;85.6875;145;83;0.35580
7202990;-0.12500;85.3125;145;83;0.34823
7203000;-0.12500;84.8750;144;83;0.34090
7203010;-0.11500;84.0625;144;83;0.32894
7203020;-0.10500;83.7500;144;83;0.32283
7203030;-0.09000;83.3750;144;83;0.31624
7203040;-0.08000;83.0625;144;83;0.30842
7203050;-0.06500;82.4375;144;83;0.29646
7203060;-0.05500;82.3125;144;83;0.29133
7203070;-0.03500;82.3750;144;83;0.28596
7203080;-0.02500;82.9375;144;83;0.28059
7203090;-0.00500;86.4375;144;83;0.27033
7203100;0.01500;89.5625;144;83;0.26642
7203110;0.03000;93.6250;144;83;0.26325
7203120;0.04500;98.3750;144;83;0.25958
7203130;0.07000;109.2500;144;83;0.25201
7203140;0.09000;114.9375;144;83;0.24835
7203150;0.12000;120.5000;144;83;0.24493
7203160;0.15500;130.1875;144;83;0.23810
7203170;0.18500;134.1250;144;83;0.23516
7203180;0.22000;137.2500;144;83;0.23248
7203190;0.25500;139.7500;144;83;0.23028
7203200;0.26500;141.5625;144;83;0.22808
7203210;0.25000;143.8750;144;83;0.22613
7203220;0.20000;144.4375;144;83;0.22491
7203230;0.15000;144.6875;144;83;0.22320
7203240;0.08500;144.6875;144;83;0.22149
7203250;0.02500;144.1875;144;83;0.21880
7203260;-0.00500;143.6875;144;83;0.21783
7203270;-0.03000;143.0625;144;83;0.21661
7203280;-0.05500;141.4375;144;83;0.21368
7203290;-0.06500;140.3125;144;83;0.21221
7203300;-0.08000;139.0000;144;83;0.21172
7203310;-0.08500;137.5000;144;83;0.21148
7203320;-0.09000;135.6875;144;83;0.21074
7203330;-0.09500;131.0000;144;83;0.21050
7203340;-0.09500;128.1250;144;83;0.21197
7203350;-0.09000;124.8750;144;83;0.21563
7203360;-0.09000;121.5000;144;83;0.22247
7203370;-0.09000;115.0625;144;83;0.24762
7203380;-0.08500;112.3750;144;83;0.27448
7203390;-0.08500;110.2500;144;83;0.30208
7203400;-0.08000;108.5625;144;83;0.32405
7203410;-0.07500;106.5625;144;83;0.37998
7203420;-0.06500;106.1250;144;83;0.42051
7203430;-0.06500;105.9375;144;83;0.44860
7203440;-0.06000;105.9375;144;83;0.46960
7203450;-0.05500;106.1250;144;83;0.52112
7203460;-0.06000;106.1875;144;83;0.54505
7203470;-0.06000;106.1250;144;83;0.56093
7203480;-0.06000;105.7500;144;83;0.59267
7203490;-0.06000;105.4375;144;83;0.60195
7203500;-0.06500;105.0625;144;83;0.60830
7203510;-0.07000;104.5625;144;83;0.61343
7203520;-0.07000;103.4375;144;83;0.62125
7203530;-0.07000;102.8125;144;83;0.62198
7203540;-0.06500;102.1875;144;83;0.62100
7203550;-0.04500;101.5000;144;83;0.61856
7203560;-0.02500;100.8125;144;83;0.61612
7203570;-0.00500;99.5000;144;83;0.60049
7203580;0.01000;98.8125;144;83;0.58926
7203590;0.02000;98.1250;144;83;0.57998
7203600;0.06500;96.8750;144;83;0.55116
7203610;0.09000;96.2500;144;83;0.53773
7203620;0.07500;95.6875;144;83;0.52088
7203630;0.03000;95.1250;144;83;0.49695
7203640;0.00000;94.6250;144;83;0.47497
7203650;-0.03500;93.6250;144;83;0.44249
7203660;-0.08000;93.1875;144;83;0.42198
7203670;-0.11000;92.7500;144;83;0.40513
7203680;-0.11500;92.3125;144;83;0.39121
7203690;-0.12000;91.6250;144;83;0.37070
7203700;-0.12000;91.2500;144;83;0.36337
7203710;-0.11500;90.9375;144;83;0.35629
7203720;-0.11500;90.3750;144;83;0.34383
7203730;-0.08500;90.0625;144;83;0.33822
7203740;0.17500;89.8125;144;83;0.33284
7203750;0.79500;89.6250;144;83;0.32747
7203760;0.94000;89.3750;144;83;0.32357
7203770;0.40500;88.9375;144;83;0.31209
7203780;-0.20000;88.6875;144;83;0.30574
7203790;-0.25500;88.4375;144;83;0.29963
7203800;-0.25500;88.4375;144;83;0.29963
7203810;-0.18000;87.6250;144;83;0.28523
7203820;-0.17500;87.3125;144;83;0.27985
7203830;-0.17500;86.9375;144;83;0.27399
7203840;-0.17000;86.2500;144;83;0.26227
7203850;-0.16500;85.8750;144;83;0.25641
7203860;-0.16000;85.5625;144;83;0.25031
7203870;-0.16000;85.1250;144;83;0.24420
7203880;-0.15500;84.7500;144;83;0.23834
7203890;-0.14500;83.9375;144;83;0.22808
7203900;-0.14500;83.5625;144;83;0.22466
7203910;-0.13500;83.1875;144;83;0.22027
7203920;-0.12500;82.5000;144;83;0.21123
7203930;-0.11500;82.1875;144;83;0.20684
7203940;-0.10000;81.8750;144;83;0.20269
7203950;-0.08500;81.5625;144;83;0.19829
7203960;-0.07500;81.3750;144;83;0.19414
7203970;-0.05500;81.3750;144;83;0.18584
7203980;-0.04000;82.0000;144;83;0.18217
7203990;-0.02500;83.3125;144;83;0.17973
7204000;0.00000;88.4375;144;83;0.17582
7204010;0.01500;92.1875;144;83;0.17338
7204020;0.03500;96.6875;144;83;0.17118
7204030;0.07000;101.6250;144;83;0.16899
7204040;0.09500;112.2500;144;83;0.16508
7204050;0.12000;117.4375;144;83;0.16313
7204060;0.14500;122.3125;144;83;0.16166
7204070;0.18500;126.6250;144;83;0.16044
7204080;0.21500;133.3125;144;83;0.15922
7204090;0.23500;135.7500;144;83;0.15995
7204100;0.24000;137.5625;144;83;0.16117
7204110;0.20500;138.8750;144;83;0.16166
7204120;0.16500;139.8125;144;83;0.16166
7204130;0.10500;140.4375;144;83;0.16166
7204140;0.03000;140.3750;144;83;0.16142
7204150;-0.00500;140.0625;144;83;0.16117
7204160;-0.04500;139.5000;144;83;0.16117
7204170;-0.07500;138.0000;144;83;0.16117
7204180;-0.08500;136.9375;144;83;0.16117
7204190;-0.09500;135.7500;144;83;0.16215
7204200;-0.10500;134.2500;144;83;0.16361
7204210;-0.11000;130.5625;144;83;0.16581
7204220;-0.11500;128.1875;144;83;0.16703
7204230;-0.11000;125.5625;144;83;0.16874
7204240;-0.11000;122.5625;144;83;0.17192
7204250;-0.11500;116.0000;144;83;0.18535
7204260;-0.11500;112.9375;144;83;0.19756
7204270;-0.11000;110.2500;144;83;0.21416
7204280;-0.10500;106.3125;144;83;0.23541
7204290;-0.10000;105.0000;144;83;0.28571
7204300;-0.09500;104.1875;144;83;0.31111
7204310;-0.09000;103.6875;144;83;0.34115
7204320;-0.08500;103.5000;144;83;0.40562
7204330;-0.08000;103.6250;144;83;0.43712
7204340;-0.08000;103.7500;144;83;0.46691
7204350;-0.08000;103.8750;144;83;0.49451
7204360;-0.08000;103.9375;144;83;0.51966
7204370;-0.08000;103.7500;144;83;0.56044
7204380;-0.08500;103.5000;144;83;0.57656
7204390;-0.08500;103.1875;144;83;0.58828
7204400;-0.09000;102.7500;144;83;0.59683
7204410;-0.09000;101.7500;144;83;0.61123
7204420;-0.09000;101.1875;144;83;0.61612
7204430;-0.08500;100.5625;144;83;0.61905
7204440;-0.08500;99.3125;144;83;0.61856
7204450;-0.07500;98.6875;144;83;0.61563
7204460;-0.05500;98.0625;144;83;0.61050
7204470;-0.02500;97.4375;144;83;0.60317
7204480;-0.00500;96.8125;144;83;0.59365
7204490;0.00000;95.5625;144;83;0.56947
7204500;0.02000;94.9375;144;83;0.55604
7204510;0.06000;94.3750;144;83;0.54017
7204520;0.07000;93.3750;144;83;0.52283
7204530;0.04000;92.8750;144;83;0.48669
7204540;0.01000;92.3750;144;83;0.46935
7204550;-0.02000;91.9375;144;83;0.45275
7204560;-0.07000;91.1250;144;83;0.42466
7204570;-0.10500;90.7500;144;83;0.41294
7204580;-0.12500;90.3750;144;83;0.40293
7204590;-0.13000;90.0000;144;83;0.39512
7204600;-0.13500;89.6875;144;83;0.38901
7204610;-0.12500;89.1250;144;83;0.37802
7204620;-0.12500;88.8125;144;83;0.37338
7204630;-0.12000;88.5625;144;83;0.36899
7204640;-0.03500;88.3125;144;83;0.36484
7204650;0.42000;87.8125;144;83;0.35653
7204660;0.84500;87.6250;144;83;0.35214
7204670;0.85500;87.4375;144;83;0.34725
7204680;0.02000;87.0000;144;83;0.33724
7204690;-0.28000;86.7500;144;83;0.33260
7204700;-0.25000;86.5000;144;83;0.32821
7204710;-0.19000;86.2500;144;83;0.32308
7204720;-0.18000;86.0000;144;83;0.31746
7204730;-0.17500;85.4375;144;83;0.30549
7204740;-0.16500;85.1250;144;83;0.29939
7204750;-0.16000;84.8125;144;83;0.29353
7204760;-0.15500;84.1250;144;83;0.28767
7204770;-0.15000;83.7500;144;83;0.27643
7204780;-0.14500;83.3750;144;83;0.27106
7204790;-0.14000;83.0000;144;83;0.26716
7204800;-0.14000;83.0000;144;83;0.26716
7204810;-0.12500;81.8750;144;83;0.25519
7204820;-0.11500;81.5625;144;83;0.25055
7204830;-0.11000;81.2500;144;83;0.24591
7204840;-0.10500;80.9375;144;83;0.24151
7204850;-0.09500;80.3750;144;83;0.23272
7204860;-0.08500;80.1250;144;83;0.22857
7204870;-0.06500;80.0000;144;83;0.22442
7204880;-0.04500;80.7500;144;83;0.21661
7204890;-0.03500;82.0000;144;83;0.21416
7204900;-0.01500;84.1250;144;83;0.21221
7204910;0.00000;87.1250;144;83;0.20952
7204920;0.03000;95.4375;144;83;0.20391
7204930;0.05000;100.4375;144;83;0.22491
7204940;0.07500;105.7500;144;83;0.25788
7204950;0.11000;111.1875;144;83;0.27326
7204960;0.13000;116.4375;144;83;0.28010
7204970;0.16500;125.8125;144;83;0.28376
7204980;0.20000;129.6250;144;83;0.28376
7204990;0.22500;132.8125;144;83;0.28400
7205000;0.24500;137.1875;144;83;0.28474
7205010;0.24500;138.5625;144;83;0.28400
7205020;0.21000;139.5000;144;83;0.28352
7205030;0.14500;140.0625;144;83;0.28303
7205040;0.09500;140.2500;144;83;0.28278
7205050;0.03000;140.0000;144;83;0.28278
7205060;-0.02000;139.5625;144;83;0.28303
7205070;-0.04500;138.9375;144;83;0.28303
7205080;-0.06500;137.2500;144;83;0.28303
7205090;-0.08000;136.1250;144;83;0.28376
7205100;-0.09000;134.8125;144;83;0.28498
7205110;-0.09500;133.2500;144;83;0.28571
7205120;-0.10000;129.2500;144;83;0.28694
7205130;-0.10500;126.8125;144;83;0.28840
7205140;-0.11000;124.0000;144;83;0.29109
7205150;-0.11000;120.9375;144;83;0.29621
7205160;-0.10500;114.6875;144;83;0.31648
7205170;-0.10500;111.8750;144;83;0.33358
7205180;-0.09500;109.5625;144;83;0.35580
7205190;-0.09000;107.6875;144;83;0.37875
7205200;-0.08500;106.2500;144;83;0.40366
7205210;-0.08000;104.5000;144;83;0.46862
7205220;-0.07500;104.1250;144;83;0.50476
7205230;-0.07500;104.0000;144;83;0.54139
7205240;-0.07500;104.0625;144;83;0.57705
7205250;-0.06500;104.1250;144;83;0.64176
7205260;-0.06500;104.1875;144;83;0.66935
7205270;-0.06500;104.0625;144;83;0.69377
7205280;-0.07000;103.6250;144;83;0.73260
7205290;-0.07500;103.3125;144;83;0.74505
7205300;-0.07500;102.9375;144;83;0.75385
7205310;-0.08000;102.5000;144;83;0.76239
7205320;-0.08000;101.9375;144;83;0.76972
7205330;-0.08000;100.8125;144;83;0.77973
7205340;-0.08000;100.1875;144;83;0.78193
7205350;-0.07500;99.5625;144;83;0.78193
7205360;-0.06500;98.9375;144;83;0.77973
7205370;-0.03500;97.6250;144;83;0.76825
7205380;-0.00500;97.0000;144;83;0.75873
7205390;0.00000;96.3750;144;83;0.74750
7205400;0.01000;95.1875;144;83;0.73480
7205410;0.04000;94.6250;144;83;0.70232
7205420;0.07500;94.0625;144;83;0.68376
7205430;0.07000;93.5625;144;83;0.66447
7205440;0.03000;92.6250;144;83;0.62564
7205450;0.00000;92.1875;144;83;0.60733
7205460;-0.03500;91.7500;144;83;0.59023
7205470;-0.09500;91.3125;144;83;0.57485
7205480;-0.11500;90.9375;144;83;0.56142
7205490;-0.12500;90.1875;144;83;0.54042
7205500;-0.12500;89.9375;144;83;0.53309
7205510;-0.12500;89.6250;144;83;0.52601
7205520;-0.12000;89.3125;144;83;0.51966
7205530;-0.11500;88.7500;144;83;0.50794
7205540;-0.08500;88.5000;144;83;0.50232
7205550;0.08000;88.2500;144;83;0.49695
7205560;0.57500;87.8125;144;83;0.49133
7205570;0.97000;87.6250;144;83;0.48010
7205580;0.60000;87.3750;144;83;0.47424
7205590;-0.10500;87.1250;144;83;0.46911
7205600;-0.27000;86.6875;144;83;0.45861
7205610;-0.20500;86.3750;144;83;0.45226
7205620;-0.18000;86.1250;144;83;0.44591
7205630;-0.17000;85.8125;144;83;0.43980
7205640;-0.16500;85.5000;144;83;0.43346
7205650;-0.16000;84.8125;144;83;0.42100
7205660;-0.15500;84.6250;144;83;0.41697
7205670;-0.15000;84.4375;144;83;0.41514
7205680;-0.14500;83.7500;144;83;0.40928
7205690;-0.14000;83.3125;144;83;0.39780
7205700;-0.13500;82.9375;144;83;0.39365
7205710;-0.13000;82.5625;144;83;0.38974
7205720;-0.12500;81.8125;144;83;0.37998
7205730;-0.12000;81.5000;144;83;0.37436
7205740;-0.11000;81.1875;144;83;0.36899
7205750;-0.10000;80.8750;144;83;0.36361
7205760;-0.08500;80.6250;144;83;0.35824
7205770;-0.07500;80.1250;144;83;0.34799
7205780;-0.06500;80.0000;144;83;0.34335
7205790;-0.04000;80.1875;144;83;0.33871
7205800;-0.04000;80.1875;144;83;0.33871
7205810;-0.01000;84.2500;144;83;0.33016
7205820;0.01000;87.3125;144;83;0.32674
7205830;0.03000;91.1875;144;83;0.32308
7205840;0.06000;100.8750;144;83;0.31697
7205850;0.08000;106.3125;144;83;0.31404
7205860;0.11000;111.8125;144;83;0.31136
7205870;0.14000;117.1250;144;83;0.30891
7205880;0.16500;122.1250;144;83;0.30696
7205890;0.20500;130.4375;144;83;0.30452
7205900;0.22500;133.6250;144;83;0.30427
7205910;0.24500;136.1875;144;83;0.30330
7205920;0.22500;139.5625;144;83;0.30085
7205930;0.19500;140.5000;144;83;0.30012
7205940;0.14000;141.1250;144;83;0.29939
7205950;0.06000;141.3750;144;83;0.29890
7205960;0.01500;141.4375;144;83;0.29817
7205970;-0.02500;140.8750;144;83;0.29719
7205980;-0.06500;140.3750;144;83;0.29695
7205990;-0.07500;139.6875;144;83;0.29695
7206000;-0.09000;138.8750;145;83;0.29744
7206010;-0.10000;136.5625;145;83;0.29890
7206020;-0.10500;135.1250;145;83;0.29915
7206030;-0.10500;133.4375;145;83;0.29939
7206040;-0.10500;131.5000;145;83;0.29963
7206050;-0.11000;126.5625;145;83;0.30305
7206060;-0.11500;123.6250;145;83;0.30818
7206070;-0.11500;120.4375;145;83;0.31673
7206080;-0.11500;114.3125;145;83;0.34603
7206090;-0.11000;111.6250;145;83;0.36459
7206100;-0.10500;109.5000;145;83;0.38608
7206110;-0.10000;107.7500;145;83;0.41368
7206120;-0.09500;106.5000;145;83;0.44591
7206130;-0.08500;105.1250;145;83;0.51819
7206140;-0.08000;104.8750;145;83;0.55531
7206150;-0.08000;104.7500;145;83;0.59145
7206160;-0.08000;104.8125;145;83;0.62540
7206170;-0.08500;104.8750;145;83;0.68498
7206180;-0.08500;104.8750;145;83;0.70989
7206190;-0.08500;104.7500;145;83;0.73114
7206200;-0.08500;104.5000;145;83;0.74628
7206210;-0.09000;103.8125;145;83;0.76899
7206220;-0.09500;103.3750;145;83;0.77900
7206230;-0.09500;102.8750;145;83;0.78706
7206240;-0.09500;102.3125;145;83;0.79316
7206250;-0.09500;101.1875;145;83;0.79951
7206260;-0.08500;100.5625;145;83;0.79976
7206270;-0.05500;99.8750;145;83;0.79780
7206280;-0.03500;99.2500;145;83;0.79365
7206290;-0.02000;97.9375;145;83;0.77924
7206300;-0.00500;97.3125;145;83;0.76948
7206310;0.01000;96.6250;145;83;0.75726
7206320;0.05000;96.0000;145;83;0.74310
7206330;0.06000;94.8750;145;83;0.70916
7206340;0.03000;94.3125;145;83;0.68987
7206350;-0.00500;93.8125;145;83;0.67009
7206360;-0.03000;93.3125;145;83;0.65055
7206370;-0.07000;92.3750;145;83;0.61343
7206380;-0.12000;91.9375;145;83;0.59707
7206390;-0.13500;91.5625;145;83;0.58242
7206400;-0.13500;91.1875;145;83;0.57045
7206410;-0.13500;90.4375;145;83;0.55116
7206420;-0.13000;90.1250;145;83;0.54261
7206430;-0.12500;89.8125;145;83;0.53504
7206440;-0.12500;89.5625;145;83;0.52796
7206450;-0.03000;89.0625;145;83;0.51526
7206460;0.35000;88.8125;145;83;0.50940
7206470;0.96000;88.5625;145;83;0.50354
7206480;0.83500;88.3750;145;83;0.49792
7206490;0.13000;87.8750;145;83;0.48669
7206500;-0.28500;87.6875;145;83;0.48181
7206510;-0.24500;87.5000;145;83;0.47619
7206520;-0.19500;87.2500;145;83;0.47009
7206530;-0.18500;86.7500;145;83;0.45714
7206540;-0.18000;86.4375;145;83;0.45031
7206550;-0.17500;86.1250;145;83;0.44347
7206560;-0.17000;85.8125;145;83;0.43663
7206570;-0.16000;85.1250;145;83;0.42369
7206580;-0.16000;84.7500;145;83;0.41734
7206590;-0.15500;84.3750;145;83;0.41074
7206600;-0.14500;83.6250;145;83;0.40049
7206610;-0.14500;83.2500;145;83;0.39487
7206620;-0.13500;82.8750;145;83;0.38901
7206630;-0.13000;82.5625;145;83;0.38291
7206640;-0.12000;82.2500;145;83;0.37680
7206650;-0.11500;81.7500;145;83;0.36532
7206660;-0.10000;81.5000;145;83;0.35995
7206670;-0.09000;81.2500;145;83;0.35458
7206680;-0.07500;81.1250;145;83;0.34969
7206690;-0.06000;81.4375;145;83;0.34164
7206700;-0.04500;82.3750;145;83;0.33895
7206710;-0.02500;84.1250;145;83;0.33578
7206720;-0.00500;86.7500;145;83;0.33211
7206730;0.02000;94.6250;145;83;0.32454
7206740;0.04000;99.5625;145;83;0.32088
7206750;0.06500;104.9375;145;83;0.31770
7206760;0.10000;116.1250;145;83;0.31209
7206770;0.12000;121.4375;145;83;0.30940
7206780;0.15500;126.3125;145;83;0.30720
7206790;0.19500;130.6250;145;83;0.30525
7206800;0.19500;130.6250;145;83;0.30525
7206810;0.23000;139.3750;145;83;0.30354
7206820;0.21500;141.1250;145;83;0.30256
7206830;0.18000;142.3750;145;83;0.30159
7206840;0.12000;143.7500;145;83;0.29963
7206850;0.06500;143.9375;145;83;0.29866
7206860;0.00500;143.9375;145;83;0.29792
7206870;-0.04500;143.7500;145;83;0.29744
7206880;-0.07000;143.3750;145;83;0.29719
7206890;-0.09000;142.1875;145;83;0.29744
7206900;-0.10000;141.3125;145;83;0.29841
7206910;-0.11000;140.2500;145;83;0.29890
7206920;-0.12000;137.6250;145;83;0.29915
7206930;-0.12500;135.9375;145;83;0.29939
7206940;-0.12500;134.0000;145;83;0.29963
7206950;-0.13000;131.6875;145;83;0.30110
7206960;-0.13000;129.0000;145;83;0.30501
7206970;-0.13000;122.8125;145;83;0.32210
7206980;-0.12500;119.5000;145;83;0.33675
7206990;-0.12500;116.3750;145;83;0.34701
7207000;-0.12500;113.6250;145;83;0.35385
7207010;-0.12000;109.6250;145;83;0.39414
7207020;-0.11500;108.3125;145;83;0.42418
7207030;-0.11500;107.4375;145;83;0.45739
7207040;-0.10500;106.8750;145;83;0.49158
7207050;-0.10500;106.5625;145;83;0.55849
7207060;-0.10000;106.6250;145;83;0.58901
7207070;-0.09500;106.7500;145;83;0.61661
7207080;-0.10000;106.8750;145;83;0.66300
7207090;-0.10000;106.8125;145;83;0.67937
7207100;-0.10000;106.6250;145;83;0.69206
7207110;-0.10500;106.3125;145;83;0.70476
7207120;-0.11000;105.5000;145;83;0.72576
7207130;-0.11000;105.0000;145;83;0.73333
7207140;-0.11000;104.4375;145;83;0.73919
7207150;-0.11000;103.8750;145;83;0.74310
7207160;-0.10500;103.2500;145;83;0.74481
7207170;-0.09500;102.0000;145;83;0.74237
7207180;-0.07500;101.3125;145;83;0.73822
7207190;-0.04500;100.6875;145;83;0.73211
7207200;-0.02500;100.0625;145;83;0.72454
7207210;-0.01500;98.8125;145;83;0.70452
7207220;0.00000;98.2500;145;83;0.69133
7207230;0.04000;97.6875;145;83;0.67619
7207240;0.05000;97.1250;145;83;0.65958
7207250;0.01500;96.0625;145;83;0.62344
7207260;-0.01000;95.5625;145;83;0.60537
7207270;-0.04000;95.0625;145;83;0.58779
7207280;-0.08500;94.1875;145;83;0.55702
7207290;-0.12500;93.8125;145;83;0.54481
7207300;-0.14500;93.3750;145;83;0.53455
7207310;-0.15000;93.0000;145;83;0.52503
7207320;-0.15000;92.3750;145;83;0.50891
7207330;-0.14500;92.0625;145;83;0.50256
7207340;-0.13500;91.8125;145;83;0.49719
7207350;-0.13500;91.5625;145;83;0.49255
7207360;-0.04500;91.3125;145;83;0.48816
7207370;0.49500;90.8125;145;83;0.47985
7207380;0.97000;90.6250;145;83;0.47546
7207390;0.91000;90.3750;145;83;0.47082
7207400;0.16500;89.9375;145;83;0.46642
7207410;-0.26500;89.7500;145;83;0.45714
7207420;-0.24000;89.5000;145;83;0.45226
7207430;-0.20000;89.3125;145;83;0.44713
7207440;-0.20000;89.0625;145;83;0.44200
7207450;-0.20000;88.5625;145;83;0.43101
7207460;-0.20000;88.2500;145;83;0.42540
7207470;-0.19500;87.9375;145;83;0.41954
7207480;-0.19000;87.6250;145;83;0.41368
7207490;-0.18000;86.9375;145;83;0.40317
7207500;-0.18000;86.5625;145;83;0.39902
7207510;-0.17500;86.1875;145;83;0.39438
7207520;-0.17000;85.5000;145;83;0.38486
7207530;-0.16000;85.1250;145;83;0.37998
7207540;-0.14500;84.8125;145;83;0.37534
7207550;-0.13500;84.5000;145;83;0.37070
7207560;-0.12500;84.1875;145;83;0.36630
7207570;-0.11500;83.6250;145;83;0.35775
7207580;-0.10500;83.5000;145;83;0.35360
7207590;-0.09500;83.5000;145;83;0.34969
7207600;-0.08000;83.8125;145;83;0.34701
7207610;-0.06000;86.6875;145;83;0.34286
7207620;-0.04500;89.5000;145;83;0.34042
7207630;-0.02500;93.3125;145;83;0.33797
7207640;-0.00500;103.1250;145;83;0.33309
7207650;0.01000;108.7500;145;83;0.33065
7207660;0.04000;114.5625;145;83;0.32869
7207670;0.07500;120.3750;145;83;0.32723
7207680;0.10500;125.8750;145;83;0.32601
7207690;0.14000;135.1875;145;83;0.32552
7207700;0.18500;138.8750;145;83;0.32625
7207710;0.20500;141.8750;145;83;0.32698
7207720;0.22500;144.1875;145;83;0.32796
7207730;0.21500;147.3125;145;83;0.32894
7207740;0.18000;148.2500;145;83;0.32918
7207750;0.12500;148.8125;145;83;0.32918
7207760;0.06000;149.2500;145;83;0.32869
7207770;-0.01500;149.1875;145;83;0.32796
7207780;-0.05500;149.0000;145;83;0.32723
7207790;-0.09000;148.6250;145;83;0.32698
7207800;-0.09000;148.6250;145;83;0.32698
7207810;-0.12000;146.6875;145;83;0.32772
7207820;-0.12500;145.6875;145;83;0.32723
7207830;-0.13500;144.5000;145;83;0.32698
7207840;-0.14000;141.3750;145;83;0.32698
7207850;-0.14500;139.4375;145;83;0.32845
7207860;-0.14500;137.0625;145;83;0.33138
7207870;-0.14000;134.3750;145;83;0.33700
7207880;-0.14000;128.0000;145;83;0.35971
7207890;-0.13500;124.5625;145;83;0.37485
7207900;-0.13000;121.1875;145;83;0.39243
7207910;-0.12500;118.2500;145;83;0.41587
7207920;-0.12000;115.8125;145;83;0.44371
7207930;-0.11500;112.3750;145;83;0.50769
7207940;-0.11000;111.3125;145;83;0.54115
7207950;-0.10500;110.6875;145;83;0.57387
7207960;-0.09500;110.2500;145;83;0.60464
7207970;-0.09500;110.2500;145;83;0.65910
7207980;-0.09500;110.3125;145;83;0.68230
7207990;-0.09500;110.3125;145;83;0.69963
7208000;-0.09500;110.1875;144;83;0.71282
7208010;-0.09500;110.0000;144;83;0.73846
7208020;-0.09500;109.6875;144;83;0.74945
7208030;-0.09500;109.2500;144;83;0.75849
7208040;-0.09500;108.8125;144;83;0.76581
7208050;-0.09000;107.7500;144;83;0.77534
7208060;-0.09000;107.1250;144;83;0.77802
7208070;-0.08500;106.5000;144;83;0.77924
7208080;-0.07000;105.1875;144;83;0.77680
7208090;-0.04500;104.5000;144;83;0.77241
7208100;-0.02000;103.8125;144;83;0.76630
7208110;-0.00500;103.1250;144;83;0.75897
7208120;0.00500;101.8750;144;83;0.73895
7208130;0.03000;101.2500;144;83;0.72576
7208140;0.06000;100.6250;144;83;0.71062
7208150;0.06000;100.0625;144;83;0.69402
7208160;0.03500;99.5000;144;83;0.67619
7208170;0.00000;98.4375;144;83;0.64005
7208180;-0.03500;97.9375;144;83;0.62271
7208190;-0.10500;97.4375;144;83;0.60757
7208200;-0.15000;96.5625;144;83;0.58193
7208210;-0.16000;96.1250;144;83;0.57021
7208220;-0.16000;95.7500;144;83;0.55971
7208230;-0.16000;95.3750;144;83;0.55043
7208240;-0.15500;95.0625;144;83;0.54261
7208250;-0.15500;94.5000;144;83;0.53016
7208260;-0.13500;94.1875;144;83;0.52503
7208270;0.01500;93.9375;144;83;0.52039
7208280;0.53000;93.6875;144;83;0.51600
7208290;1.08500;93.1875;144;83;0.50696
7208300;0.82500;92.9375;144;83;0.50281
7208310;0.02000;92.7500;144;83;0.49817
7208320;-0.28500;92.3125;144;83;0.48767
7208330;-0.24500;92.1250;144;83;0.48205
7208340;-0.22500;91.8750;144;83;0.47619
7208350;-0.22500;91.6250;144;83;0.47033
7208360;-0.22000;91.0000;144;83;0.45812
7208370;-0.22000;90.6875;144;83;0.45201
7208380;-0.20500;90.3125;144;83;0.44640
7208390;-0.19500;89.9375;144;83;0.44176
7208400;-0.18500;89.5000;144;83;0.43736
7208410;-0.17500;88.8125;144;83;0.42735
7208420;-0.17000;88.4375;144;83;0.42222
7208430;-0.16000;88.0625;144;83;0.41709
7208440;-0.15000;87.6875;144;83;0.41221
7208450;-0.14000;86.9375;144;83;0.40269
7208460;-0.12500;86.6250;144;83;0.39829
7208470;-0.11500;86.3125;144;83;0.39390
7208480;-0.10000;86.0000;144;83;0.38974
7208490;-0.08500;85.6875;144;83;0.38242
7208500;-0.06500;85.9375;144;83;0.37973
7208510;-0.05000;86.7500;144;83;0.37705
7208520;-0.03500;88.3750;144;83;0.37436
7208530;-0.01000;94.7500;144;83;0.36972
7208540;0.01000;99.3125;144;83;0.36801
7208550;0.02500;104.5000;144;83;0.36630
7208560;0.05500;116.0625;144;83;0.36313
7208570;0.08000;121.9375;144;83;0.36215
7208580;0.11000;127.5000;144;83;0.36142
7208590;0.14500;132.5625;144;83;0.36142
7208600;0.18000;136.9375;144;83;0.36142
7208610;0.21500;143.6250;144;83;0.36117
7208620;0.25000;146.0000;144;83;0.36093
7208630;0.25500;147.7500;144;83;0.36093
7208640;0.24500;148.9375;144;83;0.36093
7208650;0.19000;150.2500;144;83;0.35995
7208660;0.14000;150.5000;144;83;0.35897
7208670;0.08000;150.5625;144;83;0.35800
7208680;0.02500;150.1250;144;83;0.35702
7208690;-0.02000;149.7500;144;83;0.35556
7208700;-0.04500;149.1875;144;83;0.35556
7208710;-0.06500;148.5625;144;83;0.35531
7208720;-0.07500;147.8125;144;83;0.35482
7208730;-0.08500;145.7500;144;83;0.35311
7208740;-0.09500;144.3750;144;83;0.35214
7208750;-0.09500;142.8125;144;83;0.35140
7208760;-0.09500;140.9375;144;83;0.35140
7208770;-0.09500;136.1250;144;83;0.35678
7208780;-0.09000;133.1875;144;83;0.36410
7208790;-0.08500;130.0000;144;83;0.37314
7208800;-0.08500;130.0000;144;83;0.37314
7208810;-0.08000;120.0000;144;83;0.42589
7208820;-0.07500;117.2500;144;83;0.45299
7208830;-0.06500;115.0000;144;83;0.48303
7208840;-0.06500;113.2500;144;83;0.51453
7208850;-0.06000;111.0000;144;83;0.57778
7208860;-0.05500;110.3750;144;83;0.60708
7208870;-0.04500;109.9375;144;83;0.63394
7208880;-0.04500;109.7500;144;83;0.65788
7208890;-0.04500;109.7500;144;83;0.65788
7208900;-0.16000;89.1250;144;83;0.32381
7208910;-0.16000;89.1250;144;83;0.32381
7208920;-0.16000;89.1250;144;83;0.32381
7208930;-0.16000;89.1250;144;83;0.32381
7208940;-0.16000;89.1250;144;83;0.32381
7208950;-0.16000;89.1250;144;83;0.32381
7208960;-0.16000;89.1250;144;83;0.32381
7208970;-0.16000;89.1250;144;83;0.32381
7208980;-0.16000;89.1250;144;83;0.32381
7208990;-0.16000;89.1250;144;83;0.32381
7209000;-0.16000;89.1250;144;83;0.32381
7209010;-0.10000;84.1875;144;83;0.22906
7209020;-0.10000;84.1875;144;83;0.22906
7209030;-0.10000;84.1875;144;83;0.22906
7209040;-0.10000;84.1875;144;83;0.22906
7209050;-0.10000;84.1875;144;83;0.22906
7209060;-0.10000;84.1875;144;83;0.22906
7209070;-0.10000;84.1875;144;83;0.22906
7209080;-0.10000;84.1875;144;83;0.22906
7209090;-0.10000;84.1875;144;83;0.22906
7209100;-0.10000;84.1875;144;83;0.22906
7209110;-0.10000;84.1875;144;83;0.22906
7209120;-0.10000;84.1875;144;83;0.22906
7209130;-0.10000;84.1875;144;83;0.22906
7209140;-0.10000;84.1875;144;83;0.22906
7209150;-0.10000;84.1875;144;83;0.22906
7209160;-0.10000;84.1875;144;83;0.22906
7209170;-0.10000;84.1875;144;83;0.22906
7209180;-0.10000;84.1875;144;83;0.22906
7209190;-0.10000;84.1875;144;83;0.22906
7209200;-0.10000;84.1875;144;83;0.22906
7209210;-0.10000;84.1875;144;83;0.22906
7209220;-0.10000;84.1875;144;83;0.22906
7209230;-0.10000;84.1875;144;83;0.22906
7209240;-0.10000;84.1875;144;83;0.22906
7209250;-0.10000;84.1875;144;83;0.22906
7209260;-0.10000;84.1875;144;83;0.22906
7209270;-0.10000;84.1875;144;83;0.22906
7209280;-0.10000;84.1875;144;83;0.22906
7209290;-0.10000;84.1875;144;83;0.22906
7209300;-0.10000;84.1875;144;83;0.22906
7209310;-0.10000;84.1875;144;83;0.22906
7209320;-0.10000;84.1875;144;83;0.22906
7209330;-0.10000;84.1875;144;83;0.22906
7209340;-0.10000;84.1875;144;83;0.22906
7209350;-0.10000;84.1875;144;83;0.22906
7209360;-0.10000;84.1875;144;83;0.22906
7209370;-0.09500;83.5000;144;83;0.21612
7209380;-0.08000;83.1875;144;83;0.20977
7209390;-0.06500;82.8750;144;83;0.20537
7209400;-0.05500;82.6250;144;83;0.20147
7209410;-0.04000;82.5625;144;83;0.19145
7209420;-0.01500;83.1250;144;83;0.18632
7209430;0.00000;84.3125;144;83;0.18144
7209440;0.02000;86.3125;144;83;0.17680
7209450;0.04500;92.9375;144;83;0.16825
7209460;0.06000;97.4375;144;83;0.16410
7209470;0.09000;102.4375;144;83;0.16020
7209480;0.12000;113.3125;144;83;0.15385
7209490;0.14500;118.6875;144;83;0.15263
7209500;0.18000;123.8125;144;83;0.15092
7209510;0.21500;128.3750;144;83;0.14896
7209520;0.24000;132.3750;144;83;0.14701
7209530;0.26500;138.3125;144;83;0.14383
7209540;0.26000;140.3750;144;83;0.14261
7209550;0.22500;141.8750;144;83;0.14139
7209560;0.17500;142.8750;144;83;0.14017
7209570;0.11000;143.8125;144;83;0.13797
7209580;0.04000;143.8750;144;83;0.13675
7209590;0.00500;143.6875;144;83;0.13700
7209600;-0.02500;143.3125;144;83;0.13797
7209610;-0.05500;142.0000;144;83;0.13846
7209620;-0.06500;141.0625;144;83;0.13871
7209630;-0.07500;139.9375;144;83;0.13895
7209640;-0.09000;137.0625;144;83;0.13968
7209650;-0.09500;135.2500;144;83;0.14017
7209660;-0.09500;133.1250;144;83;0.14066
7209670;-0.09500;130.6875;144;83;0.14164
7209680;-0.09500;127.9375;144;83;0.14383
7209690;-0.09500;121.4375;144;83;0.15360
7209700;-0.09500;118.0000;144;83;0.16288
7209710;-0.09000;114.8125;144;83;0.17631
7209720;-0.08500;109.6875;144;83;0.21734
7209730;-0.08500;107.9375;144;83;0.24444
7209740;-0.07500;106.5625;144;83;0.27521
7209750;-0.07500;105.6875;144;83;0.30842
7209760;-0.07000;105.1875;144;83;0.34261
7209770;-0.07000;104.9375;144;83;0.40904
7209780;-0.07000;105.0625;144;83;0.43907
7209790;-0.07000;105.2500;144;83;0.46349
7209800;-0.07000;105.2500;144;83;0.46349
7209810;-0.07500;105.3750;144;83;0.52137
7209820;-0.07500;105.1875;144;83;0.53724
7209830;-0.07500;104.9375;144;83;0.55067
7209840;-0.08000;104.1875;144;83;0.57094
7209850;-0.08000;103.6875;144;83;0.57753
7209860;-0.08000;103.1250;144;83;0.58193
7209870;-0.08500;102.5625;144;83;0.58437
7209880;-0.08000;102.0000;144;83;0.58510
7209890;-0.06000;100.8125;144;83;0.58095
7209900;-0.03000;100.1250;144;83;0.57680
7209910;-0.01000;99.5000;144;83;0.57094
7209920;0.00000;98.1875;144;83;0.55287
7209930;0.01000;97.5625;144;83;0.54042
7209940;0.05000;96.8750;144;83;0.52552
7209950;0.08000;96.2500;144;83;0.50891
7209960;0.06000;95.0625;144;83;0.47228
7209970;0.03000;94.5625;144;83;0.45324
7209980;0.00000;94.0625;144;83;0.43443
7209990;-0.04000;93.5625;144;83;0.41856
7210000;-0.07500;93.1250;144;82;0.40464
7210010;-0.10500;92.3125;144;82;0.37827
7210020;-0.11500;91.9375;144;82;0.36703
7210030;-0.11500;91.5625;144;82;0.35751
7210040;-0.12000;91.1875;144;82;0.34945
7210050;-0.11000;90.5625;144;82;0.33675
7210060;-0.10500;90.2500;144;82;0.33138
7210070;-0.07500;90.0000;144;82;0.32650
7210080;0.08000;89.7500;144;82;0.32186
7210090;0.55500;89.2500;144;82;0.31502
7210100;0.99000;89.0625;144;82;0.31111
7210110;0.62000;88.8125;144;82;0.30696
7210120;-0.08500;88.5625;144;82;0.30256
7210130;-0.27500;88.0625;144;82;0.29304
7210140;-0.21500;87.8750;144;82;0.28840
7210150;-0.18000;87.6250;144;82;0.28327
7210160;-0.17500;87.3750;144;82;0.27814
7210170;-0.17000;86.8125;144;82;0.26691
7210180;-0.16000;86.5000;144;82;0.26129
7210190;-0.16000;86.1250;144;82;0.25690
7210200;-0.15500;85.3750;144;82;0.24811
7210210;-0.15500;85.0000;144;82;0.24298
7210220;-0.15000;84.6250;144;82;0.23736
7210230;-0.14500;84.1875;144;82;0.23175
7210240;-0.14000;83.8125;144;82;0.22637
7210250;-0.13000;83.0625;144;82;0.21612
7210260;-0.12000;82.7500;144;82;0.21123
7210270;-0.11500;82.4375;144;82;0.20659
7210280;-0.10000;82.1250;144;82;0.20220
7210290;-0.08500;81.5625;144;82;0.19707
7210300;-0.07500;81.3125;144;82;0.19414
7210310;-0.06000;81.1875;144;82;0.19072
7210320;-0.04000;81.7500;144;82;0.18681
7210330;-0.02000;82.9375;144;82;0.17851
7210340;-0.00500;84.9375;144;82;0.17436
7210350;0.01000;87.8125;144;82;0.17070
7210360;0.04000;95.9375;144;82;0.16386
7210370;0.06500;100.8750;144;82;0.16068
7210380;0.09500;106.1875;144;82;0.15775
7210390;0.13500;111.5625;144;82;0.15629
7210400;0.16000;116.8750;144;82;0.15580
7210410;0.19000;126.4375;144;82;0.15360
7210420;0.23000;130.3750;144;82;0.15263
7210430;0.25000;133.6250;144;82;0.15189
7210440;0.26000;136.2500;144;82;0.15165
7210450;0.24500;139.6875;144;82;0.15140
7210460;0.18500;140.7500;144;82;0.15140
7210470;0.13500;141.4375;144;82;0.15140
7210480;0.07000;141.7500;144;82;0.15140
7210490;0.00000;141.5000;144;82;0.15336
7210500;-0.02500;141.0625;144;82;0.15360
7210510;-0.06000;140.4375;144;82;0.15360
7210520;-0.07500;138.6250;144;82;0.15336
7210530;-0.08500;137.4375;144;82;0.15360
7210540;-0.09500;136.0625;144;82;0.15409
7210550;-0.10000;134.4375;144;82;0.15458
7210560;-0.10500;132.5625;144;82;0.15507
7210570;-0.10500;127.8125;144;82;0.15824
7210580;-0.10500;124.9375;144;82;0.16142
7210590;-0.10500;121.8750;144;82;0.16630
7210600;-0.10500;115.4375;144;82;0.17338
7210610;-0.10000;112.5625;144;82;0.19707
7210620;-0.09500;110.1250;144;82;0.21563
7210630;-0.09000;108.1250;144;82;0.23883
7210640;-0.08500;106.6250;144;82;0.26642
7210650;-0.08000;104.8750;144;82;0.33138
7210660;-0.07500;104.5000;144;82;0.36630
7210670;-0.07500;104.3125;144;82;0.40073
7210680;-0.07500;104.3750;144;82;0.46129
7210690;-0.07500;104.4375;144;82;0.48425
7210700;-0.07500;104.5000;144;82;0.50745
7210710;-0.07500;104.4375;144;82;0.52894
7210720;-0.08000;104.3750;144;82;0.54823
7210730;-0.08000;103.8750;144;82;0.57924
7210740;-0.08500;103.5000;144;82;0.59096
7210750;-0.08500;103.0625;144;82;0.60049
7210760;-0.08500;102.0000;144;82;0.60781
7210770;-0.08500;101.4375;144;82;0.61587
7210780;-0.08500;100.8125;144;82;0.61685
7210790;-0.08500;100.1875;144;82;0.61587
7210800;-0.08500;100.1875;144;82;0.61587
7210810;-0.04000;98.3125;144;82;0.60366
7210820;-0.01500;97.6875;144;82;0.59609
7210830;-0.00500;97.0625;144;82;0.58657
7210840;0.01000;96.4375;144;82;0.57485
7210850;0.05000;95.2500;144;82;0.54554
7210860;0.07000;94.7500;144;82;0.52894
7210870;0.05500;94.1875;144;82;0.51160
7210880;0.01500;93.6875;144;82;0.49402
7210890;-0.01500;92.7500;144;82;0.46471
7210900;-0.07000;92.3750;144;82;0.45079
7210910;-0.10500;91.9375;144;82;0.43761
7210920;-0.12500;91.1875;144;82;0.41490
7210930;-0.13500;90.8125;144;82;0.40562
7210940;-0.13500;90.5000;144;82;0.39756
7210950;-0.13500;90.1250;144;82;0.39072
7210960;-0.12500;89.8125;144;82;0.38462
7210970;-0.12500;89.2500;144;82;0.37411
7210980;-0.03500;89.0000;144;82;0.36947
7210990;0.22500;88.7500;144;82;0.36532
7211000;0.76500;88.5000;144;82;0.36166
7211010;0.83500;88.0625;144;82;0.35311
7211020;0.30000;87.8125;144;82;0.34847
7211030;-0.25000;87.5625;144;82;0.34359
7211040;-0.25000;87.0625;144;82;0.33309
7211050;-0.20000;86.7500;144;82;0.32747
7211060;-0.19000;86.5000;144;82;0.32186
7211070;-0.18000;86.1875;144;82;0.31624
7211080;-0.18000;85.8750;144;82;0.31087
7211090;-0.17000;85.1875;144;82;0.37314
7211100;-0.16000;84.8125;144;82;0.38926
7211110;-0.15500;84.4375;144;82;0.39463
7211120;-0.14500;83.7500;144;82;0.39145
7211130;-0.14500;83.3750;144;82;0.38706
7211140;-0.14000;83.0000;144;82;0.38217
7211150;-0.13500;82.6875;144;82;0.37729
7211160;-0.12500;82.3125;144;82;0.37241
7211170;-0.11500;81.6250;144;82;0.36288
7211180;-0.10500;81.3750;144;82;0.35824
7211190;-0.09500;81.1250;144;82;0.35482
7211200;-0.08000;80.6875;144;82;0.34823
7211210;-0.07500;80.6250;144;82;0.34383
7211220;-0.06000;80.6875;144;82;0.33944
7211230;-0.04500;81.2500;144;82;0.33504
7211240;-0.03000;82.4375;144;82;0.33065
7211250;-0.01000;87.5000;144;82;0.32186
7211260;0.00500;91.2500;144;82;0.31770
7211270;0.03500;95.7500;144;82;0.31380
7211280;0.06000;100.7500;144;82;0.31038
7211290;0.09000;111.6875;144;82;0.30720
7211300;0.12000;117.0625;144;82;0.30525
7211310;0.15000;122.1875;144;82;0.30305
7211320;0.18500;130.8125;144;82;0.30110
7211330;0.22000;134.1250;144;82;0.29817
7211340;0.24000;136.7500;144;82;0.29695
7211350;0.24500;138.8125;144;82;0.29573
7211360;0.21500;140.3750;144;82;0.29451
7211370;0.16500;142.0625;144;82;0.29231
7211380;0.09000;142.3125;144;82;0.29231
7211390;0.04000;142.3750;144;82;0.29255
7211400;-0.00500;142.1875;144;82;0.29255
7211410;-0.05000;141.1875;144;82;0.29255
7211420;-0.07000;140.4375;144;82;0.29280
7211430;-0.09000;139.5625;144;82;0.29353
7211440;-0.10000;138.4375;144;82;0.29426
7211450;-0.10500;135.6250;144;82;0.29621
7211460;-0.11500;133.8750;144;82;0.29719
7211470;-0.11500;131.8125;144;82;0.29817
7211480;-0.11500;129.4375;144;82;0.29939
7211490;-0.12000;123.6875;144;82;0.30574
7211500;-0.12000;120.4375;144;82;0.31184
7211510;-0.11500;117.0625;144;82;0.32088
7211520;-0.11000;111.0000;144;82;0.35287
7211530;-0.10500;108.6875;144;82;0.37656
7211540;-0.10500;106.8750;144;82;0.40464
7211550;-0.10000;105.5625;144;82;0.43614
7211560;-0.09500;104.6875;144;82;0.47009
7211570;-0.08500;103.8750;144;82;0.53968
7211580;-0.08500;103.8125;144;82;0.56899
7211590;-0.08500;103.9375;144;82;0.59463
7211600;-0.08500;104.1875;144;82;0.64664
7211610;-0.08500;104.2500;144;82;0.66984
7211620;-0.08500;104.1875;144;82;0.69011
7211630;-0.08500;104.0625;144;82;0.70745
7211640;-0.08500;103.8125;144;82;0.72186
7211650;-0.08500;103.0625;144;82;0.74335
7211660;-0.08500;102.5625;144;82;0.75116
7211670;-0.08500;102.0625;144;82;0.75702
7211680;-0.08500;101.4375;144;82;0.76093
7211690;-0.08000;100.2500;144;82;0.76142
7211700;-0.07500;99.5625;144;82;0.75995
7211710;-0.05500;98.9375;144;82;0.75702
7211720;-0.02500;97.6875;144;82;0.74603
7211730;-0.01000;97.0625;144;82;0.73748
7211740;-0.00500;96.4375;144;82;0.72698
7211750;0.02000;95.8750;144;82;0.71429
7211760;0.05000;95.2500;144;82;0.69963
7211770;0.06500;94.1250;144;82;0.66545
7211780;0.03000;93.5625;144;82;0.64884
7211790;0.00000;93.0625;144;82;0.63297
7211800;0.00000;93.0625;144;82;0.63297
7211810;-0.07000;91.6875;144;82;0.58388
7211820;-0.11000;91.2500;144;82;0.56996
7211830;-0.13500;90.8125;144;82;0.55775
7211840;-0.14000;90.1250;144;82;0.53919
7211850;-0.14000;89.7500;144;82;0.53236
7211860;-0.13500;89.4375;144;82;0.52674
7211870;-0.12500;89.1250;144;82;0.52186
7211880;-0.12000;88.5625;144;82;0.51331
7211890;-0.04500;88.3125;144;82;0.50965
7211900;0.31500;88.1250;144;82;0.50549
7211910;0.86500;87.8750;144;82;0.50085
7211920;0.86500;87.6875;144;82;0.49597
7211930;0.05500;87.2500;144;82;0.48571
7211940;-0.26000;87.0625;144;82;0.48034
7211950;-0.25000;86.8125;144;82;0.47473
7211960;-0.20000;86.5625;144;82;0.46886
7211970;-0.19000;86.0625;144;82;0.45714
7211980;-0.19000;85.8125;144;82;0.45201
7211990;-0.18000;85.5000;144;82;0.44737
7212000;-0.17500;85.1250;144;82;0.44225
7212010;-0.17000;84.4375;144;82;0.43126
7212020;-0.17000;84.1250;144;82;0.42540
7212030;-0.16000;83.7500;144;82;0.41954
7212040;-0.15500;83.3750;144;82;0.41343
7212050;-0.15000;82.5625;144;82;0.40171
7212060;-0.14500;82.2500;144;82;0.39585
7212070;-0.13500;81.9375;144;82;0.39023
7212080;-0.12500;81.3125;144;82;0.38462
7212090;-0.11000;81.0000;144;82;0.37656
7212100;-0.10000;80.6875;144;82;0.37216
7212110;-0.09000;80.4375;144;82;0.36752
7212120;-0.07500;80.1875;144;82;0.35873
7212130;-0.06000;80.5625;144;82;0.35433
7212140;-0.04000;81.5000;144;82;0.35018
7212150;-0.01500;83.3125;144;82;0.34628
7212160;0.00000;86.0000;144;82;0.34237
7212170;0.03000;94.0000;144;82;0.33529
7212180;0.05500;98.9375;144;82;0.33309
7212190;0.08000;104.3125;144;82;0.33187
7212200;0.11500;115.5000;144;82;0.32821
7212210;0.14000;120.8125;144;82;0.32601
7212220;0.16500;125.6250;144;82;0.32405
7212230;0.20500;129.9375;144;82;0.32210
7212240;0.23500;133.5000;144;82;0.32039
7212250;0.25500;138.6875;144;82;0.31770
7212260;0.24500;140.4375;144;82;0.31673
7212270;0.21500;141.6250;144;82;0.31600
7212280;0.15500;142.4375;144;82;0.31551
7212290;0.08000;143.1250;144;82;0.31648
7212300;0.03000;143.0625;144;82;0.31697
7212310;-0.01500;142.8125;144;82;0.31722
7212320;-0.05500;141.6875;144;82;0.31722
7212330;-0.07000;140.9375;144;82;0.31722
7212340;-0.08500;139.9375;144;82;0.31722
7212350;-0.09500;138.8125;144;82;0.31722
7212360;-0.10500;137.5000;144;82;0.31697
7212370;-0.10500;134.1875;144;82;0.31697
7212380;-0.11000;132.0625;144;82;0.31795
7212390;-0.11000;129.6875;144;82;0.31966
7212400;-0.11000;126.8750;144;82;0.32210
7212410;-0.10500;120.4375;144;82;0.33431
7212420;-0.10500;117.0625;144;82;0.34628
7212430;-0.10000;113.8125;144;82;0.36288
7212440;-0.09500;110.9375;144;82;0.38437
7212450;-0.09500;106.8125;144;82;0.44127
7212460;-0.09000;105.5000;144;82;0.47448
7212470;-0.08500;104.6250;144;82;0.50965
7212480;-0.09000;103.9375;144;82;0.54530
7212490;-0.09500;103.8750;144;82;0.60244
7212500;-0.09500;104.0000;144;82;0.63077
7212510;-0.09000;104.1250;144;82;0.65788
7212520;-0.09500;104.2500;144;82;0.70427
7212530;-0.09500;104.1875;144;82;0.72283
7212540;-0.10000;104.0625;144;82;0.73871
7212550;-0.10500;103.8125;144;82;0.75214
7212560;-0.10500;103.4375;144;82;0.76313
7212570;-0.10500;102.5000;144;82;0.77924
7212580;-0.10500;101.9375;144;82;0.78291
7212590;-0.10500;101.3750;144;82;0.78462
7212600;-0.10500;100.7500;144;82;0.78608
7212610;-0.09000;99.5625;144;82;0.78584
7212620;-0.07000;98.9375;144;82;0.78339
7212630;-0.03500;98.2500;144;82;0.77900
7212640;-0.02500;97.6875;144;82;0.77241
7212650;-0.01500;96.5000;144;82;0.75238
7212660;0.01500;95.9375;144;82;0.73871
7212670;0.04500;95.3125;144;82;0.72283
7212680;0.04500;95.3125;144;82;0.72283
7212690;0.04500;95.3125;144;82;0.72283
7212700;0.04500;95.3125;144;82;0.72283
7212710;-0.05500;92.8125;144;82;0.63590
7212720;-0.08500;92.3750;144;82;0.61832
7212730;-0.12500;91.5625;144;82;0.58828
7212740;-0.14000;91.1875;144;82;0.57582
7212750;-0.14000;90.8750;144;82;0.56532
7212760;-0.13500;90.5625;144;82;0.55653
7212770;-0.13500;90.0000;144;82;0.54286
7212780;-0.12500;89.7500;144;82;0.53797
7212790;-0.12000;89.5000;144;82;0.53358
7212800;-0.01500;89.3125;144;82;0.52918
7212810;0.39500;88.8750;144;82;0.51966
7212820;1.01000;88.6250;144;82;0.51453
7212830;0.83000;88.4375;144;82;0.50891
7212840;0.09500;88.2500;144;82;0.50354
7212850;-0.29500;87.8750;144;82;0.49206
7212860;-0.24000;87.6875;144;82;0.48620
7212870;-0.21500;87.5000;144;82;0.48010
7212880;-0.21000;87.0000;144;82;0.46935
7212890;-0.20500;86.6875;144;82;0.46471
7212900;-0.20000;86.3125;144;82;0.45934
7212910;-0.20000;85.9375;144;82;0.45348
7212920;-0.20000;85.5625;144;82;0.44762
7212930;-0.19500;84.8125;144;82;0.43590
7212940;-0.19000;84.4375;144;82;0.43004
7212950;-0.18000;84.0625;144;82;0.42418
7212960;-0.17000;83.6875;144;82;0.41856
7212970;-0.16000;82.9375;144;82;0.40757
7212980;-0.15500;82.6250;144;82;0.40342
7212990;-0.14500;82.3125;144;82;0.39976
7213000;-0.12500;81.6875;145;83;0.39096
7213010;-0.11500;81.4375;145;83;0.38657
7213020;-0.10500;81.2500;145;83;0.38217
7213030;-0.08500;81.2500;145;83;0.37802
7213040;-0.07000;81.6250;145;83;0.37411
7213050;-0.05000;84.3125;145;83;0.36703
7213060;-0.03500;86.9375;145;83;0.36361
7213070;-0.01500;90.5625;145;83;0.36044
7213080;0.00500;100.0000;145;83;0.35507
7213090;0.02500;105.4375;145;83;0.35385
7213100;0.05500;111.1875;145;83;0.35214
7213110;0.08000;116.8750;145;83;0.35043
7213120;0.12000;127.3750;145;83;0.34725
7213130;0.15000;131.7500;145;83;0.33578
7213140;0.18500;135.5000;145;83;0.31966
7213150;0.21500;138.5000;145;83;0.31111
7213160;0.22500;140.9375;145;83;0.30672
7213170;0.21500;144.0625;145;83;0.30281
7213180;0.17000;144.9375;145;83;0.30232
7213190;0.13000;145.5000;145;83;0.30256
7213200;0.06000;145.8125;145;83;0.30232
7213210;-0.00500;145.5625;145;83;0.30159
7213220;-0.04500;145.1875;145;83;0.30134
7213230;-0.08500;144.6875;145;83;0.30134
7213240;-0.10000;144.0625;145;83;0.30134
7213250;-0.11500;142.3125;145;83;0.30085
7213260;-0.12500;141.1875;145;83;0.30037
7213270;-0.13000;139.8125;145;83;0.29988
7213280;-0.13500;138.2500;145;83;0.30012
7213290;-0.13500;134.2500;145;83;0.30281
7213300;-0.14000;131.6875;145;83;0.30549
7213310;-0.14000;128.8750;145;83;0.31038
7213320;-0.13500;122.5000;145;83;0.31868
7213330;-0.13500;119.2500;145;83;0.34872
7213340;-0.13500;116.2500;145;83;0.37143
7213350;-0.13500;113.6875;145;83;0.39927
7213360;-0.12500;109.9375;145;83;0.46569
7213370;-0.12500;108.7500;145;83;0.50208
7213380;-0.12000;107.9375;145;83;0.53407
7213390;-0.11500;107.5000;145;83;0.56313
7213400;-0.11500;107.3125;145;83;0.59463
7213410;-0.11500;107.2500;145;83;0.65519
7213420;-0.12000;107.3125;145;83;0.68205
7213430;-0.12500;107.3125;145;83;0.70623
7213440;-0.12500;107.2500;145;83;0.72747
7213450;-0.11500;106.8125;145;83;0.76239
7213460;-0.10500;106.4375;145;83;0.77582
7213470;-0.10000;106.0625;145;83;0.78706
7213480;-0.10000;105.5625;145;83;0.79414
7213490;-0.10000;104.3750;145;83;0.80342
7213500;-0.10500;103.7500;145;83;0.80733
7213510;-0.10500;103.1250;145;83;0.80977
7213520;-0.10000;102.4375;145;83;0.81074
7213530;-0.07500;101.1250;145;83;0.80806
7213540;-0.05500;100.5000;145;83;0.80391
7213550;-0.02500;99.8750;145;83;0.79731
7213560;0.00000;98.6875;145;83;0.77778
7213570;0.01000;98.1250;145;83;0.76508
7213580;0.04000;97.5625;145;83;0.75140
7213590;0.07000;97.0625;145;83;0.73700
7213600;0.06500;96.5625;145;83;0.72088
7213610;0.02500;95.5625;145;83;0.68694
7213620;-0.01000;95.1250;145;83;0.67033
7213630;-0.06000;94.6875;145;83;0.65470
7213640;-0.11500;94.3125;145;83;0.64029
7213650;-0.14500;93.5625;145;83;0.61612
7213660;-0.15500;93.1875;145;83;0.60635
7213670;-0.16000;92.8125;145;83;0.59780
7213680;-0.15500;92.5000;145;83;0.59072
7213690;-0.15000;91.9375;145;83;0.57924
7213700;-0.15000;91.6250;145;83;0.57411
7213710;-0.14500;91.3750;145;83;0.56923
7213720;0.14500;90.8750;145;83;0.55971
7213730;0.62000;90.6250;145;83;0.55482
7213740;1.06500;90.3750;145;83;0.54969
7213750;0.49000;90.1250;145;83;0.54457
7213760;-0.09500;89.9375;145;83;0.53895
7213770;-0.29500;89.5000;145;83;0.52698
7213780;-0.23000;89.1875;145;83;0.52112
7213790;-0.22000;88.9375;145;83;0.51551
7213800;-0.22000;88.9375;145;83;0.51551
7213810;-0.21000;88.0625;145;83;0.49670
7213820;-0.20000;87.7500;145;83;0.49060
7213830;-0.19000;87.4375;145;83;0.48449
7213840;-0.18000;87.0625;145;83;0.47839
7213850;-0.17000;86.3750;145;83;0.46642
7213860;-0.16000;86.0000;145;83;0.46081
7213870;-0.15500;85.6875;145;83;0.45543
7213880;-0.14500;85.3125;145;83;0.45104
7213890;-0.13000;84.6250;145;83;0.44249
7213900;-0.12000;84.3125;145;83;0.43785
7213910;-0.11000;84.0000;145;83;0.43346
7213920;-0.09500;83.4375;145;83;0.42466
7213930;-0.08000;83.2500;145;83;0.42027
7213940;-0.07000;83.1875;145;83;0.41612
7213950;-0.05500;83.5000;145;83;0.41221
7213960;-0.05000;84.3750;145;83;0.40879
7213970;-0.03500;88.8125;145;83;0.40269
7213980;-0.02500;92.5000;145;83;0.40049
7213990;-0.01500;97.0625;145;83;0.39853
7214000;0.00500;102.2500;145;83;0.39658
7214010;0.03000;113.8125;145;83;0.39243
7214020;0.06000;119.6250;145;83;0.39072
7214030;0.10000;125.1875;145;83;0.38926
7214040;0.13000;130.2500;145;83;0.38803
7214050;0.16500;138.4375;145;83;0.38657
7214060;0.20500;141.4375;145;83;0.38632
7214070;0.23500;143.7500;145;83;0.38608
7214080;0.24000;145.5625;145;83;0.38608
7214090;0.22500;147.8125;145;83;0.38510
7214100;0.17000;148.3750;145;83;0.38437
7214110;0.12000;148.7500;145;83;0.38339
7214120;0.04500;148.7500;145;83;0.38120
7214130;0.00000;148.5000;145;83;0.38046
7214140;-0.03500;148.1875;145;83;0.37998
7214150;-0.07500;147.7500;145;83;0.37924
7214160;-0.09000;147.1250;145;83;0.37875
7214170;-0.10500;145.4375;145;83;0.37802
7214180;-0.11500;144.3125;145;83;0.37802
7214190;-0.12000;142.9375;145;83;0.37802
7214200;-0.12500;141.3125;145;83;0.37802
7214210;-0.13000;137.1250;145;83;0.37998
7214220;-0.13000;134.5000;145;83;0.38364
7214230;-0.12500;131.5625;145;83;0.39048
7214240;-0.12500;125.0625;145;83;0.41685
7214250;-0.12500;121.8750;145;83;0.43785
7214260;-0.12500;119.0000;145;83;0.46374
7214270;-0.11500;116.5000;145;83;0.49353
7214280;-0.11000;114.5000;145;83;0.52161
7214290;-0.11500;111.7500;145;83;0.58071
7214300;-0.12500;110.9375;145;83;0.61392
7214310;-0.12000;110.4375;145;83;0.64664
7214320;-0.11500;110.1875;145;83;0.67790
7214330;-0.11500;110.0000;145;83;0.73284
7214340;-0.11000;109.9375;145;83;0.75604
7214350;-0.10500;109.8750;145;83;0.77631
7214360;-0.10500;109.5000;145;83;0.80830
7214370;-0.10500;109.1875;145;83;0.82051
7214380;-0.10000;108.7500;145;83;0.82833
7214390;-0.09500;108.3125;145;83;0.83346
7214400;-0.09500;107.8125;145;83;0.83907
7214410;-0.09500;106.5625;145;83;0.84786
7214420;-0.09500;105.9375;145;83;0.85055
7214430;-0.09500;105.3125;145;83;0.85177
7214440;-0.09000;104.6250;145;83;0.85128
7214450;-0.06500;103.2500;145;83;0.84420
7214460;-0.03500;102.6250;145;83;0.83785
7214470;-0.01500;101.9375;145;83;0.82930
7214480;-0.00500;101.3125;145;83;0.81880
7214490;0.02500;100.0625;145;83;0.79341
7214500;0.05000;99.5000;145;83;0.77827
7214510;0.09000;99.0000;145;83;0.76166
7214520;0.10000;97.8750;145;83;0.72601
7214530;0.05000;97.3750;145;83;0.70794
7214540;-0.02500;96.9375;145;83;0.69060
7214550;-0.10500;96.5000;145;83;0.67399
7214560;-0.13500;96.0625;145;83;0.65861
7214570;-0.14500;95.2500;145;83;0.63223
7214580;-0.14500;94.8750;145;83;0.62173
7214590;-0.14000;94.4375;145;83;0.61270
7214600;-0.13000;93.6250;145;83;0.59707
7214610;-0.12500;93.3125;145;83;0.59023
7214620;-0.12500;92.9375;145;83;0.58388
7214630;-0.05500;92.5625;145;83;0.57753
7214640;0.33000;92.1875;145;83;0.57143
7214650;1.06500;91.5000;145;83;0.55971
7214660;1.02500;91.1875;145;83;0.55360
7214670;0.28500;90.8125;145;83;0.54701
7214680;-0.24000;90.1875;145;83;0.53480
7214690;-0.22500;89.8125;145;83;0.52821
7214700;-0.19000;89.5000;145;83;0.52137
7214710;-0.18500;89.1250;145;83;0.51429
7214720;-0.17500;88.7500;145;83;0.50745
7214730;-0.16500;87.9375;145;83;0.49402
7214740;-0.16000;87.5625;145;83;0.48742
7214750;-0.15500;87.1250;145;83;0.48107
7214760;-0.13500;86.2500;145;83;0.46886
7214770;-0.12500;85.8125;145;83;0.46325
7214780;-0.11500;85.3750;145;83;0.45836
7214790;-0.10000;84.9375;145;83;0.45397
7214800;-0.10000;84.9375;145;83;0.45397
7214810;-0.08000;83.7500;145;83;0.43907
7214820;-0.06500;83.3750;145;83;0.43394
7214830;-0.05000;83.0000;145;83;0.42930
7214840;-0.03500;82.6250;145;83;0.42466
7214850;-0.03000;82.1875;145;83;0.41612
7214860;-0.01500;82.2500;145;83;0.41245
7214870;-0.00500;82.8125;145;83;0.40879
7214880;0.00000;86.3125;145;83;0.40366
7214890;0.01000;89.5625;145;83;0.40122
7214900;0.03000;93.6250;145;83;0.39878
7214910;0.05500;98.5000;145;83;0.39634
7214920;0.04000;103.8750;145;83;0.39390
7214930;0.05000;115.3750;145;83;0.38950
7214940;0.12500;121.0000;145;83;0.38730
7214950;0.15500;126.2500;145;83;0.38510
7214960;0.18500;130.8750;145;83;0.38291
7214970;0.22000;138.0625;145;83;0.37973
7214980;0.25500;140.6875;145;83;0.37900
7214990;0.27000;142.6875;145;83;0.37778
7215000;0.26500;145.1875;144;83;0.37631
7215010;0.23500;145.8125;144;83;0.37314
7215020;0.18500;146.1875;144;83;0.37143
7215030;0.12000;146.3125;144;83;0.36996
7215040;0.05000;146.0000;144;83;0.36728
7215050;0.01000;145.5625;144;83;0.36581
7215060;-0.02500;145.0625;144;83;0.36435
7215070;-0.04000;144.3750;144;83;0.36313
7215080;-0.05500;143.5625;144;83;0.36239
7215090;-0.07000;141.3750;144;83;0.35995
7215100;-0.08000;139.9375;144;83;0.35800
7215110;-0.08500;138.2500;144;83;0.35604
7215120;-0.09000;136.3125;144;83;0.35409
7215130;-0.09000;131.3125;144;83;0.35311
7215140;-0.08500;128.3750;144;83;0.35604
7215150;-0.08500;125.0625;144;83;0.36264
7215160;-0.07500;121.6875;144;83;0.37363
7215170;-0.07000;115.3750;144;83;0.40733
7215180;-0.07000;112.8125;144;83;0.41074
7215190;-0.06500;110.6250;144;83;0.41099
7215200;-0.06500;107.7500;144;83;0.44860
7215210;-0.05500;106.9375;144;83;0.47497
7215220;-0.05500;106.4375;144;83;0.50183
7215230;-0.05500;106.2500;144;83;0.52772
7215240;-0.05500;106.1875;144;83;0.57265
7215250;-0.05500;106.1875;144;83;0.59121
7215260;-0.05500;106.1875;144;83;0.60708
7215270;-0.05500;106.0625;144;83;0.62027
7215280;-0.05500;105.8750;144;83;0.62906
7215290;-0.06000;105.2500;144;83;0.64029
7215300;-0.06500;104.8750;144;83;0.64469
7215310;-0.07000;104.4375;144;83;0.64786
7215320;-0.07000;103.8750;144;83;0.64957
7215330;-0.07000;102.7500;144;83;0.64933
7215340;-0.06500;102.1250;144;83;0.64737
7215350;-0.05500;101.4375;144;83;0.64420
7215360;-0.02000;100.1250;144;83;0.63248
7215370;-0.00500;99.4375;144;83;0.62442
7215380;0.00500;98.7500;144;83;0.61514
7215390;0.02500;98.1250;144;83;0.60391
7215400;0.05000;97.4375;144;83;0.59048
7215410;0.08000;96.1875;144;83;0.55849
7215420;0.06000;95.5625;144;83;0.54042
7215430;0.03000;95.0000;144;83;0.52161
7215440;0.00000;93.8750;144;83;0.50232
7215450;-0.05000;93.3750;144;83;0.46496
7215460;-0.08500;92.9375;144;83;0.44762
7215470;-0.11500;92.4375;144;83;0.43150
7215480;-0.12500;91.5625;144;83;0.40757
7215490;-0.12500;91.1875;144;83;0.39731
7215500;-0.12000;90.8125;144;83;0.38803
7215510;-0.11000;90.5000;144;83;0.37973
7215520;-0.11000;90.1875;144;83;0.37241
7215530;-0.07500;89.6250;144;83;0.35946
7215540;0.18500;89.3750;144;83;0.35360
7215550;0.72000;89.1875;144;83;0.34774
7215560;0.90500;88.7500;144;83;0.33602
7215570;0.40500;88.5000;144;83;0.33114
7215580;-0.21500;88.3125;144;83;0.32650
7215590;-0.24500;88.0625;144;83;0.32088
7215600;-0.19000;87.8125;144;83;0.31502
7215610;-0.17000;87.3125;144;83;0.30281
7215620;-0.16500;87.0000;144;83;0.29646
7215630;-0.16000;86.6875;144;83;0.29011
7215640;-0.15500;86.3750;144;83;0.28376
7215650;-0.15000;85.6250;144;83;0.27155
7215660;-0.14000;85.1875;144;83;0.26520
7215670;-0.13500;84.8125;144;83;0.25885
7215680;-0.13500;84.4375;144;83;0.25372
7215690;-0.12500;83.6250;144;83;0.24396
7215700;-0.12000;83.2500;144;83;0.23834
7215710;-0.11500;82.8750;144;83;0.23248
7215720;-0.10500;82.5000;144;83;0.22662
7215730;-0.09500;81.8750;144;83;0.21587
7215740;-0.08500;81.5625;144;83;0.21074
7215750;-0.07500;81.2500;144;83;0.20586
7215760;-0.06000;81.0000;144;83;0.20122
7215770;-0.04500;80.8750;144;83;0.19390
7215780;-0.03000;81.3125;144;83;0.19194
7215790;-0.01500;82.3750;144;83;0.18901
7215800;0.00000;84.2500;144;83;0.18608
7215810;0.01500;90.5625;144;83;0.17998
7215820;0.03500;94.7500;144;83;0.17705
7215830;0.06500;99.5000;144;83;0.17436
7215840;0.10000;109.8750;144;83;0.16996
7215850;0.12000;115.0625;144;83;0.16825
7215860;0.15500;120.0000;144;83;0.16654
7215870;0.19500;124.4375;144;83;0.16532
7215880;0.22500;128.3125;144;83;0.16557
7215890;0.25500;134.0625;144;83;0.16679
7215900;0.26000;136.0000;144;83;0.16703
7215910;0.24500;137.5000;144;83;0.16728
7215920;0.18000;139.0625;144;83;0.16752
7215930;0.12500;139.3750;144;83;0.16752
7215940;0.06000;139.3125;144;83;0.16752
7215950;-0.00500;139.0625;144;83;0.16752
7215960;-0.03500;138.5625;144;83;0.16752
7215970;-0.06000;137.0625;144;83;0.16850
7215980;-0.08000;136.0000;144;83;0.17021
7215990;-0.09000;134.8125;144;83;0.17143
7216000;-0.09500;133.3750;144;83;0.17216
7216010;-0.10500;129.6875;144;83;0.17338
7216020;-0.10500;127.4375;144;83;0.17411
7216030;-0.10500;124.8750;144;83;0.17509
7216040;-0.10500;119.0000;144;83;0.18022
7216050;-0.10500;115.8750;144;83;0.18584
7216060;-0.10000;112.9375;144;83;0.19438
7216070;-0.09500;110.3125;144;83;0.20635
7216080;-0.09000;108.1250;144;83;0.22027
7216090;-0.08500;105.0625;144;83;0.25739
7216100;-0.07500;104.0625;144;83;0.28254
7216110;-0.07500;103.5000;144;83;0.31038
7216120;-0.07500;103.0625;144;83;0.37070
7216130;-0.07500;103.0625;144;83;0.40098
7216140;-0.07500;103.1250;144;83;0.42979
7216150;-0.07500;103.1875;144;83;0.45665
7216160;-0.07500;103.1250;144;83;0.50183
7216170;-0.07500;103.0000;144;83;0.51795
7216180;-0.07500;102.7500;144;83;0.53016
7216190;-0.07500;102.4375;144;83;0.54188
7216200;-0.07500;102.0625;144;83;0.55238
7216210;-0.07500;101.0625;144;83;0.56874
7216220;-0.07500;100.4375;144;83;0.57411
7216230;-0.07500;99.8125;144;83;0.57753
7216240;-0.08000;99.1875;144;83;0.57924
7216250;-0.08000;97.8750;144;83;0.57778
7216260;-0.06000;97.2500;144;83;0.57436
7216270;-0.03500;96.6250;144;83;0.56923
7216280;-0.01000;95.3750;144;83;0.56313
7216290;-0.00500;94.7500;144;83;0.54628
7216300;0.01000;94.1250;144;83;0.53504
7216310;0.04500;93.5625;144;83;0.52210
7216320;0.07500;92.5625;144;83;0.49304
7216330;0.06000;92.1250;144;83;0.47790
7216340;0.02000;91.6250;144;83;0.46276
7216350;-0.01500;91.1875;144;83;0.44860
7216360;-0.06000;90.3750;144;83;0.42393
7216370;-0.09500;90.0000;144;83;0.41441
7216380;-0.12000;89.6250;144;83;0.40684
7216390;-0.13500;89.3125;144;83;0.39951
7216400;-0.13500;89.0000;144;83;0.39292
7216410;-0.13500;88.4375;144;83;0.38169
7216420;-0.12500;88.1250;144;83;0.37680
7216430;-0.12500;87.9375;144;83;0.37216
7216440;-0.08000;87.6875;144;83;0.36777
7216450;0.20500;87.1875;144;83;0.35971
7216460;0.73000;87.0000;144;83;0.35556
7216470;0.91000;86.7500;144;83;0.35140
7216480;0.18000;86.3125;144;83;0.34408
7216490;-0.24000;86.0625;144;83;0.33993
7216500;-0.26000;85.8125;144;83;0.33504
7216510;-0.21000;85.6250;144;83;0.32967
7216520;-0.19000;85.3750;144;83;0.32430
7216530;-0.18500;84.8125;144;83;0.31331
7216540;-0.17500;84.5000;144;83;0.30818
7216550;-0.17000;84.1250;144;83;0.30305
7216560;-0.16500;83.5000;144;83;0.29328
7216570;-0.16000;83.1250;144;83;0.28962
7216580;-0.15500;82.6875;144;83;0.28645
7216590;-0.15000;82.3125;144;83;0.28230
7216600;-0.14500;81.5625;144;83;0.27326
7216610;-0.14000;81.2500;144;83;0.26862
7216620;-0.12500;80.9375;144;83;0.26398
7216630;-0.11500;80.6250;144;83;0.25958
7216640;-0.10500;80.0000;144;83;0.25153
7216650;-0.09500;79.7500;144;83;0.24811
7216660;-0.08500;79.5000;144;83;0.24469
7216670;-0.07500;79.3125;144;83;0.24127
7216680;-0.05500;79.2500;144;83;0.23883
7216690;-0.04000;80.2500;144;83;0.23443
7216700;-0.02500;81.7500;144;83;0.23126
7216710;-0.01000;84.1250;144;83;0.22808
7216720;0.01000;87.3750;144;83;0.22466
7216730;0.03500;95.9375;144;83;0.21807
7216740;0.07000;100.9375;144;83;0.21563
7216750;0.09000;106.1875;144;83;0.21343
7216760;0.12500;116.6250;144;83;0.20928
7216770;0.15000;121.3750;144;83;0.20830
7216780;0.18500;125.6250;144;83;0.20830
7216790;0.22000;129.2500;144;83;0.20757
7216800;0.22000;129.2500;144;83;0.20757
7216810;0.25500;136.1250;144;83;0.20464
7216820;0.23500;137.3125;144;83;0.20366
7216830;0.17500;138.1250;144;83;0.20293
7216840;0.12000;138.5625;144;83;0.20244
7216850;0.06000;138.5000;144;83;0.20098
7216860;0.00000;138.1875;144;83;0.20024
7216870;-0.02500;137.6250;144;83;0.20073
7216880;-0.04500;136.8750;144;83;0.20171
7216890;-0.06500;134.8125;144;83;0.20244
7216900;-0.07500;133.5000;144;83;0.20269
7216910;-0.09000;131.9375;144;83;0.20342
7216920;-0.09500;128.1250;144;83;0.20415
7216930;-0.09500;125.8125;144;83;0.20611
7216940;-0.10000;123.1875;144;83;0.20757
7216950;-0.10500;120.2500;144;83;0.20977
7216960;-0.10500;113.9375;144;83;0.22002
7216970;-0.10500;110.9375;144;83;0.22857
7216980;-0.10000;108.3750;144;83;0.23980
7216990;-0.09500;106.2500;144;83;0.25568
7217000;-0.09000;103.3750;144;82;0.30061
7217010;-0.08500;102.5000;144;82;0.32821
7217020;-0.08500;102.0000;144;82;0.35824
7217030;-0.08500;101.7500;144;82;0.38950
7217040;-0.08500;101.6875;144;82;0.42076
7217050;-0.08500;101.8750;144;82;0.47961
7217060;-0.08500;101.9375;144;82;0.50598
7217070;-0.08500;102.0000;144;82;0.52674
7217080;-0.08500;101.8125;144;82;0.56020
7217090;-0.08500;101.5625;144;82;0.57534
7217100;-0.09000;101.2500;144;82;0.58828
7217110;-0.09000;100.8750;144;82;0.59902
7217120;-0.09000;100.3750;144;82;0.60757
7217130;-0.09500;99.3750;144;82;0.61905
7217140;-0.09500;98.7500;144;82;0.62222
7217150;-0.09500;98.1875;144;82;0.62344
7217160;-0.09000;97.0000;144;82;0.62295
7217170;-0.06500;96.4375;144;82;0.61636
7217180;-0.04500;95.8125;144;82;0.61050
7217190;-0.02500;95.1875;144;82;0.60317
7217200;-0.01000;94.0000;144;82;0.58339
7217210;0.00000;93.4375;144;82;0.57118
7217220;0.04500;92.8750;144;82;0.55727
7217230;0.06000;92.3750;144;82;0.56581
7217240;0.04500;91.8750;144;82;0.58510
7217250;0.00000;90.9375;144;82;0.57851
7217260;-0.02500;90.4375;144;82;0.56728
7217270;-0.06500;90.0000;144;82;0.55653
7217280;-0.10500;89.1875;144;82;0.54652
7217290;-0.13500;88.8750;144;82;0.52674
7217300;-0.14500;88.5000;144;82;0.51844
7217310;-0.14500;88.1875;144;82;0.51111
7217320;-0.14500;87.8750;144;82;0.50452
7217330;-0.13500;87.3125;144;82;0.49402
7217340;-0.13000;87.0625;144;82;0.48962
7217350;-0.08000;86.8125;144;82;0.48523
7217360;0.30500;86.3750;144;82;0.47766
7217370;0.73500;86.1875;144;82;0.47424
7217380;0.92000;85.9375;144;82;0.47082
7217390;0.15500;85.7500;144;82;0.46691
7217400;-0.25000;85.5625;144;82;0.46276
7217410;-0.27500;85.0625;144;82;0.45324
7217420;-0.21000;84.8125;144;82;0.44835
7217430;-0.19000;84.5625;144;82;0.44322
7217440;-0.19000;84.3125;144;82;0.43761
7217450;-0.18500;83.7500;144;82;0.42686
7217460;-0.18000;83.4375;144;82;0.42149
7217470;-0.17500;83.0625;144;82;0.41685
7217480;-0.16500;82.3750;144;82;0.40781
7217490;-0.16000;82.0625;144;82;0.40269
7217500;-0.15500;81.6875;144;82;0.39756
7217510;-0.15000;81.3125;144;82;0.39243
7217520;-0.14500;81.0000;144;82;0.38755
7217530;-0.13500;80.2500;144;82;0.37802
7217540;-0.12500;79.9375;144;82;0.37314
7217550;-0.11500;79.6250;144;82;0.36825
7217560;-0.10000;79.3125;144;82;0.36361
7217570;-0.08500;78.8125;144;82;0.35531
7217580;-0.07500;78.6875;144;82;0.35238
7217590;-0.05500;78.7500;144;82;0.34921
7217600;-0.03500;80.4375;144;82;0.34164
7217610;-0.02000;82.4375;144;82;0.33822
7217620;0.00000;85.3125;144;82;0.33480
7217630;0.01500;89.0000;144;82;0.33162
7217640;0.04000;93.4375;144;82;0.32845
7217650;0.07000;103.6875;144;82;0.32308
7217660;0.10000;109.1250;144;82;0.32088
7217670;0.13000;114.4375;144;82;0.31966
7217680;0.16500;124.0625;144;82;0.31770
7217690;0.19000;127.9375;144;82;0.31624
7217700;0.22500;131.1875;144;82;0.31477
7217710;0.25000;133.7500;144;82;0.31331
7217720;0.25000;135.7500;144;82;0.31209
7217730;0.22500;138.2500;144;82;0.31038
7217740;0.17500;138.8750;144;82;0.30989
7217750;0.11000;139.1250;144;82;0.30940
7217760;0.03000;138.9375;144;82;0.30818
7217770;-0.00500;138.5625;144;82;0.30842
7217780;-0.04500;138.0000;144;82;0.30916
7217790;-0.07000;137.2500;144;82;0.30965
7217800;-0.07000;137.2500;144;82;0.30965
7217810;-0.09500;133.8750;144;82;0.31087
7217820;-0.10500;132.3750;144;82;0.31136
7217830;-0.10500;130.6250;144;82;0.31184
7217840;-0.10500;126.2500;144;82;0.31306
7217850;-0.10500;123.6250;144;82;0.31453
7217860;-0.10500;120.6875;144;82;0.31697
7217870;-0.11000;117.6250;144;82;0.32137
7217880;-0.11000;114.5000;144;82;0.32796
7217890;-0.10500;108.9375;144;82;0.35116
7217900;-0.10500;106.7500;144;82;0.36947
7217910;-0.10500;105.0625;144;82;0.39267
7217920;-0.10500;103.0000;144;82;0.45055
7217930;-0.10000;102.5000;144;82;0.48303
7217940;-0.10000;102.1875;144;82;0.51624
7217950;-0.09500;102.1250;144;82;0.54896
7217960;-0.09500;102.1250;144;82;0.57998
7217970;-0.09500;102.2500;144;82;0.63126
7217980;-0.09500;102.2500;144;82;0.65006
7217990;-0.09500;102.1875;144;82;0.66886
7218000;-0.09000;102.0625;144;82;0.68620
7218010;-0.09000;101.4375;144;82;0.71404
7218020;-0.09500;101.0625;144;82;0.72479
7218030;-0.09500;100.5625;144;82;0.73358
7218040;-0.09500;100.0625;144;82;0.74017
7218050;-0.09500;98.8750;144;82;0.74701
7218060;-0.09500;98.3125;144;82;0.74774
7218070;-0.08500;97.6875;144;82;0.74603
7218080;-0.06500;97.0625;144;82;0.74286
7218090;-0.04000;95.8125;144;82;0.73358
7218100;-0.01500;95.1875;144;82;0.72650
7218110;-0.01000;94.5625;144;82;0.71722
7218120;0.00500;94.0000;144;82;0.70574
7218130;0.05000;92.9375;144;82;0.67717
7218140;0.06500;92.3750;144;82;0.66056
7218150;0.04000;91.8750;144;82;0.64322
7218160;-0.00500;90.9375;144;82;0.60904
7218170;-0.02500;90.5000;144;82;0.59438
7218180;-0.07000;90.0625;144;82;0.58144
7218190;-0.11000;89.6875;144;82;0.56899
7218200;-0.14000;88.9375;144;82;0.54750
7218210;-0.14500;88.5625;144;82;0.53871
7218220;-0.14500;88.2500;144;82;0.53114
7218230;-0.14000;87.9375;144;82;0.52479
7218240;-0.13500;87.6250;144;82;0.51893
7218250;-0.12500;87.1250;144;82;0.50867
7218260;-0.06000;86.8750;144;82;0.50403
7218270;0.28000;86.6250;144;82;0.49988
7218280;0.82500;86.1875;144;82;0.49597
7218290;0.79500;86.0000;144;82;0.48742
7218300;0.22500;85.7500;144;82;0.48278
7218310;-0.25500;85.5625;144;82;0.47766
7218320;-0.24500;85.0625;144;82;0.46691
7218330;-0.21000;84.8125;144;82;0.46154
7218340;-0.19000;84.5625;144;82;0.45617
7218350;-0.18500;84.3125;144;82;0.45079
7218360;-0.18000;84.0625;144;82;0.44567
7218370;-0.17500;83.3750;144;82;0.43639
7218380;-0.17000;83.0625;144;82;0.43248
7218390;-0.16000;82.6875;144;82;0.42784
7218400;-0.16000;82.3125;144;82;0.42271
7218410;-0.15500;81.6250;144;82;0.41148
7218420;-0.14500;81.2500;144;82;0.40586
7218430;-0.13500;80.8750;144;82;0.40049
7218440;-0.13000;80.5000;144;82;0.39536
7218450;-0.12500;79.8125;144;82;0.38559
7218460;-0.11500;79.5625;144;82;0.38095
7218470;-0.10500;79.3125;144;82;0.37729
7218480;-0.08500;78.9375;144;82;0.37070
7218490;-0.07500;78.8750;144;82;0.36703
7218500;-0.05500;79.1875;144;82;0.36337
7218510;-0.04000;80.0625;144;82;0.35971
7218520;-0.02500;84.3125;144;82;0.35238
7218530;-0.00500;87.7500;144;82;0.34896
7218540;0.01500;92.0000;144;82;0.34579
7218550;0.04500;96.8750;144;82;0.34237
7218560;0.06500;102.1250;144;82;0.33919
7218570;0.10000;113.0625;144;82;0.33553
7218580;0.12500;118.3125;144;82;0.33382
7218590;0.17000;123.1875;144;82;0.33187
7218600;0.20500;131.0625;144;82;0.32845
7218610;0.23000;134.0000;144;82;0.32723
7218620;0.25000;136.2500;144;82;0.32625
7218630;0.25000;138.0000;144;82;0.32552
7218640;0.22000;139.2500;144;82;0.32479
7218650;0.15000;140.5625;144;82;0.32357
7218660;0.10000;140.7500;144;82;0.32283
7218670;0.03500;140.6875;144;82;0.32283
7218680;-0.01500;140.0000;144;82;0.32308
7218690;-0.05500;139.3750;144;82;0.32283
7218700;-0.08000;138.6250;144;82;0.32259
7218710;-0.09500;137.6875;144;82;0.32234
7218720;-0.11000;135.3125;144;82;0.32234
7218730;-0.12000;133.7500;144;82;0.32234
7218740;-0.12500;131.9375;144;82;0.32234
7218750;-0.13500;129.9375;144;82;0.32259
7218760;-0.13500;127.5625;144;82;0.32357
7218770;-0.13500;121.9375;144;82;0.32943
7218780;-0.13500;118.7500;144;82;0.33529
7218790;-0.13500;115.5000;144;82;0.34408
7218800;-0.13500;109.8125;144;82;0.37436
7218810;-0.13000;107.6875;144;82;0.39634
7218820;-0.12500;106.0000;144;82;0.42247
7218830;-0.12500;104.7500;144;82;0.45177
7218840;-0.11500;103.5000;144;82;0.51673
7218850;-0.11000;103.2500;144;82;0.55018
7218860;-0.10500;103.2500;144;82;0.58291
7218870;-0.10500;103.3750;144;82;0.60977
7218880;-0.10000;103.6250;144;82;0.65519
7218890;-0.10000;103.6875;144;82;0.67692
7218900;-0.10500;103.6250;144;82;0.69670
7218910;-0.10500;103.4375;144;82;0.71404
7218920;-0.10500;103.1250;144;82;0.72869
7218930;-0.10500;102.4375;144;82;0.75116
7218940;-0.11000;101.9375;144;82;0.75922
7218950;-0.11000;101.4375;144;82;0.76557
7218960;-0.11000;100.2500;144;82;0.77021
7218970;-0.10000;99.6875;144;82;0.77143
7218980;-0.09000;99.0625;144;82;0.77045
7218990;-0.06500;98.4375;144;82;0.76825
7219000;-0.04000;97.2500;145;82;0.75897
7219010;-0.02500;96.6250;145;82;0.75140
7219020;-0.01500;96.0625;145;82;0.74188
7219030;0.01500;95.5000;145;82;0.73040
7219040;0.05500;94.4375;145;82;0.70134
7219050;0.06000;93.8750;145;82;0.68498
7219060;0.01500;93.3750;145;82;0.66789
7219070;-0.01500;92.9375;145;82;0.65226
7219080;-0.04500;92.5000;145;82;0.63761
7219090;-0.10000;91.6250;145;82;0.60806
7219100;-0.12500;91.2500;145;82;0.59463
7219110;-0.13500;90.8750;145;82;0.58266
7219120;-0.14500;90.1250;145;82;0.57241
7219130;-0.14500;89.8750;145;82;0.55678
7219140;-0.13500;89.5625;145;82;0.55067
7219150;-0.13000;89.3125;145;82;0.54554
7219160;-0.12500;89.0625;145;82;0.54115
7219170;-0.00500;88.5625;145;82;0.53382
7219180;0.57500;88.3750;145;82;0.52967
7219190;1.00000;88.1875;145;82;0.52552
7219200;0.78500;87.9375;145;82;0.52137
7219210;-0.08000;87.5625;145;82;0.51282
7219220;-0.29500;87.3750;145;82;0.50842
7219230;-0.25000;87.1250;145;82;0.50379
7219240;-0.21500;86.6875;145;82;0.49377
7219250;-0.21000;86.4375;145;82;0.48864
7219260;-0.20500;86.1875;145;82;0.48352
7219270;-0.20000;85.8125;145;82;0.47937
7219280;-0.19500;85.1875;145;82;0.44151
7219290;-0.19000;84.8125;145;82;0.42759
7219300;-0.18000;84.4375;145;82;0.41807
7219310;-0.17000;84.0625;145;82;0.41050
7219320;-0.16500;83.3125;145;82;0.39853
7219330;-0.16000;83.0000;145;82;0.39316
7219340;-0.15500;82.6875;145;82;0.38803
7219350;-0.14500;82.3750;145;82;0.38315
7219360;-0.13500;82.0625;145;82;0.37851
7219370;-0.12000;81.5000;145;82;0.37167
7219380;-0.11000;81.3125;145;82;0.36801
7219390;-0.10000;81.1875;145;82;0.36410
7219400;-0.08500;81.3125;145;82;0.36044
7219410;-0.07500;83.2500;145;82;0.35287
7219420;-0.06000;85.4375;145;82;0.34969
7219430;-0.04000;88.6250;145;82;0.34652
7219440;-0.02500;92.6875;145;82;0.34359
7219450;-0.00500;102.7500;145;82;0.33871
7219460;0.03000;108.3750;145;82;0.33651
7219470;0.05000;114.1250;145;82;0.33529
7219480;0.08000;124.8750;145;82;0.33455
7219490;0.11500;129.4375;145;82;0.33284
7219500;0.15000;133.4375;145;82;0.33236
7219510;0.18500;136.6875;145;82;0.33187
7219520;0.21500;139.3125;145;82;0.33138
7219530;0.23500;142.7500;145;82;0.33016
7219540;0.21500;143.8125;145;82;0.32943
7219550;0.18500;144.4375;145;82;0.32894
7219560;0.11000;144.9375;145;82;0.32845
7219570;0.06000;144.8125;145;82;0.32845
7219580;0.00000;144.5625;145;82;0.32821
7219590;-0.05000;144.1875;145;82;0.32796
7219600;-0.07500;143.6875;145;82;0.32747
7219610;-0.09500;142.1875;145;82;0.32650
7219620;-0.10500;141.2500;145;82;0.32601
7219630;-0.11500;140.0625;145;82;0.32576
7219640;-0.12500;137.0625;145;82;0.32576
7219650;-0.13000;135.1250;145;82;0.32625
7219660;-0.13000;132.9375;145;82;0.32747
7219670;-0.13500;130.3125;145;82;0.32991
7219680;-0.13500;124.2500;145;82;0.34212
7219690;-0.13500;120.8750;145;82;0.35385
7219700;-0.12500;117.6875;145;82;0.36996
7219710;-0.12500;114.7500;145;82;0.39121
7219720;-0.12000;112.2500;145;82;0.41709
7219730;-0.11000;108.8125;145;82;0.48010
7219740;-0.10500;107.7500;145;82;0.51526
7219750;-0.10500;107.0625;145;82;0.55067
7219760;-0.10000;106.6875;145;82;0.58559
7219770;-0.09000;106.5625;145;82;0.63932
7219780;-0.08500;106.6875;145;82;0.66520
7219790;-0.08000;106.7500;145;82;0.69011
7219800;-0.08000;106.7500;145;82;0.69011
7219810;-0.08000;106.5000;145;82;0.75043
7219820;-0.08500;106.2500;145;82;0.76557
7219830;-0.08500;105.8750;145;82;0.77827
7219840;-0.08500;105.0625;145;82;0.79731
7219850;-0.08500;104.5000;145;82;0.80391
7219860;-0.08500;103.9375;145;82;0.80879
7219870;-0.08500;103.3125;145;82;0.81050
7219880;-0.08500;102.6250;145;82;0.81026
7219890;-0.07500;101.3750;145;82;0.80806
7219900;-0.04500;100.7500;145;82;0.80513
7219910;-0.02000;100.0625;145;82;0.80049
7219920;0.00000;99.4375;145;82;0.79390
7219930;0.01000;98.1875;145;82;0.77411
7219940;0.02000;97.5625;145;82;0.76068
7219950;0.04500;97.0000;145;82;0.74554
7219960;0.05000;95.9375;145;82;0.71209
7219970;0.03000;95.4375;145;82;0.69524
7219980;0.00000;95.0000;145;82;0.67741
7219990;-0.03500;94.5000;145;82;0.65983
7220000;-0.07500;94.0625;144;82;0.64274
7220010;-0.11500;93.2500;144;82;0.61221
7220020;-0.14500;92.9375;144;82;0.59976
7220030;-0.14500;92.5625;144;82;0.58926
7220040;-0.14500;92.2500;144;82;0.58071
7220050;-0.13500;91.6250;144;82;0.56777
7220060;-0.13000;91.3125;144;82;0.56239
7220070;-0.13500;91.0000;144;82;0.55727
7220080;-0.05500;90.5625;144;82;0.55263
7220090;0.47500;90.3125;144;82;0.54310
7220100;0.97000;90.1250;144;82;0.53822
7220110;1.00500;89.8750;144;82;0.53333
7220120;0.07500;89.5000;144;82;0.52234
7220130;-0.26500;89.2500;144;82;0.51648
7220140;-0.25000;89.0000;144;82;0.51013
7220150;-0.21500;88.7500;144;82;0.50379
7220160;-0.21000;88.5000;144;82;0.49768
7220170;-0.21000;87.9375;144;82;0.48694
7220180;-0.20000;87.6250;144;82;0.48132
7220190;-0.19500;87.2500;144;82;0.47546
7220200;-0.19000;86.5625;144;82;0.46935
7220210;-0.18000;86.1875;144;82;0.45714
7220220;-0.17000;85.8750;144;82;0.45128
7220230;-0.16000;85.5625;144;82;0.44567
7220240;-0.16000;85.1875;144;82;0.43980
7220250;-0.14500;84.5000;144;82;0.42882
7220260;-0.13000;84.1875;144;82;0.42369
7220270;-0.11500;83.8750;144;82;0.41929
7220280;-0.10000;83.3125;144;82;0.41123
7220290;-0.09000;83.1250;144;82;0.40708
7220300;-0.08000;83.0625;144;82;0.40269
7220310;-0.07000;83.3125;144;82;0.39853
7220320;-0.06000;84.1250;144;82;0.39487
7220330;-0.04500;88.5625;144;82;0.38803
7220340;-0.03500;92.2500;144;82;0.38486
7220350;-0.01500;96.7500;144;82;0.38193
7220360;0.00500;107.5000;144;82;0.37851
7220370;0.02500;113.2500;144;82;0.37778
7220380;0.05000;119.0625;144;82;0.37680
7220390;0.09000;124.5000;144;82;0.37607
7220400;0.12000;129.5000;144;82;0.37582
7220410;0.15500;137.5000;144;82;0.37558
7220420;0.19000;140.4375;144;82;0.37582
7220430;0.22500;142.7500;144;82;0.37582
7220440;0.23500;144.4375;144;82;0.37582
7220450;0.23500;146.5000;144;82;0.37534
7220460;0.19500;147.0625;144;82;0.37509
7220470;0.14500;147.3125;144;82;0.37460
7220480;0.08000;147.3750;144;82;0.37411
7220490;0.00500;147.0000;144;82;0.37265
7220500;-0.02500;146.6875;144;82;0.37192
7220510;-0.06000;146.1875;144;82;0.37118
7220520;-0.08000;145.5625;144;82;0.37045
7220530;-0.10000;143.7500;144;82;0.36874
7220540;-0.11000;142.5625;144;82;0.36777
7220550;-0.11500;141.1250;144;82;0.36679
7220560;-0.12500;137.5000;144;82;0.36532
7220570;-0.12500;135.1875;144;82;0.36581
7220580;-0.13000;132.5625;144;82;0.36801
7220590;-0.13000;129.6250;144;82;0.37265
7220600;-0.12500;126.4375;144;82;0.38095
7220610;-0.12000;119.8750;144;82;0.41099
7220620;-0.12000;116.9375;144;82;0.43394
7220630;-0.11500;114.5000;144;82;0.46129
7220640;-0.11000;112.4375;144;82;0.49231
7220650;-0.10000;109.6250;144;82;0.56020
7220660;-0.09500;108.8125;144;82;0.58974
7220670;-0.08500;108.3125;144;82;0.61612
7220680;-0.08000;107.9375;144;82;0.67204
7220690;-0.07500;107.8125;144;82;0.69817
7220700;-0.07500;107.7500;144;82;0.72186
7220710;-0.07000;107.6250;144;82;0.74286
7220720;-0.06500;107.1250;144;82;0.76117
7220730;-0.06500;106.8125;144;82;0.79096
7220740;-0.06500;106.3750;144;82;0.80269
7220750;-0.06000;105.8750;144;82;0.81245
7220760;-0.06000;105.2500;144;82;0.82027
7220770;-0.06000;104.0000;144;82;0.82662
7220780;-0.05500;103.3125;144;82;0.82882
7220790;-0.04500;102.5625;144;82;0.83004
7220800;-0.04500;102.5625;144;82;0.83004
7220810;-0.00500;100.4375;144;82;0.82344
7220820;0.02000;99.6875;144;82;0.81709
7220830;0.04000;98.9375;144;82;0.80855
7220840;0.05000;98.2500;144;82;0.79805
7220850;0.07000;96.8750;144;82;0.77094
7220860;0.10000;96.1875;144;82;0.75629
7220870;0.10000;95.6250;144;82;0.74066
7220880;0.07000;95.0625;144;82;0.72357
7220890;0.03000;94.0000;144;82;0.68645
7220900;0.00000;93.5625;144;82;0.66789
7220910;-0.05000;93.1250;144;82;0.65006
7220920;-0.09500;92.3125;144;82;0.61832
7220930;-0.10500;91.8750;144;82;0.60488
7220940;-0.11000;91.5000;144;82;0.59267
7220950;-0.11000;91.1875;144;82;0.58193
7220960;-0.10500;90.8125;144;82;0.57241
7220970;-0.09500;90.1875;144;82;0.55653
7220980;-0.08500;89.8750;144;82;0.54896
7220990;0.06500;89.5625;144;82;0.54164
7221000;0.54000;89.3125;143;82;0.53431
7221010;1.04500;88.7500;143;82;0.52015
7221020;0.74500;88.4375;143;82;0.51331
7221030;-0.00500;88.1875;143;82;0.50647
7221040;-0.26000;87.6875;143;82;0.49206
7221050;-0.20000;87.3750;143;82;0.48449
7221060;-0.17000;87.1250;143;82;0.47741
7221070;-0.16500;86.8125;143;82;0.47057
7221080;-0.16500;86.5000;143;82;0.46300
7221090;-0.16000;85.7500;143;82;0.44615
7221100;-0.16000;85.3125;143;82;0.43761
7221110;-0.15500;84.8750;143;82;0.42930
7221120;-0.15500;84.5000;143;82;0.42076
7221130;-0.14500;83.6875;143;82;0.40391
7221140;-0.14500;83.2500;143;82;0.39560
7221150;-0.13500;82.8750;143;82;0.38755
7221160;-0.12500;82.1250;143;82;0.37289
7221170;-0.12000;81.7500;143;82;0.36728
7221180;-0.11000;81.3750;143;82;0.36117
7221190;-0.09500;81.0625;143;82;0.35458
7221200;-0.08500;80.8125;143;82;0.34799
7221210;-0.07000;80.4375;143;82;0.33504
7221220;-0.05500;80.5000;143;82;0.32869
7221230;-0.04000;81.0000;143;82;0.32259
7221240;-0.02500;82.2500;143;82;0.31673
7221250;-0.01000;87.3125;143;82;0.30549
7221260;0.01000;91.0625;143;82;0.30110
7221270;0.03000;95.5000;143;82;0.29768
7221280;0.05000;105.9375;143;82;0.29377
7221290;0.08000;111.4375;143;82;0.28596
7221300;0.10000;116.8125;143;82;0.28230
7221310;0.13000;121.8125;143;82;0.27863
7221320;0.16500;126.3125;143;82;0.27521
7221330;0.21000;133.3125;143;82;0.25617
7221340;0.23000;135.8125;143;82;0.24933
7221350;0.24500;137.7500;143;82;0.24469
7221360;0.23000;140.0625;143;82;0.24005
7221370;0.19500;140.6250;143;82;0.23956
7221380;0.13500;140.8125;143;82;0.23858
7221390;0.06000;140.8125;143;82;0.23785
7221400;0.01000;140.5625;143;82;0.23712
7221410;-0.03500;139.6250;143;82;0.23614
7221420;-0.06500;138.8750;143;82;0.23541
7221430;-0.07500;138.0000;143;82;0.23468
7221440;-0.09000;135.7500;143;82;0.23248
7221450;-0.09500;134.3125;143;82;0.23101
7221460;-0.10000;132.5625;143;82;0.23053
7221470;-0.10500;130.6250;143;82;0.23053
7221480;-0.11000;128.3125;143;82;0.23004
7221490;-0.11000;122.8125;143;82;0.23101
7221500;-0.11000;119.6875;143;82;0.23419
7221510;-0.10500;116.4375;143;82;0.24029
7221520;-0.10000;110.4375;143;82;0.24982
7221530;-0.09500;108.0625;143;82;0.28034
7221540;-0.09000;106.1875;143;82;0.30183
7221550;-0.08500;104.8125;143;82;0.32674
7221560;-0.07500;103.2500;143;82;0.38022
7221570;-0.07500;102.9375;143;82;0.40464
7221580;-0.07500;102.8125;143;82;0.43199
7221590;-0.07500;102.8750;143;82;0.45983
7221600;-0.07500;103.0000;143;82;0.48694
7221610;-0.07500;103.1250;143;82;0.53431
7221620;-0.07500;103.1250;143;82;0.55385
7221630;-0.07500;102.9375;143;82;0.57070
7221640;-0.08000;102.3750;143;82;0.59634
7221650;-0.07500;102.0000;143;82;0.60562
7221660;-0.07500;101.5000;143;82;0.61172
7221670;-0.08000;101.0000;143;82;0.61514
7221680;-0.08000;100.4375;143;82;0.61807
7221690;-0.07500;99.1875;143;82;0.62076
7221700;-0.06500;98.5625;143;82;0.62002
7221710;-0.05000;97.8750;143;82;0.61783
7221720;-0.02500;97.2500;143;82;0.61343
7221730;-0.00500;96.0000;143;82;0.59927
7221740;0.00000;95.3750;143;82;0.58926
7221750;0.02000;94.7500;143;82;0.57753
7221760;0.06000;93.5000;143;82;0.55043
7221770;0.08000;92.9375;143;82;0.53626
7221780;0.05500;92.4375;143;82;0.52015
7221790;0.01000;91.9375;143;82;0.50281
7221800;0.01000;91.9375;143;82;0.50281
7221810;-0.04500;90.5000;143;82;0.45153
7221820;-0.09500;90.0625;143;82;0.43639
7221830;-0.11500;89.6875;143;82;0.42320
7221840;-0.12500;89.0000;143;82;0.40195
7221850;-0.12500;88.6250;143;82;0.39365
7221860;-0.12500;88.3750;143;82;0.38730
7221870;-0.11500;88.0625;143;82;0.38242
7221880;-0.11500;87.5000;143;82;0.37753
7221890;-0.02500;87.2500;143;82;0.36850
7221900;0.23500;87.0625;143;82;0.36435
7221910;0.84500;86.8750;143;82;0.35995
7221920;0.91000;86.6250;143;82;0.35531
7221930;0.31000;86.2500;143;82;0.34554
7221940;-0.28000;86.0000;143;82;0.34066
7221950;-0.25000;85.7500;143;82;0.33553
7221960;-0.20000;85.5000;143;82;0.33016
7221970;-0.18000;85.0000;143;82;0.32186
7221980;-0.17000;84.7500;143;82;0.31722
7221990;-0.16500;84.3750;143;82;0.31184
7222000;-0.16000;84.0625;143;82;0.30647
7222010;-0.15500;83.3750;143;82;0.29573
7222020;-0.15500;83.0000;143;82;0.29035
7222030;-0.14500;82.6250;143;82;0.28523
7222040;-0.13500;81.8750;143;82;0.27473
7222050;-0.13500;81.5000;143;82;0.26935
7222060;-0.12500;81.1250;143;82;0.26520
7222070;-0.12000;80.7500;143;82;0.26178
7222080;-0.11000;80.0625;143;82;0.25299
7222090;-0.10500;79.8125;143;82;0.24835
7222100;-0.09500;79.5000;143;82;0.24396
7222110;-0.07500;79.2500;143;82;0.24005
7222120;-0.06500;79.0000;143;82;0.23614
7222130;-0.05500;79.1250;143;82;0.22857
7222140;-0.04500;79.8750;143;82;0.22491
7222150;-0.02500;81.2500;143;82;0.22149
7222160;-0.00500;83.5625;143;82;0.21832
7222170;0.02000;90.5625;143;82;0.21465
7222180;0.05500;95.0625;143;82;0.21270
7222190;0.07500;100.0000;143;82;0.21074
7222200;0.10000;110.5000;143;82;0.20733
7222210;0.12000;115.5625;143;82;0.20586
7222220;0.15500;120.1875;143;82;0.20440
7222230;0.18000;124.3125;143;82;0.20342
7222240;0.21500;127.8750;143;82;0.20269
7222250;0.24500;132.9375;143;82;0.20195
7222260;0.24500;134.5625;143;82;0.20244
7222270;0.22500;135.7500;143;82;0.20342
7222280;0.15500;136.8125;143;82;0.20342
7222290;0.10500;136.9375;143;82;0.20317
7222300;0.04000;136.7500;143;82;0.20293
7222310;-0.01500;136.3750;143;82;0.20293
7222320;-0.04000;135.7500;143;82;0.20317
7222330;-0.07500;134.0000;143;82;0.20391
7222340;-0.08500;132.8750;143;82;0.20440
7222350;-0.09500;131.5625;143;82;0.20488
7222360;-0.10500;130.0625;143;82;0.20611
7222370;-0.10500;126.3125;143;82;0.20879
7222380;-0.11000;123.9375;143;82;0.20977
7222390;-0.11000;121.3125;143;82;0.21074
7222400;-0.11000;118.3750;143;82;0.21245
7222410;-0.10500;112.1875;143;82;0.22051
7222420;-0.10500;109.3125;143;82;0.22833
7222430;-0.09500;106.7500;143;82;0.23980
7222440;-0.09000;103.0625;143;82;0.27497
7222450;-0.08500;101.8750;143;82;0.29915
7222460;-0.08500;101.1250;143;82;0.32283
7222470;-0.08500;100.6250;143;82;0.34725
7222480;-0.08000;100.3750;143;82;0.40684
7222490;-0.07500;100.4375;143;82;0.43785
7222500;-0.07500;100.5625;143;82;0.46789
7222510;-0.07500;100.6875;143;82;0.49646
7222520;-0.07500;100.7500;143;82;0.52259
7222530;-0.07500;100.6250;143;82;0.56606
7222540;-0.07500;100.3750;143;82;0.58339
7222550;-0.08500;100.0625;143;82;0.59805
7222560;-0.09000;99.6875;143;82;0.60830
7222570;-0.09000;98.7500;143;82;0.62247
7222580;-0.09000;98.2500;143;82;0.62833
7222590;-0.09000;97.6875;143;82;0.63248
7222600;-0.09000;96.5000;143;82;0.63516
7222610;-0.08500;95.9375;143;82;0.63370
7222620;-0.07500;95.3750;143;82;0.63053
7222630;-0.04000;94.7500;143;82;0.62540
7222640;-0.02500;94.1875;143;82;0.61832
7222650;-0.01500;93.0625;143;82;0.59756
7222660;0.00500;92.5000;143;82;0.58584
7222670;0.03000;92.0000;143;82;0.57338
7222680;0.06000;91.4375;143;82;0.55873
7222690;0.04000;90.4375;143;82;0.52552
7222700;-0.00500;90.0000;143;82;0.50842
7222710;-0.02500;89.5000;143;82;0.49182
7222720;-0.06500;89.0625;143;82;0.47595
7222730;-0.11500;88.1875;143;82;0.44786
7222740;-0.13500;87.7500;143;82;0.43639
7222750;-0.13500;87.3750;143;82;0.42637
7222760;-0.13500;87.0000;143;82;0.41856
7222770;-0.13000;86.3750;143;82;0.40684
7222780;-0.12000;86.0625;143;82;0.40195
7222790;-0.11500;85.8125;143;82;0.39780
7222800;-0.07000;85.6250;143;82;0.39414
7222810;0.20500;85.1875;143;82;0.38779
7222820;0.20500;85.1875;143;82;0.38779
7222830;0.94000;84.8125;143;82;0.38095
7222840;0.18000;84.5000;143;82;0.37314
7222850;-0.24000;84.3125;143;82;0.36874
7222860;-0.25000;84.1250;143;82;0.36484
7222870;-0.20000;83.9375;143;82;0.36093
7222880;-0.18500;83.7500;143;82;0.35604
7222890;-0.18000;83.2500;143;82;0.34505
7222900;-0.17500;82.9375;143;82;0.33944
7222910;-0.17000;82.6250;143;82;0.33382
7222920;-0.16000;81.8750;143;82;0.32308
7222930;-0.16000;81.5625;143;82;0.31795
7222940;-0.15500;81.1875;143;82;0.31306
7222950;-0.14500;80.8125;143;82;0.30818
7222960;-0.14500;80.4375;143;82;0.30452
7222970;-0.13500;79.6875;143;82;0.29670
7222980;-0.13000;79.3750;143;82;0.29182
7222990;-0.11500;79.0625;143;82;0.28694
7223000;-0.11000;78.7500;143;81;0.28205
7223010;-0.09500;78.2500;143;81;0.27228
7223020;-0.08500;78.0000;143;81;0.26740
7223030;-0.07000;77.8750;143;81;0.26252
7223040;-0.05500;77.8750;143;81;0.25788
7223050;-0.03500;79.3750;143;81;0.24957
7223060;-0.02000;81.2500;143;81;0.24664
7223070;-0.00500;84.0000;143;81;0.24444
7223080;0.02000;91.8125;143;81;0.23956
7223090;0.03500;96.6250;143;81;0.23712
7223100;0.06000;101.7500;143;81;0.23468
7223110;0.09500;107.0625;143;81;0.23272
7223120;0.12000;112.2500;143;81;0.23101
7223130;0.15500;121.6875;143;81;0.22784
7223140;0.19000;125.5625;143;81;0.22686
7223150;0.22500;128.8125;143;81;0.22637
7223160;0.24500;131.4375;143;81;0.22686
7223170;0.24500;134.8125;143;81;0.22759
7223180;0.21500;135.8125;143;81;0.22735
7223190;0.17500;136.4375;143;81;0.22711
7223200;0.11500;136.6875;143;81;0.22662
7223210;0.04000;136.5000;143;81;0.22613
7223220;0.00000;136.0625;143;81;0.22613
7223230;-0.04000;135.4375;143;81;0.22613
7223240;-0.07000;133.7500;143;81;0.22613
7223250;-0.08500;132.6875;143;81;0.22637
7223260;-0.10000;131.3750;143;81;0.22735
7223270;-0.10500;129.8750;143;81;0.22882
7223280;-0.11000;126.0625;143;81;0.22955
7223290;-0.11500;123.7500;143;81;0.23053
7223300;-0.11500;121.1250;143;81;0.23150
7223310;-0.11500;118.3125;143;81;0.23346
7223320;-0.12000;115.2500;143;81;0.23687
7223330;-0.11500;112.2396;143;81;0.24278
7223340;-0.11500;109.4375;143;81;0.25201
7223350;-0.11500;107.0000;143;81;0.26545
7223360;-0.10500;105.0000;143;81;0.28352
7223370;-0.10000;102.3125;143;81;0.32381
7223380;-0.09500;101.5625;143;81;0.36923
7223390;-0.08500;101.0625;143;81;0.42882
7223400;-0.08000;100.8750;143;81;0.47814
7223410;-0.07500;100.8750;143;81;0.56239
7223420;-0.07500;101.0000;143;81;0.59927
7223430;-0.07500;101.0000;143;81;0.63297
7223440;-0.07500;101.0000;143;81;0.66325
7223450;-0.07500;100.6875;143;81;0.71355
7223460;-0.07500;100.3750;143;81;0.73358
7223470;-0.07500;100.0625;143;81;0.74774
7223480;-0.07500;99.1250;143;81;0.76850
7223490;-0.07500;98.6250;143;81;0.77705
7223500;-0.08000;98.0000;143;81;0.78388
7223510;-0.07500;97.3750;143;81;0.78877
7223520;-0.07000;96.1250;143;81;0.79243
7223530;-0.05500;95.4375;143;81;0.79096
7223540;-0.03000;94.8125;143;81;0.78730
7223550;-0.00500;94.2500;143;81;0.78168
7223560;0.00000;93.6250;143;81;0.77363
7223570;0.02500;92.5000;143;81;0.75238
7223580;0.05000;92.0000;143;81;0.73846
7223590;0.07000;91.4375;143;81;0.72234
7223600;0.03500;90.5000;143;81;0.68498
7223610;0.00000;90.0000;143;81;0.66520
7223620;-0.02500;89.5625;143;81;0.64542
7223630;-0.06500;89.1250;143;81;0.62613
7223640;-0.12000;88.3750;143;81;0.59170
7223650;-0.13500;88.0000;143;81;0.57680
7223660;-0.14500;87.6875;143;81;0.56361
7223670;-0.14000;87.3125;143;81;0.55287
7223680;-0.13500;87.0625;143;81;0.54408
7223690;-0.13500;86.5625;143;81;0.52845
7223700;-0.13000;86.3125;143;81;0.52210
7223710;-0.07500;86.0625;143;81;0.51624
7223720;0.23000;85.5625;143;81;0.51111
7223730;0.87000;85.3750;143;81;0.50085
7223740;0.91000;85.1250;143;81;0.49548
7223750;0.26500;84.9375;143;81;0.48962
7223760;-0.27000;84.6875;143;81;0.48352
7223770;-0.27000;84.1250;143;81;0.47253
7223780;-0.21000;83.8750;143;81;0.46642
7223790;-0.19000;83.5625;143;81;0.45958
7223800;-0.19000;83.5625;143;81;0.45958
7223810;-0.18000;82.6250;143;81;0.43785
7223820;-0.17000;82.2500;143;81;0.43077
7223830;-0.16000;81.9375;143;81;0.42418
7223840;-0.15500;81.5625;143;81;0.41807
7223850;-0.15000;80.8750;143;81;0.40586
7223860;-0.14500;80.5000;143;81;0.40000
7223870;-0.13500;80.1875;143;81;0.39512
7223880;-0.13000;79.5000;143;81;0.39072
7223890;-0.12500;79.1875;143;81;0.37998
7223900;-0.12000;78.9375;143;81;0.37411
7223910;-0.11000;78.6875;143;81;0.36801
7223920;-0.09500;78.4375;143;81;0.36190
7223930;-0.07500;77.9375;143;81;0.35018
7223940;-0.06500;77.7500;143;81;0.34457
7223950;-0.05000;77.8125;143;81;0.33944
7223960;-0.03000;79.1250;143;81;0.33138
7223970;-0.01500;80.8750;143;81;0.32894
7223980;0.00000;83.4375;143;81;0.32576
7223990;0.02500;86.8750;143;81;0.32210
7224000;0.04000;91.0625;143;81;0.31844
7224010;0.06500;100.9375;143;81;0.31111
7224020;0.10000;106.3125;143;81;0.30769
7224030;0.12000;111.5625;143;81;0.30427
7224040;0.15500;116.6250;143;81;0.30085
7224050;0.19500;125.2500;143;81;0.29451
7224060;0.22500;128.5625;143;81;0.29280
7224070;0.25500;131.3125;143;81;0.29158
7224080;0.25000;133.3750;143;81;0.28987
7224090;0.22000;136.0625;143;81;0.28669
7224100;0.16500;136.7500;143;81;0.28547
7224110;0.10000;137.1250;143;81;0.28449
7224120;0.03500;137.2500;143;81;0.28400
7224130;-0.02000;136.8125;143;81;0.28400
7224140;-0.05500;136.3750;143;81;0.28425
7224150;-0.08500;135.7500;143;81;0.28449
7224160;-0.09500;135.0000;143;81;0.28474
7224170;-0.10500;132.9375;143;81;0.28718
7224180;-0.11500;131.6250;143;81;0.28816
7224190;-0.12000;130.0625;143;81;0.28913
7224200;-0.12000;128.2500;143;81;0.28987
7224210;-0.12000;123.7500;143;81;0.29133
7224220;-0.11500;121.0625;143;81;0.29353
7224230;-0.11500;118.0625;143;81;0.29744
7224240;-0.11500;114.8750;143;81;0.30403
7224250;-0.11000;108.6250;143;81;0.32918
7224260;-0.10500;106.0625;143;81;0.34579
7224270;-0.10500;104.0000;143;81;0.36508
7224280;-0.10000;101.3125;143;81;0.39096
7224290;-0.09500;100.6250;143;81;0.45690
7224300;-0.09000;100.2500;143;81;0.49426
7224310;-0.08500;100.0625;143;81;0.53284
7224320;-0.08000;100.2500;143;81;0.60684
7224330;-0.08000;100.3750;143;81;0.64054
7224340;-0.08000;100.5000;143;81;0.67155
7224350;-0.07500;100.5000;143;81;0.69939
7224360;-0.08000;100.4375;143;81;0.72381
7224370;-0.07500;100.0625;143;81;0.75604
7224380;-0.07500;99.6875;143;81;0.76996
7224390;-0.08000;99.2500;143;81;0.78266
7224400;-0.08000;98.8125;143;81;0.79365
7224410;-0.08000;97.6875;143;81;0.80904
7224420;-0.08000;97.0625;143;81;0.81343
7224430;-0.07500;96.4375;143;81;0.81587
7224440;-0.05500;95.2500;143;81;0.81490
7224450;-0.03500;94.6250;143;81;0.81099
7224460;-0.01000;94.0625;143;81;0.80464
7224470;-0.00500;93.5000;143;81;0.79609
7224480;0.01000;92.8750;143;81;0.78510
7224490;0.05500;91.7500;143;81;0.75556
7224500;0.07000;91.2500;143;81;0.73724
7224510;0.05000;90.7500;143;81;0.71722
7224520;0.00000;89.8125;143;81;0.67375
7224530;-0.02500;89.3750;143;81;0.65201
7224540;-0.06500;88.9375;143;81;0.63126
7224550;-0.11500;88.5000;143;81;0.61172
7224560;-0.13500;88.0625;143;81;0.59414
7224570;-0.14500;87.3750;143;81;0.56777
7224580;-0.14500;87.0625;143;81;0.55653
7224590;-0.14500;86.7500;143;81;0.54676
7224600;-0.13500;86.4375;143;81;0.53797
7224610;-0.13500;85.8125;143;81;0.52332
7224620;-0.04500;85.6250;143;81;0.51722
7224630;0.21500;85.3750;143;81;0.51160
7224640;0.77000;85.1875;143;81;0.50623
7224650;0.95000;84.7500;143;81;0.49524
7224660;0.19500;84.5625;143;81;0.49011
7224670;-0.22000;84.3750;143;81;0.48547
7224680;-0.26500;84.1250;143;81;0.48010
7224690;-0.20000;83.7500;143;81;0.46813
7224700;-0.19000;83.5000;143;81;0.46154
7224710;-0.19000;83.2500;143;81;0.45470
7224720;-0.18500;83.0000;143;81;0.44811
7224730;-0.18000;82.5000;143;81;0.43516
7224740;-0.17500;82.1875;143;81;0.42882
7224750;-0.17000;81.8750;143;81;0.42271
7224760;-0.16500;81.5625;143;81;0.41685
7224770;-0.16500;80.8750;143;81;0.40708
7224780;-0.16000;80.5000;143;81;0.40171
7224790;-0.15500;80.1875;143;81;0.39585
7224800;-0.15500;80.1875;143;81;0.39585
7224810;-0.14000;79.3125;143;81;0.37753
7224820;-0.13500;79.0625;143;81;0.37167
7224830;-0.12500;78.8125;143;81;0.36581
7224840;-0.11000;78.3750;143;81;0.35507
7224850;-0.10000;78.3125;143;81;0.34969
7224860;-0.08500;78.5000;143;81;0.34554
7224870;-0.07000;79.1875;143;81;0.34212
7224880;-0.04500;82.9375;143;81;0.33358
7224890;-0.03000;86.1250;143;81;0.32943
7224900;-0.00500;90.1250;143;81;0.32527
7224910;0.02000;94.7500;143;81;0.32137
7224920;0.05000;105.3125;143;81;0.31380
7224930;0.08000;110.8125;143;81;0.31038
7224940;0.11000;116.0625;143;81;0.30720
7224950;0.15500;120.9375;143;81;0.30452
7224960;0.17500;125.3125;143;81;0.30232
7224970;0.20500;132.0625;143;81;0.30159
7224980;0.23500;134.5000;143;81;0.30085
7224990;0.23500;136.3125;143;81;0.30012
7225000;0.21500;137.6875;143;82;0.29939
7225010;0.16500;139.2500;143;82;0.29866
7225020;0.09000;139.5625;143;82;0.29866
7225030;0.04000;139.6250;143;82;0.29841
7225040;-0.00500;139.5000;143;82;0.29817
7225050;-0.04500;138.7500;143;82;0.29768
7225060;-0.06500;138.1250;143;82;0.29817
7225070;-0.08500;137.3750;143;82;0.29915
7225080;-0.09500;135.3750;143;82;0.29988
7225090;-0.11000;134.1250;143;82;0.30012
7225100;-0.12000;132.6250;143;82;0.30012
7225110;-0.12500;130.8750;143;82;0.30012
7225120;-0.13000;128.8125;143;82;0.30037
7225130;-0.13000;123.7500;143;82;0.30452
7225140;-0.12500;120.7500;143;82;0.31013
7225150;-0.12500;117.6250;143;82;0.31917
7225160;-0.12500;114.4375;143;82;0.33236
7225170;-0.12000;109.0000;143;82;0.36606
7225180;-0.11500;107.0625;143;82;0.39145
7225190;-0.11000;105.5000;143;82;0.42222
7225200;-0.10000;104.3750;143;82;0.45739
7225210;-0.09500;103.3125;143;82;0.53480
7225220;-0.09500;103.1250;143;82;0.57436
7225230;-0.09500;103.1250;143;82;0.61270
7225240;-0.09500;103.1875;143;82;0.64884
7225250;-0.09500;103.3750;143;82;0.71282
7225260;-0.09500;103.3750;143;82;0.73626
7225270;-0.09500;103.1875;143;82;0.75482
7225280;-0.09500;102.9375;143;82;0.77387
7225290;-0.10000;102.2500;143;82;0.80757
7225300;-0.10000;101.7500;143;82;0.82125
7225310;-0.10000;101.2500;143;82;0.83248
7225320;-0.09500;100.0625;143;82;0.84835
7225330;-0.09500;99.4375;143;82;0.85324
7225340;-0.09000;98.8125;143;82;0.85592
7225350;-0.08000;98.1875;143;82;0.85641
7225360;-0.05500;96.9375;143;82;0.85470
7225370;-0.03500;96.3750;143;82;0.84347
7225380;-0.01500;95.7500;143;82;0.83541
7225390;-0.01000;95.1875;143;82;0.82540
7225400;0.02500;94.0625;143;82;0.79829
7225410;0.05000;93.5000;143;82;0.78168
7225420;0.05000;93.0000;143;82;0.76337
7225430;0.01500;92.5000;143;82;0.72112
7225440;-0.00500;92.0000;143;82;0.66789
7225450;-0.04500;91.1250;143;82;0.60684
7225460;-0.09500;90.6875;143;82;0.58755
7225470;-0.11500;90.3125;143;82;0.57241
7225480;-0.13000;89.9375;143;82;0.55897
7225490;-0.13000;89.3125;143;82;0.53748
7225500;-0.13000;89.0000;143;82;0.52918
7225510;-0.12500;88.6875;143;82;0.52210
7225520;-0.12000;88.1250;143;82;0.51062
7225530;-0.11000;87.8750;143;82;0.50549
7225540;0.06000;87.6875;143;82;0.50085
7225550;0.57500;87.4375;143;82;0.49621
7225560;1.08500;87.2500;143;82;0.49133
7225570;0.59500;86.8750;143;82;0.48254
7225580;-0.02500;86.6250;143;82;0.47790
7225590;-0.26000;86.4375;143;82;0.47326
7225600;-0.20500;86.0000;143;82;0.46276
7225610;-0.19000;85.8125;143;82;0.45714
7225620;-0.19000;85.5625;143;82;0.45128
7225630;-0.19000;85.3125;143;82;0.44518
7225640;-0.19000;85.0625;143;82;0.43907
7225650;-0.19000;84.4375;143;82;0.42759
7225660;-0.18000;84.1250;143;82;0.42247
7225670;-0.18000;83.7500;143;82;0.41783
7225680;-0.17000;83.4375;143;82;0.41294
7225690;-0.16500;82.7500;143;82;0.40269
7225700;-0.15500;82.3750;143;82;0.39707
7225710;-0.14500;82.0625;143;82;0.39145
7225720;-0.13500;81.7500;143;82;0.38584
7225730;-0.12500;81.0625;143;82;0.37534
7225740;-0.11500;80.7500;143;82;0.37045
7225750;-0.10000;80.5000;143;82;0.36606
7225760;-0.08000;80.3125;143;82;0.36190
7225770;-0.06500;80.6875;143;82;0.35580
7225780;-0.05500;81.6875;143;82;0.35263
7225790;-0.03500;83.5000;143;82;0.34994
7225800;-0.03500;83.5000;143;82;0.34994
7225810;-0.01000;94.5000;143;82;0.34237
7225820;0.01000;99.5625;143;82;0.33993
7225830;0.04500;105.0625;143;82;0.33748
7225840;0.07000;110.7500;143;82;0.33553
7225850;0.10000;121.6875;143;82;0.33284
7225860;0.13500;126.5000;143;82;0.33236
7225870;0.16000;130.6875;143;82;0.33260
7225880;0.19500;134.2500;143;82;0.33260
7225890;0.22000;139.3125;143;82;0.33260
7225900;0.22500;141.0000;143;82;0.33260
7225910;0.21000;142.1250;143;82;0.33260
7225920;0.15500;143.5000;143;82;0.33260
7225930;0.11000;143.7500;143;82;0.33260
7225940;0.05000;143.8125;143;82;0.33236
7225950;-0.01500;143.7500;143;82;0.33187
7225960;-0.05000;143.4375;143;82;0.33187
7225970;-0.07500;142.5000;143;82;0.33211
7225980;-0.09500;141.8750;143;82;0.33211
7225990;-0.11000;141.0625;143;82;0.33211
7226000;-0.11500;139.0000;143;82;0.33089
7226010;-0.12000;137.6875;143;82;0.33016
7226020;-0.12000;136.0625;143;82;0.32943
7226030;-0.11500;134.1875;143;82;0.32918
7226040;-0.11500;129.5000;143;82;0.33211
7226050;-0.11500;126.6250;143;82;0.33700
7226060;-0.11000;123.6250;143;82;0.34335
7226070;-0.10500;120.5625;143;82;0.35263
7226080;-0.10000;117.6250;143;82;0.36679
7226090;-0.09500;112.8125;143;82;0.40952
7226100;-0.09500;111.0000;143;82;0.43712
7226110;-0.08500;109.5625;143;82;0.46789
7226120;-0.07500;108.5625;143;82;0.50085
7226130;-0.07500;107.5000;143;82;0.56874
7226140;-0.08000;107.3125;143;82;0.60122
7226150;-0.08500;107.1875;143;82;0.63150
7226160;-0.09000;107.0000;143;82;0.67497
7226170;-0.08500;106.8125;143;82;0.69499
7226180;-0.08500;106.6250;143;82;0.71404
7226190;-0.08500;106.3750;143;82;0.73138
7226200;-0.08500;106.0000;143;82;0.74652
7226210;-0.09000;105.1875;143;82;0.76996
7226220;-0.09000;104.6250;143;82;0.77851
7226230;-0.09000;104.0625;143;82;0.78535
7226240;-0.08500;103.4375;143;82;0.79048
7226250;-0.08000;102.1250;143;82;0.79560
7226260;-0.06000;101.4375;143;82;0.79438
7226270;-0.03500;100.7500;143;82;0.79121
7226280;-0.00500;99.4375;143;82;0.78755
7226290;0.00000;98.8125;143;82;0.77631
7226300;0.00000;98.1875;143;82;0.76825
7226310;0.03000;97.5625;143;82;0.75824
7226320;0.05000;97.0000;143;82;0.74628
7226330;0.03000;95.8750;143;82;0.71697
7226340;-0.00500;95.3750;143;82;0.70037
7226350;-0.04500;94.8125;143;82;0.68278
7226360;-0.09000;94.3750;143;82;0.66618
7226370;-0.14000;93.4375;143;82;0.63443
7226380;-0.17000;93.0000;143;82;0.61905
7226390;-0.17000;92.6250;143;82;0.60464
7226400;-0.16500;92.0000;143;82;0.57998
7226410;-0.16000;91.6875;143;82;0.56972
7226420;-0.15500;91.3750;143;82;0.56068
7226430;-0.15500;91.0625;143;82;0.55263
7226440;-0.13500;90.8125;143;82;0.54530
7226450;0.12000;90.3125;143;82;0.53309
7226460;0.83000;90.0625;143;82;0.52772
7226470;1.09500;89.8750;143;82;0.52283
7226480;0.59500;89.6250;143;82;0.51770
7226490;-0.21500;89.2500;143;82;0.50696
7226500;-0.28000;89.0000;143;82;0.50134
7226510;-0.23000;88.8125;143;82;0.49524
7226520;-0.21500;88.2500;143;82;0.48230
7226530;-0.21000;87.9375;143;82;0.47546
7226540;-0.20000;87.6250;143;82;0.46838
7226550;-0.19000;87.2500;143;82;0.46129
7226560;-0.18000;86.9375;143;82;0.45495
7226570;-0.17000;86.2500;143;82;0.44322
7226580;-0.15500;85.8750;143;82;0.43712
7226590;-0.14500;85.5000;143;82;0.43101
7226600;-0.13500;85.1250;143;82;0.42491
7226610;-0.12500;84.3125;143;82;0.41368
7226620;-0.11500;83.8750;143;82;0.40830
7226630;-0.10000;83.4375;143;82;0.40317
7226640;-0.08000;82.6875;143;82;0.39316
7226650;-0.06500;82.3125;143;82;0.38828
7226660;-0.05500;82.0000;143;82;0.38413
7226670;-0.04000;81.7500;143;82;0.38071
7226680;-0.03000;81.8125;143;82;0.37680
7226690;-0.01500;83.5000;143;82;0.36850
7226700;0.00000;85.6875;143;82;0.36484
7226710;0.01500;88.8750;143;82;0.36166
7226720;0.04000;97.6875;143;82;0.35897
7226730;0.07000;103.0000;143;82;0.35458
7226740;0.08500;108.5000;143;82;0.35263
7226750;0.11000;114.1250;143;82;0.35092
7226760;0.14500;124.5000;143;82;0.34969
7226770;0.17500;128.9375;143;82;0.34921
7226780;0.21000;132.6875;143;82;0.34872
7226790;0.25000;135.6875;143;82;0.34847
7226800;0.25000;135.6875;143;82;0.34847
7226810;0.27500;141.2500;143;82;0.34847
7226820;0.25500;142.1875;143;82;0.34823
7226830;0.20500;142.7500;143;82;0.34799
7226840;0.13500;143.1875;143;82;0.34701
7226850;0.08500;143.1250;143;82;0.34652
7226860;0.02500;142.8750;143;82;0.34628
7226870;0.00000;142.5625;143;82;0.34603
7226880;-0.03000;141.5000;143;82;0.34505
7226890;-0.05000;140.7500;143;82;0.34261
7226900;-0.06000;139.8750;143;82;0.34115
7226910;-0.06500;138.8125;143;82;0.33968
7226920;-0.07000;136.0000;143;82;0.33675
7226930;-0.07500;134.1875;143;82;0.33553
7226940;-0.07500;132.0625;143;82;0.33480
7226950;-0.07500;129.6250;143;82;0.33504
7226960;-0.07500;126.8750;143;82;0.33675
7226970;-0.07500;120.6250;143;82;0.34774
7226980;-0.07500;117.5000;143;82;0.35873
7226990;-0.07000;114.6250;143;82;0.37436
7227000;-0.06000;110.0000;142;81;0.39463
7227010;-0.05500;108.3125;142;81;0.44713
7227020;-0.05500;107.0000;142;81;0.47790
7227030;-0.05000;106.0625;142;81;0.50989
7227040;-0.05000;105.4375;142;81;0.54188
7227050;-0.04500;104.8125;142;81;0.60147
7227060;-0.04500;104.6875;142;81;0.62418
7227070;-0.04500;104.6250;142;81;0.64298
7227080;-0.04500;104.3125;142;81;0.68059
7227090;-0.04500;104.0625;142;81;0.69670
7227100;-0.04500;103.7500;142;81;0.71013
7227110;-0.04500;103.4375;142;81;0.72112
7227120;-0.04500;102.5000;142;81;0.73748
7227130;-0.05000;101.9375;142;81;0.74286
7227140;-0.05500;101.3125;142;81;0.74652
7227150;-0.04500;100.7500;142;81;0.74847
7227160;-0.03000;100.1250;142;81;0.74774
7227170;-0.00500;98.8125;142;81;0.74188
7227180;0.02000;98.1875;142;81;0.73724
7227190;0.02000;97.5000;142;81;0.73114
7227200;0.03500;96.8750;142;81;0.72357
7227210;0.07000;95.5625;142;81;0.70208
7227220;0.09500;94.9375;142;81;0.68816
7227230;0.06500;94.3750;142;81;0.67204
7227240;0.03000;93.7500;142;81;0.65421
7227250;0.00000;92.6250;142;81;0.61441
7227260;-0.04500;92.1250;142;81;0.59560
7227270;-0.07500;91.6250;142;81;0.57802
7227280;-0.09500;91.1250;142;81;0.55946
7227290;-0.10500;90.2500;142;81;0.52357
7227300;-0.11000;89.8750;142;81;0.50745
7227310;-0.10500;89.5000;142;81;0.49255
7227320;-0.10500;89.1250;142;81;0.47912
7227330;-0.10000;88.4375;142;81;0.45641
7227340;-0.01000;88.1250;142;81;0.44664
7227350;0.26000;87.8125;142;81;0.43785
7227360;0.90000;87.2500;142;81;0.42393
7227370;0.95500;87.0000;142;81;0.41709
7227380;0.32000;86.7500;142;81;0.41001
7227390;-0.27000;86.5000;142;81;0.40269
7227400;-0.24000;86.3125;142;81;0.39512
7227410;-0.17000;85.8125;142;81;0.38022
7227420;-0.16500;85.5625;142;81;0.37289
7227430;-0.16500;85.3125;142;81;0.36532
7227440;-0.16000;84.6875;142;81;0.35043
7227450;-0.15500;84.3750;142;81;0.34310
7227460;-0.15000;84.0000;142;81;0.33700
7227470;-0.14500;83.6875;142;81;0.33138
7227480;-0.14000;83.3125;142;81;0.30672
7227490;-0.13500;82.5000;142;81;0.25104
7227500;-0.13500;82.1250;142;81;0.23639
7227510;-0.13000;81.7500;142;81;0.22515
7227520;-0.12500;81.0000;142;81;0.21563
7227530;-0.12000;80.6875;142;81;0.19951
7227540;-0.10500;80.3125;142;81;0.19243
7227550;-0.09500;80.0000;142;81;0.18608
7227560;-0.08000;79.3750;142;81;0.17729
7227570;-0.06500;79.1250;142;81;0.17265
7227580;-0.05000;79.0625;142;81;0.16777
7227590;-0.03000;79.3125;142;81;0.16288
7227600;-0.01500;81.5625;142;81;0.15311
7227610;0.00000;83.8750;142;81;0.14847
7227620;0.02000;87.0000;142;81;0.14408
7227630;0.05000;90.9375;142;81;0.13968
7227640;0.07000;95.4375;142;81;0.13578
7227650;0.10000;105.5000;142;81;0.12894
7227660;0.13500;110.6875;142;81;0.12698
7227670;0.16000;115.6875;142;81;0.12576
7227680;0.20500;124.2500;142;81;0.12210
7227690;0.22500;127.6250;142;81;0.12039
7227700;0.25000;130.3750;142;81;0.11893
7227710;0.25000;132.5625;142;81;0.11795
7227720;0.22500;134.1250;142;81;0.11722
7227730;0.16500;135.9375;142;81;0.11575
7227740;0.09000;136.3125;142;81;0.11526
7227750;0.04000;136.4375;142;81;0.11502
7227760;-0.00500;136.2500;142;81;0.11575
7227770;-0.04500;135.3125;142;81;0.11819
7227780;-0.06500;134.6250;142;81;0.11868
7227790;-0.08500;133.7500;142;81;0.11917
7227800;-0.08500;133.7500;142;81;0.11917
7227810;-0.10500;129.8750;142;81;0.12015
7227820;-0.10500;129.8750;142;81;0.12015
7227830;-0.11500;126.1875;142;81;0.12039
7227840;-0.11500;123.8750;142;81;0.12063
7227850;-0.11000;118.3750;142;81;0.12283
7227860;-0.11000;115.2500;142;81;0.12576
7227870;-0.11000;112.1250;142;81;0.12991
7227880;-0.10000;106.5625;142;81;0.14652
7227890;-0.09500;104.4375;142;81;0.16068
7227900;-0.09000;102.7500;142;81;0.17924
7227910;-0.08500;101.5000;142;81;0.20220
7227920;-0.07500;100.6250;142;81;0.22930
7227930;-0.07000;99.9375;142;81;0.29206
7227940;-0.06500;99.8750;142;81;0.32552
7227950;-0.06500;99.9375;142;81;0.35897
7227960;-0.06500;100.0625;142;81;0.38755
7227970;-0.07000;100.3125;142;81;0.43907
7227980;-0.07500;100.2500;142;81;0.46447
7227990;-0.07500;100.1250;142;81;0.48718
7228000;-0.07000;99.5625;141;81;0.52405
7228010;-0.07000;99.1250;141;81;0.53822
7228020;-0.07000;98.6875;141;81;0.54969
7228030;-0.07500;98.1875;141;81;0.55873
7228040;-0.07000;97.6250;141;81;0.56557
7228050;-0.07000;96.4375;141;81;0.57241
7228060;-0.06500;95.8750;141;81;0.57192
7228070;-0.06000;95.2500;141;81;0.57045
7228080;-0.03500;94.0000;141;81;0.56313
7228090;-0.00500;93.4375;141;81;0.55678
7228100;0.00000;92.8125;141;81;0.54823
7228110;0.01500;92.2500;141;81;0.53724
7228120;0.05000;91.1250;141;81;0.50867
7228130;0.08000;90.6250;141;81;0.49182
7228140;0.07000;90.1250;141;81;0.47326
7228150;0.03500;89.6250;141;81;0.45397
7228160;-0.00500;88.7500;141;81;0.42125
7228170;-0.03500;88.3125;141;81;0.40488
7228180;-0.08500;87.9375;141;81;0.38950
7228190;-0.11500;87.5625;141;81;0.37534
7228200;-0.13000;87.1875;141;81;0.36264
7228210;-0.13000;86.5000;141;81;0.34188
7228220;-0.13500;86.1875;141;81;0.33382
7228230;-0.12500;85.9375;141;81;0.32698
7228240;-0.12500;85.6875;141;81;0.32112
7228250;-0.09500;85.1250;141;81;0.31184
7228260;0.07000;84.8750;141;81;0.30842
7228270;0.54000;84.6250;141;81;0.30452
7228280;0.96000;84.1875;141;81;0.29621
7228290;0.58000;84.0000;141;81;0.29158
7228300;-0.21500;83.8125;141;81;0.28694
7228310;-0.30000;83.5625;141;81;0.28230
7228320;-0.21500;83.1250;141;81;0.27228
7228330;-0.19000;82.8125;141;81;0.26716
7228340;-0.18500;82.5625;141;81;0.26203
7228350;-0.18000;82.3125;141;81;0.25665
7228360;-0.17000;82.0000;141;81;0.25226
7228370;-0.16500;81.4375;141;81;0.24347
7228380;-0.16000;81.0625;141;81;0.23834
7228390;-0.15500;80.7500;141;81;0.23321
7228400;-0.14500;80.3750;141;81;0.22784
7228410;-0.13500;79.6875;141;81;0.21709
7228420;-0.13000;79.3125;141;81;0.21197
7228430;-0.12500;79.0000;141;81;0.20708
7228440;-0.12000;78.6875;141;81;0.20244
7228450;-0.10500;78.0625;141;81;0.19390
7228460;-0.09500;77.8125;141;81;0.19072
7228470;-0.08500;77.5000;141;81;0.18657
7228480;-0.07500;77.3125;141;81;0.18217
7228490;-0.06000;77.1875;141;81;0.17338
7228500;-0.04500;77.5000;141;81;0.16923
7228510;-0.02500;78.4375;141;81;0.16508
7228520;-0.00500;82.5625;141;81;0.15702
7228530;0.01000;85.9375;141;81;0.15311
7228540;0.03000;89.9375;141;81;0.14969
7228550;0.05000;94.5625;141;81;0.14676
7228560;0.08500;104.7500;141;81;0.14408
7228570;0.11000;109.8750;141;81;0.14237
7228580;0.14000;114.8125;141;81;0.14042
7228590;0.17500;119.3125;141;81;0.13846
7228600;0.20500;123.2500;141;81;0.13700
7228610;0.24500;129.2500;141;81;0.13480
7228620;0.26500;131.3125;141;81;0.13407
7228630;0.25500;132.8125;141;81;0.13382
7228640;0.20500;134.5625;141;81;0.13358
7228650;0.13500;134.8750;141;81;0.13431
7228660;0.08000;134.9375;141;81;0.13553
7228670;0.02500;134.7500;141;81;0.13626
7228680;-0.02500;133.7500;141;81;0.13748
7228690;-0.04500;133.0000;141;81;0.13748
7228700;-0.06500;132.1250;141;81;0.13748
7228710;-0.08000;131.0000;141;81;0.13748
7228720;-0.09000;128.2500;141;81;0.13748
7228730;-0.09500;126.5000;141;81;0.13748
7228740;-0.10000;124.5000;141;81;0.13748
7228750;-0.10500;122.2500;141;81;0.13773
7228760;-0.10500;119.6250;141;81;0.13895
7228770;-0.10500;113.8125;141;81;0.14432
7228780;-0.10500;110.8750;141;81;0.14921
7228790;-0.10500;108.1250;141;81;0.15678
7228800;-0.10500;108.1250;141;81;0.15678
7228810;-0.09500;102.3125;141;81;0.20293
7228820;-0.09500;101.1875;141;81;0.22759
7228830;-0.08500;100.4375;141;81;0.25617
7228840;-0.08000;99.9375;141;81;0.28767
7228850;-0.07500;99.6250;141;81;0.35140
7228860;-0.07000;99.6250;141;81;0.37924
7228870;-0.07000;99.7500;141;81;0.40977
7228880;-0.07000;99.7500;141;81;0.44005
7228890;-0.07500;99.5625;141;81;0.49524
7228900;-0.07500;99.3750;141;81;0.51844
7228910;-0.07500;99.1250;141;81;0.53871
7228920;-0.08000;98.3750;141;81;0.55604
7228930;-0.08500;97.9375;141;81;0.58217
7228940;-0.08500;97.4375;141;81;0.59145
7228950;-0.08500;96.8750;141;81;0.59829
7228960;-0.08000;95.7500;141;81;0.60317
7228970;-0.07500;95.1875;141;81;0.60342
7228980;-0.06000;94.5625;141;81;0.60244
7228990;-0.04000;94.0000;141;81;0.59976
7229000;-0.01500;93.3750;141;81;0.59536
7229010;-0.00500;92.2500;141;81;0.58022
7229020;0.01000;91.6875;141;81;0.56947
7229030;0.03500;91.1250;141;81;0.55629
7229040;0.06500;90.1250;141;81;0.54139
7229050;0.05500;89.6875;141;81;0.50916
7229060;0.02500;89.1875;141;81;0.49377
7229070;-0.01000;88.7500;141;81;0.47692
7229080;-0.05500;87.9375;141;81;0.44322
7229090;-0.09000;87.5000;141;81;0.42784
7229100;-0.12500;87.1875;141;81;0.41392
7229110;-0.13500;86.8125;141;81;0.40171
7229120;-0.13500;86.4375;141;81;0.39096
7229130;-0.13500;85.8125;141;81;0.37338
7229140;-0.13000;85.5000;141;81;0.36630
7229150;-0.12500;85.2500;141;81;0.36020
7229160;-0.09500;84.8125;141;81;0.35092
7229170;0.08000;84.5625;141;81;0.34652
7229180;0.55500;84.3125;141;81;0.34188
7229190;0.96000;84.1250;141;81;0.33700
7229200;0.56500;83.9375;141;81;0.33187
7229210;-0.13000;83.5000;141;81;0.32161
7229220;-0.30000;83.3125;141;81;0.31648
7229230;-0.22000;83.0625;141;81;0.31111
7229240;-0.20000;82.8750;141;81;0.30549
7229250;-0.19500;82.3125;141;81;0.29524
7229260;-0.19000;82.0625;141;81;0.29084
7229270;-0.18000;81.7500;141;81;0.28571
7229280;-0.18000;81.4375;141;81;0.28034
7229290;-0.17000;80.7500;141;81;0.26886
7229300;-0.15500;80.4375;141;81;0.26300
7229310;-0.15000;80.0625;141;81;0.25739
7229320;-0.14500;79.3750;141;81;0.24615
7229330;-0.14500;79.0000;141;81;0.24054
7229340;-0.13500;78.6875;141;81;0.23516
7229350;-0.13000;78.3125;141;81;0.23004
7229360;-0.12000;78.0000;141;81;0.22613
7229370;-0.11000;77.5000;141;81;0.21856
7229380;-0.09500;77.2500;141;81;0.21416
7229390;-0.08000;77.0000;141;81;0.20952
7229400;-0.07000;76.8750;141;81;0.20488
7229410;-0.05500;77.5625;141;81;0.19585
7229420;-0.03500;78.8125;141;81;0.19145
7229430;-0.01000;80.8125;141;81;0.18730
7229440;0.00500;83.6875;141;81;0.18339
7229450;0.03000;91.6875;141;81;0.17729
7229460;0.05000;96.5000;141;81;0.17534
7229470;0.08000;101.6875;141;81;0.17289
7229480;0.10000;107.0000;141;81;0.17045
7229490;0.14000;117.0000;141;81;0.16606
7229500;0.16500;121.3750;141;81;0.16410
7229510;0.20500;125.1250;141;81;0.16239
7229520;0.22500;128.1875;141;81;0.16093
7229530;0.24000;132.5000;141;81;0.24322
7229540;0.22500;133.8750;141;81;0.26764
7229550;0.18500;134.8125;141;81;0.28034
7229560;0.12500;135.3750;141;81;0.28742
7229570;0.05000;135.6250;141;81;0.29255
7229580;0.01000;135.3750;141;81;0.29328
7229590;-0.04000;135.0000;141;81;0.29353
7229600;-0.06500;134.4375;141;81;0.29328
7229610;-0.08000;132.7500;141;81;0.29304
7229620;-0.09000;131.6875;141;81;0.29304
7229630;-0.09500;130.3750;141;81;0.29304
7229640;-0.10500;127.1250;141;81;0.29304
7229650;-0.11500;125.1250;141;81;0.29377
7229660;-0.11500;122.8750;141;81;0.29499
7229670;-0.11500;120.3125;141;81;0.29573
7229680;-0.11500;117.4375;141;81;0.29719
7229690;-0.11500;111.3750;141;81;0.30549
7229700;-0.11000;108.5000;141;81;0.31429
7229710;-0.11000;106.0000;141;81;0.32723
7229720;-0.10500;103.9375;141;81;0.34481
7229730;-0.10000;101.1875;141;81;0.39365
7229740;-0.09500;100.3750;141;81;0.42418
7229750;-0.09000;99.8125;141;81;0.45299
7229760;-0.09000;99.5000;141;81;0.51331
7229770;-0.09000;99.5625;141;81;0.54676
7229780;-0.08500;99.6250;141;81;0.57973
7229790;-0.09000;99.7500;141;81;0.61099
7229800;-0.09000;99.7500;141;81;0.61099
7229810;-0.08500;99.5625;141;81;0.68816
7229820;-0.08500;99.3125;141;81;0.70769
