RelativeTimeMilliseconds,ECG,ART,ART (Sys),ART (Dia),PPG
7800000,-0.15500,72.5000,113,67,0.50427
7800010,-0.16000,71.9375,113,67,0.48425
7800020,-0.16000,71.6875,113,67,0.47570
7800030,-0.16000,71.3750,113,67,0.46838
7800040,-0.15500,71.1250,113,67,0.46178
7800050,-0.14500,70.6250,113,67,0.45104
7800060,-0.12500,70.3750,113,67,0.44689
7800070,0.05500,70.1875,113,67,0.44322
7800080,0.64000,69.7500,113,67,0.43590
7800090,0.91000,69.5625,113,67,0.43223
7800100,0.50000,69.4375,113,67,0.42882
7800110,-0.22000,69.3125,113,67,0.42564
7800120,-0.30000,69.1250,113,67,0.42247
7800130,-0.22500,68.7500,113,67,0.41612
7800140,-0.20000,68.5625,113,67,0.41294
7800150,-0.20000,68.4375,113,67,0.41001
7800160,-0.20000,68.2500,113,67,0.40757
7800170,-0.19000,67.8750,113,67,0.40244
7800180,-0.18500,67.6250,113,67,0.39927
7800190,-0.18000,67.4375,113,67,0.39609
7800200,-0.17500,66.9375,113,67,0.39267
7800210,-0.16500,66.6875,113,67,0.38632
7800220,-0.16000,66.4375,113,67,0.38315
7800230,-0.15500,66.1250,113,67,0.37973
7800240,-0.15000,65.8750,113,67,0.37631
7800250,-0.14000,65.3125,113,67,0.36947
7800260,-0.12500,65.0625,113,67,0.36679
7800270,-0.12000,64.8750,113,67,0.36459
7800280,-0.10500,64.5000,113,67,0.35922
7800290,-0.09500,64.4375,113,67,0.35629
7800300,-0.08000,64.5000,113,67,0.35336
7800310,-0.06500,64.9375,113,67,0.35018
7800320,-0.05000,65.8750,113,67,0.34701
7800330,-0.03000,69.7500,113,67,0.34139
7800340,-0.01500,72.5625,113,67,0.33871
7800350,0.00000,75.7500,113,67,0.33602
7800360,0.03000,83.0000,113,67,0.33284
7800370,0.05000,86.6875,113,67,0.33089
7800380,0.08000,90.3750,113,67,0.32894
7800390,0.11500,93.8750,113,67,0.32698
7800400,0.14000,97.1250,113,67,0.32527
7800410,0.17500,102.6250,113,67,0.32259
7800420,0.21500,104.7500,113,67,0.32161
7800430,0.23500,106.5000,113,67,0.32112
7800440,0.24500,107.8750,113,67,0.32063
7800450,0.22500,109.6250,113,67,0.31990
7800460,0.19000,110.1250,113,67,0.32015
7800470,0.13500,110.3125,113,67,0.32063
7800480,0.06000,110.1875,113,67,0.32063
7800490,0.02000,109.8750,113,67,0.32039
7800500,-0.02500,109.3125,113,67,0.31990
7800510,-0.06000,108.5625,113,67,0.31966
7800520,-0.07500,107.6875,113,67,0.31941
7800530,-0.09000,105.3750,113,67,0.31966
7800540,-0.10000,104.0625,113,67,0.31990
7800550,-0.10500,102.5625,113,67,0.32039
7800560,-0.11500,101.0000,113,67,0.32161
7800570,-0.11500,97.4375,113,67,0.32698
7800580,-0.11000,95.5000,113,67,0.33187
7800590,-0.10500,93.5000,113,67,0.33919
7800600,-0.10500,91.5000,113,67,0.34945
7800610,-0.10000,87.8750,113,67,0.38120
7800620,-0.09500,86.3750,113,67,0.40220
7800630,-0.09000,85.1875,113,67,0.42589
7800640,-0.08500,83.4375,113,67,0.47717
7800650,-0.08500,82.8125,113,67,0.50354
7800660,-0.08500,82.3125,113,67,0.52625
7800670,-0.08500,81.9375,113,67,0.54628
7800680,-0.08500,81.6875,113,67,0.56752
7800690,-0.08500,81.2500,113,67,0.60757
7800700,-0.09000,81.0625,113,67,0.62515
7800710,-0.09000,80.8750,113,67,0.64054
7800720,-0.09500,80.6875,113,67,0.65372
7800730,-0.09500,80.2500,113,67,0.67375
7800740,-0.10000,79.9375,113,67,0.68083
7800750,-0.10000,79.6250,113,67,0.68571
7800760,-0.10000,79.0000,113,67,0.68840
7800770,-0.10000,78.6875,113,67,0.68791
7800780,-0.09500,78.3125,113,67,0.68620
7800790,-0.07000,78.0000,113,67,0.68303
7800800,-0.05000,77.6250,113,67,0.67839
7800810,-0.02500,76.9375,113,67,0.66520
7800820,-0.02000,76.6250,113,67,0.65641
7800830,-0.00500,76.2500,113,67,0.64640
7800840,0.04000,75.5625,113,67,0.62271
7800850,0.05500,75.2500,113,67,0.60952
7800860,0.03000,74.8750,113,67,0.59707
7800870,-0.01500,74.5000,113,67,0.58486
7800880,-0.03500,74.1875,113,67,0.57705
7800890,-0.07500,73.5000,113,67,0.55971
7800900,-0.12000,73.1250,113,67,0.54652
7800910,-0.14500,72.8125,113,67,0.53333
7800920,-0.15000,72.5000,113,67,0.52063
7800930,-0.15000,71.8125,113,67,0.49841
7800940,-0.14000,71.5625,113,67,0.48889
7800950,-0.13500,71.2500,113,67,0.48034
7800960,-0.13000,71.0000,113,67,0.47350
7800970,-0.03000,70.5000,113,67,0.46203
7800980,0.23000,70.3125,113,67,0.45665
7800990,0.74500,70.0625,113,67,0.45128
7801000,0.79500,69.6875,114,68,0.44127
7801010,0.26500,69.5625,114,68,0.43614
7801020,-0.25000,69.4375,114,68,0.43126
7801030,-0.26500,69.2500,114,68,0.42637
7801040,-0.20000,68.9375,114,68,0.41661
7801050,-0.19500,68.7500,114,68,0.41197
7801060,-0.19000,68.5625,114,68,0.40781
7801070,-0.18000,68.3125,114,68,0.40415
7801080,-0.18000,68.1250,114,68,0.39976
7801090,-0.17000,67.6875,114,68,0.39048
7801100,-0.16500,67.4375,114,68,0.38608
7801110,-0.16000,67.1875,114,68,0.38169
7801120,-0.15500,66.9375,114,68,0.37705
7801130,-0.14500,66.3750,114,68,0.36752
7801140,-0.14000,66.1250,114,68,0.36264
7801150,-0.13500,65.8750,114,68,0.35800
7801160,-0.12500,65.6250,114,68,0.35433
7801170,-0.11000,65.1250,114,68,0.34676
7801180,-0.10500,64.8750,114,68,0.34212
7801190,-0.09000,64.6875,114,68,0.33724
7801200,-0.07000,64.6250,114,68,0.32772
7801210,-0.05500,65.0625,114,68,0.32308
7801220,-0.03500,65.9375,114,68,0.31868
7801230,-0.02500,67.5000,114,68,0.31429
7801240,-0.01000,69.6875,114,68,0.31038
7801250,0.01000,75.6875,114,68,0.30452
7801260,0.02500,79.2500,114,68,0.30281
7801270,0.05000,83.0000,114,68,0.30061
7801280,0.07000,90.6250,114,68,0.29792
7801290,0.10000,94.3125,114,68,0.29328
7801300,0.12500,97.6875,114,68,0.29158
7801310,0.16000,100.7500,114,68,0.28987
7801320,0.18500,103.4375,114,68,0.28864
7801330,0.21500,107.5625,114,68,0.28669
7801340,0.23500,109.0000,114,68,0.28571
7801350,0.23500,110.1250,114,68,0.28498
7801360,0.20500,111.5625,114,68,0.28571
7801370,0.16500,111.9375,114,68,0.28571
7801380,0.10000,112.0625,114,68,0.28547
7801390,0.02000,111.9375,114,68,0.28523
7801400,-0.01500,111.6875,114,68,0.28498
7801410,-0.06000,110.5625,114,68,0.28523
7801420,-0.09000,109.8125,114,68,0.28547
7801430,-0.10500,108.8750,114,68,0.28571
7801440,-0.12000,107.7500,114,68,0.28596
7801450,-0.12500,105.0625,114,68,0.28718
7801460,-0.13000,103.5000,114,68,0.28864
7801470,-0.13500,101.8125,114,68,0.29035
7801480,-0.13500,100.0000,114,68,0.29328
7801490,-0.13500,96.0625,114,68,0.30696
7801500,-0.13500,94.0000,114,68,0.31917
7801510,-0.13000,91.9375,114,68,0.33602
7801520,-0.12500,88.4375,114,68,0.38339
7801530,-0.12500,87.0000,114,68,0.41294
7801540,-0.12000,85.8750,114,68,0.44518
7801550,-0.11500,85.0000,114,68,0.48327
7801560,-0.11500,84.2500,114,68,0.51526
7801570,-0.11500,83.2500,114,68,0.56801
7801580,-0.11500,82.9375,114,68,0.59707
7801590,-0.10500,82.6875,114,68,0.62491
7801600,-0.10500,82.5000,114,68,0.65055
7801610,-0.10500,82.3125,114,68,0.69377
7801620,-0.10500,82.1875,114,68,0.71136
7801630,-0.10500,82.0000,114,68,0.72625
7801640,-0.10500,81.8125,114,68,0.73846
7801650,-0.10500,81.3750,114,68,0.75409
7801660,-0.10500,81.0625,114,68,0.75726
7801670,-0.11000,80.7500,114,68,0.75971
7801680,-0.11000,80.4375,114,68,0.76093
7801690,-0.09500,79.8125,114,68,0.75849
7801700,-0.06500,79.5000,114,68,0.75458
7801710,-0.04000,79.1250,114,68,0.74872
7801720,-0.03000,78.7500,114,68,0.74090
7801730,-0.01500,78.0625,114,68,0.71941
7801740,0.01000,77.6875,114,68,0.70623
7801750,0.04000,77.3750,114,68,0.69133
7801760,0.04000,76.6875,114,68,0.66154
7801770,0.01000,76.3125,114,68,0.64444
7801780,-0.02500,75.9375,114,68,0.62637
7801790,-0.06500,75.6250,114,68,0.60830
7801800,-0.11500,74.9375,114,68,0.57411
7801810,-0.11500,74.9375,114,68,0.57411
7801820,-0.15500,74.2500,114,68,0.54408
7801830,-0.15500,73.9375,114,68,0.53114
7801840,-0.14500,73.3750,114,68,0.50989
7801850,-0.14500,73.0625,114,68,0.50183
7801860,-0.13500,72.8125,114,68,0.49524
7801870,-0.13500,72.5625,114,68,0.48913
7801880,0.00000,72.1875,114,68,0.48327
7801890,0.55000,72.0000,114,68,0.47375
7801900,0.92500,71.8125,114,68,0.46960
7801910,0.74000,71.6250,114,68,0.46545
7801920,-0.09500,71.3125,114,68,0.45739
7801930,-0.28000,71.1875,114,68,0.45299
7801940,-0.23000,71.0625,114,68,0.44860
7801950,-0.20000,70.8750,114,68,0.44420
7801960,-0.20000,70.6875,114,68,0.44029
7801970,-0.20000,70.3750,114,68,0.43297
7801980,-0.19500,70.1875,114,68,0.42906
7801990,-0.19000,70.0000,114,68,0.42515
7802000,-0.19000,69.5625,113,68,0.42125
7802010,-0.18000,69.3125,113,68,0.41392
7802020,-0.17500,69.0625,113,68,0.41001
7802030,-0.16500,68.8125,113,68,0.40586
7802040,-0.16000,68.5625,113,68,0.40171
7802050,-0.15000,68.0625,113,68,0.39438
7802060,-0.13500,67.7500,113,68,0.39145
7802070,-0.13000,67.5000,113,68,0.38803
7802080,-0.12500,67.3125,113,68,0.38437
7802090,-0.11500,66.9375,113,68,0.37631
7802100,-0.10000,66.8750,113,68,0.37216
7802110,-0.09000,67.0625,113,68,0.36825
7802120,-0.07500,67.6250,113,68,0.36459
7802130,-0.05500,70.6250,113,68,0.35751
7802140,-0.04500,73.1250,113,68,0.35433
7802150,-0.03000,76.2500,113,68,0.35165
7802160,-0.00500,83.6250,113,68,0.34823
7802170,0.01500,87.5625,113,68,0.34628
7802180,0.03500,91.5000,113,68,0.34432
7802190,0.06500,95.3750,113,68,0.34286
7802200,0.08500,99.0000,113,68,0.34164
7802210,0.11500,105.3750,113,68,0.34042
7802220,0.15500,107.9375,113,68,0.33993
7802230,0.17500,110.1250,113,68,0.33944
7802240,0.20000,113.3125,113,68,0.33895
7802250,0.21500,114.4375,113,68,0.33919
7802260,0.20500,115.2500,113,68,0.33968
7802270,0.17500,115.8125,113,68,0.33993
7802280,0.11000,116.3125,113,68,0.33968
7802290,0.06000,116.2500,113,68,0.33944
7802300,0.00000,116.0000,113,68,0.33895
7802310,-0.05500,115.6250,113,68,0.33871
7802320,-0.08000,115.0625,113,68,0.33846
7802330,-0.10500,113.4375,113,68,0.33871
7802340,-0.12500,112.3750,113,68,0.33895
7802350,-0.13000,111.2500,113,68,0.33919
7802360,-0.13500,109.9375,113,68,0.33993
7802370,-0.13500,106.8750,113,68,0.34359
7802380,-0.13500,105.1250,113,68,0.34725
7802390,-0.13500,103.1875,113,68,0.35360
7802400,-0.13500,101.1875,113,68,0.36337
7802410,-0.13500,97.0625,113,68,0.39585
7802420,-0.13500,95.1250,113,68,0.41905
7802430,-0.13000,93.3750,113,68,0.44615
7802440,-0.12500,91.8750,113,68,0.47668
7802450,-0.12500,89.6250,113,68,0.53919
7802460,-0.12000,88.7500,113,68,0.56654
7802470,-0.12000,88.0625,113,68,0.59683
7802480,-0.12000,87.5000,113,68,0.62784
7802490,-0.11500,86.7500,113,68,0.68596
7802500,-0.11500,86.5000,113,68,0.71136
7802510,-0.11500,86.3125,113,68,0.73382
7802520,-0.11500,85.8750,113,68,0.77070
7802530,-0.11500,85.6250,113,68,0.78510
7802540,-0.11500,85.3750,113,68,0.79707
7802550,-0.11500,85.1250,113,68,0.80659
7802560,-0.11000,84.8125,113,68,0.81221
7802570,-0.10500,84.1875,113,68,0.81832
7802580,-0.10500,83.7500,113,68,0.82051
7802590,-0.09500,83.3750,113,68,0.82125
7802600,-0.07500,83.0000,113,68,0.82027
7802610,-0.04000,82.2500,113,68,0.81221
7802620,-0.01000,81.8125,113,68,0.80537
7802630,-0.00500,81.4375,113,68,0.79658
7802640,0.01000,81.0625,113,68,0.78584
7802650,0.06000,80.2500,113,68,0.75995
7802660,0.07500,79.8750,113,68,0.74579
7802670,0.06500,79.5000,113,68,0.73016
7802680,0.02500,78.8125,113,68,0.69573
7802690,0.00000,78.4375,113,68,0.67839
7802700,-0.04500,78.0625,113,68,0.66129
7802710,-0.10500,77.6875,113,68,0.64469
7802720,-0.12500,77.3750,113,68,0.62906
7802730,-0.13500,76.7500,113,68,0.60147
7802740,-0.13000,76.4375,113,68,0.58950
7802750,-0.12500,76.1250,113,68,0.57900
7802760,-0.11500,75.8125,113,68,0.57021
7802770,-0.11500,75.2500,113,68,0.55531
7802780,-0.10000,75.0000,113,68,0.54847
7802790,0.21500,74.8125,113,68,0.54212
7802800,0.21500,74.8125,113,68,0.54212
7802810,1.06500,74.1875,113,68,0.52503
7802820,0.60000,74.0000,113,68,0.51990
7802830,-0.18000,73.8125,113,68,0.51453
7802840,-0.24500,73.6875,113,68,0.50940
7802850,-0.19500,73.3125,113,68,0.49963
7802860,-0.19000,73.1250,113,68,0.49524
7802870,-0.19000,73.0000,113,68,0.49035
7802880,-0.19000,72.5625,113,68,0.48523
7802890,-0.18500,72.3750,113,68,0.47448
7802900,-0.17500,72.1250,113,68,0.46911
7802910,-0.17000,71.8750,113,68,0.46398
7802920,-0.16000,71.3125,113,68,0.44274
7802930,-0.15500,71.0625,113,68,0.42076
7802940,-0.15000,70.7500,113,68,0.40781
7802950,-0.14500,70.5000,113,68,0.39976
7802960,-0.13000,70.2500,113,68,0.39414
7802970,-0.11500,69.7500,113,68,0.38413
7802980,-0.10000,69.5625,113,68,0.37949
7802990,-0.09500,69.3750,113,68,0.37485
7803000,-0.08500,69.1250,113,67,0.37045
7803010,-0.07000,69.3125,113,67,0.36215
7803020,-0.06500,69.9375,113,67,0.35824
7803030,-0.05500,71.1875,113,67,0.35433
7803040,-0.03500,75.8125,113,67,0.34750
7803050,-0.02000,79.1250,113,67,0.34505
7803060,-0.00500,82.8125,113,67,0.34310
7803070,0.01000,86.8125,113,67,0.34115
7803080,0.03000,90.8750,113,67,0.33919
7803090,0.05500,98.7500,113,67,0.33578
7803100,0.08500,102.3750,113,67,0.33431
7803110,0.10000,105.6875,113,67,0.33333
7803120,0.13500,111.0625,113,67,0.33211
7803130,0.16000,113.1250,113,67,0.33162
7803140,0.18500,114.8125,113,67,0.33138
7803150,0.20000,116.1250,113,67,0.33162
7803160,0.20500,117.8125,113,67,0.33260
7803170,0.19000,118.3125,113,67,0.33284
7803180,0.15500,118.5625,113,67,0.33309
7803190,0.09500,118.6875,113,67,0.33309
7803200,0.03000,118.6875,113,67,0.33284
7803210,-0.02500,118.0000,113,67,0.33236
7803220,-0.06000,117.4375,113,67,0.33187
7803230,-0.08500,116.7500,113,67,0.33114
7803240,-0.11000,114.9375,113,67,0.32967
7803250,-0.12000,113.7500,113,67,0.32918
7803260,-0.12500,112.4375,113,67,0.32918
7803270,-0.12500,110.9375,113,67,0.32967
7803280,-0.12500,109.3125,113,67,0.33114
7803290,-0.12500,105.6250,113,67,0.34042
7803300,-0.12500,103.6250,113,67,0.34994
7803310,-0.12500,101.5000,113,67,0.36337
7803320,-0.11500,99.3750,113,67,0.38120
7803330,-0.10500,95.5000,113,67,0.42833
7803340,-0.10500,93.9375,113,67,0.45641
7803350,-0.09500,92.5625,113,67,0.48181
7803360,-0.08500,90.3750,113,67,0.53333
7803370,-0.08000,89.5625,113,67,0.56166
7803380,-0.07500,88.9375,113,67,0.58950
7803390,-0.07500,88.4375,113,67,0.61563
7803400,-0.07000,88.0000,113,67,0.63956
7803410,-0.06500,87.3125,113,67,0.68034
7803420,-0.06500,87.0000,113,67,0.69695
7803430,-0.07000,86.6875,113,67,0.71062
7803440,-0.06500,86.3125,113,67,0.72210
7803450,-0.06500,85.5625,113,67,0.73773
7803460,-0.06000,85.1875,113,67,0.74139
7803470,-0.05500,84.7500,113,67,0.74530
7803480,-0.05500,83.9375,113,67,0.75043
7803490,-0.05500,83.5000,113,67,0.75043
7803500,-0.05000,83.0000,113,67,0.74896
7803510,-0.03500,82.5625,113,67,0.74554
7803520,-0.00500,82.1250,113,67,0.73993
7803530,0.02000,81.1875,113,67,0.72381
7803540,0.03500,80.7500,113,67,0.71331
7803550,0.04500,80.3125,113,67,0.70183
7803560,0.08000,79.4375,113,67,0.67595
7803570,0.10500,79.0000,113,67,0.66081
7803580,0.09000,78.5625,113,67,0.64493
7803590,0.05000,78.1250,113,67,0.62857
7803600,0.02500,77.7500,113,67,0.60806
7803610,-0.01500,76.9375,113,67,0.57631
7803620,-0.05500,76.5625,113,67,0.56239
7803630,-0.08500,76.1875,113,67,0.54847
7803640,-0.08500,75.8125,113,67,0.53529
7803650,-0.08500,75.1250,113,67,0.51306
7803660,-0.08500,74.8125,113,67,0.50379
7803670,-0.08500,74.4375,113,67,0.49475
7803680,-0.08500,73.8125,113,67,0.48596
7803690,-0.03500,73.5000,113,67,0.46813
7803700,0.15500,73.2500,113,67,0.45983
7803710,0.78500,73.0000,113,67,0.45397
7803720,1.02000,72.7500,113,67,0.44786
7803730,0.51500,72.3125,113,67,0.43541
7803740,-0.19000,72.0625,113,67,0.42906
7803750,-0.23500,71.8750,113,67,0.42320
7803760,-0.16000,71.6875,113,67,0.41783
7803770,-0.14500,71.2500,113,67,0.40586
7803780,-0.15000,71.0625,113,67,0.39976
7803790,-0.14500,70.8125,113,67,0.39316
7803800,-0.14500,70.8125,113,67,0.39316
7803810,-0.13500,70.0000,113,67,0.37265
7803820,-0.13000,69.7500,113,67,0.36606
7803830,-0.12500,69.4375,113,67,0.35922
7803840,-0.12000,68.8750,113,67,0.34554
7803850,-0.11500,68.5625,113,67,0.33993
7803860,-0.10500,68.2500,113,67,0.33480
7803870,-0.10000,67.9375,113,67,0.32918
7803880,-0.08500,67.6250,113,67,0.32332
7803890,-0.07500,67.0625,113,67,0.31160
7803900,-0.06500,66.8750,113,67,0.30574
7803910,-0.04500,66.6250,113,67,0.29963
7803920,-0.03500,66.5000,113,67,0.29353
7803930,-0.02500,66.6875,113,67,0.28156
7803940,-0.01000,67.3750,113,67,0.27570
7803950,0.00500,68.7500,113,67,0.26984
7803960,0.02500,73.3750,113,67,0.26227
7803970,0.04000,76.5000,113,67,0.25812
7803980,0.06000,79.9375,113,67,0.25397
7803990,0.08000,83.6875,113,67,0.24982
7804000,0.10000,87.5000,112,67,0.24615
7804010,0.12000,94.8125,112,67,0.23883
7804020,0.14500,98.1875,112,67,0.23516
7804030,0.18500,101.2500,112,67,0.23199
7804040,0.20500,103.9375,112,67,0.22930
7804050,0.23500,107.9375,112,67,0.22564
7804060,0.25500,109.3750,112,67,0.22515
7804070,0.26500,110.4375,112,67,0.22393
7804080,0.24500,111.7500,112,67,0.22247
7804090,0.19500,112.0000,112,67,0.21978
7804100,0.14500,112.0000,112,67,0.21880
7804110,0.08000,111.8125,112,67,0.21807
7804120,0.01500,111.0000,112,67,0.21685
7804130,-0.01500,110.3125,112,67,0.21636
7804140,-0.05000,109.4375,112,67,0.21685
7804150,-0.07500,108.3750,112,67,0.21783
7804160,-0.08000,107.1875,112,67,0.21783
7804170,-0.09000,104.3750,112,67,0.21685
7804180,-0.09000,102.8125,112,67,0.21636
7804190,-0.09500,101.0625,112,67,0.21734
7804200,-0.09500,97.1875,112,67,0.22662
7804210,-0.08500,95.1250,112,67,0.23590
7804220,-0.08500,93.0625,112,67,0.24908
7804230,-0.08000,91.0000,112,67,0.26642
7804240,-0.07500,89.0625,112,67,0.28791
7804250,-0.07500,86.0625,112,67,0.33138
7804260,-0.07000,84.9375,112,67,0.35751
7804270,-0.07000,84.0000,112,67,0.38559
7804280,-0.06500,82.8125,112,67,0.44225
7804290,-0.06500,82.3750,112,67,0.46886
7804300,-0.06000,82.0625,112,67,0.49353
7804310,-0.05500,81.8125,112,67,0.51600
7804320,-0.06000,81.6875,112,67,0.53578
7804330,-0.06000,81.4375,112,67,0.56703
7804340,-0.05500,81.3125,112,67,0.57680
7804350,-0.05500,81.1250,112,67,0.58364
7804360,-0.05500,80.9375,112,67,0.58950
7804370,-0.05500,80.4375,112,67,0.59658
7804380,-0.05500,80.1250,112,67,0.59756
7804390,-0.05500,79.8125,112,67,0.59707
7804400,-0.04500,79.1250,112,67,0.59292
7804410,-0.02500,78.7500,112,67,0.58828
7804420,0.00000,78.3750,112,67,0.57998
7804430,0.02500,78.0000,112,67,0.57070
7804440,0.03500,77.3125,112,67,0.54896
7804450,0.05000,76.9375,112,67,0.53748
7804460,0.09000,76.6250,112,67,0.52405
7804470,0.10500,76.2500,112,67,0.50891
7804480,0.07500,75.5625,112,67,0.47570
7804490,0.04000,75.1875,112,67,0.45812
7804500,0.01000,74.8125,112,67,0.44054
7804510,-0.02500,74.4375,112,67,0.42344
7804520,-0.08000,73.7500,112,67,0.39292
7804530,-0.10000,73.4375,112,67,0.37949
7804540,-0.10500,73.1250,112,67,0.36874
7804550,-0.11000,72.8125,112,67,0.36020
7804560,-0.11000,72.5625,112,67,0.35165
7804570,-0.10500,72.0000,112,67,0.33651
7804580,-0.10000,71.6875,112,67,0.33040
7804590,-0.06500,71.4375,112,67,0.32479
7804600,0.27500,71.0000,112,67,0.31575
7804610,0.68000,70.8125,112,67,0.31184
7804620,0.84500,70.6250,112,67,0.30769
7804630,0.22500,70.4375,112,67,0.30379
7804640,-0.20500,70.2500,112,67,0.29988
7804650,-0.24000,69.8750,112,67,0.29377
7804660,-0.16500,69.6875,112,67,0.29011
7804670,-0.14500,69.5000,112,67,0.28620
7804680,-0.14000,69.1250,112,67,0.28230
7804690,-0.13500,68.9375,112,67,0.27424
7804700,-0.13500,68.7500,112,67,0.27057
7804710,-0.12500,68.5000,112,67,0.26691
7804720,-0.11500,68.2500,112,67,0.26325
7804730,-0.11000,67.7500,112,67,0.25641
7804740,-0.10500,67.5000,112,67,0.25421
7804750,-0.09500,67.2500,112,67,0.25226
7804760,-0.09000,66.6875,112,67,0.24908
7804770,-0.08500,66.3750,112,67,0.24200
7804780,-0.07500,66.1250,112,67,0.23785
7804790,-0.06500,65.8750,112,67,0.23370
7804800,-0.06500,65.8750,112,67,0.23370
7804810,-0.04500,65.3125,112,67,0.22125
7804820,-0.02500,65.2500,112,67,0.21758
7804830,-0.02000,65.2500,112,67,0.21392
7804840,-0.00500,65.5000,112,67,0.21148
7804850,0.00500,67.5000,112,67,0.20757
7804860,0.02000,69.4375,112,67,0.20513
7804870,0.04000,71.9375,112,67,0.20244
7804880,0.05500,78.1875,112,67,0.20000
7804890,0.08000,81.7500,112,67,0.19536
7804900,0.10000,85.3125,112,67,0.19365
7804910,0.12000,88.8750,112,67,0.19194
7804920,0.15500,95.5625,112,67,0.18926
7804930,0.18000,98.4375,112,67,0.18828
7804940,0.21500,101.0000,112,67,0.18852
7804950,0.25500,103.1250,112,67,0.18950
7804960,0.27500,104.8750,112,67,0.18974
7804970,0.28000,107.1875,112,67,0.22833
7804980,0.25500,107.8750,112,67,0.24029
7804990,0.22000,108.2500,112,67,0.24640
7805000,0.15500,108.3750,112,67,0.24957
7805010,0.09500,108.1250,112,67,0.25226
7805020,0.04000,107.6875,112,67,0.25324
7805030,-0.01000,107.0000,112,67,0.25421
7805040,-0.03500,106.1875,112,67,0.25592
7805050,-0.06000,104.0625,112,67,0.25983
7805060,-0.06500,102.7500,112,67,0.26105
7805070,-0.07500,101.3125,112,67,0.26203
7805080,-0.08500,99.7500,112,67,0.26300
7805090,-0.08500,96.3125,112,67,0.26716
7805100,-0.08500,94.3750,112,67,0.27131
7805110,-0.09000,92.4375,112,67,0.27741
7805120,-0.09000,88.7500,112,67,0.28669
7805130,-0.08500,87.0625,112,67,0.31551
7805140,-0.08500,85.6875,112,67,0.33236
7805150,-0.08000,84.5000,112,67,0.35043
7805160,-0.07000,82.7500,112,67,0.39780
7805170,-0.06500,82.0625,112,67,0.42393
7805180,-0.06500,81.5625,112,67,0.45031
7805190,-0.06500,81.1875,112,67,0.47619
7805200,-0.06000,80.8750,112,67,0.50085
7805210,-0.05500,80.5000,112,67,0.54383
7805220,-0.05500,80.3750,112,67,0.56190
7805230,-0.05500,80.1875,112,67,0.57729
7805240,-0.05500,80.0625,112,67,0.58852
7805250,-0.05500,79.6250,112,67,0.60513
7805260,-0.05500,79.3750,112,67,0.61172
7805270,-0.05500,79.1250,112,67,0.61685
7805280,-0.05500,78.5625,112,67,0.62002
7805290,-0.05500,78.2500,112,67,0.62198
7805300,-0.05500,77.9375,112,67,0.62051
7805310,-0.04500,77.6250,112,67,0.61758
7805320,-0.02500,76.9375,112,67,0.60757
7805330,-0.00500,76.6250,112,67,0.60000
7805340,0.01000,76.2500,112,67,0.59170
7805350,0.02000,75.8750,112,67,0.58291
7805360,0.04000,75.5625,112,67,0.57241
7805370,0.07000,74.8750,112,67,0.54774
7805380,0.08000,74.5625,112,67,0.53431
7805390,0.05000,74.1875,112,67,0.52039
7805400,0.01000,73.8750,112,67,0.50672
7805410,-0.02500,73.2500,112,67,0.48083
7805420,-0.06000,72.9375,112,67,0.46935
7805430,-0.09500,72.5625,112,67,0.45910
7805440,-0.11500,72.2500,112,67,0.45079
7805450,-0.11500,71.6875,112,67,0.43736
7805460,-0.11500,71.4375,112,67,0.43101
7805470,-0.11000,71.1875,112,67,0.42540
7805480,-0.10000,70.6875,112,67,0.41563
7805490,-0.08500,70.4375,112,67,0.41148
7805500,-0.00500,70.1875,112,67,0.40757
7805510,0.35000,70.0000,112,67,0.40391
7805520,0.86000,69.7500,112,67,0.40049
7805530,0.79500,69.3750,112,67,0.39390
7805540,0.13000,69.1875,112,67,0.39121
7805550,-0.26500,69.0000,112,67,0.38877
7805560,-0.21000,68.8750,112,67,0.38584
7805570,-0.15500,68.5000,112,67,0.37924
7805580,-0.14500,68.3750,112,67,0.37631
7805590,-0.14000,68.1875,112,67,0.37314
7805600,-0.13500,67.7500,112,67,0.36679
7805610,-0.13000,67.5625,112,67,0.36386
7805620,-0.13000,67.3750,112,67,0.36093
7805630,-0.12500,67.1250,112,67,0.35775
7805640,-0.12000,66.8750,112,67,0.35531
7805650,-0.12000,66.3750,112,67,0.35043
7805660,-0.11500,66.1250,112,67,0.34701
7805670,-0.10500,65.8750,112,67,0.34335
7805680,-0.09500,65.3750,112,67,0.33626
7805690,-0.08500,65.1875,112,67,0.33284
7805700,-0.07500,64.9375,112,67,0.32967
7805710,-0.06500,64.8125,112,67,0.32650
7805720,-0.05500,64.6250,112,67,0.32332
7805730,-0.04000,64.5625,112,67,0.31722
7805740,-0.02500,64.8750,112,67,0.31502
7805750,-0.01500,65.6875,112,67,0.31331
7805760,0.00500,69.1250,112,67,0.30842
7805770,0.02000,71.7500,112,67,0.30574
7805780,0.04000,74.8125,112,67,0.30305
7805790,0.06000,78.2500,112,67,0.30037
7805800,0.06000,78.2500,112,67,0.30037
7805810,0.11000,89.1875,112,67,0.29304
7805820,0.14000,92.6250,112,67,0.29084
7805830,0.15500,95.9375,112,67,0.28913
7805840,0.19000,101.5625,112,67,0.28840
7805850,0.21500,103.7500,112,67,0.28816
7805860,0.24000,105.5625,112,67,0.28816
7805870,0.25500,106.9375,112,67,0.28816
7805880,0.25500,107.9375,112,67,0.28816
7805890,0.22000,109.1250,112,67,0.28816
7805900,0.15500,109.3125,112,67,0.28816
7805910,0.10000,109.3125,112,67,0.28816
7805920,0.03500,109.0625,112,67,0.28816
7805930,-0.02500,108.0625,112,67,0.28816
7805940,-0.05500,107.3125,112,67,0.28864
7805950,-0.08500,106.3750,112,67,0.28962
7805960,-0.10500,104.0625,112,67,0.29060
7805970,-0.11500,102.7500,112,67,0.29109
7805980,-0.12000,101.2500,112,67,0.29182
7805990,-0.12500,99.6250,112,67,0.29328
7806000,-0.12000,97.8750,113,67,0.29573
7806010,-0.12000,94.1875,113,67,0.30647
7806020,-0.12000,92.2500,113,67,0.31575
7806030,-0.12000,90.3750,113,67,0.32869
7806040,-0.11500,87.1250,113,67,0.35897
7806050,-0.11500,85.8125,113,67,0.37949
7806060,-0.11500,84.6875,113,67,0.40317
7806070,-0.11500,83.7500,113,67,0.42906
7806080,-0.11500,83.0000,113,67,0.45592
7806090,-0.11500,81.9375,113,67,0.50916
7806100,-0.11500,81.5625,113,67,0.53382
7806110,-0.11500,81.2500,113,67,0.55653
7806120,-0.11000,80.8125,113,67,0.59487
7806130,-0.11500,80.6250,113,67,0.61026
7806140,-0.11500,80.4375,113,67,0.62149
7806150,-0.11500,80.2500,113,67,0.63004
7806160,-0.11500,80.0000,113,67,0.63810
7806170,-0.12000,79.5625,113,67,0.65055
7806180,-0.12000,79.2500,113,67,0.65495
7806190,-0.11500,78.9375,113,67,0.65763
7806200,-0.11500,78.3750,113,67,0.65788
7806210,-0.11500,78.0625,113,67,0.65543
7806220,-0.09500,77.7500,113,67,0.65128
7806230,-0.06500,77.4375,113,67,0.64542
7806240,-0.04000,76.8125,113,67,0.63053
7806250,-0.03500,76.5000,113,67,0.62076
7806260,-0.02500,76.1250,113,67,0.60977
7806270,0.01500,75.8125,113,67,0.59756
7806280,0.04000,75.4375,113,67,0.58437
7806290,0.03000,74.7500,113,67,0.55678
7806300,-0.01500,74.4375,113,67,0.54310
7806310,-0.04000,74.0625,113,67,0.52991
7806320,-0.07500,73.6875,113,67,0.51722
7806330,-0.12000,73.0000,113,67,0.49426
7806340,-0.14500,72.6875,113,67,0.48523
7806350,-0.14500,72.3125,113,67,0.47741
7806360,-0.14500,71.6875,113,67,0.46252
7806370,-0.14000,71.4375,113,67,0.45568
7806380,-0.13000,71.1875,113,67,0.44933
7806390,-0.12500,70.9375,113,67,0.44347
7806400,-0.09500,70.6875,113,67,0.43810
7806410,0.14500,70.2500,113,67,0.42857
7806420,0.73000,70.0625,113,67,0.42418
7806430,0.90000,69.8750,113,67,0.42002
7806440,0.42000,69.6875,113,67,0.41661
7806450,-0.18000,69.3750,113,67,0.41026
7806460,-0.27000,69.2500,113,67,0.40684
7806470,-0.20500,69.1250,113,67,0.40342
7806480,-0.18000,68.8750,113,67,0.40000
7806490,-0.18000,68.5000,113,67,0.39365
7806500,-0.18000,68.3750,113,67,0.39023
7806510,-0.17500,68.1875,113,67,0.38706
7806520,-0.16500,67.6875,113,67,0.38364
7806530,-0.15500,67.4375,113,67,0.37705
7806540,-0.15000,67.2500,113,67,0.37436
7806550,-0.14500,67.0000,113,67,0.37118
7806560,-0.13500,66.4375,113,67,0.36337
7806570,-0.12500,66.1250,113,67,0.35922
7806580,-0.11500,65.8750,113,67,0.35507
7806590,-0.09500,65.6250,113,67,0.35116
7806600,-0.08000,65.3750,113,67,0.34725
7806610,-0.06500,65.0000,113,67,0.34017
7806620,-0.04000,64.8125,113,67,0.33700
7806630,-0.03000,64.6875,113,67,0.33382
7806640,-0.01500,65.1250,113,67,0.33138
7806650,0.00000,66.0000,113,67,0.32674
7806660,0.01000,67.5625,113,67,0.32381
7806670,0.03000,69.7500,113,67,0.32063
7806680,0.04000,72.5000,113,67,0.31746
7806690,0.05000,79.1875,113,67,0.31160
7806700,0.07000,82.8750,113,67,0.30891
7806710,0.09500,86.6250,113,67,0.30672
7806720,0.11500,90.3125,113,67,0.30452
7806730,0.15000,97.1875,113,67,0.30208
7806740,0.17500,100.1875,113,67,0.30208
7806750,0.20500,102.8125,113,67,0.30208
7806760,0.23500,105.0625,113,67,0.30183
7806770,0.26000,108.3125,113,67,0.30110
7806780,0.26500,109.3750,113,67,0.30061
7806790,0.24500,110.1875,113,67,0.30037
7806800,0.24500,110.1875,113,67,0.30037
7806810,0.14500,111.0625,113,67,0.29915
7806820,0.08000,110.9375,113,67,0.29890
7806830,0.01500,110.5625,113,67,0.29866
7806840,-0.04000,109.3125,113,67,0.30012
7806850,-0.06500,108.4375,113,67,0.30085
7806860,-0.08500,107.3750,113,67,0.30183
7806870,-0.09500,106.1875,113,67,0.30305
7806880,-0.10000,104.8125,113,67,0.30427
7806890,-0.11000,101.7500,113,67,0.30696
7806900,-0.11500,100.0000,113,67,0.30940
7806910,-0.11500,98.1875,113,67,0.31331
7806920,-0.11500,96.1875,113,67,0.31966
7806930,-0.11500,92.1875,113,67,0.34017
7806940,-0.11500,90.2500,113,67,0.35360
7806950,-0.10500,88.5000,113,67,0.37118
7806960,-0.10500,87.0625,113,67,0.39243
7806970,-0.10000,84.8125,113,67,0.44200
7806980,-0.09500,83.9375,113,67,0.46886
7806990,-0.09500,83.2500,113,67,0.49573
7807000,-0.09000,82.7500,113,67,0.52186
7807010,-0.08500,82.0625,113,67,0.58779
7807020,-0.08500,81.8750,113,67,0.63785
7807030,-0.09000,81.6875,113,67,0.67253
7807040,-0.09500,81.3750,113,67,0.69548
7807050,-0.09500,81.1875,113,67,0.72552
7807060,-0.09500,81.0000,113,67,0.73724
7807070,-0.09500,80.7500,113,67,0.74676
7807080,-0.09000,80.5000,113,67,0.75433
7807090,-0.09000,79.9375,113,67,0.76288
7807100,-0.08500,79.6250,113,67,0.76410
7807110,-0.08500,79.3125,113,67,0.76337
7807120,-0.07500,78.9375,113,67,0.76093
7807130,-0.05500,78.1875,113,67,0.75043
7807140,-0.03500,77.8125,113,67,0.74261
7807150,-0.01500,77.4375,113,67,0.73309
7807160,-0.00500,76.7500,113,67,0.70965
7807170,0.01500,76.3750,113,67,0.69573
7807180,0.05000,76.0625,113,67,0.68059
7807190,0.06000,75.6875,113,67,0.66447
7807200,0.02500,74.9375,113,67,0.63101
7807210,-0.00500,74.6250,113,67,0.61416
7807220,-0.02500,74.3125,113,67,0.59805
7807230,-0.07000,73.9375,113,67,0.58266
7807240,-0.11000,73.6250,113,67,0.56947
7807250,-0.12500,72.9375,113,67,0.54652
7807260,-0.13000,72.6250,113,67,0.53553
7807270,-0.13500,72.3125,113,67,0.52552
7807280,-0.12500,72.0000,113,67,0.51624
7807290,-0.11500,71.5000,113,67,0.50037
7807300,-0.11000,71.2500,113,67,0.49377
7807310,-0.02500,71.0625,113,67,0.48767
7807320,0.34000,70.8125,113,67,0.48205
7807330,0.85500,70.5000,113,67,0.47302
7807340,0.80000,70.3750,113,67,0.46935
7807350,0.14000,70.1875,113,67,0.46520
7807360,-0.25500,69.9375,113,67,0.46081
7807370,-0.29000,69.8125,113,67,0.45153
7807380,-0.26000,69.6875,113,67,0.44689
7807390,-0.21000,69.5625,113,67,0.44200
7807400,-0.18500,69.2500,113,67,0.43199
7807410,-0.18000,69.0625,113,67,0.42711
7807420,-0.17000,68.8750,113,67,0.42222
7807430,-0.16500,68.6875,113,67,0.41734
7807440,-0.16000,68.2500,113,67,0.41343
7807450,-0.15500,68.0625,113,67,0.40635
7807460,-0.14500,67.7500,113,67,0.40220
7807470,-0.13500,67.5000,113,67,0.39780
7807480,-0.12500,67.3125,113,67,0.39316
7807490,-0.11500,66.8125,113,67,0.38413
7807500,-0.11000,66.5625,113,67,0.37949
7807510,-0.09500,66.3125,113,67,0.37485
7807520,-0.07500,66.0000,113,67,0.36581
7807530,-0.07000,65.9375,113,67,0.36239
7807540,-0.06000,66.1250,113,67,0.35946
7807550,-0.04000,66.6875,113,67,0.35580
7807560,-0.02500,67.8125,113,67,0.35165
7807570,-0.01500,72.0000,113,67,0.34408
7807580,0.00000,74.9375,113,67,0.34090
7807590,0.01500,78.3750,113,67,0.33773
7807600,0.03500,85.9375,113,67,0.33504
7807610,0.06000,89.8125,113,67,0.33040
7807620,0.08000,93.6250,113,67,0.32845
7807630,0.11000,97.1875,113,67,0.32698
7807640,0.13000,100.5000,113,67,0.32650
7807650,0.16000,106.0000,113,67,0.32601
7807660,0.20000,108.1875,113,67,0.32527
7807670,0.22500,109.9375,113,67,0.32479
7807680,0.23500,112.3750,113,67,0.32454
7807690,0.22000,113.1250,113,67,0.32454
7807700,0.19000,113.6250,113,67,0.32454
7807710,0.12500,113.8750,113,67,0.32454
7807720,0.07000,113.8750,113,67,0.32454
7807730,0.01000,113.4375,113,67,0.32552
7807740,-0.04500,112.8750,113,67,0.32698
7807750,-0.07000,112.1875,113,67,0.32796
7807760,-0.09500,111.3750,113,67,0.32869
7807770,-0.11500,109.2500,113,67,0.32943
7807780,-0.13000,107.9375,113,67,0.32991
7807790,-0.13500,106.5000,113,67,0.33089
7807800,-0.13500,106.5000,113,67,0.33089
7807810,-0.14000,101.3750,113,67,0.34237
7807820,-0.14000,99.4375,113,67,0.35214
7807830,-0.13500,97.4375,113,67,0.36581
7807840,-0.13500,95.3750,113,67,0.38095
7807850,-0.13000,91.6250,113,67,0.42198
7807860,-0.12500,90.1250,113,67,0.44957
7807870,-0.12500,88.8750,113,67,0.48034
7807880,-0.12000,87.8125,113,67,0.51306
7807890,-0.11500,86.1875,113,67,0.58022
7807900,-0.11500,85.6250,113,67,0.61270
7807910,-0.11500,85.1875,113,67,0.64322
7807920,-0.11500,84.5625,113,67,0.69670
7807930,-0.11500,84.3750,113,67,0.71600
7807940,-0.11500,84.1875,113,67,0.73114
7807950,-0.11500,84.0000,113,67,0.74603
7807960,-0.11500,83.8750,113,67,0.75995
7807970,-0.11000,83.4375,113,67,0.78217
7807980,-0.10500,83.1875,113,67,0.79023
7807990,-0.10500,82.8750,113,67,0.79634
7808000,-0.10500,82.5625,113,67,0.80024
7808010,-0.10500,81.9375,113,67,0.80220
7808020,-0.09500,81.5625,113,67,0.80024
7808030,-0.07500,81.1875,113,67,0.79658
7808040,-0.05000,80.8750,113,67,0.79121
7808050,-0.02000,80.1250,113,67,0.77631
7808060,-0.00500,79.8125,113,67,0.76654
7808070,0.01000,79.4375,113,67,0.75531
7808080,0.05000,78.6875,113,67,0.72796
7808090,0.07000,78.3125,113,67,0.71233
7808100,0.05000,78.0000,113,67,0.69597
7808110,0.02000,77.6250,113,67,0.67912
7808120,-0.01000,77.3125,113,67,0.66227
7808130,-0.06000,76.6875,113,67,0.63126
7808140,-0.09500,76.3750,113,67,0.61807
7808150,-0.12500,76.0625,113,67,0.60488
7808160,-0.13000,75.3750,113,67,0.58144
7808170,-0.12500,75.0625,113,67,0.57167
7808180,-0.12500,74.8125,113,67,0.56337
7808190,-0.12000,74.5000,113,67,0.55604
7808200,-0.12000,74.2500,113,67,0.54969
7808210,-0.09500,73.7500,113,67,0.53871
7808220,0.14500,73.5625,113,67,0.53407
7808230,0.79500,73.3750,113,67,0.52943
7808240,1.01500,73.1875,113,67,0.52527
7808250,0.52500,72.8125,113,67,0.51770
7808260,-0.21000,72.6250,113,67,0.51380
7808270,-0.26000,72.5000,113,67,0.50965
7808280,-0.21000,72.1875,113,67,0.50159
7808290,-0.20500,72.0000,113,67,0.49744
7808300,-0.21000,71.8125,113,67,0.49353
7808310,-0.21000,71.6250,113,67,0.48938
7808320,-0.21000,71.4375,113,67,0.48523
7808330,-0.22000,71.0625,113,67,0.47814
7808340,-0.22000,70.8750,113,67,0.47497
7808350,-0.22000,70.6250,113,67,0.47131
7808360,-0.21000,70.4375,113,67,0.46740
7808370,-0.20500,69.9375,113,67,0.45934
7808380,-0.20500,69.6875,113,67,0.45519
7808390,-0.21000,69.4375,113,67,0.45079
7808400,-0.20000,68.9375,113,67,0.44200
7808410,-0.18500,68.6875,113,67,0.43761
7808420,-0.17000,68.5625,113,67,0.43321
7808430,-0.16000,68.4375,113,67,0.42979
7808440,-0.15000,68.9375,113,67,0.42320
7808450,-0.14000,69.8750,113,67,0.41954
7808460,-0.12500,71.4375,113,67,0.41612
7808470,-0.10500,73.7500,113,67,0.41294
7808480,-0.08000,80.0625,113,67,0.40733
7808490,-0.06500,83.8750,113,67,0.40464
7808500,-0.04000,87.8750,113,67,0.40220
7808510,-0.01000,91.8750,113,67,0.40024
7808520,0.01500,95.8750,113,67,0.39853
7808530,0.05000,103.1250,113,67,0.39707
7808540,0.09000,106.2500,113,67,0.39731
7808550,0.11500,109.0000,113,67,0.39731
7808560,0.15000,113.2500,113,67,0.39756
7808570,0.18500,114.8125,113,67,0.39780
7808580,0.21500,116.0000,113,67,0.39805
7808590,0.22500,116.8750,113,67,0.39878
7808600,0.21500,117.5000,113,67,0.39927
7808610,0.18000,118.1875,113,67,0.39976
7808620,0.13000,118.1875,113,67,0.39976
7808630,0.06500,118.0625,113,67,0.40000
7808640,0.03500,117.8125,113,67,0.40024
7808650,0.00000,116.6875,113,67,0.40024
7808660,-0.02500,115.9375,113,67,0.40024
7808670,-0.04000,115.0625,113,67,0.40024
7808680,-0.06000,114.0000,113,67,0.40049
7808690,-0.07500,111.3750,113,67,0.40220
7808700,-0.08500,109.8750,113,67,0.40488
7808710,-0.09500,108.1875,113,67,0.40977
7808720,-0.09500,106.3750,113,67,0.41758
7808730,-0.10000,102.3750,113,67,0.44103
7808740,-0.10500,100.3125,113,67,0.45568
7808750,-0.11000,98.2500,113,67,0.47570
7808760,-0.11000,96.3750,113,67,0.49988
7808770,-0.11000,93.3125,113,67,0.55775
7808780,-0.11000,92.0625,113,67,0.58901
7808790,-0.11000,91.0625,113,67,0.62051
7808800,-0.11000,91.0625,113,67,0.62051
7808810,-0.10500,89.0625,113,67,0.70916
7808820,-0.10500,88.6875,113,67,0.73431
7808830,-0.10500,88.3750,113,67,0.75336
7808840,-0.10000,87.8750,113,67,0.78339
7808850,-0.09500,87.6250,113,67,0.79707
7808860,-0.09500,87.3750,113,67,0.80904
7808870,-0.09500,87.1250,113,67,0.81929
7808880,-0.09000,86.8125,113,67,0.82784
7808890,-0.09000,86.1250,113,67,0.83907
7808900,-0.09000,85.8125,113,67,0.84200
7808910,-0.08500,85.4375,113,67,0.84298
7808920,-0.08000,84.6250,113,67,0.84029
7808930,-0.07500,84.1875,113,67,0.83565
7808940,-0.05500,83.7500,113,67,0.82955
7808950,-0.02500,83.3125,113,67,0.82271
7808960,0.00000,82.5000,113,67,0.80537
7808970,0.00500,82.0625,113,67,0.79438
7808980,0.03000,81.6875,113,67,0.78217
7808990,0.05500,81.2500,113,67,0.76874
7809000,0.07000,80.5000,113,67,0.75409
7809010,0.04000,80.1250,113,67,0.72283
7809020,0.02000,79.7500,113,67,0.70720
7809030,-0.01500,79.3750,113,67,0.69304
7809040,-0.08000,78.6250,113,67,0.66642
7809050,-0.11500,78.3125,113,67,0.65372
7809060,-0.13500,78.0000,113,67,0.62027
7809070,-0.13500,77.6875,113,67,0.57705
7809080,-0.13500,77.3750,113,67,0.55092
7809090,-0.12500,76.8125,113,67,0.52186
7809100,-0.12000,76.5625,113,67,0.51258
7809110,-0.11500,76.3125,113,67,0.50501
7809120,-0.00500,75.8125,113,67,0.49231
7809130,0.32000,75.6250,113,67,0.48694
7809140,0.93000,75.4375,113,67,0.48205
7809150,1.02500,75.3125,113,67,0.47692
7809160,0.32500,75.1250,113,67,0.47179
7809170,-0.20000,74.8125,113,67,0.46105
7809180,-0.20000,74.6875,113,67,0.45568
7809190,-0.18000,74.5000,113,67,0.44982
7809200,-0.18500,74.3750,113,67,0.44396
7809210,-0.18500,74.0000,113,67,0.43272
7809220,-0.18000,73.8125,113,67,0.42711
7809230,-0.17500,73.5625,113,67,0.42222
7809240,-0.17000,73.1250,113,67,0.41270
7809250,-0.17000,72.8125,113,67,0.40733
7809260,-0.16500,72.5625,113,67,0.40220
7809270,-0.16000,72.3125,113,67,0.39707
7809280,-0.15500,72.0000,113,67,0.39194
7809290,-0.15000,71.4375,113,67,0.38193
7809300,-0.13500,71.1250,113,67,0.37729
7809310,-0.12500,70.8125,113,67,0.37289
7809320,-0.11500,70.2500,113,67,0.36899
7809330,-0.10000,70.0000,113,67,0.36239
7809340,-0.08500,69.8750,113,67,0.35995
7809350,-0.07500,70.0625,113,67,0.35702
7809360,-0.06000,71.9375,113,67,0.35116
7809370,-0.04500,73.9375,113,67,0.34847
7809380,-0.03000,76.6250,113,67,0.34603
7809390,-0.01000,79.8750,113,67,0.34383
7809400,0.00000,83.5625,113,67,0.34188
7809410,0.02000,91.5000,113,67,0.33944
7809420,0.05000,95.4375,113,67,0.33871
7809430,0.07000,99.2500,113,67,0.33846
7809440,0.09500,102.8125,113,67,0.33846
7809450,0.12000,108.9375,113,67,0.33822
7809460,0.15500,111.3750,113,67,0.33822
7809470,0.18500,113.3750,113,67,0.33822
7809480,0.21500,116.1875,113,67,0.33822
7809490,0.22500,117.1250,113,67,0.33822
7809500,0.22000,117.8125,113,67,0.33822
7809510,0.19000,118.1875,113,67,0.33797
7809520,0.15500,118.4375,113,67,0.33797
7809530,0.10000,118.3125,113,67,0.33797
7809540,0.03000,118.0000,113,67,0.33822
7809550,-0.00500,117.5625,113,67,0.33822
7809560,-0.04000,116.1250,113,67,0.33797
7809570,-0.06500,115.1250,113,67,0.33700
7809580,-0.07500,114.0000,113,67,0.33602
7809590,-0.08500,112.7500,113,67,0.33480
7809600,-0.08500,109.7500,113,67,0.33382
7809610,-0.08500,108.0000,113,67,0.33578
7809620,-0.08500,106.1875,113,67,0.34066
7809630,-0.08500,104.1250,113,67,0.34750
7809640,-0.08500,99.7500,113,67,0.37143
7809650,-0.07500,97.4375,113,67,0.39023
7809660,-0.06500,95.2500,113,67,0.41319
7809670,-0.06000,93.3125,113,67,0.43932
7809680,-0.05500,91.6250,113,67,0.46764
7809690,-0.04500,89.0625,113,67,0.52601
7809700,-0.03500,88.1250,113,67,0.55433
7809710,-0.03500,87.3750,113,67,0.58095
7809720,-0.03500,86.3125,113,67,0.62759
7809730,-0.03500,86.0000,113,67,0.64444
7809740,-0.04000,85.7500,113,67,0.65763
7809750,-0.04000,85.5625,113,67,0.67106
7809760,-0.04500,85.1875,113,67,0.68327
7809770,-0.05500,85.0000,113,67,0.70305
7809780,-0.05500,84.7500,113,67,0.70989
7809790,-0.05500,84.5625,113,67,0.71453
7809800,-0.04500,83.9375,113,67,0.71746
7809810,-0.04000,83.6250,113,67,0.71624
7809820,-0.03500,83.2500,113,67,0.71331
7809830,-0.03000,82.8125,113,67,0.70818
7809840,-0.00500,82.0625,113,67,0.69353
7809850,0.02000,81.6250,113,67,0.68425
7809860,0.03000,81.2500,113,67,0.67350
7809870,0.02500,80.8125,113,67,0.66129
7809880,0.04500,80.3750,113,67,0.64737
7809890,0.08000,79.5625,113,67,0.61538
7809900,0.06500,79.1250,113,67,0.59756
7809910,0.02500,78.6250,113,67,0.57900
7809920,-0.00500,78.1875,113,67,0.55995
7809930,-0.05500,77.3125,113,67,0.52405
7809940,-0.09000,76.8750,113,67,0.50842
7809950,-0.11500,76.5000,113,67,0.49206
7809960,-0.12000,75.6875,113,67,0.46081
7809970,-0.11500,75.3125,113,67,0.44664
7809980,-0.11500,74.9375,113,67,0.43370
7809990,-0.10500,74.5625,113,67,0.42173
7810000,-0.10000,74.2500,112,67,0.41123
7810010,-0.06500,73.6250,112,67,0.39316
7810020,0.28000,73.3750,112,67,0.38559
7810030,0.70500,73.1250,112,67,0.37949
7810040,0.92000,72.9375,112,67,0.37411
7810050,0.39000,72.5000,112,67,0.36288
7810060,-0.18000,72.2500,112,67,0.35751
7810070,-0.22000,72.0625,112,67,0.35238
7810080,-0.17000,71.8750,112,67,0.34701
7810090,-0.15500,71.5000,112,67,0.33626
7810100,-0.15500,71.3125,112,67,0.33114
7810110,-0.15000,71.0625,112,67,0.32576
7810120,-0.14500,70.6250,112,67,0.32015
7810130,-0.14000,70.3750,112,67,0.30891
7810140,-0.13500,70.1250,112,67,0.30403
7810150,-0.12500,69.8750,112,67,0.29792
7810160,-0.11500,69.3125,112,67,0.28474
7810170,-0.10500,69.0000,112,67,0.27839
7810180,-0.10000,68.6875,112,67,0.27228
7810190,-0.09000,68.3750,112,67,0.26642
7810200,-0.07500,67.7500,112,67,0.25470
7810210,-0.06500,67.5000,112,67,0.24908
7810220,-0.05500,67.3125,112,67,0.24347
7810230,-0.03500,67.0625,112,67,0.23956
7810240,-0.02000,66.8125,112,67,0.23199
7810250,-0.01000,67.0625,112,67,0.22759
7810260,0.00500,67.6875,112,67,0.22320
7810270,0.02000,68.8750,112,67,0.21880
7810280,0.03500,70.6875,112,67,0.21441
7810290,0.05500,76.0000,112,67,0.20635
7810300,0.08500,79.3125,112,67,0.20269
7810310,0.10000,82.8750,112,67,0.19927
7810320,0.12500,86.5625,112,67,0.19634
7810330,0.16500,93.8125,112,67,0.19365
7810340,0.17500,97.1250,112,67,0.19194
7810350,0.16500,100.1875,112,67,0.19023
7810360,0.19500,102.8750,112,67,0.18877
7810370,0.26000,107.0000,112,67,0.18706
7810380,0.27500,108.4375,112,67,0.18632
7810390,0.27500,109.5625,112,67,0.18584
7810400,0.24500,110.8125,112,67,0.18510
7810410,0.20500,111.1250,112,67,0.18486
7810420,0.13500,111.1250,112,67,0.18510
7810430,0.05500,110.8750,112,67,0.18632
7810440,0.01000,110.4375,112,67,0.18803
7810450,-0.02500,109.0625,112,67,0.18974
7810460,-0.06000,108.1250,112,67,0.19048
7810470,-0.07500,107.0625,112,67,0.19096
7810480,-0.08500,105.8750,112,67,0.19145
7810490,-0.09500,103.0000,112,67,0.19194
7810500,-0.09500,101.3125,112,67,0.19267
7810510,-0.09500,99.5000,112,67,0.19414
7810520,-0.10000,95.5000,112,67,0.20244
7810530,-0.10000,93.3750,112,67,0.20977
7810540,-0.09500,91.2500,112,67,0.22076
7810550,-0.09500,89.3750,112,67,0.23565
7810560,-0.09000,87.6875,112,67,0.25495
7810570,-0.08500,85.1250,112,67,0.30403
7810580,-0.08500,84.1875,112,67,0.33236
7810590,-0.08500,83.4375,112,67,0.36190
7810600,-0.08000,82.8750,112,67,0.39194
7810610,-0.08000,82.0625,112,67,0.44982
7810620,-0.07500,81.8125,112,67,0.47619
7810630,-0.07500,81.6250,112,67,0.49744
7810640,-0.08000,81.3750,112,67,0.53284
7810650,-0.08000,81.2500,112,67,0.54921
7810660,-0.08500,81.0625,112,67,0.56337
7810670,-0.08500,80.8750,112,67,0.57509
7810680,-0.08500,80.4375,112,67,0.59170
7810690,-0.08500,80.1875,112,67,0.59658
7810700,-0.08500,79.8750,112,67,0.59927
7810710,-0.08500,79.5625,112,67,0.60000
7810720,-0.08500,79.2500,112,67,0.59902
7810730,-0.06500,78.6250,112,67,0.59170
7810740,-0.03000,78.3125,112,67,0.58584
7810750,-0.01000,77.9375,112,67,0.57827
7810760,0.00000,77.5625,112,67,0.56899
7810770,0.01500,76.8750,112,67,0.54603
7810780,0.04000,76.5000,112,67,0.53260
7810790,0.08000,76.1875,112,67,0.51795
7810800,0.08000,76.1875,112,67,0.51795
7810810,0.03500,75.1250,112,67,0.47033
7810820,-0.00500,74.7500,112,67,0.45446
7810830,-0.02500,74.4375,112,67,0.44078
7810840,-0.04000,74.0625,112,67,0.42882
7810850,-0.04500,73.4375,112,67,0.40440
7810860,-0.07000,73.1250,112,67,0.39341
7810870,-0.10500,72.8125,112,67,0.38315
7810880,-0.13500,72.5000,112,67,0.37387
7810890,-0.12500,71.9375,112,67,0.35873
7810900,-0.12500,71.6875,112,67,0.35263
7810910,-0.09500,71.4375,112,67,0.34725
7810920,0.19000,71.0000,112,67,0.33944
7810930,0.60000,70.7500,112,67,0.33700
7810940,0.91000,70.5625,112,67,0.33407
7810950,0.33000,70.4375,112,67,0.33089
7810960,-0.14500,70.2500,112,67,0.32747
7810970,-0.26500,69.9375,112,67,0.32015
7810980,-0.18000,69.7500,112,67,0.31624
7810990,-0.16500,69.6250,112,67,0.31258
7811000,-0.16500,69.2500,112,67,0.30525
7811010,-0.16000,69.0625,112,67,0.30134
7811020,-0.16000,68.8125,112,67,0.29719
7811030,-0.15500,68.6250,112,67,0.29426
7811040,-0.15000,68.3750,112,67,0.29182
7811050,-0.14500,67.9375,112,67,0.28523
7811060,-0.14500,67.6875,112,67,0.28181
7811070,-0.14000,67.4375,112,67,0.27839
7811080,-0.13500,67.1875,112,67,0.27497
7811090,-0.13000,66.6875,112,67,0.26740
7811100,-0.12500,66.4375,112,67,0.26374
7811110,-0.11000,66.1875,112,67,0.27473
7811120,-0.09500,65.6875,112,67,0.30183
7811130,-0.08500,65.5000,112,67,0.30549
7811140,-0.07500,65.4375,112,67,0.30549
7811150,-0.06500,65.5000,112,67,0.30379
7811160,-0.05500,65.8750,112,67,0.30134
7811170,-0.03500,68.1875,112,67,0.29621
7811180,-0.01500,70.2500,112,67,0.29353
7811190,0.00000,72.8750,112,67,0.29109
7811200,0.02000,79.3750,112,67,0.28913
7811210,0.05000,83.0000,112,67,0.28547
7811220,0.07000,86.6875,112,67,0.28400
7811230,0.10000,90.3125,112,67,0.28352
7811240,0.13500,97.0000,112,67,0.28278
7811250,0.16000,99.8750,112,67,0.28181
7811260,0.20000,102.3125,112,67,0.28083
7811270,0.22500,104.4375,112,67,0.28034
7811280,0.25000,107.4375,112,67,0.28010
7811290,0.26500,108.4375,112,67,0.28059
7811300,0.25000,109.1250,112,67,0.28083
7811310,0.21500,109.5000,112,67,0.28132
7811320,0.15000,109.5625,112,67,0.28278
7811330,0.07500,109.3125,112,67,0.28376
7811340,0.03500,108.8125,112,67,0.28400
7811350,0.01000,108.1250,112,67,0.28400
7811360,-0.00500,106.2500,112,67,0.28400
7811370,-0.04000,105.1250,112,67,0.28425
7811380,-0.08500,103.8750,112,67,0.28449
7811390,-0.10000,102.4375,112,67,0.28498
7811400,-0.10500,100.9375,112,67,0.28571
7811410,-0.10500,97.3750,112,67,0.28938
7811420,-0.11000,95.4375,112,67,0.29353
7811430,-0.11500,93.4375,112,67,0.29939
7811440,-0.11500,91.3125,112,67,0.30745
7811450,-0.11500,87.4375,112,67,0.33431
7811460,-0.11000,85.8125,112,67,0.35360
7811470,-0.11000,84.5625,112,67,0.37656
7811480,-0.10500,83.5000,112,67,0.40220
7811490,-0.10500,82.0000,112,67,0.45812
7811500,-0.10500,81.4375,112,67,0.48669
7811510,-0.10000,81.1250,112,67,0.51477
7811520,-0.09500,80.6875,112,67,0.56264
7811530,-0.09500,80.5625,112,67,0.58046
7811540,-0.09500,80.5000,112,67,0.59902
7811550,-0.09500,80.4375,112,67,0.61612
7811560,-0.09500,80.3125,112,67,0.63150
7811570,-0.10000,80.0625,112,67,0.65543
7811580,-0.10000,79.8125,112,67,0.66422
7811590,-0.09500,79.6250,112,67,0.67082
7811600,-0.09500,79.0625,112,67,0.67717
7811610,-0.08500,78.7500,112,67,0.67741
7811620,-0.08000,78.4375,112,67,0.67570
7811630,-0.08500,78.3125,112,67,0.67550
7811640,-0.07500,78.0625,112,67,0.67204
7811650,-0.02500,77.3750,112,67,0.66056
7811660,0.01000,77.0000,112,67,0.65299
7811670,0.00500,76.6875,112,67,0.64396
7811680,0.01000,76.3125,112,67,0.63346
7811690,0.05000,75.6250,112,67,0.60879
7811700,0.06000,75.3125,112,67,0.59487
7811710,0.03000,75.0000,112,67,0.58022
7811720,-0.01000,74.3125,112,67,0.55018
7811730,-0.03000,73.9375,112,67,0.53700
7811740,-0.08500,73.6250,112,67,0.52503
7811750,-0.11500,73.2500,112,67,0.51258
7811760,-0.13000,72.5625,112,67,0.48913
7811770,-0.13000,72.2500,112,67,0.47912
7811780,-0.13500,72.0000,112,67,0.47009
7811790,-0.12500,71.7500,112,67,0.46227
7811800,-0.12500,71.7500,112,67,0.46227
7811810,-0.11500,70.9375,112,67,0.44518
7811820,-0.02000,70.6875,112,67,0.44078
7811830,0.35000,70.5000,112,67,0.43687
7811840,0.88500,70.1250,112,67,0.43175
7811850,0.75500,69.9375,112,67,0.42857
7811860,0.09000,69.7500,112,67,0.42540
7811870,-0.29000,69.5625,112,67,0.42198
7811880,-0.23500,69.4375,112,67,0.41832
7811890,-0.19000,69.1875,112,67,0.41050
7811900,-0.18000,69.0000,112,67,0.40684
7811910,-0.18000,68.8750,112,67,0.40317
7811920,-0.17000,68.6875,112,67,0.39927
7811930,-0.16500,68.3125,112,67,0.39219
7811940,-0.16000,68.1250,112,67,0.38950
7811950,-0.16000,67.8750,112,67,0.38632
7811960,-0.15000,67.4375,112,67,0.37949
7811970,-0.14500,67.1875,112,67,0.37582
7811980,-0.13500,66.9375,112,67,0.37192
7811990,-0.13000,66.6875,112,67,0.36801
7812000,-0.11500,66.1250,112,67,0.35995
7812010,-0.10500,65.8750,112,67,0.35580
7812020,-0.09500,65.6250,112,67,0.35165
7812030,-0.08000,65.4375,112,67,0.34847
7812040,-0.07000,65.1875,112,67,0.34579
7812050,-0.05500,65.0000,112,67,0.33895
7812060,-0.03500,65.1875,112,67,0.33504
7812070,-0.02500,65.8125,112,67,0.33138
7812080,-0.00500,68.8125,112,67,0.32796
7812090,0.00500,71.3125,112,67,0.32210
7812100,0.02000,74.2500,112,67,0.31941
7812110,0.04000,77.5625,112,67,0.31673
7812120,0.06000,84.9375,112,67,0.31258
7812130,0.08000,88.6875,112,67,0.31160
7812140,0.10500,92.3125,112,67,0.31111
7812150,0.14000,95.7500,112,67,0.31013
7812160,0.16500,98.8750,112,67,0.30916
7812170,0.19500,104.1250,112,67,0.30672
7812180,0.22500,106.1250,112,67,0.30574
7812190,0.23500,107.7500,112,67,0.30525
7812200,0.24000,109.0000,112,67,0.30476
7812210,0.20500,110.5000,112,67,0.30427
7812220,0.15500,110.8750,112,67,0.30427
7812230,0.09000,111.0625,112,67,0.30452
7812240,0.02000,110.7500,112,67,0.30598
7812250,-0.02500,110.3125,112,67,0.30623
7812260,-0.05500,109.6875,112,67,0.30647
7812270,-0.08500,108.8125,112,67,0.30672
7812280,-0.09500,107.8750,112,67,0.30720
7812290,-0.10500,105.4375,112,67,0.30769
7812300,-0.11000,104.0000,112,67,0.30818
7812310,-0.11500,102.4375,112,67,0.30891
7812320,-0.11500,100.7500,112,67,0.31038
7812330,-0.11500,97.0625,112,67,0.31770
7812340,-0.11500,95.0625,112,67,0.32405
7812350,-0.11500,93.0000,112,67,0.33382
7812360,-0.12000,89.3125,112,67,0.36459
7812370,-0.12000,87.7500,112,67,0.38584
7812380,-0.12000,86.5000,112,67,0.41026
7812390,-0.11500,85.4375,112,67,0.43736
7812400,-0.11500,84.5625,112,67,0.46642
7812410,-0.11000,83.2500,112,67,0.52601
7812420,-0.11000,82.8125,112,67,0.55458
7812430,-0.10500,82.5000,112,67,0.57802
7812440,-0.10500,82.0625,112,67,0.61783
7812450,-0.10500,81.9375,112,67,0.63687
7812460,-0.10500,81.8125,112,67,0.65421
7812470,-0.10500,81.6875,112,67,0.66935
7812480,-0.10500,81.5000,112,67,0.68205
7812490,-0.10500,81.0000,112,67,0.70085
7812500,-0.10500,80.7500,112,67,0.70720
7812510,-0.10500,80.5000,112,67,0.71160
7812520,-0.10500,80.1875,112,67,0.71429
7812530,-0.09500,79.5000,112,67,0.71331
7812540,-0.07500,79.1250,112,67,0.70965
7812550,-0.05000,78.7500,112,67,0.70501
7812560,-0.02500,78.3750,112,67,0.69890
7812570,-0.01500,77.6875,112,67,0.68278
7812580,0.00500,77.3750,112,67,0.67253
7812590,0.03000,77.0000,112,67,0.66081
7812600,0.05500,76.3125,112,67,0.63370
7812610,0.04000,75.9375,112,67,0.61880
7812620,-0.00500,75.6250,112,67,0.60342
7812630,-0.03000,75.2500,112,67,0.58926
7812640,-0.06500,74.8750,112,67,0.57582
7812650,-0.11500,74.2500,112,67,0.54823
7812660,-0.13500,73.9375,112,67,0.53529
7812670,-0.14500,73.6250,112,67,0.52357
7812680,-0.14000,73.0000,112,67,0.50330
7812690,-0.13500,72.6875,112,67,0.49475
7812700,-0.12500,72.3750,112,67,0.48718
7812710,-0.11500,72.1250,112,67,0.48059
7812720,-0.08000,71.8750,112,67,0.47448
7812730,0.17000,71.3750,112,67,0.46422
7812740,0.78000,71.1250,112,67,0.46032
7812750,0.93500,70.8750,112,67,0.45617
7812760,0.42500,70.6875,112,67,0.45201
7812770,-0.24000,70.3125,112,67,0.44420
7812780,-0.25000,70.1250,112,67,0.44029
7812790,-0.19000,69.9375,112,67,0.43614
7812800,-0.19000,69.9375,112,67,0.43614
7812810,-0.18000,69.4375,112,67,0.42393
7812820,-0.18000,69.2500,112,67,0.42027
7812830,-0.18000,69.0625,112,67,0.41709
7812840,-0.17500,68.6875,112,67,0.41099
7812850,-0.17500,68.4375,112,67,0.40757
7812860,-0.16500,68.1875,112,67,0.40391
7812870,-0.15500,67.9375,112,67,0.39976
7812880,-0.14500,67.4375,112,67,0.39145
7812890,-0.14500,67.1875,112,67,0.38706
7812900,-0.13500,66.9375,112,67,0.38266
7812910,-0.13000,66.6875,112,67,0.37851
7812920,-0.12000,66.1250,112,67,0.37436
7812930,-0.11000,65.8750,112,67,0.36703
7812940,-0.10000,65.6250,112,67,0.36459
7812950,-0.09500,65.5000,112,67,0.36166
7812960,-0.07500,65.8125,112,67,0.35482
7812970,-0.06000,66.5625,112,67,0.35165
7812980,-0.04500,67.9375,112,67,0.34823
7812990,-0.02000,69.9375,112,67,0.34481
7813000,-0.00500,72.6250,113,67,0.34139
7813010,0.01500,79.2500,113,67,0.33504
7813020,0.04000,83.0000,113,67,0.33187
7813030,0.05500,86.8750,113,67,0.32967
7813040,0.08000,90.7500,113,67,0.32796
7813050,0.11000,97.9375,113,67,0.32454
7813060,0.13000,101.0625,113,67,0.32283
7813070,0.17000,103.8750,113,67,0.32137
7813080,0.19500,106.2500,113,67,0.32015
7813090,0.21500,109.8125,113,67,0.31819
7813100,0.22500,111.0000,113,67,0.31770
7813110,0.20500,111.8750,113,67,0.31746
7813120,0.17500,112.4375,113,67,0.31722
7813130,0.10000,112.9375,113,67,0.31697
7813140,0.05000,112.9375,113,67,0.31746
7813150,-0.00500,112.6875,113,67,0.31746
7813160,-0.04000,111.6250,113,67,0.31722
7813170,-0.07000,110.8750,113,67,0.30110
7813180,-0.08500,110.0000,113,67,0.29597
7813190,-0.09500,108.9375,113,67,0.29328
7813200,-0.10500,106.2500,113,67,0.29158
7813210,-0.11000,104.7500,113,67,0.29182
7813220,-0.11500,103.0625,113,67,0.29328
7813230,-0.11500,101.3125,113,67,0.29646
7813240,-0.11500,99.3750,113,67,0.30183
7813250,-0.11500,95.1875,113,67,0.32283
7813260,-0.11500,93.0000,113,67,0.33993
7813270,-0.11500,91.0000,113,67,0.36142
7813280,-0.11500,89.1875,113,67,0.38730
7813290,-0.11500,86.3750,113,67,0.44957
7813300,-0.11500,85.4375,113,67,0.48400
7813310,-0.11000,84.6250,113,67,0.51868
7813320,-0.10500,83.5625,113,67,0.58535
7813330,-0.10500,83.1875,113,67,0.61172
7813340,-0.10500,82.9375,113,67,0.63419
7813350,-0.10500,82.8125,113,67,0.65739
7813360,-0.10500,82.6875,113,67,0.67961
7813370,-0.10500,82.5000,113,67,0.71697
7813380,-0.10000,82.3750,113,67,0.73162
7813390,-0.09500,82.2500,113,67,0.74383
7813400,-0.09500,81.8125,113,67,0.75360
7813410,-0.09500,81.5000,113,67,0.76654
7813420,-0.09000,81.2500,113,67,0.76972
7813430,-0.07500,80.9375,113,67,0.76996
7813440,-0.04500,80.2500,113,67,0.76508
7813450,-0.02000,79.9375,113,67,0.76044
7813460,0.00500,79.5625,113,67,0.75409
7813470,0.02000,79.1875,113,67,0.74603
7813480,0.05000,78.8125,113,67,0.73626
7813490,0.10000,78.1250,113,67,0.71111
7813500,0.13500,77.7500,113,67,0.69621
7813510,0.12000,77.4375,113,67,0.68010
7813520,0.09000,77.1250,113,67,0.66276
7813530,0.06500,76.4375,113,67,0.62735
7813540,0.01000,76.0625,113,67,0.61123
7813550,-0.03000,75.7500,113,67,0.59414
7813560,-0.06500,75.1250,113,67,0.56117
7813570,-0.08000,74.8125,113,67,0.54628
7813580,-0.09500,74.5000,113,67,0.53260
7813590,-0.10500,74.2500,113,67,0.52039
7813600,-0.10500,73.9375,113,67,0.50965
7813610,-0.12000,73.4375,113,67,0.49231
7813620,-0.03500,73.1875,113,67,0.48498
7813630,0.24500,72.9375,113,67,0.47912
7813640,0.79500,72.7500,113,67,0.47399
7813650,0.89000,72.3125,113,67,0.46398
7813660,0.26500,72.1250,113,67,0.45958
7813670,-0.29000,71.9375,113,67,0.45519
7813680,-0.27000,71.7500,113,67,0.45055
7813690,-0.22000,71.4375,113,67,0.44127
7813700,-0.20500,71.2500,113,67,0.43639
7813710,-0.20500,71.0625,113,67,0.43126
7813720,-0.20000,70.8750,113,67,0.42613
7813730,-0.20000,70.5000,113,67,0.41685
7813740,-0.19000,70.2500,113,67,0.41319
7813750,-0.18500,70.0625,113,67,0.40904
7813760,-0.18000,69.8125,113,67,0.40513
7813770,-0.17500,69.2500,113,67,0.39707
7813780,-0.17500,69.0000,113,67,0.39292
7813790,-0.17000,68.6875,113,67,0.38877
7813800,-0.17000,68.6875,113,67,0.38877
7813810,-0.16000,67.8750,113,67,0.37607
7813820,-0.14500,67.6250,113,67,0.37192
7813830,-0.13500,67.4375,113,67,0.36850
7813840,-0.12500,67.1875,113,67,0.36215
7813850,-0.11500,67.3125,113,67,0.35849
7813860,-0.10500,67.7500,113,67,0.35458
7813870,-0.08500,68.6250,113,67,0.35092
7813880,-0.07500,70.1875,113,67,0.34725
7813890,-0.06500,75.3125,113,67,0.34017
7813900,-0.04500,78.6875,113,67,0.33675
7813910,-0.03000,82.3750,113,67,0.33358
7813920,-0.00500,86.3125,113,67,0.33040
7813930,0.01500,94.2500,113,67,0.32698
7813940,0.05000,98.0000,113,67,0.32527
7813950,0.07000,101.5625,113,67,0.32357
7813960,0.11000,107.5000,113,67,0.32063
7813970,0.13500,109.8125,113,67,0.31941
7813980,0.16500,111.7500,113,67,0.31844
7813990,0.18500,113.3125,113,67,0.31795
7814000,0.18500,114.5625,114,67,0.31770
7814010,0.16000,116.1250,114,67,0.31722
7814020,0.10000,116.5625,114,67,0.31697
7814030,0.05000,116.7500,114,67,0.31722
7814040,-0.01000,116.8125,114,67,0.31770
7814050,-0.07000,116.2500,114,67,0.31770
7814060,-0.09500,115.7500,114,67,0.31746
7814070,-0.12500,115.1250,114,67,0.31722
7814080,-0.14000,113.3125,114,67,0.31697
7814090,-0.14500,112.1250,114,67,0.31697
7814100,-0.15500,110.8125,114,67,0.31722
7814110,-0.15500,109.3125,114,67,0.31819
7814120,-0.15500,107.7500,114,67,0.32039
7814130,-0.15500,104.0625,114,67,0.33040
7814140,-0.15000,102.0000,114,67,0.33993
7814150,-0.15000,99.8750,114,67,0.35385
7814160,-0.14500,95.6875,114,67,0.37216
7814170,-0.14000,93.7500,114,67,0.42295
7814180,-0.13500,92.1250,114,67,0.45397
7814190,-0.13000,90.7500,114,67,0.48742
7814200,-0.12500,88.7500,114,67,0.55727
7814210,-0.11500,88.0625,114,67,0.59170
7814220,-0.10500,87.5000,114,67,0.62442
7814230,-0.10000,87.0625,114,67,0.65055
7814240,-0.10000,86.7500,114,67,0.67253
7814250,-0.09500,86.3750,114,67,0.71795
7814260,-0.10000,86.1875,114,67,0.73846
7814270,-0.10000,86.0000,114,67,0.75702
7814280,-0.10000,85.8125,114,67,0.77289
7814290,-0.10000,85.4375,114,67,0.79731
7814300,-0.09500,85.1875,114,67,0.80586
7814310,-0.09500,84.8750,114,67,0.81221
7814320,-0.09500,84.5625,114,67,0.81636
7814330,-0.09000,83.8125,114,67,0.81587
7814340,-0.08000,83.4375,114,67,0.81392
7814350,-0.05500,83.0625,114,67,0.81074
7814360,-0.02500,82.2500,114,67,0.79927
7814370,-0.01500,81.8750,114,67,0.79072
7814380,-0.00500,81.5000,114,67,0.78071
7814390,0.03000,81.1250,114,67,0.76899
7814400,0.05000,80.7500,114,67,0.75580
7814410,0.04000,80.0000,114,67,0.72527
7814420,0.00000,79.6875,114,67,0.70842
7814430,-0.02500,79.3125,114,67,0.69231
7814440,-0.06500,79.0000,114,67,0.67668
7814450,-0.12500,78.2500,114,67,0.64371
7814460,-0.15500,77.9375,114,67,0.62759
7814470,-0.16500,77.5625,114,67,0.61245
7814480,-0.16500,76.8750,114,67,0.58608
7814490,-0.16000,76.5625,114,67,0.57509
7814500,-0.15500,76.2500,114,67,0.56532
7814510,-0.15000,75.9375,114,67,0.55702
7814520,-0.13500,75.6875,114,67,0.55018
7814530,0.14500,75.1250,114,67,0.53968
7814540,0.60500,74.8750,114,67,0.53480
7814550,1.03500,74.6875,114,67,0.53016
7814560,0.64000,74.2500,114,67,0.52552
7814570,-0.18500,74.0625,114,67,0.51600
7814580,-0.28000,73.8750,114,67,0.51111
7814590,-0.23000,73.7500,114,67,0.50598
7814600,-0.21500,73.4375,114,67,0.49524
7814610,-0.21500,73.2500,114,67,0.48938
7814620,-0.21000,73.0625,114,67,0.48352
7814630,-0.21000,72.8750,114,67,0.47863
7814640,-0.20000,72.6875,114,67,0.47399
7814650,-0.19000,72.1875,114,67,0.46471
7814660,-0.18000,71.9375,114,67,0.46032
7814670,-0.17500,71.6875,114,67,0.45592
7814680,-0.17000,71.1875,114,67,0.44713
7814690,-0.16000,70.8750,114,67,0.44274
7814700,-0.15500,70.6250,114,67,0.43834
7814710,-0.15500,70.4375,114,67,0.43394
7814720,-0.14500,70.1875,114,67,0.42930
7814730,-0.14500,69.8125,114,67,0.42125
7814740,-0.13500,69.6875,114,67,0.41661
7814750,-0.11500,69.6875,114,67,0.41172
7814760,-0.10500,69.8750,114,67,0.40684
7814770,-0.09500,71.7500,114,67,0.39756
7814780,-0.07500,73.6875,114,67,0.39316
7814790,-0.06500,76.3125,114,67,0.38926
7814800,-0.06500,76.3125,114,67,0.38926
7814810,-0.02500,87.2500,114,67,0.37973
7814820,-0.00500,91.3125,114,67,0.37778
7814830,0.03000,95.3750,114,67,0.37656
7814840,0.05500,103.0000,114,67,0.37460
7814850,0.08000,106.4375,114,67,0.37363
7814860,0.11000,109.4375,114,67,0.37289
7814870,0.14000,112.0625,114,67,0.37241
7814880,0.15500,114.1875,114,67,0.37192
7814890,0.17000,117.3125,114,67,0.37070
7814900,0.17500,118.4375,114,67,0.37021
7814910,0.15000,119.2500,114,67,0.36996
7814920,0.12000,119.8125,114,67,0.36996
7814930,0.06500,120.3750,114,67,0.37070
7814940,-0.00500,120.3750,114,67,0.37094
7814950,-0.05500,120.1875,114,67,0.37118
7814960,-0.08500,119.3750,114,67,0.37118
7814970,-0.11500,118.6875,114,67,0.37143
7814980,-0.13500,117.8750,114,67,0.37192
7814990,-0.15000,116.9375,114,67,0.37216
7815000,-0.15500,114.5000,113,67,0.37265
7815010,-0.15500,113.0625,113,67,0.37387
7815020,-0.15500,111.4375,113,67,0.37631
7815030,-0.14500,109.6875,113,67,0.38022
7815040,-0.14500,105.7500,113,67,0.39634
7815050,-0.14000,103.6250,113,67,0.41074
7815060,-0.13500,101.4375,113,67,0.42979
7815070,-0.13000,99.3125,113,67,0.45324
7815080,-0.12500,95.6875,113,67,0.48107
7815090,-0.12000,94.3125,113,67,0.54505
7815100,-0.11000,93.1250,113,67,0.57900
7815110,-0.10500,92.1250,113,67,0.61245
7815120,-0.10000,90.8125,113,67,0.67106
7815130,-0.10000,90.3750,113,67,0.69304
7815140,-0.10000,90.0000,113,67,0.71624
7815150,-0.10000,89.7500,113,67,0.73846
7815160,-0.09500,89.5625,113,67,0.75849
7815170,-0.09500,89.1250,113,67,0.79170
7815180,-0.09000,88.8750,113,67,0.80464
7815190,-0.08500,88.6250,113,67,0.81538
7815200,-0.08500,88.3750,113,67,0.82418
7815210,-0.08500,87.6875,113,67,0.81319
7815220,-0.08500,87.3750,113,67,0.78242
7815230,-0.08000,86.9375,113,67,0.76532
7815240,-0.07000,86.5625,113,67,0.75482
7815250,-0.04500,85.6875,113,67,0.74286
7815260,-0.00500,85.2500,113,67,0.73724
7815270,0.01000,84.8125,113,67,0.73065
7815280,0.02000,84.4375,113,67,0.72259
7815290,0.05000,83.6250,113,67,0.70208
7815300,0.07500,83.2500,113,67,0.68938
7815310,0.09000,82.8125,113,67,0.67521
7815320,0.07000,82.3750,113,67,0.65983
7815330,0.04000,81.5000,113,67,0.62979
7815340,0.00500,81.0625,113,67,0.61392
7815350,-0.04500,80.6250,113,67,0.59756
7815360,-0.09000,80.1875,113,67,0.58169
7815370,-0.11500,79.2500,113,67,0.55238
7815380,-0.11500,78.8125,113,67,0.53968
7815390,-0.11500,78.3750,113,67,0.52845
7815400,-0.11000,77.9375,113,67,0.51868
7815410,-0.10000,77.1250,113,67,0.50232
7815420,-0.10500,76.6875,113,67,0.49573
7815430,-0.03500,76.3750,113,67,0.49011
7815440,0.43000,75.6875,113,67,0.47961
7815450,0.89500,75.3750,113,67,0.47448
7815460,1.00000,75.1250,113,67,0.46935
7815470,0.15500,74.8125,113,67,0.46398
7815480,-0.22000,74.3125,113,67,0.45299
7815490,-0.04000,115.8750,113,67,0.28718
7815500,-0.04000,115.8750,113,67,0.28718
7815510,-0.04000,115.8750,113,67,0.28718
7815520,-0.04000,115.8750,113,67,0.28718
7815530,-0.04000,115.8750,113,67,0.28718
7815540,-0.04000,115.8750,113,67,0.28718
7815550,-0.04000,115.8750,113,67,0.28718
7815560,-0.04000,115.8750,113,67,0.28718
7815570,-0.04000,115.8750,113,67,0.28718
7815580,-0.04000,115.8750,113,67,0.28718
7815590,-0.04000,115.8750,113,67,0.28718
7815600,-0.04000,115.8750,113,67,0.28718
7815610,-0.04000,115.8750,113,67,0.28718
7815620,-0.04000,115.8750,113,67,0.28718
7815630,-0.04000,115.8750,113,67,0.28718
7815640,-0.04000,115.8750,113,67,0.28718
7815650,-0.04000,115.8750,113,67,0.28718
7815660,-0.04000,115.8750,113,67,0.28718
7815670,-0.04000,115.8750,113,67,0.28718
7815680,-0.04000,115.8750,113,67,0.28718
7815690,-0.04000,115.8750,113,67,0.28718
7815700,-0.04000,115.8750,113,67,0.28718
7815710,-0.04000,115.8750,113,67,0.28718
7815720,-0.04000,115.8750,113,67,0.28718
7815730,-0.04000,115.8750,113,67,0.28718
7815740,-0.04000,115.8750,113,67,0.28718
7815750,-0.04000,115.8750,113,67,0.28718
7815760,-0.04000,115.8750,113,67,0.28718
7815770,-0.04000,115.8750,113,67,0.28718
7815780,-0.04000,115.8750,113,67,0.28718
7815790,-0.04000,115.8750,113,67,0.28718
7815800,-0.04000,115.8750,113,67,0.28718
7815810,-0.04000,115.8750,113,67,0.28718
7815820,-0.04000,115.8750,113,67,0.28718
7815830,-0.04000,115.8750,113,67,0.28718
7815840,-0.04000,115.8750,113,67,0.28718
7815850,-0.04000,115.8750,113,67,0.28718
7815860,-0.04000,115.8750,113,67,0.28718
7815870,-0.04000,115.8750,113,67,0.28718
7815880,-0.06000,115.1875,113,67,0.28596
7815890,-0.07500,113.2500,113,67,0.28303
7815900,-0.07500,112.0625,113,67,0.28132
7815910,-0.08000,110.6875,113,67,0.27985
7815920,-0.08000,107.5000,113,67,0.27863
7815930,0.02000,81.5000,113,67,0.60415
7815940,0.02000,81.5000,113,67,0.60415
7815950,0.02000,81.5000,113,67,0.60415
7815960,0.02000,81.5000,113,67,0.60415
7815970,0.02000,81.5000,113,67,0.60415
7815980,0.02000,81.5000,113,67,0.60415
7815990,0.02000,81.5000,113,67,0.60415
7816000,0.02000,81.5000,113,67,0.60415
7816010,0.02000,81.5000,113,67,0.60415
7816020,0.02000,81.5000,113,67,0.60415
7816030,0.02000,81.5000,113,67,0.60415
7816040,0.02000,81.5000,113,67,0.60415
7816050,0.02000,81.5000,113,67,0.60415
7816060,0.02000,81.5000,113,67,0.60415
7816070,0.02000,81.5000,113,67,0.60415
7816080,0.02000,81.5000,113,67,0.60415
7816090,0.02000,81.5000,113,67,0.60415
7816100,0.02000,81.5000,113,67,0.60415
7816110,0.02000,81.5000,113,67,0.60415
7816120,0.02000,81.5000,113,67,0.60415
7816130,0.02000,81.5000,113,67,0.60415
7816140,0.02000,81.5000,113,67,0.60415
7816150,0.02000,81.5000,113,67,0.60415
7816160,0.02000,81.5000,113,67,0.60415
7816170,0.02500,81.0625,113,67,0.59536
7816180,0.04000,80.6875,113,67,0.58510
7816190,0.08000,80.2500,113,67,0.57338
7816200,0.09500,79.8125,113,67,0.55995
7816210,0.07000,79.0000,113,67,0.52918
7816220,0.02000,78.6250,113,67,0.51404
7816230,0.00000,78.1875,113,67,0.49890
7816240,-0.04500,77.8125,113,67,0.48205
7816250,-0.09500,77.0625,113,67,0.44737
7816260,-0.11000,76.6875,113,67,0.43077
7816270,-0.11500,76.3125,113,67,0.41514
7816280,-0.11500,75.9375,113,67,0.40049
7816290,-0.11500,75.3125,113,67,0.37534
7816300,-0.10500,75.0000,113,67,0.36459
7816310,-0.09500,74.6875,113,67,0.35482
7816320,-0.04000,74.3750,113,67,0.34628
7816330,0.25000,73.8125,113,67,0.33382
7816340,0.75500,73.5625,113,67,0.32821
7816350,0.77500,73.3750,113,67,0.32234
7816360,0.25500,73.1875,113,67,0.31673
7816370,-0.25000,72.8125,113,67,0.30525
7816380,-0.24000,72.6250,113,67,0.29939
7816390,-0.18000,72.3750,113,67,0.29353
7816400,-0.17000,72.1875,113,67,0.28791
7816410,-0.17000,71.6875,113,67,0.27717
7816420,-0.17000,71.4375,113,67,0.27350
7816430,-0.16000,71.1875,113,67,0.27033
7816440,-0.15500,70.9375,113,67,0.26618
7816450,-0.14500,70.3750,113,67,0.25763
7816460,-0.14000,70.1250,113,67,0.25299
7816470,-0.13500,69.8125,113,67,0.24835
7816480,-0.12500,69.1875,113,67,0.24347
7816490,-0.11000,68.8750,113,67,0.23394
7816500,-0.10500,68.6250,113,67,0.22930
7816510,-0.09000,68.3750,113,67,0.22466
7816520,-0.07500,67.8750,113,67,0.21685
7816530,-0.06000,67.6250,113,67,0.21416
7816540,-0.04500,67.4375,113,67,0.21026
7816550,-0.03000,67.2500,113,67,0.20586
7816560,-0.01500,67.3750,113,67,0.19707
7816570,-0.00500,67.8750,113,67,0.19292
7816580,0.00000,68.9375,113,67,0.18901
7816590,0.02000,70.6875,113,67,0.18535
7816600,0.03000,73.0000,113,67,0.18193
7816610,0.05000,79.0625,113,67,0.17582
7816620,0.07000,82.6250,113,67,0.17436
7816630,0.09000,86.2500,113,67,0.17387
7816640,0.11500,89.9375,113,67,0.17265
7816650,0.14000,96.8750,113,67,0.16899
7816660,0.17500,100.0000,113,67,0.16728
7816670,0.20500,102.8125,113,67,0.16532
7816680,0.24500,107.1875,113,67,0.16190
7816690,0.26000,108.7500,113,67,0.16044
7816700,0.26000,109.9375,113,67,0.15971
7816710,0.23500,110.7500,113,67,0.15897
7816720,0.18000,111.2500,113,67,0.15849
7816730,0.11000,111.4375,113,67,0.16044
7816740,0.03000,111.1875,113,67,0.16117
7816750,-0.00500,110.7500,113,67,0.16142
7816760,-0.04500,109.3125,113,67,0.16166
7816770,-0.06500,108.3750,113,67,0.16264
7816780,-0.08500,107.2500,113,67,0.16313
7816790,-0.09000,106.0000,113,67,0.16386
7816800,-0.09000,106.0000,113,67,0.16386
7816810,-0.10000,101.3125,113,67,0.16630
7816820,-0.09500,99.5000,113,67,0.16850
7816830,-0.09500,97.5000,113,67,0.17192
7816840,-0.09500,93.3125,113,67,0.18315
7816850,-0.09500,91.3125,113,67,0.19292
7816860,-0.10000,89.5000,113,67,0.20635
7816870,-0.09500,88.0000,113,67,0.22369
7816880,-0.09000,86.6875,113,67,0.24469
7816890,-0.08500,84.7500,113,67,0.29646
7816900,-0.08000,84.0000,113,67,0.32552
7816910,-0.07000,83.4375,113,67,0.35531
7816920,-0.07000,82.9375,113,67,0.38486
7816930,-0.06500,82.3750,113,67,0.43199
7816940,-0.07000,82.1875,113,67,0.45519
7816950,-0.07000,82.1250,113,67,0.47741
7816960,-0.07500,81.9375,113,67,0.51575
7816970,-0.07500,81.8125,113,67,0.53114
7816980,-0.07500,81.6250,113,67,0.54383
7816990,-0.07500,81.4375,113,67,0.55409
7817000,-0.07500,81.1250,113,67,0.56190
7817010,-0.07000,80.5625,113,67,0.57021
7817020,-0.06500,80.1875,113,67,0.57094
7817030,-0.06000,79.8750,113,67,0.56996
7817040,-0.03500,79.1875,113,67,0.56410
7817050,-0.01500,78.8125,113,67,0.55873
7817060,0.00000,78.5000,113,67,0.55140
7817070,0.00000,78.1250,113,67,0.54261
7817080,0.02500,77.4375,113,67,0.52088
7817090,0.05000,77.1250,113,67,0.50818
7817100,0.06000,76.7500,113,67,0.49451
7817110,0.02000,76.4375,113,67,0.48010
7817120,-0.01500,76.1250,113,67,0.46545
7817130,-0.04500,75.5000,113,67,0.44029
7817140,-0.08500,75.1250,113,67,0.42735
7817150,-0.13000,74.8125,113,67,0.41441
7817160,-0.15000,74.5000,113,67,0.40171
7817170,-0.15500,73.8125,113,67,0.37827
7817180,-0.15500,73.5000,113,67,0.36801
7817190,-0.15000,73.2500,113,67,0.35897
7817200,-0.14500,72.9375,113,67,0.35140
7817210,-0.12500,72.4375,113,67,0.33968
7817220,-0.05000,72.1875,113,67,0.33602
7817230,0.28500,71.9375,113,67,0.33358
7817240,0.78500,71.7500,113,67,0.33089
7817250,0.79500,71.3125,113,67,0.32552
7817260,0.14000,71.1250,113,67,0.33919
7817270,-0.30000,70.8750,113,67,0.36142
7817280,-0.26000,70.6875,113,67,0.37118
7817290,-0.20000,70.3125,113,67,0.37460
7817300,-0.19000,70.1250,113,67,0.37314
7817310,-0.19000,69.9375,113,67,0.37118
7817320,-0.18000,69.5000,113,67,0.36679
7817330,-0.18000,69.2500,113,67,0.36508
7817340,-0.17500,69.0625,113,67,0.36288
7817350,-0.17000,68.8125,113,67,0.36044
7817360,-0.16500,68.5625,113,67,0.35800
7817370,-0.16000,68.0625,113,67,0.35214
7817380,-0.15500,67.8125,113,67,0.34921
7817390,-0.14500,67.5000,113,67,0.34603
7817400,-0.14000,67.2500,113,67,0.34286
7817410,-0.12500,66.7500,113,67,0.33700
7817420,-0.11500,66.5000,113,67,0.33504
7817430,-0.10500,66.3125,113,67,0.33333
7817440,-0.08500,65.9375,113,67,0.32845
7817450,-0.07500,65.8750,113,67,0.32552
7817460,-0.06000,66.0625,113,67,0.32259
7817470,-0.04000,66.6875,113,67,0.31917
7817480,-0.02500,67.7500,113,67,0.31600
7817490,-0.00500,71.8125,113,67,0.30965
7817500,0.01000,74.7500,113,67,0.30647
7817510,0.04000,78.0625,113,67,0.30354
7817520,0.06000,81.6250,113,67,0.30159
7817530,0.08500,89.0000,113,67,0.29866
7817540,0.12000,92.6250,113,67,0.29719
7817550,0.14500,96.0000,113,67,0.29573
7817560,0.16500,99.1250,113,67,0.29451
7817570,0.20500,104.3750,113,67,0.29231
7817580,0.24500,106.3750,113,67,0.29133
7817590,0.25500,108.0000,113,67,0.29035
7817600,0.25500,109.2500,113,67,0.28962
7817610,0.21500,110.7500,113,67,0.28864
7817620,0.16500,111.1250,113,67,0.28889
7817630,0.10500,111.1875,113,67,0.28962
7817640,0.03000,110.7500,113,67,0.28962
7817650,-0.00500,110.3125,113,67,0.28938
7817660,-0.04500,109.6250,113,67,0.28938
7817670,-0.07500,108.8125,113,67,0.28938
7817680,-0.09000,107.8125,113,67,0.28938
7817690,-0.10500,105.1875,113,67,0.28938
7817700,-0.11500,103.6875,113,67,0.28962
7817710,-0.11500,102.1250,113,67,0.28987
7817720,-0.12000,100.3750,113,67,0.29109
7817730,-0.12500,96.5000,113,67,0.29670
7817740,-0.12500,94.4375,113,67,0.30183
7817750,-0.12500,92.3750,113,67,0.30940
7817760,-0.11500,88.8750,113,67,0.33358
7817770,-0.11500,87.4375,113,67,0.35043
7817780,-0.11500,86.2500,113,67,0.37021
7817790,-0.11500,85.3125,113,67,0.39243
7817800,-0.11500,85.3125,113,67,0.39243
7817810,-0.10500,83.3750,113,67,0.46447
7817820,-0.10000,82.9375,113,67,0.48523
7817830,-0.09500,82.6250,113,67,0.50330
7817840,-0.09500,82.1875,113,67,0.54017
7817850,-0.10000,82.0000,113,67,0.55678
7817860,-0.10000,81.8125,113,67,0.57143
7817870,-0.10500,81.6250,113,67,0.58413
7817880,-0.10500,81.4375,113,67,0.59487
7817890,-0.10500,80.9375,113,67,0.61026
7817900,-0.10500,80.6250,113,67,0.61538
7817910,-0.10500,80.3125,113,67,0.61905
7817920,-0.10500,79.6875,113,67,0.62002
7817930,-0.09500,79.3750,113,67,0.61880
7817940,-0.07500,79.0000,113,67,0.61661
7817950,-0.04500,78.6875,113,67,0.61319
7817960,-0.02500,77.9375,113,67,0.60220
7817970,-0.01500,77.6250,113,67,0.59487
7817980,0.01000,77.3125,113,67,0.58681
7817990,0.05000,76.9375,113,67,0.57753
7818000,0.06000,76.6250,113,67,0.56703
7818010,0.03000,75.9375,113,67,0.54335
7818020,-0.01000,75.5625,113,67,0.53211
7818030,-0.03500,75.2500,113,67,0.52161
7818040,-0.07500,74.8750,113,67,0.51013
7818050,-0.12500,74.2500,113,67,0.48742
7818060,-0.14500,73.9375,113,67,0.47717
7818070,-0.14500,73.6250,113,67,0.46764
7818080,-0.14500,73.0625,113,67,0.45885
7818090,-0.14000,72.8125,113,67,0.44420
7818100,-0.13500,72.5000,113,67,0.43810
7818110,-0.13000,72.2500,113,67,0.43248
7818120,-0.04500,72.0000,113,67,0.42833
7818130,0.30000,71.5625,113,67,0.42125
7818140,0.81000,71.3750,113,67,0.41758
7818150,0.78500,71.1875,113,67,0.41416
7818160,-0.02500,70.8125,113,67,0.40757
7818170,-0.29500,70.6250,113,67,0.40440
7818180,-0.25000,70.4375,113,67,0.40122
7818190,-0.20000,70.2500,113,67,0.39805
7818200,-0.19000,70.1250,113,67,0.39512
7818210,-0.18500,69.7500,113,67,0.38852
7818220,-0.18000,69.5625,113,67,0.38584
7818230,-0.17500,69.3125,113,67,0.38364
7818240,-0.17000,68.8125,113,67,0.37753
7818250,-0.16500,68.5625,113,67,0.37436
7818260,-0.16000,68.3125,113,67,0.37118
7818270,-0.15500,68.0625,113,67,0.36801
7818280,-0.14500,67.5000,113,67,0.36190
7818290,-0.13500,67.2500,113,67,0.35873
7818300,-0.13000,67.0000,113,67,0.35580
7818310,-0.11500,66.6875,113,67,0.35263
7818320,-0.10500,66.4375,113,67,0.35018
7818330,-0.09500,66.0000,113,67,0.34530
7818340,-0.09000,65.8750,113,67,0.34237
7818350,-0.07500,65.7500,113,67,0.33944
7818360,-0.06000,66.3750,113,67,0.33358
7818370,-0.04500,67.3750,113,67,0.33065
7818380,-0.03500,69.0625,113,67,0.32772
7818390,-0.01500,71.3125,113,67,0.32479
7818400,0.00000,74.1875,113,67,0.32210
7818410,0.03000,81.1250,113,67,0.31673
7818420,0.05000,84.9375,113,67,0.31477
7818430,0.08000,88.7500,113,67,0.31355
7818440,0.11500,96.1250,113,67,0.31038
7818450,0.13500,99.5000,113,67,0.30891
7818460,0.16500,102.5000,113,67,0.30745
7818470,0.20500,105.0625,113,67,0.30598
7818480,0.22500,107.3125,113,67,0.30452
7818490,0.24500,110.5000,113,67,0.30232
7818500,0.24500,111.5625,113,67,0.30159
7818510,0.22000,112.3125,113,67,0.30085
7818520,0.16500,112.8125,113,67,0.30085
7818530,0.10000,113.1250,113,67,0.30134
7818540,0.02500,112.9375,113,67,0.30110
7818550,-0.01000,112.5000,113,67,0.30061
7818560,-0.05500,111.1875,113,67,0.30012
7818570,-0.07000,110.2500,113,67,0.30012
7818580,-0.08500,109.1250,113,67,0.30012
7818590,-0.09000,107.8125,113,67,0.30012
7818600,-0.09500,104.8125,113,67,0.30012
7818610,-0.10000,103.1250,113,67,0.30085
7818620,-0.10500,101.2500,113,67,0.30256
7818630,-0.10500,99.3125,113,67,0.30549
7818640,-0.10500,97.2500,113,67,0.31013
7818650,-0.10500,93.1250,113,67,0.32723
7818660,-0.10500,91.2500,113,67,0.34066
7818670,-0.10000,89.6250,113,67,0.35726
7818680,-0.10000,88.2500,113,67,0.37656
7818690,-0.09500,86.1875,113,67,0.42247
7818700,-0.09000,85.3750,113,67,0.44713
7818710,-0.08500,84.7500,113,67,0.47204
7818720,-0.08500,84.3125,113,67,0.49353
7818730,-0.08500,83.6875,113,67,0.53211
7818740,-0.08500,83.5000,113,67,0.55116
7818750,-0.08500,83.3125,113,67,0.56874
7818760,-0.08000,82.9375,113,67,0.59756
7818770,-0.08000,82.7500,113,67,0.60904
7818780,-0.08500,82.5625,113,67,0.61856
7818790,-0.08500,82.3125,113,67,0.62613
7818800,-0.08500,82.3125,113,67,0.62613
7818810,-0.09000,81.4375,113,67,0.63834
7818820,-0.08500,81.0625,113,67,0.63858
7818830,-0.07500,80.7500,113,67,0.63712
7818840,-0.04500,80.0000,113,67,0.63175
7818850,-0.02000,79.6250,113,67,0.62759
7818860,-0.00500,79.2500,113,67,0.62198
7818870,0.01000,78.8750,113,67,0.61514
7818880,0.03000,78.4375,113,67,0.60733
7818890,0.06500,77.6875,113,67,0.58803
7818900,0.06500,77.3125,113,67,0.57705
7818910,0.03000,76.9375,113,67,0.56532
7818920,-0.01500,76.1875,113,67,0.54335
7818930,-0.04500,75.8125,113,67,0.53187
7818940,-0.08500,75.4375,113,67,0.52039
7818950,-0.11500,75.0625,113,67,0.50916
7818960,-0.13000,74.4375,113,67,0.48864
7818970,-0.13500,74.0625,113,67,0.47985
7818980,-0.13500,73.7500,113,67,0.47179
7818990,-0.13000,73.4375,113,67,0.46496
7819000,-0.13000,73.1875,114,67,0.45885
7819010,-0.11500,72.6875,114,67,0.44933
7819020,0.10000,72.4375,114,67,0.44591
7819030,0.48000,72.2500,114,67,0.44298
7819040,0.89500,72.0625,114,67,0.43980
7819050,0.60500,71.6875,114,67,0.43297
7819060,-0.07500,71.5625,114,67,0.42930
7819070,-0.30000,71.3750,114,67,0.42540
7819080,-0.23000,71.0000,114,67,0.42173
7819090,-0.20000,70.8125,114,67,0.41416
7819100,-0.19500,70.6250,114,67,0.41026
7819110,-0.19500,70.4375,114,67,0.40635
7819120,-0.19000,70.0625,114,67,0.40317
7819130,-0.18000,69.8125,114,67,0.39731
7819140,-0.17500,69.5625,114,67,0.39414
7819150,-0.17000,69.3750,114,67,0.39096
7819160,-0.16500,69.0625,114,67,0.38779
7819170,-0.15500,68.4375,114,67,0.38193
7819180,-0.15000,68.1250,114,67,0.37875
7819190,-0.13500,67.8125,114,67,0.37558
7819200,-0.13000,67.5625,114,67,0.37216
7819210,-0.11500,67.0000,114,67,0.36508
7819220,-0.09500,66.7500,114,67,0.36239
7819230,-0.08000,66.5625,114,67,0.36020
7819240,-0.07000,66.3750,114,67,0.35751
7819250,-0.05500,66.3750,114,67,0.35116
7819260,-0.04500,66.8750,114,67,0.34823
7819270,-0.03500,67.9375,114,67,0.34554
7819280,-0.01500,72.0000,114,67,0.34017
7819290,0.00000,74.9375,114,67,0.33748
7819300,0.01500,78.3750,114,67,0.33504
7819310,0.03500,82.0625,114,67,0.32747
7819320,0.05000,85.9375,114,67,0.31819
7819330,0.08000,93.7500,114,67,0.30891
7819340,0.10500,97.4375,114,67,0.30525
7819350,0.14000,100.8750,114,67,0.30208
7819360,0.16500,103.9375,114,67,0.29915
7819370,0.20500,108.8750,114,67,0.29377
7819380,0.22500,110.7500,114,67,0.29158
7819390,0.23000,112.1875,114,67,0.28962
7819400,0.21500,114.1250,114,67,0.28694
7819410,0.17500,114.6875,114,67,0.28694
7819420,0.12000,115.0000,114,67,0.28718
7819430,0.04000,115.0625,114,67,0.28694
7819440,-0.00500,114.8750,114,67,0.28620
7819450,-0.05000,114.0000,114,67,0.28449
7819460,-0.09000,113.3125,114,67,0.28425
7819470,-0.11000,112.4375,114,67,0.28400
7819480,-0.12500,111.4375,114,67,0.28400
7819490,-0.13500,108.8125,114,67,0.28400
7819500,-0.14000,107.3125,114,67,0.28400
7819510,-0.14500,105.6250,114,67,0.28474
7819520,-0.14500,103.8125,114,67,0.28694
7819530,-0.14500,99.8125,114,67,0.29646
7819540,-0.13500,97.6250,114,67,0.30574
7819550,-0.13500,95.5000,114,67,0.31941
7819560,-0.13500,91.6250,114,67,0.33773
7819570,-0.12500,90.0625,114,67,0.38950
7819580,-0.12500,88.8125,114,67,0.42149
7819590,-0.12500,87.7500,114,67,0.45592
7819600,-0.11500,86.2500,114,67,0.52723
7819610,-0.11500,85.8125,114,67,0.55751
7819620,-0.11500,85.4375,114,67,0.58388
7819630,-0.11500,85.1250,114,67,0.61148
7819640,-0.11000,84.9375,114,67,0.63785
7819650,-0.10500,84.6250,114,67,0.68352
7819660,-0.10500,84.5000,114,67,0.70208
7819670,-0.10500,84.3125,114,67,0.71770
7819680,-0.10500,84.0625,114,67,0.73089
7819690,-0.10500,83.5625,114,67,0.74945
7819700,-0.10500,83.3125,114,67,0.75507
7819710,-0.10500,83.0625,114,67,0.75849
7819720,-0.10500,82.3750,114,67,0.75897
7819730,-0.08500,82.0000,114,67,0.75556
7819740,-0.06500,81.6875,114,67,0.75263
7819750,-0.03000,81.3125,114,67,0.74799
7819760,-0.00500,80.6250,114,67,0.73382
7819770,0.00000,80.2500,114,67,0.72357
7819780,0.03000,79.8750,114,67,0.71111
7819790,0.06500,79.5000,114,67,0.69670
7819800,0.06500,79.5000,114,67,0.69670
7819810,0.02000,78.4375,114,67,0.64762
7819820,0.02000,78.4375,114,67,0.64762
7819830,-0.05500,77.7500,114,67,0.61441
7819840,-0.09500,77.0625,114,67,0.58022
7819850,-0.12500,76.6875,114,67,0.56508
7819860,-0.14000,76.3125,114,67,0.55165
7819870,-0.14000,76.0000,114,67,0.53993
7819880,-0.13500,75.3125,114,67,0.52112
7819890,-0.13500,75.0625,114,67,0.51355
7819900,-0.12500,74.8125,114,67,0.50672
7819910,-0.12000,74.5625,114,67,0.50037
7819920,0.08000,74.0625,114,67,0.49035
7819930,0.47500,73.8750,114,67,0.48596
7819940,0.97000,73.6875,114,67,0.48156
7819950,0.59000,73.5000,114,67,0.47717
7819960,0.01000,73.3750,114,67,0.47302
7819970,-0.27000,73.0000,114,67,0.46520
7819980,-0.23000,72.8750,114,67,0.46129
7819990,-0.20500,72.6875,114,67,0.45763
7820000,-0.20500,72.3750,114,67,0.45079
7820010,-0.20500,72.2500,114,67,0.44762
7820020,-0.20000,72.0625,114,67,0.44469
7820030,-0.19000,71.8750,114,67,0.44127
7820040,-0.18000,71.4375,114,67,0.43394
7820050,-0.17000,71.1875,114,67,0.43004
7820060,-0.17000,70.9375,114,67,0.42589
7820070,-0.16000,70.6875,114,67,0.42149
7820080,-0.15000,70.1250,114,67,0.41343
7820090,-0.14000,69.8125,114,67,0.40928
7820100,-0.13000,69.5625,114,67,0.40513
7820110,-0.11500,69.3125,114,67,0.40098
7820120,-0.10500,69.0625,114,67,0.39756
7820130,-0.09500,68.6875,114,67,0.39072
7820140,-0.08500,68.6250,114,67,0.38657
7820150,-0.06500,68.8125,114,67,0.38266
7820160,-0.05500,69.3750,114,67,0.37900
7820170,-0.04500,72.3750,114,67,0.37265
7820180,-0.02500,74.9375,114,67,0.37045
7820190,-0.01500,78.0625,114,67,0.36825
7820200,0.00000,81.6875,114,67,0.36606
7820210,0.02500,89.6875,114,67,0.36215
7820220,0.05000,93.7500,114,67,0.36093
7820230,0.07000,97.7500,114,67,0.35922
7820240,0.09500,101.5000,114,67,0.35775
7820250,0.12500,108.1250,114,67,0.35482
7820260,0.14500,110.8750,114,67,0.35385
7820270,0.17500,113.1875,114,67,0.35311
7820280,0.19500,116.5000,114,67,0.35238
7820290,0.20000,117.6250,114,67,0.35214
7820300,0.18500,118.4375,114,67,0.35214
7820310,0.14500,119.0000,114,67,0.35214
7820320,0.10000,119.3750,114,67,0.35287
7820330,0.04000,119.4375,114,67,0.35482
7820340,-0.01083,119.1875,114,67,0.35531
7820350,-0.05500,118.8125,114,67,0.35556
7820360,-0.09500,118.2500,114,67,0.35531
7820370,-0.12500,116.5625,114,67,0.35433
7820380,-0.13500,115.5625,114,67,0.35385
7820390,-0.14500,114.3125,114,67,0.35360
7820400,-0.15500,111.5000,114,67,0.35409
7820410,-0.16000,109.8125,114,67,0.35580
7820420,-0.16000,108.0000,114,67,0.35946
7820430,-0.15500,106.0000,114,67,0.36581
7820440,-0.14500,103.8750,114,67,0.37607
7820450,-0.14500,99.4375,114,67,0.41026
7820460,-0.13500,97.2500,114,67,0.43419
7820470,-0.13000,95.2500,114,67,0.46227
7820480,-0.12500,92.1250,114,67,0.49353
7820490,-0.12000,91.0000,114,67,0.56142
7820500,-0.12000,90.0625,114,67,0.59585
7820510,-0.11500,89.3125,114,67,0.62882
7820520,-0.11000,88.3125,114,67,0.67863
7820530,-0.10500,88.0000,114,67,0.70281
7820540,-0.10500,87.8125,114,67,0.72601
7820550,-0.10500,87.6250,114,67,0.74725
7820560,-0.10500,87.2500,114,67,0.78266
7820570,-0.10500,87.0625,114,67,0.79658
7820580,-0.10500,86.8125,114,67,0.80830
7820590,-0.10500,86.6250,114,67,0.81758
7820600,-0.10500,86.3750,114,67,0.82442
7820610,-0.09500,85.7500,114,67,0.83101
7820620,-0.09500,85.4375,114,67,0.83053
7820630,-0.08500,85.0625,114,67,0.82979
7820640,-0.05000,84.3125,114,67,0.82515
7820650,-0.03000,83.9375,114,67,0.82051
7820660,-0.00500,83.5625,114,67,0.81441
7820670,0.00500,83.1875,114,67,0.80635
7820680,0.03000,82.7500,114,67,0.79658
7820690,0.05500,82.0625,114,67,0.77167
7820700,0.05000,81.6875,114,67,0.75678
7820710,0.03000,81.3125,114,67,0.74066
7820720,0.00000,80.9375,114,67,0.72503
7820730,-0.04500,80.1875,114,67,0.69304
7820740,-0.09000,79.8750,114,67,0.67643
7820750,-0.12500,79.5000,114,67,0.66032
7820760,-0.14500,78.8125,114,67,0.63101
7820770,-0.14500,78.5000,114,67,0.61807
7820780,-0.14500,78.2500,114,67,0.60611
7820790,-0.13500,77.9375,114,67,0.59536
7820800,-0.13500,77.9375,114,67,0.59536
7820810,-0.13500,77.1250,114,67,0.56947
7820820,0.07500,76.9375,114,67,0.56337
7820830,0.49000,76.6875,114,67,0.55727
7820840,1.04000,76.5000,114,67,0.55165
7820850,0.66500,76.1250,114,67,0.54139
7820860,0.04000,75.9375,114,67,0.53651
7820870,-0.27000,75.7500,114,67,0.53187
7820880,-0.22500,75.5625,114,67,0.52723
7820890,-0.20500,75.2500,114,67,0.51819
7820900,-0.21000,75.0000,114,67,0.51380
7820910,-0.21000,74.8125,114,67,0.50965
7820920,-0.20000,74.3750,114,67,0.50208
7820930,-0.20000,74.0625,114,67,0.49768
7820940,-0.19500,73.8125,114,67,0.49328
7820950,-0.18000,73.5000,114,67,0.48889
7820960,-0.17000,73.1875,114,67,0.48449
7820970,-0.16000,72.6250,114,67,0.47570
7820980,-0.15000,72.3750,114,67,0.47179
7820990,-0.13500,72.0625,114,67,0.46789
7821000,-0.12500,71.5000,114,67,0.46032
7821010,-0.11000,71.3125,114,67,0.45690
7821020,-0.10500,71.1250,114,67,0.45397
7821030,-0.09500,70.9375,114,67,0.45104
7821040,-0.08500,70.8750,114,67,0.44786
7821050,-0.07500,71.5625,114,67,0.44151
7821060,-0.06000,72.6875,114,67,0.43834
7821070,-0.04500,74.5625,114,67,0.43541
7821080,-0.02500,77.1875,114,67,0.43248
7821090,-0.00500,84.1875,114,67,0.42711
7821100,0.01000,88.2500,114,67,0.42418
7821110,0.02000,92.4375,114,67,0.42198
7821120,0.05000,100.7500,114,67,0.42027
7821130,0.08000,104.6875,114,67,0.41709
7821140,0.10500,108.2500,114,67,0.41587
7821150,0.13000,111.3750,114,67,0.41465
7821160,0.16000,114.1250,114,67,0.41368
7821170,0.18500,118.2500,114,67,0.41148
7821180,0.21000,119.6875,114,67,0.41026
7821190,0.22500,120.7500,114,67,0.40928
7821200,0.21500,121.5625,114,67,0.40806
7821210,0.17000,122.4375,114,67,0.40659
7821220,0.12500,122.6250,114,67,0.40635
7821230,0.06000,122.5625,114,67,0.40586
7821240,0.00000,121.9375,114,67,0.40464
7821250,-0.03500,121.4375,114,67,0.40366
7821260,-0.07000,120.6875,114,67,0.40293
7821270,-0.09500,119.8750,114,67,0.40269
7821280,-0.10500,118.8125,114,67,0.40220
7821290,-0.11500,116.2500,114,67,0.40220
7821300,-0.12000,114.7500,114,67,0.40269
7821310,-0.12000,113.0625,114,67,0.40391
7821320,-0.11500,111.1875,114,67,0.40659
7821330,-0.11000,107.0000,114,67,0.42076
7821340,-0.10500,104.6875,114,67,0.43419
7821350,-0.10500,102.3125,114,67,0.45226
7821360,-0.10000,100.0625,114,67,0.46154
7821370,-0.09500,96.1875,114,67,0.48571
7821380,-0.09000,94.6250,114,67,0.51087
7821390,-0.08500,93.2500,114,67,0.53919
7821400,-0.08500,92.1875,114,67,0.56850
7821410,-0.08500,90.6250,114,67,0.62076
7821420,-0.07500,90.1250,114,67,0.64054
7821430,-0.07500,89.6875,114,67,0.66129
7821440,-0.07500,89.3750,114,67,0.68132
7821450,-0.07000,88.8750,114,67,0.71526
7821460,-0.07500,88.6250,114,67,0.72943
7821470,-0.07500,88.3750,114,67,0.74115
7821480,-0.07000,87.7500,114,67,0.75897
7821490,-0.06500,87.4375,114,67,0.76508
7821500,-0.06500,87.0625,114,67,0.76923
7821510,-0.06500,86.6875,114,67,0.77070
7821520,-0.06000,85.8125,114,67,0.77021
7821530,-0.04500,85.3750,114,67,0.76801
7821540,-0.02500,84.8750,114,67,0.76508
7821550,0.00000,84.4375,114,67,0.76068
7821560,0.02500,83.5000,114,67,0.74701
7821570,0.03000,83.0000,114,67,0.73748
7821580,0.05000,82.5625,114,67,0.72650
7821590,0.08500,82.1250,114,67,0.71429
7821600,0.10000,81.2500,114,67,0.68547
7821610,0.07500,80.8125,114,67,0.67131
7821620,0.04500,80.3125,114,67,0.65714
7821630,0.01000,79.8750,114,67,0.64176
7821640,-0.03000,79.4375,114,67,0.62613
7821650,-0.07000,78.5625,114,67,0.59585
7821660,-0.09500,78.1875,114,67,0.58144
7821670,-0.09500,77.8125,114,67,0.56801
7821680,-0.09500,77.0625,114,67,0.54457
7821690,-0.09000,76.7500,114,67,0.53431
7821700,-0.08000,76.3750,114,67,0.52527
7821710,-0.06500,76.0625,114,67,0.51770
7821720,0.09000,75.5625,114,67,0.50452
7821730,0.43500,75.3125,114,67,0.49817
7821740,0.95500,75.0625,114,67,0.49206
7821750,0.72500,74.8125,114,67,0.48620
7821760,0.13000,74.6250,114,67,0.48059
7821770,-0.22500,74.1875,114,67,0.46911
7821780,-0.17000,74.0000,114,67,0.46300
7821790,-0.14500,73.8125,114,67,0.45690
7821800,-0.14500,73.8125,114,67,0.45690
7821810,-0.14500,73.1250,114,67,0.43785
7821820,-0.14000,72.8750,114,67,0.43223
7821830,-0.13500,72.6250,114,67,0.42613
7821840,-0.13000,72.3750,114,67,0.42002
7821850,-0.12500,71.7500,114,67,0.40708
7821860,-0.12500,71.4375,114,67,0.40049
7821870,-0.11500,71.1250,114,67,0.39390
7821880,-0.11000,70.8125,114,67,0.38706
7821890,-0.10500,70.1875,114,67,0.37314
7821900,-0.09000,69.8750,114,67,0.36630
7821910,-0.08500,69.5625,114,67,0.36068
7821920,-0.07500,69.2500,114,67,0.35580
7821930,-0.05500,68.8125,114,67,0.34481
7821940,-0.04500,68.6250,114,67,0.33871
7821950,-0.03500,68.5625,114,67,0.33236
7821960,-0.02500,69.4375,114,67,0.32015
7821970,-0.01500,70.7500,114,67,0.31429
7821980,0.00000,72.7500,114,67,0.30842
7821990,0.01500,75.3750,114,67,0.30305
7822000,0.02500,78.5000,114,67,0.29768
7822010,0.04500,85.8750,114,67,0.28889
7822020,0.07000,89.8125,114,67,0.28596
7822030,0.08500,93.7500,114,67,0.28230
7822040,0.11500,97.5625,114,67,0.27863
7822050,0.14500,104.4375,114,67,0.27082
7822060,0.17000,107.3750,114,67,0.26740
7822070,0.20500,109.8125,114,67,0.26447
7822080,0.23000,111.8125,114,67,0.26203
7822090,0.24500,114.5625,114,67,0.25836
7822100,0.24000,115.4375,114,67,0.25641
7822110,0.21000,116.0625,114,67,0.25543
7822120,0.14500,116.4375,114,67,0.25324
7822130,0.09500,116.3125,114,67,0.25153
7822140,0.03500,115.9375,114,67,0.25006
7822150,-0.01000,115.4375,114,67,0.24884
7822160,-0.04000,114.6875,114,67,0.24762
7822170,-0.06000,112.8125,114,67,0.24591
7822180,-0.07500,111.6250,114,67,0.24518
7822190,-0.08500,110.2500,114,67,0.24469
7822200,-0.08500,108.6875,114,67,0.24420
7822210,-0.09000,105.1875,114,67,0.24493
7822220,-0.09000,103.2500,114,67,0.24713
7822230,-0.08500,101.1250,114,67,0.25031
7822240,-0.08500,96.7500,114,67,0.25568
7822250,-0.08000,94.6250,114,67,0.27643
7822260,-0.08000,92.6875,114,67,0.29304
7822270,-0.08000,91.0625,114,67,0.31380
7822280,-0.07500,89.6875,114,67,0.33846
7822290,-0.07500,87.6250,114,67,0.39463
7822300,-0.07500,86.8750,114,67,0.42418
7822310,-0.07500,86.3125,114,67,0.44982
7822320,-0.07500,85.8125,114,67,0.47277
7822330,-0.07500,85.2500,114,67,0.52063
7822340,-0.07500,85.0625,114,67,0.54212
7822350,-0.07500,84.9375,114,67,0.56117
7822360,-0.08000,84.6875,114,67,0.59170
7822370,-0.08000,84.5000,114,67,0.60317
7822380,-0.08500,84.3125,114,67,0.61197
7822390,-0.08500,84.0625,114,67,0.61856
7822400,-0.08500,83.8125,114,67,0.62344
7822410,-0.08500,83.1875,114,67,0.62662
7822420,-0.07500,82.8750,114,67,0.62491
7822430,-0.05000,82.5625,114,67,0.62222
7822440,-0.03000,82.1875,114,67,0.61832
7822450,-0.01000,81.4375,114,67,0.60586
7822460,-0.00500,81.0625,114,67,0.59756
7822470,0.02000,80.6875,114,67,0.58779
7822480,0.05000,79.8750,114,67,0.57631
7822490,0.06000,79.5000,114,67,0.54896
7822500,0.03000,79.1250,114,67,0.53333
7822510,-0.00500,78.7500,114,67,0.51868
7822520,-0.04500,78.0000,114,67,0.48864
7822530,-0.08000,77.6250,114,67,0.47253
7822540,-0.11500,77.2500,114,67,0.45665
7822550,-0.13500,76.8750,114,67,0.44176
7822560,-0.13500,76.5000,114,67,0.42784
7822570,-0.13500,75.7500,114,67,0.40391
7822580,-0.13500,75.4375,114,67,0.39390
7822590,-0.12500,75.1875,114,67,0.38510
7822600,-0.12000,74.8750,114,67,0.37729
7822610,-0.03500,74.3125,114,67,0.36484
7822620,0.31000,74.0625,114,67,0.36068
7822630,0.87000,73.8750,114,67,0.35629
7822640,0.77000,73.6250,114,67,0.35214
7822650,0.11000,73.2500,114,67,0.34481
7822660,-0.29000,73.0000,114,67,0.34139
7822670,-0.24500,72.8125,114,67,0.33773
7822680,-0.19500,72.4375,114,67,0.33382
7822690,-0.18500,72.1875,114,67,0.32650
7822700,-0.18000,72.0000,114,67,0.32259
7822710,-0.18000,71.7500,114,67,0.31966
7822720,-0.17000,71.3125,114,67,0.31331
7822730,-0.17000,71.1250,114,67,0.30965
7822740,-0.16000,70.8125,114,67,0.30574
7822750,-0.15500,70.5625,114,67,0.30183
7822760,-0.14500,70.3125,114,67,0.29792
7822770,-0.13500,69.7500,114,67,0.29035
7822780,-0.13000,69.4375,114,67,0.28645
7822790,-0.12000,69.1875,114,67,0.28254
7822800,-0.10500,68.6250,114,67,0.27448
7822810,-0.09500,68.4375,114,67,0.27131
7822820,-0.08500,68.1875,114,67,0.26862
7822830,-0.07500,68.0000,114,67,0.26520
7822840,-0.05500,67.8125,114,67,0.25739
7822850,-0.04500,68.0625,114,67,0.25372
7822860,-0.03500,68.6875,114,67,0.25006
7822870,-0.01500,70.0000,114,67,0.24664
7822880,0.01000,74.3125,114,67,0.23980
7822890,0.02000,77.3125,114,67,0.23663
7822900,0.04000,80.6875,114,67,0.23370
7822910,0.06000,84.3125,114,67,0.23223
7822920,0.09000,91.7500,114,67,0.22979
7822930,0.11000,95.3750,114,67,0.22808
7822940,0.14000,98.8125,114,67,0.22662
7822950,0.17500,101.8750,114,67,0.22515
7822960,0.21500,106.9375,114,67,0.22222
7822970,0.23500,108.8750,114,67,0.22100
7822980,0.25500,110.3125,114,67,0.22027
7822990,0.24500,111.4375,114,67,0.21978
7823000,0.21500,112.2500,114,67,0.21954
7823010,0.16000,112.9375,114,67,0.22125
7823020,0.08000,112.8750,114,67,0.22149
7823030,0.02500,112.5625,114,67,0.22149
7823040,-0.02000,112.1250,114,67,0.22149
7823050,-0.05500,110.6250,114,67,0.22222
7823060,-0.08000,109.6250,114,67,0.22271
7823070,-0.09500,108.5000,114,67,0.22320
7823080,-0.10500,105.6250,114,67,0.22369
7823090,-0.10500,103.9375,114,67,0.22466
7823100,-0.10500,102.1875,114,67,0.22540
7823110,-0.10500,100.2500,114,67,0.22735
7823120,-0.10500,98.2500,114,67,0.23053
7823130,-0.10000,94.0000,114,67,0.24127
7823140,-0.09500,92.0625,114,67,0.25079
7823150,-0.09500,90.2500,114,67,0.26398
7823160,-0.09500,88.7500,114,67,0.28156
7823170,-0.08500,86.4375,114,67,0.32869
7823180,-0.08500,85.6250,114,67,0.35702
7823190,-0.08000,84.8750,114,67,0.38706
7823200,-0.08500,83.9375,114,67,0.44469
7823210,-0.08000,83.6250,114,67,0.46886
7823220,-0.07500,83.4375,114,67,0.49451
7823230,-0.07500,83.2500,114,67,0.51917
7823240,-0.07500,83.0625,114,67,0.54188
7823250,-0.07500,82.7500,114,67,0.58022
7823260,-0.07500,82.6250,114,67,0.59536
7823270,-0.07500,82.4375,114,67,0.60806
7823280,-0.07500,82.1875,114,67,0.61832
7823290,-0.08000,81.6875,114,67,0.63199
7823300,-0.08500,81.4375,114,67,0.63541
7823310,-0.08500,81.1250,114,67,0.63639
7823320,-0.07500,80.8125,114,67,0.63516
7823330,-0.04500,80.1875,114,67,0.62930
7823340,-0.02500,79.8750,114,67,0.62418
7823350,-0.01000,79.5000,114,67,0.61783
7823360,-0.00500,79.1875,114,67,0.60977
7823370,0.02000,78.5000,114,67,0.58877
7823380,0.06000,78.1875,114,67,0.57607
7823390,0.05500,77.8125,114,67,0.56215
7823400,0.02000,77.0625,114,67,0.54725
7823410,-0.02500,76.7500,114,67,0.52088
7823420,-0.04500,76.3750,114,67,0.50720
7823430,-0.09500,76.0625,114,67,0.49353
7823440,-0.12500,75.6875,114,67,0.48059
7823450,-0.14500,75.0000,114,67,0.45739
7823460,-0.14500,74.6875,114,67,0.44737
7823470,-0.14000,74.3750,114,67,0.43858
7823480,-0.13500,74.0625,114,67,0.43101
7823490,-0.12500,73.5000,114,67,0.41929
7823500,-0.10500,73.2500,114,67,0.41490
7823510,0.01000,73.0000,114,67,0.41172
7823520,0.41000,72.5625,114,67,0.40904
7823530,0.92000,72.3750,114,67,0.40317
7823540,0.69000,72.1250,114,67,0.40000
7823550,0.00500,71.9375,114,67,0.39683
7823560,-0.28000,71.5625,114,67,0.39096
7823570,-0.22500,71.3750,114,67,0.38803
7823580,-0.18000,71.2500,114,67,0.38486
7823590,-0.17000,71.0625,114,67,0.38169
7823600,-0.17000,70.8750,114,67,0.37875
7823610,-0.16500,70.4375,114,67,0.37411
7823620,-0.16000,70.1875,114,67,0.37143
7823630,-0.16000,69.9375,114,67,0.36850
7823640,-0.15500,69.6875,114,67,0.36532
7823650,-0.15000,69.1875,114,67,0.35946
7823660,-0.14500,68.9375,114,67,0.35629
7823670,-0.13500,68.6250,114,67,0.35336
7823680,-0.13000,68.3750,114,67,0.35018
7823690,-0.12000,67.8750,114,67,0.34383
7823700,-0.11000,67.6875,114,67,0.34017
7823710,-0.10000,67.4375,114,67,0.33724
7823720,-0.09000,67.2500,114,67,0.33455
7823730,-0.07500,66.8750,114,67,0.32747
7823740,-0.06500,66.9375,114,67,0.32381
7823750,-0.05500,67.2500,114,67,0.32039
7823760,-0.03500,69.3125,114,67,0.31355
7823770,-0.02500,71.2500,114,67,0.31013
7823780,-0.00500,73.8125,114,67,0.30672
7823790,0.01000,76.9375,114,67,0.30354
7823800,0.01000,76.9375,114,67,0.30354
7823810,0.06000,87.8750,114,67,0.29646
7823820,0.09000,91.6875,114,67,0.29426
7823830,0.11500,95.3750,114,67,0.29206
7823840,0.14500,98.8125,114,67,0.29011
7823850,0.18500,104.6875,114,67,0.28694
7823860,0.21500,107.0000,114,67,0.28547
7823870,0.24500,108.9375,114,67,0.28449
7823880,0.25500,110.4375,114,67,0.28376
7823890,0.24500,112.4375,114,67,0.28278
7823900,0.20000,112.9375,114,67,0.28230
7823910,0.15500,113.2500,114,67,0.28254
7823920,0.07500,113.1250,114,67,0.28303
7823930,0.02500,112.7500,114,67,0.28278
7823940,-0.01500,112.1875,114,67,0.28254
7823950,-0.05500,111.3750,114,67,0.28254
7823960,-0.08000,109.3750,114,67,0.28327
7823970,-0.09500,108.0625,114,67,0.28376
7823980,-0.10000,106.6875,114,67,0.28400
7823990,-0.10500,105.1250,114,67,0.28449
7824000,-0.10500,103.3750,114,67,0.28523
7824010,-0.11500,99.5625,114,67,0.28962
7824020,-0.11500,97.5000,114,67,0.29328
7824030,-0.11500,95.3750,114,67,0.29915
7824040,-0.11500,93.2500,114,67,0.30794
7824050,-0.11000,89.5625,114,67,0.33602
7824060,-0.10500,88.0625,114,67,0.35556
7824070,-0.10500,86.8750,114,67,0.37827
7824080,-0.10500,85.9375,114,67,0.40366
7824090,-0.10000,84.5000,114,67,0.45812
7824100,-0.09500,84.0625,114,67,0.48547
7824110,-0.09000,83.6875,114,67,0.50842
7824120,-0.09500,83.4375,114,67,0.52845
7824130,-0.09500,83.1250,114,67,0.56972
7824140,-0.09500,83.0000,114,67,0.58828
7824150,-0.09500,82.8750,114,67,0.60464
7824160,-0.09500,82.5625,114,67,0.63004
7824170,-0.09500,82.3750,114,67,0.63932
7824180,-0.10000,82.1250,114,67,0.64664
7824190,-0.10000,81.8750,114,67,0.65226
7824200,-0.10500,81.5625,114,67,0.65617
7824210,-0.10500,80.9375,114,67,0.65714
7824220,-0.09500,80.6250,114,67,0.65568
7824230,-0.07500,80.2500,114,67,0.65324
7824240,-0.04500,79.9375,114,67,0.64933
7824250,-0.03000,79.2500,114,67,0.63687
7824260,-0.02000,78.8750,114,67,0.62882
7824270,0.00000,78.5625,114,67,0.61929
7824280,0.03000,77.8125,114,67,0.60830
7824290,0.05000,77.4375,114,67,0.58291
7824300,0.02500,77.0625,114,67,0.56899
7824310,-0.01500,76.6875,114,67,0.55604
7824320,-0.04500,76.0000,114,67,0.53040
7824330,-0.07500,75.6875,114,67,0.51722
7824340,-0.11500,75.3750,114,67,0.50476
7824350,-0.14000,75.0000,114,67,0.49304
7824360,-0.14500,74.6875,114,67,0.48230
7824370,-0.14500,74.0625,114,67,0.46447
7824380,-0.13500,73.7500,114,67,0.45739
7824390,-0.12500,73.5000,114,67,0.45104
7824400,-0.11500,72.9375,114,67,0.44127
7824410,-0.03500,72.6875,114,67,0.43736
7824420,0.39500,72.4375,114,67,0.43346
7824430,0.80000,72.2500,114,67,0.42955
7824440,0.84000,72.0625,114,67,0.42540
7824450,0.05000,71.6250,114,67,0.41758
7824460,-0.25500,71.4375,114,67,0.41416
7824470,-0.22500,71.2500,114,67,0.41074
7824480,-0.16000,70.8125,114,67,0.40391
7824490,-0.15500,70.6250,114,67,0.40073
7824500,-0.14500,70.4375,114,67,0.39756
7824510,-0.14500,70.1875,114,67,0.39487
7824520,-0.13500,69.7500,114,67,0.39243
7824530,-0.13500,69.5000,114,67,0.38632
7824540,-0.12500,69.2500,114,67,0.38291
7824550,-0.11500,69.0000,114,67,0.37949
7824560,-0.11500,68.7500,114,67,0.37582
7824570,-0.11000,68.1875,114,67,0.36801
7824580,-0.10500,67.9375,114,67,0.36410
7824590,-0.09500,67.6875,114,67,0.36044
7824600,-0.08500,67.4375,114,67,0.35678
7824610,-0.07500,67.0000,114,67,0.35140
7824620,-0.06500,66.8750,114,67,0.34799
7824630,-0.05000,66.6875,114,67,0.34432
7824640,-0.04500,66.6250,114,67,0.34042
7824650,-0.03500,67.2500,114,67,0.33236
7824660,-0.01500,68.2500,114,67,0.32821
7824670,-0.00500,69.9375,114,67,0.32405
7824680,0.00500,75.2500,114,67,0.32015
7824690,0.02000,78.5625,114,67,0.31258
7824700,0.04000,82.2500,114,67,0.30916
7824710,0.06500,86.1250,114,67,0.30672
7824720,0.08500,90.0000,114,67,0.30501
7824730,0.11000,97.5625,114,67,0.30037
7824740,0.14000,100.9375,114,67,0.29817
7824750,0.17000,103.9375,114,67,0.29597
7824760,0.20500,106.6250,114,67,0.29402
7824770,0.23500,110.6250,114,67,0.29158
7824780,0.25500,112.0000,114,67,0.29109
7824790,0.25000,113.1250,114,67,0.29084
7824800,0.22000,113.8750,114,67,0.29084
7824810,0.15500,114.5625,114,67,0.29206
7824820,0.10500,114.5625,114,67,0.29206
7824830,0.04000,114.3750,114,67,0.29182
7824840,-0.00500,114.0000,114,67,0.29158
7824850,-0.04500,112.6875,114,67,0.29158
7824860,-0.07000,111.7500,114,67,0.29158
7824870,-0.08500,110.6875,114,67,0.29158
7824880,-0.09000,108.0625,114,67,0.29158
7824890,-0.09500,106.5000,114,67,0.29280
7824900,-0.10000,104.8125,114,67,0.29426
7824910,-0.10000,103.0000,114,67,0.29646
7824920,-0.10000,101.0000,114,67,0.29963
7824930,-0.10500,96.7500,114,67,0.31136
7824940,-0.10500,94.5625,114,67,0.32186
7824950,-0.10333,92.5625,114,67,0.33602
7824960,-0.10000,89.2500,114,67,0.37607
7824970,-0.09500,87.9375,114,67,0.40122
7824980,-0.10000,86.9375,114,67,0.42833
7824990,-0.10000,86.1250,114,67,0.45665
7825000,-0.09500,85.0000,115,68,0.50940
7825010,-0.09500,84.6250,115,68,0.53065
7825020,-0.09000,84.3750,115,68,0.55336
7825030,-0.09000,84.1875,115,68,0.57534
7825040,-0.09000,84.0000,115,68,0.59560
7825050,-0.09000,83.8125,115,68,0.62979
7825060,-0.09000,83.6250,115,68,0.64322
7825070,-0.09000,83.4375,115,68,0.65446
7825080,-0.09500,82.9375,115,68,0.67106
7825090,-0.09500,82.6875,115,68,0.67643
7825100,-0.09500,82.3750,115,68,0.67888
7825110,-0.09500,82.0000,115,68,0.67937
7825120,-0.09500,81.6875,115,68,0.67912
7825130,-0.07500,81.0000,115,68,0.67570
7825140,-0.04500,80.5625,115,68,0.67179
7825150,-0.02500,80.1875,115,68,0.66642
7825160,-0.01500,79.3750,115,68,0.65958
7825170,0.00500,79.0000,115,68,0.64078
7825180,0.03000,78.6250,115,68,0.62906
7825190,0.06500,78.1875,115,68,0.61612
7825200,0.05000,77.8125,115,68,0.60220
7825210,0.01000,77.0000,115,68,0.57582
7825220,-0.02500,76.6250,115,68,0.56166
7825230,-0.05500,76.2500,115,68,0.54725
7825240,-0.10500,75.9375,115,68,0.53309
7825250,-0.13500,75.1875,115,68,0.50696
7825260,-0.14500,74.8750,115,68,0.49548
7825270,-0.14500,74.5625,115,68,0.48523
7825280,-0.14500,74.2500,115,68,0.47619
7825290,-0.13500,73.6875,115,68,0.46081
7825300,-0.13500,73.4375,115,68,0.45519
7825310,-0.10500,73.1875,115,68,0.45055
7825320,0.13000,73.0000,115,68,0.44591
7825330,0.73500,72.5625,115,68,0.43687
7825340,0.91000,72.4375,115,68,0.43272
7825350,0.42000,72.2500,115,68,0.42857
7825360,-0.26000,71.9375,115,68,0.42076
7825370,-0.28500,71.8125,115,68,0.41709
7825380,-0.21000,71.6250,115,68,0.41319
7825390,-0.19500,71.5000,115,68,0.40928
7825400,-0.19000,71.3750,115,68,0.40537
7825410,-0.19000,71.0625,115,68,0.39902
7825420,-0.18000,70.8750,115,68,0.39560
7825430,-0.17500,70.6250,115,68,0.39194
7825440,-0.17000,70.4375,115,68,0.38803
7825450,-0.16000,70.0000,115,68,0.37705
7825460,-0.15500,69.7500,115,68,0.36899
7825470,-0.14500,69.5000,115,68,0.36215
7825480,-0.14000,69.2500,115,68,0.35629
7825490,-0.13000,68.6875,115,68,0.34628
7825500,-0.11500,68.4375,115,68,0.34237
7825510,-0.10500,68.1875,115,68,0.33871
7825520,-0.09000,67.9375,115,68,0.33431
7825530,-0.07500,67.5625,115,68,0.32479
7825540,-0.06500,67.6250,115,68,0.32015
7825550,-0.05000,67.9375,115,68,0.31551
7825560,-0.03000,70.1250,115,68,0.30672
7825570,-0.01500,72.2500,115,68,0.30232
7825580,0.00000,75.0000,115,68,0.29817
7825590,0.01500,78.3125,115,68,0.29451
7825600,0.04000,81.9375,115,68,0.29109
7825610,0.06500,89.8750,115,68,0.28742
7825620,0.08000,93.8750,115,68,0.28523
7825630,0.11000,97.6875,115,68,0.28278
7825640,0.14000,104.6250,115,68,0.27937
7825650,0.16500,107.5625,115,68,0.27790
7825660,0.20000,110.0000,115,68,0.27668
7825670,0.23000,112.0625,115,68,0.27546
7825680,0.24500,113.7500,115,68,0.27448
7825690,0.25500,116.0000,115,68,0.27204
7825700,0.23000,116.6875,115,68,0.27179
7825710,0.18500,117.1250,115,68,0.27204
7825720,0.12500,117.3125,115,68,0.27155
7825730,0.04500,117.1875,115,68,0.27033
7825740,0.00000,116.8125,115,68,0.27009
7825750,-0.04500,116.3125,115,68,0.26984
7825760,-0.08500,115.5625,115,68,0.26960
7825770,-0.11500,113.5625,115,68,0.26911
7825780,-0.13000,112.3125,115,68,0.26886
7825790,-0.14000,110.9375,115,68,0.26862
7825800,-0.14500,109.4375,115,68,0.26862
7825810,-0.14500,105.8750,115,68,0.27228
7825820,-0.14000,103.8750,115,68,0.27619
7825830,-0.13500,101.7500,115,68,0.28327
7825840,-0.13500,99.5625,115,68,0.29426
7825850,-0.13500,95.3750,115,68,0.33089
7825860,-0.14000,93.5625,115,68,0.35678
7825870,-0.13500,92.0625,115,68,0.38706
7825880,-0.13500,90.8125,115,68,0.42051
7825890,-0.12500,88.9375,115,68,0.49328
7825900,-0.12500,88.3125,115,68,0.52503
7825910,-0.12000,87.8125,115,68,0.55360
7825920,-0.11500,87.4375,115,68,0.58437
7825930,-0.11500,86.8750,115,68,0.64371
7825940,-0.11500,86.7500,115,68,0.67009
7825950,-0.11500,86.5625,115,68,0.69377
7825960,-0.10500,86.3750,115,68,0.71453
7825970,-0.10500,85.8750,115,68,0.74823
7825980,-0.10000,85.6250,115,68,0.76117
7825990,-0.09500,85.3750,115,68,0.77167
7826000,-0.09500,84.6875,115,68,0.78437
7826010,-0.08500,84.3125,115,68,0.78608
7826020,-0.07500,83.9375,115,68,0.78730
7826030,-0.05500,83.5625,115,68,0.78730
7826040,-0.02000,82.8125,115,68,0.78242
7826050,0.00000,82.4375,115,68,0.77729
7826060,0.01500,82.0625,115,68,0.77045
7826070,0.03000,81.6250,115,68,0.76166
7826080,0.06000,81.2500,115,68,0.75067
7826090,0.08000,80.5000,115,68,0.72332
7826100,0.06000,80.1250,115,68,0.70867
7826110,0.03000,79.7500,115,68,0.69377
7826120,0.00000,79.3750,115,68,0.67717
7826130,-0.05500,78.6875,115,68,0.64225
7826140,-0.09500,78.3750,115,68,0.62540
7826150,-0.12500,78.0625,115,68,0.60928
7826160,-0.13500,77.4375,115,68,0.59438
7826170,-0.14000,77.1875,115,68,0.56825
7826180,-0.14500,76.9375,115,68,0.55727
7826190,-0.14000,76.6875,115,68,0.54750
7826200,-0.14000,76.1875,115,68,0.53162
7826210,-0.12500,75.9375,115,68,0.52552
7826220,0.11000,75.6875,115,68,0.51966
7826230,0.77000,75.5000,115,68,0.51429
7826240,0.99000,75.3125,115,68,0.50940
7826250,0.34000,74.8750,115,68,0.49988
7826260,-0.16500,74.6875,115,68,0.49524
7826270,-0.28000,74.5625,115,68,0.49060
7826280,-0.24000,74.3750,115,68,0.48571
7826290,-0.23000,74.0625,115,68,0.47570
7826300,-0.23500,73.8750,115,68,0.47106
7826310,-0.24000,73.6250,115,68,0.46667
7826320,-0.24500,73.4375,115,68,0.46154
7826330,-0.24500,72.9375,115,68,0.45079
7826340,-0.23500,72.6250,115,68,0.44518
7826350,-0.22500,72.3750,115,68,0.43980
7826360,-0.21500,72.0625,115,68,0.43468
7826370,-0.19500,71.5625,115,68,0.42466
7826380,-0.18000,71.2500,115,68,0.41978
7826390,-0.16000,71.0000,115,68,0.41514
7826400,-0.15000,70.5000,115,68,0.41074
7826410,-0.13500,70.3125,115,68,0.40366
7826420,-0.12500,70.1250,115,68,0.40000
7826430,-0.10500,70.0000,115,68,0.39634
7826440,-0.09000,70.4375,115,68,0.38877
7826450,-0.07500,71.3125,115,68,0.38486
7826460,-0.05500,72.9375,115,68,0.38120
7826470,-0.03500,75.1875,115,68,0.37729
7826480,-0.01500,81.6875,115,68,0.36996
7826490,0.00000,85.6250,115,68,0.36679
7826500,0.02000,89.6875,115,68,0.36484
7826510,0.05000,93.9375,115,68,0.36337
7826520,0.06000,98.0625,115,68,0.36190
7826530,0.08500,105.8125,115,68,0.35897
7826540,0.11000,109.1875,115,68,0.35775
7826550,0.13000,112.1250,115,68,0.35653
7826560,0.15500,114.6250,115,68,0.35556
7826570,0.18500,118.2500,115,68,0.35360
7826580,0.19500,119.5000,115,68,0.35263
7826590,0.20000,120.4375,115,68,0.35165
7826600,0.17500,121.6250,115,68,0.35067
7826610,0.14000,121.9375,115,68,0.35018
7826620,0.08000,122.0000,115,68,0.34945
7826630,0.01500,121.9375,115,68,0.34872
7826640,-0.04500,121.3125,115,68,0.34725
7826650,-0.07500,120.7500,115,68,0.34676
7826660,-0.10500,120.0000,115,68,0.34628
7826670,-0.12500,119.1250,115,68,0.34579
7826680,-0.13500,116.7500,115,68,0.34505
7826690,-0.14000,115.3125,115,68,0.34505
7826700,-0.14500,113.7500,115,68,0.34579
7826710,-0.15000,112.0000,115,68,0.34799
7826720,-0.15500,110.0625,115,68,0.35189
7826730,-0.15500,105.7500,115,68,0.36996
7826740,-0.15000,103.4375,115,68,0.38584
7826750,-0.15000,101.1250,115,68,0.40684
7826760,-0.14500,97.1250,115,68,0.46300
7826770,-0.14500,95.5000,115,68,0.49646
7826780,-0.15000,94.1250,115,68,0.53211
7826790,-0.15500,93.0625,115,68,0.56825
7826800,-0.15500,93.0625,115,68,0.56825
7826810,-0.16000,90.8750,115,68,0.65665
7826820,-0.17000,90.5000,115,68,0.68620
7826830,-0.17000,90.2500,115,68,0.71380
7826840,-0.16000,90.0625,115,68,0.73895
7826850,-0.15500,89.7500,115,68,0.78168
7826860,-0.14500,89.5625,115,68,0.79902
7826870,-0.13500,89.3750,115,68,0.81392
7826880,-0.13500,88.9375,115,68,0.82662
7826890,-0.13000,88.6875,115,68,0.84542
7826900,-0.12500,88.3750,115,68,0.84957
7826910,-0.11500,88.0625,115,68,0.85104
7826920,-0.10500,87.3125,115,68,0.85324
7826930,-0.08500,86.8750,115,68,0.85201
7826940,-0.05000,86.4375,115,68,0.84908
7826950,-0.01500,86.0000,115,68,0.84444
7826960,-0.00500,85.5625,115,68,0.83761
7826970,0.01000,84.7500,115,68,0.81832
7826980,0.05000,84.3750,115,68,0.80586
7826990,0.07000,83.9375,115,68,0.79145
7827000,0.05000,83.1250,115,68,0.77631
7827010,0.02500,82.6875,115,68,0.74310
7827020,0.00500,82.3125,115,68,0.72430
7827030,0.00500,81.9375,115,68,0.70501
7827040,-0.01500,81.5625,115,68,0.68596
7827050,-0.09500,80.8125,115,68,0.64982
7827060,-0.12500,80.5000,115,68,0.63370
7827070,-0.12500,80.1250,115,68,0.61929
7827080,-0.11500,79.5000,115,68,0.59463
7827090,-0.11500,79.1875,115,68,0.58437
7827100,-0.11000,78.8750,115,68,0.57582
7827110,-0.04000,78.6250,115,68,0.56825
7827120,0.21500,78.3125,115,68,0.56093
7827130,0.81500,77.8750,115,68,0.54774
7827140,1.06500,77.6250,115,68,0.54212
7827150,0.53500,77.4375,115,68,0.53675
7827160,-0.11000,77.2500,115,68,0.53162
7827170,-0.19000,76.8125,115,68,0.52137
7827180,-0.16000,76.6250,115,68,0.51600
7827190,-0.16000,76.5000,115,68,0.51062
7827200,-0.16000,76.1250,115,68,0.50110
7827210,-0.16000,75.8750,115,68,0.49621
7827220,-0.15500,75.6875,115,68,0.49158
7827230,-0.14500,75.4375,115,68,0.48694
7827240,-0.13500,74.8750,115,68,0.48205
7827250,-0.12500,74.6250,115,68,0.47179
7827260,-0.12000,74.3750,115,68,0.46667
7827270,-0.11500,74.0625,115,68,0.46154
7827280,-0.10500,73.5625,115,68,0.45104
7827290,-0.10000,73.2500,115,68,0.44567
7827300,-0.09500,73.0000,115,68,0.44078
7827310,-0.08500,72.7500,115,68,0.43663
7827320,-0.08500,72.5625,115,68,0.43248
7827330,-0.07500,72.3125,115,68,0.42393
7827340,-0.07000,72.5625,115,68,0.41954
7827350,-0.06000,73.1875,115,68,0.41563
7827360,-0.04500,76.5000,115,68,0.40733
7827370,-0.02500,79.3125,115,68,0.40342
7827380,-0.01000,82.6875,115,68,0.39976
7827390,0.00500,86.4375,115,68,0.39609
7827400,0.02500,94.6250,115,68,0.39145
7827410,0.04500,98.7500,115,68,0.38901
7827420,0.07000,102.6875,115,68,0.38681
7827430,0.09500,106.3750,115,68,0.38510
7827440,0.13000,109.7500,115,68,0.38339
7827450,0.16500,115.1875,115,68,0.38120
7827460,0.20500,117.1875,115,68,0.38071
7827470,0.23000,118.8750,115,68,0.38046
7827480,0.24500,121.0625,115,68,0.38046
7827490,0.24000,121.7500,115,68,0.37973
7827500,0.22500,122.1875,115,68,0.37094
7827510,0.18000,122.3750,115,68,0.35775
7827520,0.11000,122.3125,115,68,0.34750
7827530,0.06000,122.0000,115,68,0.34554
7827540,0.00500,121.5000,115,68,0.34432
7827550,-0.03500,120.8750,115,68,0.34383
7827560,-0.06000,120.1250,115,68,0.34335
7827570,-0.07500,118.0625,115,68,0.34164
7827580,-0.09000,116.8125,115,68,0.34090
7827590,-0.09500,115.4375,115,68,0.34066
7827600,-0.09500,112.1250,115,68,0.34090
7827610,-0.09500,110.2500,115,68,0.34408
7827620,-0.09500,108.1875,115,68,0.34823
7827630,-0.09500,106.0000,115,68,0.35531
7827640,-0.09500,103.6250,115,68,0.36581
7827650,-0.09000,98.9375,115,68,0.39927
7827660,-0.08500,96.8750,115,68,0.42222
7827670,-0.08500,95.0625,115,68,0.44811
7827680,-0.08500,93.6250,115,68,0.47595
7827690,-0.08500,91.3750,115,68,0.53333
7827700,-0.08500,90.5000,115,68,0.55727
7827710,-0.08000,89.8750,115,68,0.57778
7827720,-0.08000,89.3750,115,68,0.59927
7827730,-0.07500,88.8125,115,68,0.63932
7827740,-0.07500,88.6250,115,68,0.65641
7827750,-0.07000,88.3750,115,68,0.67082
7827760,-0.06500,87.9375,115,68,0.68303
7827770,-0.06500,87.6875,115,68,0.70061
7827780,-0.06000,87.4375,115,68,0.70623
7827790,-0.05500,87.1250,115,68,0.71013
7827800,-0.05500,87.1250,115,68,0.71013
7827810,-0.04000,86.0625,115,68,0.71038
7827820,-0.01500,85.6250,115,68,0.70867
7827830,0.01000,85.2500,115,68,0.70549
7827840,0.03000,84.8125,115,68,0.70085
7827850,0.04000,83.8750,115,68,0.68645
7827860,0.06000,83.3750,115,68,0.67668
7827870,0.09000,82.9375,115,68,0.66520
7827880,0.09000,82.5000,115,68,0.65201
7827890,0.06000,81.5625,115,68,0.62173
7827900,0.01000,81.0625,115,68,0.60635
7827910,-0.01000,80.6250,115,68,0.59072
7827920,-0.06500,80.1250,115,68,0.57314
7827930,-0.11500,79.3125,115,68,0.53553
7827940,-0.13500,78.8750,115,68,0.51697
7827950,-0.14500,78.5000,115,68,0.49890
7827960,-0.14500,77.6875,115,68,0.46667
7827970,-0.14500,77.3125,115,68,0.45275
7827980,-0.13500,77.0000,115,68,0.44005
7827990,-0.12500,76.6875,115,68,0.42833
7828000,0.01000,76.1250,115,68,0.41026
7828010,0.33000,75.8750,115,68,0.40220
7828020,0.84500,75.6250,115,68,0.39414
7828030,0.71000,75.4375,115,68,0.38632
7828040,0.15500,75.1875,115,68,0.37875
7828050,-0.26000,74.6875,115,68,0.36508
7828060,-0.20000,74.5625,115,68,0.35873
7828070,-0.17000,74.3750,115,68,0.35238
7828080,-0.16500,74.1250,115,68,0.34603
7828090,-0.17000,73.6875,115,68,0.33431
7828100,-0.17000,73.4375,115,68,0.32918
7828110,-0.17000,73.1875,115,68,0.32479
7828120,-0.16500,72.6250,115,68,0.31966
7828130,-0.16000,72.3125,115,68,0.30769
7828140,-0.15500,72.0000,115,68,0.30159
7828150,-0.15500,71.6875,115,68,0.29548
7828160,-0.15000,71.3125,115,68,0.28938
7828170,-0.14000,70.6250,115,68,0.27692
7828180,-0.12500,70.3125,115,68,0.27082
7828190,-0.12000,70.0000,115,68,0.26471
7828200,-0.11000,69.7500,115,68,0.26032
7828210,-0.10000,69.2500,115,68,0.25177
7828220,-0.09000,69.0625,115,68,0.24689
7828230,-0.07000,68.9375,115,68,0.24200
7828240,-0.06000,69.0000,115,68,0.23712
7828250,-0.04000,70.5625,115,68,0.22808
7828260,-0.02500,72.2500,115,68,0.22369
7828270,0.01000,74.5625,115,68,0.21954
7828280,0.03000,77.5000,115,68,0.21563
7828290,0.06000,84.5000,115,68,0.20830
7828300,0.08500,88.3125,115,68,0.20586
7828310,0.10500,92.1250,115,68,0.20415
7828320,0.12500,95.9375,115,68,0.20195
7828330,0.15000,102.7500,115,68,0.19780
7828340,0.17000,105.6875,115,68,0.19585
7828350,0.19500,108.1875,115,68,0.19390
7828360,0.22000,110.2500,115,68,0.19194
7828370,0.23500,113.2500,115,68,0.18901
7828380,0.23500,114.1875,115,68,0.18803
7828390,0.20500,114.8750,115,68,0.18706
7828400,0.15500,115.2500,115,68,0.18706
7828410,0.10000,115.3125,115,68,0.18730
7828420,0.02500,115.0000,115,68,0.18706
7828430,-0.01500,114.5000,115,68,0.18681
7828440,-0.05500,113.8125,115,68,0.18657
7828450,-0.08500,111.9375,115,68,0.18657
7828460,-0.09500,110.6875,115,68,0.18657
7828470,-0.11000,109.2500,115,68,0.18657
7828480,-0.12000,106.0000,115,68,0.18657
7828490,-0.12500,104.1250,115,68,0.18730
7828500,-0.12000,102.0625,115,68,0.18901
7828510,-0.11500,99.8750,115,68,0.19121
7828520,-0.11500,97.6250,115,68,0.19512
7828530,-0.10500,93.2500,115,68,0.21123
7828540,-0.10000,91.3750,115,68,0.22466
7828550,-0.09500,89.8125,115,68,0.24225
7828560,-0.09500,88.5000,115,68,0.26398
7828570,-0.09500,86.6250,115,68,0.31746
7828580,-0.09000,85.9375,115,68,0.34676
7828590,-0.08500,85.4375,115,68,0.37607
7828600,-0.08000,84.8750,115,68,0.42466
7828610,-0.07500,84.7500,115,68,0.44884
7828620,-0.07500,84.6875,115,68,0.47228
7828630,-0.07500,84.5625,115,68,0.49402
7828640,-0.07500,84.5000,115,68,0.51331
7828650,-0.07500,84.1875,115,68,0.54383
7828660,-0.07000,84.0000,115,68,0.55531
7828670,-0.06500,83.7500,115,68,0.56459
7828680,-0.06500,83.5000,115,68,0.57167
7828690,-0.06500,82.8125,115,68,0.57900
7828700,-0.06000,82.4375,115,68,0.57949
7828710,-0.04500,82.0625,115,68,0.57900
7828720,-0.01500,81.6875,115,68,0.57705
7828730,0.02500,80.8125,115,68,0.56728
7828740,0.04500,80.4375,115,68,0.55995
7828750,0.06000,80.0625,115,68,0.55116
7828760,0.09000,79.6875,115,68,0.54042
7828770,0.13000,78.8750,115,68,0.51477
7828780,0.12000,78.5000,115,68,0.50012
7828790,0.09000,78.1250,115,68,0.48474
7828800,0.09000,78.1250,115,68,0.48474
7828810,0.00500,77.0625,115,68,0.44225
7828820,-0.04000,76.6875,115,68,0.42735
7828830,-0.07500,76.3750,115,68,0.41319
7828840,-0.09500,75.7500,115,68,0.38779
7828850,-0.09500,75.4375,115,68,0.37680
7828860,-0.10000,75.1875,115,68,0.36703
7828870,-0.09500,74.8750,115,68,0.35849
7828880,-0.09000,74.3750,115,68,0.35116
7828890,-0.05000,74.1250,115,68,0.34017
7828900,0.12500,73.8750,115,68,0.33626
7828910,0.68500,73.6875,115,68,0.33260
7828920,0.92500,73.4375,115,68,0.32894
7828930,0.55000,73.0625,115,68,0.32234
7828940,-0.19000,72.8750,115,68,0.31941
7828950,-0.26500,72.6875,115,68,0.31648
7828960,-0.19000,72.5000,115,68,0.31355
7828970,-0.16500,72.1250,115,68,0.30745
7828980,-0.15500,71.9375,115,68,0.30427
7828990,-0.15500,71.6875,115,68,0.30085
7829000,-0.15000,71.5000,115,68,0.29817
7829010,-0.14500,71.0000,115,68,0.29255
7829020,-0.13500,70.7500,115,68,0.28889
7829030,-0.13000,70.5000,115,68,0.28498
7829040,-0.12500,70.2500,115,68,0.28059
7829050,-0.12000,69.6875,115,68,0.27228
7829060,-0.11500,69.3750,115,68,0.26838
7829070,-0.10500,69.1250,115,68,0.26471
7829080,-0.09500,68.5625,115,68,0.25763
7829090,-0.09000,68.3125,115,68,0.25519
7829100,-0.07500,68.0625,115,68,0.25299
7829110,-0.06500,67.8125,115,68,0.25006
7829120,-0.05500,67.6250,115,68,0.24689
7829130,-0.04000,67.7500,115,68,0.24054
7829140,-0.02500,68.3125,115,68,0.23736
7829150,-0.01000,69.4375,115,68,0.23443
7829160,0.00500,73.6250,115,68,0.22882
7829170,0.02000,76.5625,115,68,0.22613
7829180,0.03500,79.8750,115,68,0.22369
7829190,0.05500,83.5625,115,68,0.22125
7829200,0.08500,91.1875,115,68,0.21905
7829210,0.10500,94.9375,115,68,0.21758
7829220,0.13000,98.5000,115,68,0.21587
7829230,0.16000,101.7500,115,68,0.21441
7829240,0.18500,104.6250,115,68,0.21319
7829250,0.22500,109.1875,115,68,0.21148
7829260,0.24500,110.8125,115,68,0.21074
7829270,0.25500,112.0625,115,68,0.21050
7829280,0.24000,113.0000,115,68,0.21026
7829290,0.18000,113.8125,115,68,0.21099
7829300,0.12000,114.0104,115,68,0.21160
7829310,0.08000,113.8750,115,68,0.21221
7829320,0.02000,113.6875,115,68,0.21294
7829330,-0.03500,112.7500,115,68,0.21392
7829340,-0.06500,112.0625,115,68,0.21441
7829350,-0.08500,110.0000,115,68,0.21514
7829360,-0.09500,110.0000,115,68,0.21514
7829370,-0.10500,107.3750,115,68,0.21587
7829380,-0.11000,105.7500,115,68,0.21661
7829390,-0.10500,104.0000,115,68,0.21758
7829400,-0.11000,100.1875,115,68,0.21856
7829410,-0.11000,98.0625,115,68,0.22393
7829420,-0.11000,95.9375,115,68,0.22882
7829430,-0.10500,93.7500,115,68,0.23614
7829440,-0.10500,89.9375,115,68,0.26105
7829450,-0.10500,88.4375,115,68,0.27961
7829460,-0.10000,87.1875,115,68,0.30208
7829470,-0.10000,86.1875,115,68,0.32821
7829480,-0.09500,84.8750,115,68,0.38681
7829490,-0.09500,84.3750,115,68,0.41734
7829500,-0.09000,84.0625,115,68,0.44371
7829510,-0.09000,83.8125,115,68,0.46740
7829520,-0.09000,83.5625,115,68,0.51648
7829530,-0.09000,83.5000,115,68,0.53871
7829540,-0.09000,83.3750,115,68,0.55873
7829550,-0.09000,83.3750,115,68,0.55873
7829560,-0.10000,82.9375,115,68,0.62759
7829570,-0.10000,82.6875,115,68,0.64444
7829580,-0.09500,82.4375,115,68,0.65519
7829590,-0.10000,82.1875,115,68,0.66178
7829600,-0.09500,81.8750,115,68,0.66545
7829610,-0.08500,81.2500,115,68,0.66447
7829620,-0.05500,80.8750,115,68,0.66227
7829630,-0.03500,80.5000,115,68,0.65861
7829640,-0.02500,80.1250,115,68,0.65324
7829650,-0.00500,79.4375,115,68,0.63834
7829660,0.01500,79.0625,115,68,0.62857
7829670,0.04500,78.6875,115,68,0.61734
7829680,0.03000,77.9375,115,68,0.59170
7829690,0.00000,77.5625,115,68,0.57729
7829700,-0.03500,77.1875,115,68,0.56386
7829710,-0.07000,76.8125,115,68,0.55092
7829720,-0.11500,76.4375,115,68,0.53700
7829730,-0.14500,75.7500,115,68,0.50891
7829740,-0.15500,75.3750,115,68,0.49621
7829750,-0.15500,75.0625,115,68,0.48474
7829760,-0.15500,74.6875,115,68,0.47424
7829770,-0.15000,74.0625,115,68,0.45641
7829780,-0.14500,73.7500,115,68,0.44933
7829790,-0.10500,73.5000,115,68,0.44347
7829800,-0.10500,73.5000,115,68,0.44347
7829810,0.67500,72.8125,115,68,0.43028
7829820,0.92000,72.6250,115,68,0.42662
7829830,0.47500,72.4375,115,68,0.42295
7829840,-0.18000,72.0625,115,68,0.41954
7829850,-0.30000,71.8750,115,68,0.41294
7829860,-0.22500,71.6875,115,68,0.40952
7829870,-0.20000,71.5625,115,68,0.40610
7829880,-0.19500,71.3750,115,68,0.40293
7829890,-0.19000,71.0000,115,68,0.39609
7829900,-0.18000,70.8125,115,68,0.39341
7829910,-0.18000,70.6250,115,68,0.39096
7829920,-0.17000,70.1250,115,68,0.38803
7829930,-0.16000,69.8750,115,68,0.38169
7829940,-0.15500,69.5625,115,68,0.37778
7829950,-0.15500,69.3125,115,68,0.37363
7829960,-0.14500,69.0000,115,68,0.36947
7829970,-0.13500,68.4375,115,68,0.36093
7829980,-0.12000,68.1250,115,68,0.35702
7829990,-0.11500,67.8750,115,68,0.35287
7830000,-0.10000,67.6250,116,68,0.34896
7830010,-0.09000,67.1875,116,68,0.34383
7830020,-0.07500,67.0000,116,68,0.34066
7830030,-0.06500,67.0000,116,68,0.33700
