RelativeTimeMilliseconds,ECG,ART,ART (Sys),ART (Dia),PPG
8224770,0.01000,87.8125,133,76,0.49719
8224780,-0.02500,87.3750,133,76,0.48181
8224790,-0.08000,86.9375,133,76,0.46691
8224800,-0.08000,86.9375,133,76,0.46691
8224810,-0.12500,85.6250,133,76,0.39414
8224820,-0.12500,85.2500,133,76,0.37973
8224830,-0.12500,84.8750,133,76,0.36703
8224840,-0.12000,84.2500,133,76,0.34603
8224850,-0.11500,83.9375,133,76,0.33748
8224860,-0.10000,83.6250,133,76,0.32991
8224870,0.11000,83.3750,133,76,0.32308
8224880,0.70000,82.8750,133,76,0.31087
8224890,0.93000,82.6250,133,76,0.30501
8224900,0.50500,82.3750,133,76,0.29915
8224910,-0.15500,82.1875,133,76,0.29451
8224920,-0.28000,81.7500,133,76,0.28547
8224930,-0.22000,81.5625,133,76,0.28059
8224940,-0.19000,81.3125,133,76,0.27546
8224950,-0.18500,81.1250,133,76,0.27009
8224960,-0.18000,80.8750,133,76,0.26471
8224970,-0.18000,80.3125,133,76,0.25421
8224980,-0.17000,80.0000,133,76,0.24884
8224990,-0.17000,79.6875,133,76,0.24347
8225000,-0.16500,79.3750,133,75,0.23785
8225010,-0.16000,78.6875,133,75,0.22759
8225020,-0.15500,78.3750,133,75,0.22393
8225030,-0.15000,78.0000,133,75,0.21929
8225040,-0.14500,77.6875,133,75,0.21441
8225050,-0.13500,76.9375,133,75,0.20464
8225060,-0.11500,76.6250,133,75,0.19976
8225070,-0.10500,76.3750,133,75,0.19487
8225080,-0.09000,76.0625,133,75,0.19023
8225090,-0.07000,75.6250,133,75,0.18095
8225100,-0.05500,75.5625,133,75,0.17656
8225110,-0.03500,75.6875,133,75,0.17387
8225120,-0.01500,77.5625,133,75,0.16874
8225130,0.00000,79.6250,133,75,0.16532
8225140,0.02000,82.3750,133,75,0.16190
8225150,0.04000,85.8125,133,75,0.15849
8225160,0.06500,94.1875,133,75,0.15189
8225170,0.08500,98.8125,133,75,0.14872
8225180,0.11500,103.4375,133,75,0.14603
8225190,0.15500,107.9375,133,75,0.14383
8225200,0.17500,112.1875,133,75,0.14212
8225210,0.21500,119.1875,133,75,0.14115
8225220,0.24000,121.9375,133,75,0.14212
8225230,0.26000,124.1250,133,75,0.14261
8225240,0.26500,127.0000,133,75,0.14286
8225250,0.25000,127.8125,133,75,0.14286
8225260,0.20500,128.3125,133,75,0.14286
8225270,0.13000,128.5000,133,75,0.14286
8225280,0.07000,128.1250,133,75,0.14286
8225290,0.02000,127.5625,133,75,0.14286
8225300,-0.03000,126.8750,133,75,0.14286
8225310,-0.05500,126.0000,133,75,0.14383
8225320,-0.07500,123.5625,133,75,0.14554
8225330,-0.09500,122.1250,133,75,0.14750
8225340,-0.10500,120.4375,133,75,0.14823
8225350,-0.10500,118.5000,133,75,0.14872
8225360,-0.11000,114.1250,133,75,0.15067
8225370,-0.11500,111.6875,133,75,0.15336
8225380,-0.11500,109.0625,133,75,0.15800
8225390,-0.11500,106.3750,133,75,0.16532
8225400,-0.11500,101.4375,133,75,0.18926
8225410,-0.11000,99.4375,133,75,0.20464
8225420,-0.10500,97.8125,133,75,0.22515
8225430,-0.09500,96.5625,133,75,0.25031
8225440,-0.09500,95.6250,133,75,0.27912
8225450,-0.09000,94.5000,133,75,0.34261
8225460,-0.09000,94.1875,133,75,0.37509
8225470,-0.08500,94.0625,133,75,0.40659
8225480,-0.08000,94.0000,133,75,0.46325
8225490,-0.08500,94.0000,133,75,0.48767
8225500,-0.08000,93.9375,133,75,0.50916
8225510,-0.08000,93.9375,133,75,0.52527
8225520,-0.08500,93.8125,133,75,0.53773
8225530,-0.08000,93.3750,133,75,0.55873
8225540,-0.08000,93.0625,133,75,0.56654
8225550,-0.08500,92.6875,133,75,0.57289
8225560,-0.08500,92.3125,133,75,0.57729
8225570,-0.08500,91.5000,133,75,0.57900
8225580,-0.08000,91.0000,133,75,0.57729
8225590,-0.06500,90.5625,133,75,0.57363
8225600,-0.03500,89.5625,133,75,0.56117
8225610,-0.02000,89.0625,133,75,0.55287
8225620,-0.01000,88.5625,133,75,0.54286
8225630,0.00500,88.0625,133,75,0.53065
8225640,0.03000,87.6250,133,75,0.51697
8225650,0.06000,86.6875,133,75,0.48523
8225660,0.04000,86.1875,133,75,0.46789
8225670,0.00500,85.7500,133,75,0.45055
8225680,-0.02500,84.8750,133,75,0.43419
8225690,-0.06500,84.4375,133,75,0.40440
8225700,-0.10500,84.0625,133,75,0.39023
8225710,-0.13000,83.6875,133,75,0.37753
8225720,-0.13500,83.3125,133,75,0.36581
8225730,-0.13000,82.5625,133,75,0.34725
8225740,-0.13000,82.2500,133,75,0.34725
8225750,-0.12500,81.9375,133,75,0.35678
8225760,-0.12000,81.6875,133,75,0.37534
8225770,-0.08750,81.1875,133,75,0.42027
8225780,0.10500,80.9375,133,75,0.43370
8225790,0.59000,80.6875,133,75,0.43541
8225800,0.94000,80.4375,133,75,0.42540
8225810,0.62000,80.0625,133,75,0.39316
8225820,0.46000,79.8750,133,75,0.37387
8225830,0.50000,79.6875,133,75,0.35702
8225840,-0.00500,79.3750,133,75,0.33529
8225850,-0.18000,79.1875,133,75,0.32821
8225860,-0.23000,78.9375,133,75,0.32210
8225870,-0.22500,78.7500,133,75,0.31600
8225880,-0.22000,78.5000,133,75,0.30989
8225890,-0.21500,78.0000,133,75,0.29719
8225900,-0.21000,77.7500,133,75,0.29084
8225910,-0.20000,77.4375,133,75,0.28547
8225920,-0.20000,77.1250,133,75,0.28083
8225930,-0.18500,76.5000,133,75,0.26960
8225940,-0.17500,76.1875,133,75,0.26349
8225950,-0.17000,75.8125,133,75,0.25714
8225960,-0.16000,75.5625,133,75,0.25104
8225970,-0.15500,75.0000,133,75,0.23932
8225980,-0.14500,74.7500,133,75,0.23370
8225990,-0.12500,74.5000,133,75,0.22808
8226000,-0.10500,74.1875,133,75,0.21856
8226010,-0.09000,74.3750,133,75,0.21514
8226020,-0.07500,75.0000,133,75,0.21099
8226030,-0.05000,76.2500,133,75,0.20659
8226040,-0.04000,78.2500,133,75,0.20195
8226050,-0.02500,84.4375,133,75,0.19316
8226060,-0.00500,88.4375,133,75,0.18901
8226070,0.02000,92.8750,133,75,0.18510
8226080,0.05000,102.2500,133,75,0.18168
8226090,0.08000,106.9375,133,75,0.17607
8226100,0.10500,111.3125,133,75,0.17460
8226110,0.14500,115.2500,133,75,0.17411
8226120,0.16500,118.6875,133,75,0.17436
8226130,0.20000,123.8750,133,75,0.17387
8226140,0.22000,125.6875,133,75,0.17363
8226150,0.22500,127.0625,133,75,0.17338
8226160,0.20500,128.0000,133,75,0.17265
8226170,0.16500,128.8125,133,75,0.17045
8226180,0.09000,128.8125,133,75,0.17118
8226190,0.04000,128.6250,133,75,0.17411
8226200,-0.01000,127.5625,133,75,0.18535
8226210,-0.05500,126.7500,133,75,0.19072
8226220,-0.09000,125.6875,133,75,0.19341
8226230,-0.11000,124.5000,133,75,0.19072
8226240,-0.12500,121.5625,133,75,0.16801
8226250,-0.12500,119.8125,133,75,0.15189
8226260,-0.13000,117.8125,133,75,0.13748
8226270,-0.13500,115.6875,133,75,0.12747
8226280,-0.14000,113.3750,133,75,0.12357
8226290,-0.14000,108.3750,133,75,0.13431
8226300,-0.13500,105.8125,133,75,0.14750
8226310,-0.13500,103.3750,133,75,0.16288
8226320,-0.13500,99.4375,133,75,0.18071
8226330,-0.12500,97.9375,133,75,0.23150
8226340,-0.12000,96.8125,133,75,0.26300
8226350,-0.11000,96.0000,133,75,0.29695
8226360,-0.10500,95.3750,133,75,0.33211
8226370,-0.10500,94.6875,133,75,0.40195
8226380,-0.10500,94.5000,133,75,0.43443
8226390,-0.10500,94.4375,133,75,0.46422
8226400,-0.11000,94.3750,133,75,0.51160
8226410,-0.11000,94.2500,133,75,0.52772
8226420,-0.10500,94.1250,133,75,0.54359
8226430,-0.10500,93.9375,133,75,0.55800
8226440,-0.10500,93.6875,133,75,0.57021
8226450,-0.10500,93.1250,133,75,0.58803
8226460,-0.10500,92.7500,133,75,0.59365
8226470,-0.10500,92.3750,133,75,0.59707
8226480,-0.11000,91.9375,133,75,0.59853
8226490,-0.11000,91.0000,133,75,0.59585
8226500,-0.09500,90.5000,133,75,0.59170
8226510,-0.07000,90.0000,133,75,0.58608
8226520,-0.03500,89.0000,133,75,0.56972
8226530,-0.03000,88.5000,133,75,0.55897
8226540,-0.02000,88.0000,133,75,0.54628
8226550,0.01000,87.5000,133,75,0.53211
8226560,0.03500,87.0625,133,75,0.51648
8226570,0.03000,86.1250,133,75,0.47888
8226580,0.00500,85.6875,133,75,0.46032
8226590,-0.02500,85.2500,133,75,0.44713
8226600,-0.05000,84.8125,133,75,0.43321
8226610,-0.10000,84.0000,133,75,0.41001
8226620,-0.12500,83.6250,133,75,0.39927
8226630,-0.13500,83.2500,133,75,0.38926
8226640,-0.13500,82.5000,133,75,0.37289
8226650,-0.13500,82.1875,133,75,0.36654
8226660,-0.12500,81.9375,133,75,0.36117
8226670,-0.12000,81.6250,133,75,0.35653
8226680,-0.10500,81.3750,133,75,0.35238
8226690,0.06500,80.8750,133,75,0.34481
8226700,0.65500,80.6875,133,75,0.34115
8226710,0.97000,80.5000,133,75,0.33797
8226720,0.60500,80.2500,133,75,0.33504
8226730,-0.09500,79.8750,133,75,0.32821
8226740,-0.28500,79.6875,133,75,0.32430
8226750,-0.21500,79.5000,133,75,0.32015
8226760,-0.18000,79.0625,133,75,0.31600
8226770,-0.17500,78.8750,133,75,0.30745
8226780,-0.17500,78.6250,133,75,0.30281
8226790,-0.17000,78.3750,133,75,0.29817
8226800,-0.17000,78.3750,133,75,0.29817
8226810,-0.16500,77.5625,133,75,0.28596
8226820,-0.16000,77.2500,133,75,0.28181
8226830,-0.15500,76.9375,133,75,0.27717
8226840,-0.14500,76.3125,133,75,0.30208
8226850,-0.14000,76.0000,133,75,0.34896
8226860,-0.13500,75.6875,133,75,0.37021
8226870,-0.13000,75.3750,133,75,0.37851
8226880,-0.11500,75.0625,133,75,0.38022
8226890,-0.10000,74.5000,133,75,0.37509
8226900,-0.09000,74.3125,133,75,0.37070
8226910,-0.07500,74.1875,133,75,0.36703
8226920,-0.06000,74.1875,133,75,0.36361
8226930,-0.04500,75.3750,133,75,0.35507
8226940,-0.02500,77.0000,133,75,0.35067
8226950,-0.01000,79.3750,133,75,0.34676
8226960,0.00500,82.5000,133,75,0.34310
8226970,0.03000,90.6250,133,75,0.33651
8226980,0.04500,95.2500,133,75,0.33358
8226990,0.07500,100.1250,133,75,0.33089
8227000,0.10000,109.5625,133,75,0.32723
8227010,0.13000,113.8750,133,75,0.32674
8227020,0.15500,117.7500,133,75,0.32601
8227030,0.19000,121.0000,133,75,0.32503
8227040,0.22000,125.9375,133,75,0.32405
8227050,0.25000,127.6250,133,75,0.32234
8227060,0.25500,128.8750,133,75,0.32161
8227070,0.24000,129.7500,133,75,0.32112
8227080,0.18500,130.5625,133,75,0.32088
8227090,0.14000,130.5625,133,75,0.32112
8227100,0.06500,130.3750,133,75,0.32234
8227110,0.02000,129.9375,133,75,0.32405
8227120,-0.03500,128.5625,133,75,0.32625
8227130,-0.06000,127.6250,133,75,0.32698
8227140,-0.08000,126.5000,133,75,0.32772
8227150,-0.09500,125.1875,133,75,0.32821
8227160,-0.10000,123.7500,133,75,0.32894
8227170,-0.10500,120.2500,133,75,0.32991
8227180,-0.11500,118.1875,133,75,0.33114
8227190,-0.11500,115.9375,133,75,0.33382
8227200,-0.12000,113.4375,133,75,0.33895
8227210,-0.11500,108.1250,133,75,0.35556
8227220,-0.11500,105.4375,133,75,0.37045
8227230,-0.10500,103.0000,133,75,0.39048
8227240,-0.10500,99.3125,133,75,0.44444
8227250,-0.10500,98.0000,133,75,0.47692
8227260,-0.10000,97.0000,133,75,0.51160
8227270,-0.09500,96.2500,133,75,0.54701
8227280,-0.08500,95.5000,133,75,0.61538
8227290,-0.08500,95.3125,133,75,0.64664
8227300,-0.08500,95.2500,133,75,0.67131
8227310,-0.08500,95.2500,133,75,0.69133
8227320,-0.08500,95.2500,133,75,0.71160
8227330,-0.09000,95.0625,133,75,0.74676
8227340,-0.09000,94.9375,133,75,0.76093
8227350,-0.08500,94.6875,133,75,0.77265
8227360,-0.08500,94.3750,133,75,0.78193
8227370,-0.08500,93.6250,133,75,0.79341
8227380,-0.09000,93.1875,133,75,0.79585
8227390,-0.09000,92.7500,133,75,0.79658
8227400,-0.09000,91.7500,133,75,0.79536
8227410,-0.06500,91.2500,133,75,0.78681
8227420,-0.04500,90.7500,133,75,0.78046
8227430,-0.02000,90.2500,133,75,0.77241
8227440,-0.01500,89.2500,133,75,0.76239
8227450,0.00500,88.7500,133,75,0.73651
8227460,0.04000,88.2500,133,75,0.72088
8227470,0.06000,87.7500,133,75,0.70379
8227480,0.04000,87.2500,133,75,0.68571
8227490,0.00000,86.3125,133,75,0.64811
8227500,-0.03000,85.8750,133,75,0.63150
8227510,-0.06500,85.4375,133,75,0.61636
8227520,-0.10500,85.0625,133,75,0.60073
8227530,-0.12500,84.2500,133,75,0.57241
8227540,-0.12500,83.8750,133,75,0.56044
8227550,-0.12500,83.5000,133,75,0.54994
8227560,-0.12500,82.8125,133,75,0.53358
8227570,-0.12500,82.5000,133,75,0.52698
8227580,-0.12000,82.2500,133,75,0.52137
8227590,-0.05000,81.9375,133,75,0.51648
8227600,0.27000,81.7500,133,75,0.51136
8227610,0.80500,81.3750,133,75,0.50379
8227620,0.83500,81.1250,133,75,0.49988
8227630,0.28500,80.9375,133,75,0.49573
8227640,-0.27000,80.5000,133,75,0.48694
8227650,-0.25000,80.3125,133,75,0.48205
8227660,-0.19000,80.1250,133,75,0.47717
8227670,-0.17000,79.8750,133,75,0.47228
8227680,-0.17000,79.4375,133,75,0.46276
8227690,-0.17000,79.1875,133,75,0.45763
8227700,-0.16500,78.8750,133,75,0.45324
8227710,-0.16000,78.6250,133,75,0.44933
8227720,-0.16000,78.3125,133,75,0.44444
8227730,-0.15500,77.6250,133,75,0.43321
8227740,-0.15000,77.2500,133,75,0.42759
8227750,-0.14500,76.9375,133,75,0.42222
8227760,-0.14500,76.6250,133,75,0.41685
8227770,-0.13500,76.0000,133,75,0.40659
8227780,-0.12500,75.6875,133,75,0.40122
8227790,-0.11500,75.4375,133,75,0.39585
8227800,-0.11500,75.4375,133,75,0.39585
8227810,-0.09000,74.8125,133,75,0.38193
8227820,-0.07000,74.8125,133,75,0.37753
8227830,-0.05000,75.1875,133,75,0.37265
8227840,-0.03500,77.7500,133,75,0.36337
8227850,-0.02000,80.1875,133,75,0.35897
8227860,-0.00500,83.4375,133,75,0.35507
8227870,0.01000,87.3750,133,75,0.35116
8227880,0.03500,96.6250,133,75,0.34408
8227890,0.05500,101.6250,133,75,0.34090
8227900,0.08000,106.6250,133,75,0.33919
8227910,0.10500,111.4375,133,75,0.33822
8227920,0.13000,119.7500,133,75,0.33700
8227930,0.16000,123.1250,133,75,0.33431
8227940,0.18500,125.9375,133,75,0.33333
8227950,0.21500,128.1875,133,75,0.33260
8227960,0.23000,131.1875,133,75,0.33114
8227970,0.22500,132.1250,133,75,0.33065
8227980,0.20000,132.6875,133,75,0.33016
8227990,0.14000,133.0000,133,75,0.32991
8228000,0.09000,133.1250,133,75,0.32967
8228010,0.02500,132.6250,133,75,0.33162
8228020,-0.02500,132.1250,133,75,0.33211
8228030,-0.06500,131.5000,133,75,0.33260
8228040,-0.08500,130.6875,133,75,0.33309
8228050,-0.10500,128.5000,133,75,0.33358
8228060,-0.11500,127.0625,133,75,0.33358
8228070,-0.12000,125.5000,133,75,0.33358
8228080,-0.12500,123.7500,133,75,0.33382
8228090,-0.13000,119.6250,133,75,0.33822
8228100,-0.13500,117.2500,133,75,0.34310
8228110,-0.13500,114.6875,133,75,0.35018
8228120,-0.13500,112.0625,133,75,0.36068
8228130,-0.13000,107.0625,133,75,0.39560
8228140,-0.12500,104.9375,133,75,0.42076
8228150,-0.12000,103.1875,133,75,0.45031
8228160,-0.11500,100.6250,133,75,0.48352
8228170,-0.11000,99.8125,133,75,0.55458
8228180,-0.11000,99.1875,133,75,0.59023
8228190,-0.10500,98.7500,133,75,0.62418
8228200,-0.10500,98.5000,133,75,0.65592
8228210,-0.10500,98.2500,133,75,0.70183
8228220,-0.10000,98.1875,133,75,0.72283
8228230,-0.10000,98.0625,133,75,0.74237
8228240,-0.10000,97.9375,133,75,0.75971
8228250,-0.10000,97.4375,133,75,0.78730
8228260,-0.10500,97.1250,133,75,0.79780
8228270,-0.10500,96.7500,133,75,0.80610
8228280,-0.11000,96.3750,133,75,0.81221
8228290,-0.11000,95.4375,133,75,0.81734
8228300,-0.10500,95.0000,133,75,0.81636
8228310,-0.09000,94.5000,133,75,0.81319
8228320,-0.06500,93.4375,133,75,0.80342
8228330,-0.04500,92.8750,133,75,0.79634
8228340,-0.02500,92.3125,133,75,0.78755
8228350,-0.01000,91.8125,133,75,0.77729
8228360,0.01000,91.3125,133,75,0.76532
8228370,0.05000,90.3125,133,75,0.73651
8228380,0.05000,89.8750,133,75,0.72015
8228390,0.02000,89.3750,133,75,0.70305
8228400,-0.02000,88.4375,133,75,0.66960
8228410,-0.05000,88.0000,133,75,0.65495
8228420,-0.09500,87.5625,133,75,0.64005
8228430,-0.14000,87.1250,133,75,0.62564
8228440,-0.14500,86.7500,133,75,0.61245
8228450,-0.15000,86.0000,133,75,0.58999
8228460,-0.15000,85.6875,133,75,0.58095
8228470,-0.15000,85.3750,133,75,0.57314
8228480,-0.14500,85.0625,133,75,0.56630
8228490,-0.13500,84.5000,133,75,0.55482
8228500,-0.01500,84.2500,133,75,0.55018
8228510,0.54500,84.0000,133,75,0.54579
8228520,0.96500,83.8125,133,75,0.54164
8228530,0.83500,83.4375,133,75,0.53407
8228540,0.10000,83.2500,133,75,0.53016
8228550,-0.27000,83.0625,133,75,0.52601
8228560,-0.24000,82.8750,133,75,0.52186
8228570,-0.20500,82.5000,133,75,0.51233
8228580,-0.20000,82.3125,133,75,0.50745
8228590,-0.20000,82.1250,133,75,0.50256
8228600,-0.20000,81.6250,133,75,0.49719
8228610,-0.19500,81.3125,133,75,0.48816
8228620,-0.19000,81.0625,133,75,0.48230
8228630,-0.18000,80.7500,133,75,0.47692
8228640,-0.18000,80.0625,133,75,0.47302
8228650,-0.17000,79.7500,133,75,0.46325
8228660,-0.17000,79.3750,133,75,0.45788
8228670,-0.16000,79.0625,133,75,0.45250
8228680,-0.14500,78.5000,133,75,0.44249
8228690,-0.14500,78.1875,133,75,0.43785
8228700,-0.13000,77.9375,133,75,0.43419
8228710,-0.11500,77.7500,133,75,0.43101
8228720,-0.09500,77.6250,133,75,0.42735
8228730,-0.08000,78.1875,133,75,0.41954
8228740,-0.06500,79.3125,133,75,0.41563
8228750,-0.05000,81.1875,133,75,0.41197
8228760,-0.03500,87.5625,133,75,0.40830
8228770,-0.01500,91.8125,133,75,0.40171
8228780,0.00000,96.5000,133,75,0.39878
8228790,0.02500,101.5000,133,75,0.39634
8228800,0.02500,101.5000,133,75,0.39634
8228810,0.07500,116.5625,133,75,0.39267
8228820,0.09500,120.9375,133,75,0.39243
8228830,0.13500,124.7500,133,75,0.39219
8228840,0.16000,128.0625,133,75,0.39219
8228850,0.19500,132.8750,133,75,0.39219
8228860,0.21500,134.5000,133,75,0.39243
8228870,0.22500,135.7500,133,75,0.39243
8228880,0.20500,137.3125,133,75,0.39243
8228890,0.17500,137.6250,133,75,0.37485
8228900,0.11500,137.7500,133,75,0.34896
8228910,0.05000,137.6875,133,75,0.33651
8228920,-0.00500,137.4375,133,75,0.33016
8228930,-0.05000,136.4375,133,75,0.32552
8228940,-0.08500,135.6875,133,75,0.32479
8228950,-0.10500,134.8125,133,75,0.32454
8228960,-0.11500,132.6250,133,75,0.32454
8228970,-0.12500,131.1875,133,75,0.32503
8228980,-0.12500,129.6250,133,75,0.32576
8228990,-0.12500,127.8125,133,75,0.32723
8229000,-0.13000,125.8125,132,75,0.32991
8229010,-0.13000,121.0625,132,75,0.34286
8229020,-0.13000,118.3750,132,75,0.35507
8229030,-0.12500,115.6875,132,75,0.37167
8229040,-0.12500,113.0625,132,75,0.39341
8229050,-0.11500,108.5000,132,75,0.45104
8229060,-0.11500,106.7500,132,75,0.48498
8229070,-0.11000,105.3125,132,75,0.52063
8229080,-0.10500,104.1875,132,75,0.55678
8229090,-0.10000,102.6875,132,75,0.62540
8229100,-0.10000,102.2500,132,75,0.65226
8229110,-0.10000,101.9375,132,75,0.67448
8229120,-0.10500,101.7500,132,75,0.69744
8229130,-0.10000,101.5000,132,75,0.73919
8229140,-0.10000,101.3125,132,75,0.75678
8229150,-0.10000,101.1250,132,75,0.77192
8229160,-0.10000,100.8750,132,75,0.78462
8229170,-0.10000,100.1250,132,75,0.80293
8229180,-0.10000,99.6875,132,75,0.80904
8229190,-0.09500,99.2500,132,75,0.81343
8229200,-0.09500,98.7500,132,75,0.81441
8229210,-0.09500,97.7500,132,75,0.81172
8229220,-0.08000,97.1875,132,75,0.80904
8229230,-0.06000,96.6250,132,75,0.80488
8229240,-0.03500,96.0625,132,75,0.79951
8229250,-0.01500,95.0000,132,75,0.78339
8229260,-0.01000,94.4375,132,75,0.77216
8229270,0.01500,93.8750,132,75,0.75897
8229280,0.03500,93.3750,132,75,0.74383
8229290,0.04500,92.3750,132,75,0.70965
8229300,0.02000,91.8750,132,75,0.69255
8229310,-0.00500,91.3750,132,75,0.67595
8229320,-0.04500,90.3750,132,75,0.64103
8229330,-0.08500,89.9375,132,75,0.62442
8229340,-0.12500,89.5000,132,75,0.60879
8229350,-0.14500,89.0625,132,75,0.59438
8229360,-0.14500,88.3125,132,75,0.56996
8229370,-0.14000,87.9375,132,75,0.56020
8229380,-0.13500,87.6250,132,75,0.55165
8229390,-0.12500,87.3125,132,75,0.54432
8229400,-0.12000,86.8125,132,75,0.53309
8229410,-0.01500,86.5000,132,75,0.52821
8229420,0.43000,86.2500,132,75,0.52357
8229430,1.08000,86.0625,132,75,0.51917
8229440,0.94000,85.8125,132,75,0.51453
8229450,0.06000,85.4375,132,75,0.50476
8229460,-0.22500,85.2500,132,75,0.49963
8229470,-0.20500,85.0625,132,75,0.49402
8229480,-0.19000,84.8750,132,75,0.48791
8229490,-0.19000,84.4375,132,75,0.47497
8229500,-0.19000,84.1875,132,75,0.46911
8229510,-0.19500,83.9375,132,75,0.46374
8229520,-0.19000,83.3125,132,75,0.45812
8229530,-0.18500,83.0000,132,75,0.44640
8229540,-0.18000,82.6875,132,75,0.44054
8229550,-0.17000,82.3750,132,75,0.43492
8229560,-0.16000,81.7500,132,75,0.42393
8229570,-0.16000,81.3750,132,75,0.41856
8229580,-0.16000,81.0625,132,75,0.41319
8229590,-0.15000,80.7500,132,75,0.40781
8229600,-0.14000,80.4375,132,75,0.40293
8229610,-0.12500,79.8750,132,75,0.39365
8229620,-0.10500,79.6875,132,75,0.38852
8229630,-0.09500,79.6250,132,75,0.38388
8229640,-0.07500,80.5625,132,75,0.37436
8229650,-0.06500,82.0000,132,75,0.36972
8229660,-0.05500,84.3125,132,75,0.36679
8229670,-0.03500,87.5625,132,75,0.36410
8229680,-0.02000,91.5625,132,75,0.36142
8229690,0.00000,101.1250,132,75,0.35678
8229700,0.02000,106.3125,132,75,0.35507
8229710,0.04500,111.5625,132,75,0.35385
8229720,0.07000,121.2500,132,75,0.35263
8229730,0.11000,125.4375,132,75,0.35092
8229740,0.14000,129.0000,132,75,0.35043
8229750,0.17500,132.0000,132,75,0.35018
8229760,0.21000,136.2500,132,75,0.35067
8229770,0.22500,137.6875,132,75,0.35116
8229780,0.22500,138.7500,132,75,0.35189
8229790,0.20500,139.4375,132,75,0.35263
8229800,0.20500,139.4375,132,75,0.35263
8229810,0.12000,140.1250,132,75,0.35507
8229820,0.04500,140.0000,132,75,0.35531
8229830,-0.00500,139.6250,132,75,0.35556
8229840,-0.04000,139.1250,132,75,0.35604
8229850,-0.07500,137.6250,132,75,0.35653
8229860,-0.08500,136.6875,132,75,0.35653
8229870,-0.10500,135.5000,132,75,0.35653
8229880,-0.11500,132.7500,132,75,0.35629
8229890,-0.12000,131.0625,132,75,0.35653
8229900,-0.12500,129.1250,132,75,0.35800
8229910,-0.12000,127.0000,132,75,0.36068
8229920,-0.12000,124.5625,132,75,0.36581
8229930,-0.12000,119.1875,132,75,0.38828
8229940,-0.11500,116.3750,132,75,0.40684
8229950,-0.11000,113.6250,132,75,0.43004
8229960,-0.09500,108.8750,132,75,0.48913
8229970,-0.09000,107.0625,132,75,0.52308
8229980,-0.08500,105.5000,132,75,0.55800
8229990,-0.07500,104.3125,132,75,0.59267
8230000,-0.07500,103.4375,132,75,0.62149
8230010,-0.06500,102.3125,132,75,0.67277
8230020,-0.06000,102.0000,132,75,0.69817
8230030,-0.05500,101.7500,132,75,0.72112
8230040,-0.05500,101.5000,132,75,0.74139
8230050,-0.04500,101.0625,132,75,0.77436
8230060,-0.04000,100.8125,132,75,0.78706
8230070,-0.03500,100.5000,132,75,0.79756
8230080,-0.03500,99.6875,132,75,0.81294
8230090,-0.03500,99.2500,132,75,0.81807
8230100,-0.03500,98.7500,132,75,0.81978
8230110,-0.03500,98.1875,132,75,0.81929
8230120,-0.03500,97.6250,132,75,0.81880
8230130,-0.02500,96.4375,132,75,0.81368
8230140,0.00000,95.8750,132,75,0.80830
8230150,0.02500,95.2500,132,75,0.80122
8230160,0.04000,94.0625,132,75,0.78144
8230170,0.05000,93.4375,132,75,0.76899
8230180,0.07000,92.8125,132,75,0.75458
8230190,0.10500,92.2500,132,75,0.73822
8230200,0.10000,91.6875,132,75,0.72161
8230210,0.06500,90.5625,132,75,0.68620
8230220,0.03000,90.0625,132,75,0.66691
8230230,-0.01000,89.5625,132,75,0.64737
8230240,-0.04500,89.0625,132,75,0.62833
8230250,-0.08000,88.0625,132,75,0.59243
8230260,-0.09500,87.6250,132,75,0.57631
8230270,-0.09500,87.1875,132,75,0.56166
8230280,-0.09500,86.8125,132,75,0.54847
8230290,-0.09500,86.0625,132,75,0.52576
8230300,-0.09000,85.6875,132,75,0.51648
8230310,-0.08500,85.3125,132,75,0.50867
8230320,0.08000,84.6875,132,75,0.50061
8230330,0.67500,84.3750,132,75,0.48498
8230340,1.03000,84.1250,132,75,0.47741
8230350,0.75500,83.8125,132,75,0.47009
8230360,0.02500,83.5625,132,75,0.46227
8230370,-0.23500,83.1875,132,75,0.44689
8230380,-0.23916,82.9375,132,75,0.43858
8230390,-0.15500,82.7500,132,75,0.43004
8230400,-0.15000,82.3125,132,75,0.41587
8230410,-0.15000,82.0000,132,75,0.40830
8230420,-0.14500,81.6875,132,75,0.40073
8230430,-0.14500,81.3750,132,75,0.39292
8230440,-0.14500,81.0625,132,75,0.38510
8230450,-0.14000,80.3125,132,75,0.36874
8230460,-0.14000,79.9375,132,75,0.36068
8230470,-0.13500,79.5625,132,75,0.35263
8230480,-0.13000,79.2500,132,75,0.34432
8230490,-0.12500,78.5000,132,75,0.32796
8230500,-0.12000,78.1250,132,75,0.32112
8230510,-0.11500,77.7500,132,75,0.31526
8230520,-0.10500,77.1875,132,75,0.30183
8230530,-0.09500,76.8750,132,75,0.29499
8230540,-0.08000,76.6875,132,75,0.28816
8230550,-0.06500,76.6875,132,75,0.28181
8230560,-0.05000,77.0000,132,75,0.27570
8230570,-0.03500,79.3750,132,75,0.26422
8230580,-0.02000,81.7500,132,75,0.25910
8230590,0.00000,84.9375,132,75,0.25421
8230600,0.01500,88.7500,132,75,0.25079
8230610,0.04000,97.7500,132,75,0.24444
8230620,0.07500,102.6250,132,75,0.24054
8230630,0.11500,107.5625,132,75,0.23663
8230640,0.14000,112.2500,132,75,0.23272
8230650,0.16500,120.4375,132,75,0.22613
8230660,0.19500,123.7500,132,75,0.22369
8230670,0.23000,126.4375,132,75,0.22149
8230680,0.24500,128.6250,132,75,0.21978
8230690,0.25500,131.5000,132,75,0.21856
8230700,0.25000,132.3750,132,75,0.21929
8230710,0.22500,132.8750,132,75,0.21954
8230720,0.17500,133.1250,132,75,0.21954
8230730,0.11000,132.8750,132,75,0.21905
8230740,0.04500,132.4375,132,75,0.21856
8230750,0.00500,131.8125,132,75,0.21807
8230760,-0.03500,131.0000,132,75,0.21734
8230770,-0.06000,128.8750,132,75,0.21563
8230780,-0.07500,127.5625,132,75,0.21465
8230790,-0.08500,126.0000,132,75,0.21392
8230800,-0.08500,126.0000,132,75,0.21392
8230810,-0.10500,120.2500,132,75,0.21636
8230820,-0.10500,117.8125,132,75,0.21807
8230830,-0.10500,115.2500,132,75,0.22149
8230840,-0.10500,109.9375,132,75,0.23687
8230850,-0.10000,107.4375,132,75,0.25104
8230860,-0.10000,105.1875,132,75,0.26984
8230870,-0.10000,103.3125,132,75,0.29328
8230880,-0.09500,101.7500,132,75,0.32088
8230890,-0.09500,99.5000,132,75,0.38046
8230900,-0.09500,98.7500,132,75,0.40757
8230910,-0.09500,98.2500,132,75,0.43785
8230920,-0.10000,97.9375,132,75,0.46862
8230930,-0.10000,97.5000,132,75,0.52527
8230940,-0.10000,97.3750,132,75,0.54212
8230950,-0.10000,97.2500,132,75,0.55165
8230960,-0.09500,96.9375,132,75,0.57314
8230970,-0.09500,96.7500,132,75,0.58266
8230980,-0.09500,96.4375,132,75,0.59072
8230990,-0.10000,96.1250,132,75,0.59707
8231000,-0.10500,95.7500,132,75,0.60049
8231010,-0.10500,94.8125,132,75,0.60269
8231020,-0.10500,94.3750,132,75,0.60220
8231030,-0.10000,93.8750,132,75,0.60049
8231040,-0.08500,93.3125,132,75,0.59707
8231050,-0.05500,92.3125,132,75,0.58535
8231060,-0.02500,91.7500,132,75,0.57753
8231070,-0.02000,91.1875,132,75,0.56825
8231080,-0.01000,90.6250,132,75,0.55775
8231090,0.03000,89.6250,132,75,0.53407
8231100,0.05500,89.0625,132,75,0.52210
8231110,0.04000,88.5625,132,75,0.50818
8231120,-0.00500,87.6250,132,75,0.47863
8231130,-0.02500,87.1875,132,75,0.46398
8231140,-0.06000,86.6875,132,75,0.44982
8231150,-0.11500,86.2500,132,75,0.43639
8231160,-0.13500,85.8750,132,75,0.42418
8231170,-0.14500,85.1250,132,75,0.40391
8231180,-0.15000,84.7500,132,75,0.39536
8231190,-0.14500,84.4375,132,75,0.38803
8231200,-0.14000,83.8125,132,75,0.37802
8231210,-0.13500,83.5625,132,75,0.37338
8231220,-0.10500,83.2500,132,75,0.36899
8231230,0.13000,83.0000,132,75,0.36484
8231240,0.73500,82.5625,132,75,0.35678
8231250,0.92000,82.3125,132,75,0.35263
8231260,0.43500,82.1250,132,75,0.34872
8231270,-0.26000,81.9375,132,75,0.34481
8231280,-0.29000,81.7500,132,75,0.34115
8231290,-0.23000,81.3125,132,75,0.33407
8231300,-0.20500,81.0625,132,75,0.33114
8231310,-0.20000,80.8125,132,75,0.32747
8231320,-0.19500,80.2500,132,75,0.31941
8231330,-0.19000,79.9375,132,75,0.31502
8231340,-0.18000,79.6875,132,75,0.31062
8231350,-0.17500,79.3750,132,75,0.30623
8231360,-0.16500,78.7500,132,75,0.29768
8231370,-0.16000,78.3750,132,75,0.29328
8231380,-0.15500,78.0625,132,75,0.28913
8231390,-0.14500,77.6875,132,75,0.28498
8231400,-0.14000,77.0625,132,75,0.27863
8231410,-0.13500,76.7500,132,75,0.27497
8231420,-0.12000,76.4375,132,75,0.27106
8231430,-0.10500,76.1875,132,75,0.26740
8231440,-0.09500,75.8750,132,75,0.26374
8231450,-0.08500,75.6250,132,75,0.25617
8231460,-0.06500,75.7500,132,75,0.25275
8231470,-0.05500,76.3125,132,75,0.24933
8231480,-0.03500,79.4375,132,75,0.24322
8231490,-0.02500,82.1875,132,75,0.24151
8231500,0.00000,85.6250,132,75,0.24029
8231510,0.02000,89.6875,132,75,0.23834
8231520,0.05000,98.8125,132,75,0.23394
8231530,0.06500,103.6250,132,75,0.23175
8231540,0.09000,108.3125,132,75,0.22979
8231550,0.12500,112.8125,132,75,0.22833
8231560,0.15000,116.8125,132,75,0.22735
8231570,0.18500,123.3125,132,75,0.22637
8231580,0.21000,125.6875,132,75,0.22613
8231590,0.23000,127.6250,132,75,0.22613
8231600,0.23500,130.0000,132,75,0.22662
8231610,0.20500,130.6250,132,75,0.22784
8231620,0.16500,130.9375,132,75,0.22808
8231630,0.09000,131.0000,132,75,0.22833
8231640,0.04000,130.8125,132,75,0.22833
8231650,-0.01500,129.6875,132,75,0.22833
8231660,-0.05500,128.8750,132,75,0.22857
8231670,-0.08000,127.8125,132,75,0.22906
8231680,-0.10000,126.6250,132,75,0.22955
8231690,-0.11500,123.6250,132,75,0.23126
8231700,-0.11500,121.8750,132,75,0.23272
8231710,-0.11500,119.8750,132,75,0.23394
8231720,-0.11500,115.3125,132,75,0.23712
8231730,-0.11500,112.6875,132,75,0.24005
8231740,-0.11500,110.0000,132,75,0.24493
8231750,-0.11500,107.3750,132,75,0.25226
8231760,-0.11500,104.9375,132,75,0.26276
8231770,-0.11500,100.9375,132,75,0.29475
8231780,-0.11500,99.4375,132,75,0.31624
8231790,-0.10000,98.2500,132,75,0.34066
8231800,-0.10000,98.2500,132,75,0.34066
8231810,-0.09500,96.3750,132,75,0.41197
8231820,-0.09500,96.1875,132,75,0.43834
8231830,-0.09000,96.0000,132,75,0.46398
8231840,-0.09500,95.8750,132,75,0.51038
8231850,-0.09500,95.8125,132,75,0.53016
8231860,-0.09500,95.7500,132,75,0.54725
8231870,-0.09000,95.5625,132,75,0.56166
8231880,-0.09000,95.3750,132,75,0.57338
8231890,-0.09000,94.8125,132,75,0.58877
8231900,-0.09000,94.4375,132,75,0.59267
8231910,-0.09000,94.0625,132,75,0.59560
8231920,-0.08500,93.6250,132,75,0.59756
8231930,-0.09000,92.6875,132,75,0.59731
8231940,-0.08500,92.1875,132,75,0.59438
8231950,-0.07500,91.6250,132,75,0.59023
8231960,-0.05000,91.1250,132,75,0.58437
8231970,-0.02500,90.1250,132,75,0.56874
8231980,-0.01000,89.6250,132,75,0.55922
8231990,0.00000,89.1250,132,75,0.54799
8232000,0.03500,88.5625,133,75,0.53700
8232010,0.06000,87.5625,133,75,0.51282
8232020,0.04000,87.1250,133,75,0.49890
8232030,0.00500,86.6250,133,75,0.48474
8232040,-0.02000,86.1875,133,75,0.47057
8232050,-0.06000,85.3750,133,75,0.44493
8232060,-0.09500,85.0000,133,75,0.43370
8232070,-0.12500,84.6250,133,75,0.42344
8232080,-0.13500,84.2500,133,75,0.41441
8232090,-0.13500,83.5625,133,75,0.40073
8232100,-0.13500,83.2500,133,75,0.39585
8232110,-0.12500,82.9375,133,75,0.39145
8232120,-0.12500,82.4375,133,75,0.38388
8232130,-0.08500,82.1875,133,75,0.38046
8232140,0.15500,81.9375,133,75,0.37729
8232150,0.66500,81.7500,133,75,0.37411
8232160,0.95500,81.5625,133,75,0.37118
8232170,0.28500,81.1875,133,75,0.36459
8232180,-0.19000,80.9375,133,75,0.36093
8232190,-0.27500,80.7500,133,75,0.35702
8232200,-0.20000,80.3125,133,75,0.35140
8232210,-0.19000,80.0625,133,75,0.34799
8232220,-0.18000,79.8750,133,75,0.34457
8232230,-0.18000,79.6250,133,75,0.34090
8232240,-0.17500,79.0625,133,75,0.33700
8232250,-0.16500,78.8125,133,75,0.32894
8232260,-0.15500,78.5000,133,75,0.32527
8232270,-0.15500,78.1875,133,75,0.32161
8232280,-0.14500,77.5625,133,75,0.31795
8232290,-0.14000,77.1875,133,75,0.31136
8232300,-0.13500,76.8125,133,75,0.30891
8232310,-0.12500,76.5625,133,75,0.30574
8232320,-0.11500,76.2500,133,75,0.30208
8232330,-0.11500,75.6250,133,75,0.29426
8232340,-0.10000,75.3750,133,75,0.29011
8232350,-0.08500,75.1875,133,75,0.28620
8232360,-0.06500,75.0625,133,75,0.27912
8232370,-0.05000,75.3750,133,75,0.27570
8232380,-0.03000,76.2500,133,75,0.27253
8232390,-0.00500,77.8750,133,75,0.26984
8232400,0.01000,80.3125,133,75,0.26813
8232410,0.03000,87.3750,133,75,0.26471
8232420,0.04000,91.7500,133,75,0.26227
8232430,0.06000,96.4375,133,75,0.25983
8232440,0.08500,106.2500,133,75,0.25568
8232450,0.10500,110.9375,133,75,0.25372
8232460,0.13500,115.2500,133,75,0.25201
8232470,0.16500,119.1250,133,75,0.25079
8232480,0.20500,125.1875,133,75,0.24884
8232490,0.22500,127.4375,133,75,0.24884
8232500,0.23500,129.1250,133,75,0.24957
8232510,0.22500,130.3750,133,75,0.24982
8232520,0.20500,131.2500,133,75,0.25006
8232530,0.14500,132.0000,133,75,0.25031
8232540,0.10000,131.9375,133,75,0.25055
8232550,0.04000,131.6875,133,75,0.25079
8232560,-0.01500,131.1875,133,75,0.25079
8232570,-0.06000,129.6875,133,75,0.25079
8232580,-0.08500,128.6250,133,75,0.25104
8232590,-0.11000,127.4375,133,75,0.25226
8232600,-0.12000,126.0625,133,75,0.25372
8232610,-0.13000,122.6250,133,75,0.25592
8232620,-0.13500,120.6250,133,75,0.25665
8232630,-0.13500,118.4375,133,75,0.25763
8232640,-0.13500,116.0000,133,75,0.25934
8232650,-0.13000,110.5625,133,75,0.26911
8232660,-0.13000,107.7500,133,75,0.27790
8232670,-0.13000,105.1250,133,75,0.29035
8232680,-0.12500,100.8125,133,75,0.32601
8232690,-0.12500,99.2500,133,75,0.34579
8232700,-0.11500,98.0625,133,75,0.36630
8232710,-0.10500,97.1875,133,75,0.39072
8232720,-0.10000,96.5625,133,75,0.42442
8232730,-0.09500,95.9375,133,75,0.47717
8232740,-0.09500,95.8125,133,75,0.49988
8232750,-0.09000,95.8125,133,75,0.52161
8232760,-0.09000,95.7500,133,75,0.55873
8232770,-0.09000,95.6875,133,75,0.57363
8232780,-0.09000,95.5625,133,75,0.58584
8232790,-0.09500,95.3750,133,75,0.59414
8232800,-0.09500,95.3750,133,75,0.59414
8232810,-0.09500,94.5000,133,75,0.60977
8232820,-0.09500,94.1250,133,75,0.61294
8232830,-0.09000,93.7500,133,75,0.61465
8232840,-0.09000,92.7500,133,75,0.61392
8232850,-0.09000,92.2500,133,75,0.61148
8232860,-0.07500,91.7500,133,75,0.60757
8232870,-0.05000,91.1875,133,75,0.60220
8232880,-0.02500,90.1250,133,75,0.58681
8232890,-0.02000,89.6250,133,75,0.57778
8232900,-0.00500,89.1250,133,75,0.56801
8232910,0.04000,88.6250,133,75,0.55629
8232920,0.06000,88.1250,133,75,0.54335
8232930,0.05000,87.2500,133,75,0.51160
8232940,0.00500,86.7500,133,75,0.49158
8232950,-0.01500,86.3125,133,75,0.47814
8232960,-0.04500,85.8750,133,75,0.46838
8232970,-0.09500,85.1250,133,75,0.44689
8232980,-0.12000,84.6875,133,75,0.43712
8232990,-0.12500,84.3125,133,75,0.44884
8233000,-0.13000,84.0000,133,76,0.47131
8233010,-0.12500,83.3750,133,76,0.47961
8233020,-0.12000,83.0625,133,76,0.47717
8233030,-0.11500,82.8125,133,76,0.47302
8233040,-0.07500,82.2500,133,76,0.46618
8233050,0.28500,82.0000,133,76,0.46276
8233060,0.72500,81.8125,133,76,0.45788
8233070,0.95000,81.5625,133,76,0.45226
8233080,0.42000,81.3750,133,76,0.44713
8233090,-0.16500,80.9375,133,76,0.43956
8233100,-0.23000,80.7500,133,76,0.43492
8233110,-0.18500,80.5000,133,76,0.43150
8233120,-0.17000,80.3125,133,76,0.42735
8233130,-0.16500,79.8125,133,76,0.41661
8233140,-0.16000,79.5625,133,76,0.41270
8233150,-0.16000,79.2500,133,76,0.40830
8233160,-0.15500,79.0000,133,76,0.40269
8233170,-0.14000,78.3750,133,76,0.39267
8233180,-0.13000,78.0625,133,76,0.38901
8233190,-0.12500,77.6875,133,76,0.38584
8233200,-0.12500,77.0000,133,76,0.37729
8233210,-0.12000,76.6875,133,76,0.37241
8233220,-0.11500,76.3750,133,76,0.36728
8233230,-0.10500,76.0625,133,76,0.36215
8233240,-0.09500,75.8125,133,76,0.35726
8233250,-0.08500,75.3125,133,76,0.34774
8233260,-0.07500,75.1250,133,76,0.34335
8233270,-0.05500,75.0625,133,76,0.33871
8233280,-0.04500,75.2500,133,76,0.33407
8233290,-0.03000,77.2500,133,76,0.32845
8233300,-0.01500,79.3125,133,76,0.32552
8233310,-0.00500,82.2500,133,76,0.32234
8233320,0.01000,90.1250,133,76,0.31893
8233330,0.03000,94.8125,133,76,0.31209
8233340,0.05500,99.6875,133,76,0.30940
8233350,0.08000,104.6875,133,76,0.30720
8233360,0.11000,109.6250,133,76,0.30525
8233370,0.14000,118.3750,133,76,0.30134
8233380,0.17500,122.0000,133,76,0.30061
8233390,0.21500,125.0625,133,76,0.30061
8233400,0.23500,127.5625,133,76,0.30037
8233410,0.24500,131.0625,133,76,0.29988
8233420,0.24000,132.1875,133,76,0.30012
8233430,0.21500,132.9375,133,76,0.30037
8233440,0.17000,133.3125,133,76,0.30085
8233450,0.09500,133.4375,133,76,0.30208
8233460,0.04500,133.1250,133,76,0.30256
8233470,-0.00500,132.6875,133,76,0.30330
8233480,-0.05000,131.1250,133,76,0.30501
8233490,-0.07500,130.1250,133,76,0.30647
8233500,-0.09000,128.8750,133,76,0.30720
8233510,-0.10500,127.5000,133,76,0.30745
8233520,-0.11500,125.9375,133,76,0.30769
8233530,-0.12000,122.0625,133,76,0.30965
8233540,-0.12500,119.8125,133,76,0.31258
8233550,-0.12500,117.3750,133,76,0.31819
8233560,-0.12500,112.0000,133,76,0.32747
8233570,-0.12000,109.3125,133,76,0.35946
8233580,-0.11500,106.8125,133,76,0.37924
8233590,-0.11000,104.5625,133,76,0.40122
8233600,-0.10500,102.6875,133,76,0.42930
8233610,-0.10500,100.0000,133,76,0.49621
8233620,-0.09500,99.0625,133,76,0.53162
8233630,-0.09500,98.3750,133,76,0.56654
8233640,-0.09500,97.9375,133,76,0.60000
8233650,-0.09000,97.3750,133,76,0.65836
8233660,-0.08500,97.2500,133,76,0.68254
8233670,-0.08500,97.1250,133,76,0.70305
8233680,-0.08500,96.9375,133,76,0.72039
8233690,-0.09000,96.7500,133,76,0.74139
8233700,-0.09000,96.5000,133,76,0.74969
8233710,-0.09500,96.2500,133,76,0.75653
8233720,-0.09500,95.5000,133,76,0.76508
8233730,-0.09500,95.0625,133,76,0.76654
8233740,-0.09500,94.6250,133,76,0.76630
8233750,-0.09500,94.1875,133,76,0.76435
8233760,-0.09000,93.6875,133,76,0.76044
8233770,-0.07000,92.6250,133,76,0.74750
8233780,-0.05000,92.1250,133,76,0.73871
8233790,-0.02500,91.5625,133,76,0.72894
8233800,-0.02000,90.5000,133,76,0.70354
8233810,-0.00500,90.0000,133,76,0.68840
8233820,0.03500,89.5000,133,76,0.67179
8233830,0.06000,89.0000,133,76,0.65397
8233840,0.04000,88.0000,133,76,0.61685
8233850,0.00000,87.5625,133,76,0.59927
8233860,-0.01500,87.1250,133,76,0.58266
8233870,-0.06500,86.6875,133,76,0.56777
8233880,-0.09500,86.2500,133,76,0.55433
8233890,-0.12000,85.5000,133,76,0.53407
8233900,-0.12000,85.1875,133,76,0.52527
8233910,-0.12000,84.8750,133,76,0.51722
8233920,-0.11500,84.5625,133,76,0.51013
8233930,-0.10500,84.0000,133,76,0.49792
8233940,-0.09500,83.7500,133,76,0.49304
8233950,-0.04500,83.5000,133,76,0.48816
8233960,0.25500,83.0625,133,76,0.48327
8233970,0.91000,82.8750,133,76,0.47424
8233980,0.98500,82.6875,133,76,0.47082
8233990,0.35500,82.5000,133,76,0.46740
8234000,-0.24000,82.1250,133,76,0.45885
8234010,-0.24000,81.9375,133,76,0.45421
8234020,-0.18500,81.6875,133,76,0.44908
8234030,-0.18000,81.5000,133,76,0.44420
8234040,-0.17500,81.0625,133,76,0.43443
8234050,-0.17000,80.8125,133,76,0.42930
8234060,-0.16500,80.5000,133,76,0.42418
8234070,-0.15500,80.1875,133,76,0.41905
8234080,-0.15500,79.8750,133,76,0.41368
8234090,-0.15000,79.2500,133,76,0.40586
8234100,-0.15000,78.9375,133,76,0.40147
8234110,-0.14500,78.6250,133,76,0.39683
8234120,-0.14000,78.0000,133,76,0.39170
8234130,-0.13000,77.6875,133,76,0.38169
8234140,-0.12500,77.3750,133,76,0.37656
8234150,-0.11500,77.1250,133,76,0.37167
8234160,-0.10000,76.6875,133,76,0.36264
8234170,-0.09000,76.5625,133,76,0.35873
8234180,-0.07500,76.6875,133,76,0.35580
8234190,-0.06500,77.1875,133,76,0.35336
8234200,-0.05500,78.3125,133,76,0.34994
8234210,-0.03500,82.8750,133,76,0.34286
8234220,-0.01500,86.3750,133,76,0.33968
8234230,0.00000,90.5625,133,76,0.33651
8234240,0.02500,100.2500,133,76,0.33065
8234250,0.04000,105.3750,133,76,0.32796
8234260,0.07000,110.4375,133,76,0.32576
8234270,0.09500,115.2500,133,76,0.32405
8234280,0.13000,123.6250,133,76,0.32332
8234290,0.15000,126.9375,133,76,0.32405
8234300,0.18000,129.6875,133,76,0.32454
8234310,0.21000,131.8750,133,76,0.32479
8234320,0.22000,133.5625,133,76,0.32479
8234330,0.21000,135.6875,133,76,0.32479
8234340,0.18500,136.2500,133,76,0.32479
8234350,0.12000,136.5625,133,76,0.32479
8234360,0.07000,136.5625,133,76,0.32503
8234370,0.01000,136.0000,133,76,0.32576
8234380,-0.04500,135.5000,133,76,0.32650
8234390,-0.07500,134.8125,133,76,0.32772
8234400,-0.10000,133.9375,133,76,0.32845
8234410,-0.11500,131.5625,133,76,0.32991
8234420,-0.12500,130.1250,133,76,0.33065
8234430,-0.13500,128.5000,133,76,0.33138
8234440,-0.14000,124.6875,133,76,0.33602
8234450,-0.14000,122.4375,133,76,0.34139
8234460,-0.14500,119.9375,133,76,0.34994
8234470,-0.14500,117.1875,133,76,0.36215
8234480,-0.14000,114.3750,133,76,0.37631
8234490,-0.13500,108.8750,133,76,0.41734
8234500,-0.13500,106.5625,133,76,0.44591
8234510,-0.13000,104.6250,133,76,0.47839
8234520,-0.12500,102.0000,133,76,0.54994
8234530,-0.11500,101.1250,133,76,0.58584
8234540,-0.11000,100.5000,133,76,0.62027
8234550,-0.10500,100.1250,133,76,0.65226
8234560,-0.10500,99.9375,133,76,0.68132
8234570,-0.10500,99.7500,133,76,0.72967
8234580,-0.10500,99.6875,133,76,0.74603
8234590,-0.10500,99.6250,133,76,0.75824
8234600,-0.10500,99.4375,133,76,0.77021
8234610,-0.11000,99.0000,133,76,0.79023
8234620,-0.10500,98.7500,133,76,0.79756
8234630,-0.10500,98.4375,133,76,0.80293
8234640,-0.10500,97.6250,133,76,0.80635
8234650,-0.10500,97.1250,133,76,0.80806
8234660,-0.10500,96.6250,133,76,0.80635
8234670,-0.10500,96.1250,133,76,0.80317
8234680,-0.08500,95.0625,133,76,0.79170
8234690,-0.06000,94.5000,133,76,0.78364
8234700,-0.03500,94.0000,133,76,0.77363
8234710,-0.02500,93.4375,133,76,0.76239
8234720,-0.01000,92.8750,133,76,0.74969
8234730,0.03000,91.8750,133,76,0.71990
8234740,0.04000,91.3750,133,76,0.70330
8234750,0.03000,90.8750,133,76,0.68596
8234760,-0.00500,89.9375,133,76,0.65177
8234770,-0.03000,89.4375,133,76,0.63565
8234780,-0.06500,89.0000,133,76,0.62198
8234790,-0.12000,88.5625,133,76,0.61001
8234800,-0.12000,88.5625,133,76,0.61001
8234810,-0.15500,87.3750,133,76,0.57973
8234820,-0.15500,87.0000,133,76,0.57216
8234830,-0.15500,86.6875,133,76,0.56581
8234840,-0.15000,86.3750,133,76,0.56044
8234850,-0.14500,85.8750,133,76,0.55140
8234860,-0.09000,85.6250,133,76,0.54774
8234870,0.15500,85.3750,133,76,0.54408
8234880,0.74000,84.9375,133,76,0.54090
8234890,0.99500,84.7500,133,76,0.53431
8234900,0.49000,84.5625,133,76,0.53114
8234910,-0.18000,84.3750,133,76,0.52772
8234920,-0.26000,84.0000,133,76,0.51990
8234930,-0.22000,83.8125,133,76,0.51575
8234940,-0.21000,83.6250,133,76,0.51160
8234950,-0.21000,83.3750,133,76,0.50745
8234960,-0.20500,83.0625,133,76,0.50281
8234970,-0.19000,82.5000,133,76,0.49402
8234980,-0.18500,82.2500,133,76,0.49011
8234990,-0.17500,81.9375,133,76,0.48620
8235000,-0.17000,81.6250,133,76,0.48156
8235010,-0.17000,81.0000,133,76,0.47179
8235020,-0.17000,80.6250,133,76,0.46691
8235030,-0.16500,80.3125,133,76,0.44908
8235040,-0.16000,80.0000,133,76,0.42491
8235050,-0.14500,79.4375,133,76,0.40122
8235060,-0.13000,79.1875,133,76,0.39438
8235070,-0.11500,78.9375,133,76,0.38901
8235080,-0.10000,78.8750,133,76,0.38242
8235090,-0.08500,79.3125,133,76,0.37924
8235100,-0.07500,80.3750,133,76,0.37582
8235110,-0.06500,82.3125,133,76,0.37241
8235120,-0.04500,88.6875,133,76,0.36630
8235130,-0.03500,93.0000,133,76,0.36361
8235140,-0.01500,97.8125,133,76,0.36142
8235150,0.01000,103.0000,133,76,0.35946
8235160,0.03000,108.3125,133,76,0.35800
8235170,0.06000,118.5000,133,76,0.35629
8235180,0.08500,123.0625,133,76,0.35604
8235190,0.11500,127.0625,133,76,0.35629
8235200,0.15500,133.3125,133,76,0.35678
8235210,0.17500,135.6250,133,76,0.35702
8235220,0.20500,137.3750,133,76,0.35702
8235230,0.21500,138.6875,133,76,0.35702
8235240,0.20000,139.6250,133,76,0.35678
8235250,0.16000,140.6250,133,76,0.35604
8235260,0.11500,140.7500,133,76,0.35580
8235270,0.05000,140.6250,133,76,0.35556
8235280,-0.01500,140.0000,133,76,0.35629
8235290,-0.05000,139.4375,133,76,0.35678
8235300,-0.08500,138.6875,133,76,0.35726
8235310,-0.10500,137.8125,133,76,0.35751
8235320,-0.11500,136.8125,133,76,0.35751
8235330,-0.12500,134.1250,133,76,0.35824
8235340,-0.12500,132.5000,133,76,0.35922
8235350,-0.12500,130.6875,133,76,0.36142
8235360,-0.13000,128.6250,133,76,0.36581
8235370,-0.13000,123.7500,133,76,0.38462
8235380,-0.13000,120.9375,133,76,0.39780
8235390,-0.12500,118.1250,133,76,0.41368
8235400,-0.12500,112.6875,133,76,0.43590
8235410,-0.12000,110.3750,133,76,0.49426
8235420,-0.11500,108.5000,133,76,0.52747
8235430,-0.11500,106.8750,133,76,0.56166
8235440,-0.11500,105.6250,133,76,0.59536
8235450,-0.11500,104.0000,133,76,0.65885
8235460,-0.11000,103.5625,133,76,0.68669
8235470,-0.10000,103.3125,133,76,0.71136
8235480,-0.09500,102.9375,133,76,0.72967
8235490,-0.08500,102.8125,133,76,0.75678
8235500,-0.08500,102.6875,133,76,0.76923
8235510,-0.09000,102.5625,133,76,0.77998
8235520,-0.09500,102.3750,133,76,0.78877
8235530,-0.09500,101.7500,133,76,0.80049
8235540,-0.09500,101.3750,133,76,0.80391
8235550,-0.09500,100.9375,133,76,0.80586
8235560,-0.09000,100.5000,133,76,0.80635
8235570,-0.09000,99.4375,133,76,0.80317
8235580,-0.08500,98.9375,133,76,0.79878
8235590,-0.07000,98.3750,133,76,0.79292
8235600,-0.03500,97.2500,133,76,0.77753
8235610,-0.02000,96.6250,133,76,0.76728
8235620,-0.01500,96.0625,133,76,0.75531
8235630,-0.00500,95.5000,133,76,0.74188
8235640,0.03000,94.4375,133,76,0.71087
8235650,0.04500,93.8750,133,76,0.69353
8235660,0.03000,93.3750,133,76,0.67570
8235670,-0.00500,92.8125,133,76,0.65812
8235680,-0.03500,92.3125,133,76,0.64200
8235690,-0.07500,91.3750,133,76,0.61319
8235700,-0.12500,90.9375,133,76,0.59976
8235710,-0.15000,90.5000,133,76,0.58755
8235720,-0.15500,89.6875,133,76,0.56703
8235730,-0.15000,89.2500,133,76,0.55873
8235740,-0.14500,88.8750,133,76,0.55165
8235750,-0.13500,88.5625,133,76,0.54579
8235760,-0.13500,88.2500,133,76,0.54090
8235770,-0.07000,87.6875,133,76,0.53211
8235780,0.41000,87.4375,133,76,0.52845
8235790,0.93500,87.2500,133,76,0.52503
8235800,1.07500,86.8750,133,76,0.52112
8235810,0.23000,86.6875,133,76,0.51282
8235820,-0.18000,86.5000,133,76,0.50842
8235830,-0.22000,86.3125,133,76,0.50379
8235840,-0.18000,85.7500,133,76,0.49451
8235850,-0.18000,85.5000,133,76,0.48987
8235860,-0.18000,85.1875,133,76,0.48498
8235870,-0.17000,84.8750,133,76,0.48010
8235880,-0.17000,84.5000,133,76,0.47570
8235890,-0.16500,83.6875,133,76,0.46691
8235900,-0.16000,83.2500,133,76,0.46178
8235910,-0.15500,82.8125,133,76,0.45665
8235920,-0.15000,82.3750,133,76,0.45128
8235930,-0.14000,81.5000,133,76,0.44151
8235940,-0.13500,81.0625,133,76,0.43687
8235950,-0.12500,80.6250,133,76,0.43223
8235960,-0.11500,80.2500,133,76,0.42759
8235970,-0.10500,79.4375,133,76,0.41832
8235980,-0.09000,79.1250,133,76,0.41441
8235990,-0.07000,78.9375,133,76,0.41099
8236000,-0.06000,79.0625,133,76,0.40757
8236010,-0.04500,81.0000,133,76,0.40147
8236020,-0.03000,83.2500,133,76,0.39853
8236030,-0.01500,86.3750,133,76,0.39560
8236040,0.00000,94.7500,133,76,0.39096
8236050,0.02000,99.7500,133,76,0.38901
8236060,0.03500,105.0000,133,76,0.38730
8236070,0.06000,110.3125,133,76,0.38608
8236080,0.09000,115.4375,133,76,0.38559
8236090,0.12500,124.5625,133,76,0.38535
8236100,0.14500,128.3125,133,76,0.38535
8236110,0.18000,131.4375,133,76,0.38559
8236120,0.21000,135.9375,133,76,0.38535
8236130,0.23000,137.4375,133,76,0.38510
8236140,0.23500,138.5000,133,76,0.38486
8236150,0.22000,139.2500,133,76,0.38486
8236160,0.19500,139.6875,133,76,0.38486
8236170,0.14500,139.8750,133,76,0.38486
8236180,0.08000,139.6250,133,76,0.38486
8236190,0.04000,139.2500,133,76,0.38486
8236200,-0.00500,138.6875,133,76,0.38437
8236210,-0.04000,137.1250,133,76,0.38266
8236220,-0.05500,136.0625,133,76,0.38144
8236230,-0.07500,134.8750,133,76,0.38022
8236240,-0.07500,133.4375,133,76,0.37900
8236250,-0.08500,130.0625,133,76,0.37753
8236260,-0.08500,128.1250,133,76,0.37851
8236270,-0.08500,125.8750,133,76,0.38193
8236280,-0.08000,120.6875,133,76,0.39536
8236290,-0.07500,117.8750,133,76,0.40830
8236300,-0.07500,115.0000,133,76,0.42613
8236310,-0.07500,112.3125,133,76,0.44884
8236320,-0.07500,107.8125,133,76,0.50501
8236330,-0.07000,106.0000,133,76,0.53626
8236340,-0.07000,104.5625,133,76,0.56777
8236350,-0.06500,103.4375,133,76,0.59805
8236360,-0.06500,102.6250,133,76,0.62613
8236370,-0.06500,101.6250,133,76,0.67082
8236380,-0.06500,101.3750,133,76,0.68571
8236390,-0.06500,101.1875,133,76,0.70061
8236400,-0.06500,101.0000,133,76,0.71355
8236410,-0.06500,100.6250,133,76,0.73309
8236420,-0.06500,100.3750,133,76,0.73944
8236430,-0.06500,100.0625,133,76,0.74359
8236440,-0.06500,99.3125,133,76,0.74676
8236450,-0.06500,98.9375,133,76,0.74579
8236460,-0.07000,98.5000,133,76,0.74359
8236470,-0.07000,98.0000,133,76,0.74017
8236480,-0.06000,96.9375,133,76,0.72869
8236490,-0.04000,96.3750,133,76,0.72137
8236500,-0.01500,95.7500,133,76,0.71258
8236510,0.00500,95.1875,133,76,0.70232
8236520,0.01500,94.0000,133,76,0.67668
8236530,0.04000,93.3750,133,76,0.66129
8236540,0.08000,92.8125,133,76,0.64469
8236550,0.08000,92.2500,133,76,0.62686
8236560,0.03000,91.1250,133,76,0.58901
8236570,0.00000,90.5625,133,76,0.57167
8236580,-0.03000,90.0625,133,76,0.55531
8236590,-0.07500,89.5000,133,76,0.53797
8236600,-0.10500,89.0000,133,76,0.52088
8236610,-0.12000,88.0625,133,76,0.49011
8236620,-0.12500,87.6250,133,76,0.47692
8236630,-0.12500,87.2500,133,76,0.46520
8236640,-0.11500,86.8750,133,76,0.45446
8236650,-0.10500,86.1875,133,76,0.43639
8236660,-0.10500,85.8750,133,76,0.42882
8236670,0.09000,85.5625,133,76,0.42198
8236680,0.45500,85.2500,133,76,0.41636
8236690,0.95000,84.7500,133,76,0.40562
8236700,0.72500,84.5000,133,76,0.40000
8236710,0.01000,84.2500,133,76,0.39390
8236720,-0.27500,83.7500,133,76,0.38779
8236730,-0.20500,83.5625,133,76,0.37607
8236740,-0.18000,83.2500,133,76,0.36996
8236750,-0.17500,83.0000,133,76,0.36386
8236760,-0.17000,82.5000,133,76,0.35165
8236770,-0.16500,82.1875,133,76,0.34701
8236780,-0.16000,81.8750,133,76,0.34286
8236790,-0.16000,81.5625,133,76,0.33748
8236800,-0.15500,80.8125,133,76,0.32552
8236810,-0.15500,80.5000,133,76,0.31941
8236820,-0.15000,80.1250,133,76,0.31306
8236830,-0.14500,79.8125,133,76,0.30647
8236840,-0.13500,79.4375,133,76,0.29988
8236850,-0.13000,78.7500,133,76,0.28669
8236860,-0.11500,78.4375,133,76,0.28059
8236870,-0.11000,78.1875,133,76,0.27497
8236880,-0.09500,77.8750,133,76,0.27106
8236890,-0.08000,77.5000,133,76,0.26398
8236900,-0.07000,77.5000,133,76,0.25983
8236910,-0.05500,77.8750,133,76,0.25543
8236920,-0.04500,80.4375,133,76,0.25128
8236930,-0.02500,82.8750,133,76,0.24322
8236940,-0.00500,86.0625,133,76,0.23956
8236950,0.01500,89.8750,133,76,0.23590
8236960,0.04000,98.8750,133,76,0.22906
8236970,0.06000,103.6875,133,76,0.22711
8236980,0.08500,108.5000,133,76,0.22613
8236990,0.12000,113.1250,133,76,0.22466
8237000,0.14500,117.3750,133,76,0.22320
8237010,0.18500,124.3125,133,76,0.22076
8237020,0.20500,126.9375,133,76,0.22002
8237030,0.23500,129.0000,133,76,0.21954
8237040,0.24000,131.6250,133,76,0.21954
8237050,0.22500,132.3750,133,76,0.22002
8237060,0.19000,132.7500,133,76,0.22051
8237070,0.12000,132.8125,133,76,0.22100
8237080,0.06500,132.6250,133,76,0.22979
8237090,0.01000,131.6250,133,76,0.24908
8237100,-0.04500,130.8125,133,76,0.25226
8237110,-0.06500,129.8125,133,76,0.25397
8237120,-0.09000,127.2500,133,76,0.25543
8237130,-0.10500,125.6250,133,76,0.25568
8237140,-0.11500,123.8125,133,76,0.25617
8237150,-0.11500,121.7500,133,76,0.25690
8237160,-0.12000,117.0625,133,76,0.26032
8237170,-0.12000,114.3750,133,76,0.26374
8237180,-0.12000,111.5625,133,76,0.26886
8237190,-0.12000,108.6875,133,76,0.27668
8237200,-0.11500,105.9375,133,76,0.28767
8237210,-0.11500,101.4375,133,76,0.32137
8237220,-0.11000,99.7500,133,76,0.34335
8237230,-0.10500,98.5000,133,76,0.36801
8237240,-0.10000,97.6250,133,76,0.39463
8237250,-0.09500,96.5625,133,76,0.45006
8237260,-0.09500,96.3125,133,76,0.47643
8237270,-0.09000,96.2500,133,76,0.50085
8237280,-0.08500,96.3125,133,76,0.53602
8237290,-0.08500,96.3750,133,76,0.55140
8237300,-0.08500,96.3125,133,76,0.56532
8237310,-0.08500,96.2500,133,76,0.57729
8237320,-0.08500,96.1250,133,76,0.58706
8237330,-0.08500,95.6875,133,76,0.60147
8237340,-0.08500,95.3125,133,76,0.60611
8237350,-0.08500,95.0000,133,76,0.60904
8237360,-0.08500,94.5625,133,76,0.61026
8237370,-0.09000,93.6250,133,76,0.60806
8237380,-0.08500,93.1875,133,76,0.60464
8237390,-0.06500,92.6875,133,76,0.59976
8237400,-0.03500,91.6250,133,76,0.58608
8237410,-0.01500,91.0625,133,76,0.57729
8237420,-0.00500,90.5625,133,76,0.56679
8237430,0.00500,90.0625,133,76,0.55482
8237440,0.04000,89.5625,133,76,0.54139
8237450,0.07000,88.5000,133,76,0.51184
8237460,0.05000,88.0000,133,76,0.49695
8237470,0.01000,87.5000,133,76,0.48254
8237480,-0.02000,86.5625,133,76,0.47033
8237490,-0.06500,86.1250,133,76,0.44860
8237500,-0.10500,85.7500,133,76,0.43834
8237510,-0.12500,85.3125,133,76,0.42930
8237520,-0.13000,84.5625,133,76,0.41441
8237530,-0.13500,84.1875,133,76,0.40904
8237540,-0.13000,83.8750,133,76,0.40440
8237550,-0.12000,83.6250,133,76,0.40073
8237560,-0.11500,83.0625,133,76,0.39487
8237570,-0.06000,82.8750,133,76,0.39292
8237580,0.34500,82.6250,133,76,0.39121
8237590,0.78000,82.3750,133,76,0.38901
8237600,0.89000,82.1875,133,76,0.38632
8237610,0.14500,81.8125,133,76,0.38071
8237620,-0.23000,81.6250,133,76,0.37778
8237630,-0.25000,81.4375,133,76,0.37509
8237640,-0.18500,81.0000,133,76,0.36972
8237650,-0.18000,80.7500,133,76,0.36679
8237660,-0.17500,80.5000,133,76,0.36361
8237670,-0.17000,80.3125,133,76,0.36044
8237680,-0.17000,79.7500,133,76,0.35507
8237690,-0.16500,79.5000,133,76,0.35140
8237700,-0.16000,79.1875,133,76,0.34725
8237710,-0.16000,78.8750,133,76,0.34286
8237720,-0.15500,78.1875,133,76,0.33846
8237730,-0.15000,77.8750,133,76,0.33089
8237740,-0.14500,77.5000,133,76,0.32698
8237750,-0.13500,77.1875,133,76,0.32308
8237760,-0.12500,76.8750,133,76,0.31917
8237770,-0.11000,76.3750,133,76,0.31306
8237780,-0.10000,76.1250,133,76,0.31087
8237790,-0.08500,75.8750,133,76,0.30794
8237800,-0.08500,75.8750,133,76,0.30794
8237810,-0.05500,76.3750,133,76,0.29792
8237820,-0.03500,77.4375,133,76,0.29475
8237830,-0.01500,79.2500,133,76,0.29158
8237840,0.01000,85.3125,133,76,0.28571
8237850,0.02500,89.3125,133,76,0.28303
8237860,0.04500,93.7500,133,76,0.28059
8237870,0.07000,98.5625,133,76,0.27814
8237880,0.10000,108.2500,133,76,0.27668
8237890,0.12500,112.8125,133,76,0.27570
8237900,0.15000,117.0000,133,76,0.27473
8237910,0.18500,120.6250,133,76,0.27375
8237920,0.21000,123.7500,133,76,0.27302
8237930,0.23500,128.2500,133,76,0.27228
8237940,0.25500,129.6875,133,76,0.27228
8237950,0.24500,130.7500,133,76,0.27228
8237960,0.21500,131.4375,133,76,0.27204
8237970,0.15000,131.8750,133,76,0.27277
8237980,0.10000,131.6875,133,76,0.27375
8237990,0.04000,131.2500,133,76,0.27448
8238000,-0.00500,129.8125,133,76,0.27521
8238010,-0.04500,128.8125,133,76,0.27741
8238020,-0.07000,127.6250,133,76,0.27863
8238030,-0.09000,126.2500,133,76,0.28010
8238040,-0.10000,124.6250,133,76,0.28132
8238050,-0.10500,120.9375,133,76,0.28327
8238060,-0.11000,118.7500,133,76,0.28449
8238070,-0.11000,116.3750,133,76,0.28694
8238080,-0.11500,113.7500,133,76,0.29060
8238090,-0.11500,108.3125,133,76,0.30403
8238100,-0.11500,105.6250,133,76,0.31551
8238110,-0.11000,103.3125,133,76,0.33089
8238120,-0.11000,101.3125,133,76,0.35043
8238130,-0.10500,98.5000,133,76,0.39951
8238140,-0.10500,97.6875,133,76,0.42735
8238150,-0.10000,97.0625,133,76,0.45568
8238160,-0.09500,96.3750,133,76,0.51062
8238170,-0.09000,96.2500,133,76,0.53236
8238180,-0.09000,96.1875,133,76,0.55043
8238190,-0.08500,96.1250,133,76,0.56825
8238200,-0.08500,96.0000,133,76,0.59927
8238210,-0.08500,95.9375,133,76,0.61197
8238220,-0.08500,95.7500,133,76,0.62247
8238230,-0.09000,95.5000,133,76,0.63053
8238240,-0.09500,95.1875,133,76,0.63687
8238250,-0.09500,94.4375,133,76,0.64444
8238260,-0.09500,94.0000,133,76,0.64567
8238270,-0.09000,93.5625,133,76,0.64469
8238280,-0.08500,92.5625,133,76,0.63956
8238290,-0.07500,92.0625,133,76,0.63541
8238300,-0.04500,91.5625,133,76,0.62955
8238310,-0.02000,91.0625,133,76,0.62222
8238320,-0.00500,90.0000,133,76,0.60317
8238330,0.00000,89.5000,133,76,0.59170
8238340,0.02500,89.0000,133,76,0.57900
8238350,0.06000,88.5625,133,76,0.56508
8238360,0.07000,88.0625,133,76,0.55043
8238370,0.04000,87.1875,133,76,0.52259
8238380,0.00500,86.7500,133,76,0.51087
8238390,-0.03000,86.3125,133,76,0.49890
8238400,-0.06500,85.8750,133,76,0.48742
8238410,-0.10500,85.1250,133,76,0.46740
8238420,-0.12000,84.7500,133,76,0.45934
8238430,-0.12000,84.3750,133,76,0.45250
8238440,-0.12000,84.0625,133,76,0.44640
8238450,-0.11500,83.4375,133,76,0.43712
8238460,-0.10500,83.1250,133,76,0.43346
8238470,-0.09500,82.8750,133,76,0.43053
8238480,0.13000,82.3750,133,76,0.42491
8238490,0.51500,82.1250,133,76,0.42198
8238500,0.95000,81.8750,133,76,0.41905
8238510,0.54000,81.6875,133,76,0.41563
8238520,-0.01000,81.5000,133,76,0.41197
8238530,-0.26000,81.0625,133,76,0.40488
8238540,-0.21000,80.8750,133,76,0.40147
8238550,-0.17000,80.6250,133,76,0.39780
8238560,-0.16000,80.1250,133,76,0.38999
8238570,-0.16000,79.8750,133,76,0.38681
8238580,-0.16000,79.6250,133,76,0.38413
8238590,-0.15500,79.3125,133,76,0.38071
8238600,-0.15000,79.0000,133,76,0.37705
8238610,-0.14500,78.3750,133,76,0.36947
8238620,-0.14000,78.0625,133,76,0.36557
8238630,-0.13500,77.6875,133,76,0.36166
8238640,-0.12500,77.0625,133,76,0.35385
8238650,-0.12000,76.7500,133,76,0.34994
8238660,-0.11500,76.4375,133,76,0.34603
8238670,-0.10000,76.1875,133,76,0.34310
8238680,-0.09500,75.9375,133,76,0.34066
8238690,-0.08500,75.5000,133,76,0.33333
8238700,-0.07500,75.3750,133,76,0.32943
8238710,-0.06000,75.5625,133,76,0.32576
8238720,-0.03500,77.3125,133,76,0.31893
8238730,-0.02500,79.3125,133,76,0.31600
8238740,-0.00500,82.1250,133,76,0.31306
8238750,0.01000,85.6875,133,76,0.31013
8238760,0.02500,89.8125,133,76,0.30720
8238770,0.05000,99.3125,133,76,0.30232
8238780,0.08500,104.3125,133,76,0.30085
8238790,0.11500,109.1875,133,76,0.29915
8238800,0.11500,109.1875,133,76,0.29915
8238810,0.16500,121.6875,133,76,0.29426
8238820,0.20500,124.7500,133,76,0.29304
8238830,0.22500,127.3125,133,76,0.29206
8238840,0.24500,129.3125,133,76,0.29158
8238850,0.25500,131.8750,133,76,0.29109
8238860,0.23000,132.5625,133,76,0.29109
8238870,0.19500,133.0000,133,76,0.29158
8238880,0.13500,133.0000,133,76,0.29206
8238890,0.06000,132.6250,133,76,0.29206
8238900,0.01500,132.1250,133,76,0.29206
8238910,-0.02500,131.4375,133,76,0.29206
8238920,-0.06500,129.4375,133,76,0.29280
8238930,-0.08500,128.1875,133,76,0.29353
8238940,-0.10000,126.6875,133,76,0.29451
8238950,-0.10500,125.0000,133,76,0.29548
8238960,-0.11500,123.1250,133,76,0.29670
8238970,-0.11500,118.6875,133,76,0.30110
8238980,-0.11500,116.1875,133,76,0.30501
8238990,-0.11500,113.4375,133,76,0.31111
8239000,-0.11000,107.7500,134,77,0.31990
8239010,-0.10500,105.1250,134,77,0.34823
8239020,-0.10500,102.8125,134,77,0.36825
8239030,-0.09500,100.9375,134,77,0.39194
8239040,-0.09000,98.3750,134,77,0.44615
8239050,-0.08500,97.6250,134,77,0.47497
8239060,-0.08000,97.0625,134,77,0.50330
8239070,-0.08500,96.7500,134,77,0.52674
8239080,-0.08500,96.5625,134,77,0.54701
8239090,-0.08500,96.5000,134,77,0.56777
8239100,-0.08500,96.5625,134,77,0.58779
8239110,-0.08500,96.5625,134,77,0.60562
8239120,-0.08500,96.4375,134,77,0.62125
8239130,-0.08500,96.3125,134,77,0.66984
8239140,-0.08500,96.1250,134,77,0.71624
8239150,-0.08500,95.8750,134,77,0.74261
8239160,-0.08500,95.1875,134,77,0.76581
8239170,-0.08500,94.8125,134,77,0.76948
8239180,-0.08500,94.3125,134,77,0.76972
8239190,-0.08000,93.8750,134,77,0.76752
8239200,-0.06500,93.3750,134,77,0.76410
8239210,-0.04500,92.3125,134,77,0.75189
8239220,-0.02000,91.7500,134,77,0.74335
8239230,-0.01000,91.1875,134,77,0.73309
8239240,-0.00500,90.6250,134,77,0.72088
8239250,0.03000,89.6250,134,77,0.69084
8239260,0.05500,89.1250,134,77,0.67350
8239270,0.05000,88.6250,134,77,0.65495
8239280,0.01500,87.6875,134,77,0.63761
8239290,-0.02500,87.2500,134,77,0.60342
8239300,-0.05000,86.8125,134,77,0.58584
8239310,-0.09000,86.3750,134,77,0.56923
8239320,-0.12500,85.9375,134,77,0.55433
8239330,-0.13500,85.1250,134,77,0.52967
8239340,-0.14000,84.7500,134,77,0.51966
8239350,-0.14000,84.4375,134,77,0.51111
8239360,-0.13500,84.1250,134,77,0.50354
8239370,-0.13000,83.5000,134,77,0.49182
8239380,-0.08500,83.2500,134,77,0.48742
8239390,0.09000,82.9375,134,77,0.48352
8239400,0.58000,82.6875,134,77,0.47937
8239410,0.96000,82.2500,134,77,0.47082
8239420,0.42500,82.0000,134,77,0.46642
8239430,-0.10500,81.8125,134,77,0.46227
8239440,-0.28500,81.6250,134,77,0.45836
8239450,-0.22000,81.1875,134,77,0.44957
8239460,-0.19000,81.0000,134,77,0.44493
8239470,-0.19000,80.7500,134,77,0.43980
8239480,-0.18500,80.2500,134,77,0.43541
8239490,-0.18000,80.0000,134,77,0.42662
8239500,-0.17000,79.6875,134,77,0.42198
8239510,-0.16500,79.3750,134,77,0.41709
8239520,-0.15500,78.6875,134,77,0.40733
8239530,-0.15000,78.3125,134,77,0.40244
8239540,-0.14500,78.0000,134,77,0.39707
8239550,-0.14000,77.6875,134,77,0.39170
8239560,-0.13500,77.3125,134,77,0.38632
8239570,-0.13000,76.6875,134,77,0.37607
8239580,-0.11500,76.4375,134,77,0.37216
8239590,-0.10500,76.1875,134,77,0.36874
8239600,-0.09500,75.9375,134,77,0.36459
8239610,-0.08500,75.5625,134,77,0.35556
8239620,-0.07000,75.6875,134,77,0.35092
8239630,-0.04500,76.2500,134,77,0.34628
8239640,-0.03500,77.4375,134,77,0.34212
8239650,-0.01500,82.1875,134,77,0.33431
8239660,0.01000,85.7500,134,77,0.33065
8239670,0.02500,89.9375,134,77,0.32698
8239680,0.05000,94.6250,134,77,0.32479
8239690,0.07500,104.7500,134,77,0.32137
8239700,0.10000,109.7500,134,77,0.31941
8239710,0.13000,114.5000,134,77,0.31746
8239720,0.16000,122.5000,134,77,0.31526
8239730,0.18500,125.6875,134,77,0.31062
8239740,0.19500,128.3125,134,77,0.30891
8239750,0.19000,130.3750,134,77,0.30745
8239760,0.18500,131.9375,134,77,0.30647
8239770,0.14500,133.8750,134,77,0.30598
8239780,0.07000,134.3125,134,77,0.30672
8239790,-0.04500,134.5625,134,77,0.30696
8239800,-0.15500,134.2500,134,77,0.30720
8239810,-0.17500,133.8125,134,77,0.30769
8239820,-0.20000,133.1875,134,77,0.30794
8239830,-0.20500,132.3750,134,77,0.30794
8239840,-0.18500,131.4375,134,77,0.30818
8239850,-0.13000,128.9375,134,77,0.30916
8239860,-0.07500,127.5000,134,77,0.30989
8239870,-0.02500,125.8125,134,77,0.31038
8239880,-0.01500,121.7500,134,77,0.31429
8239890,-0.02500,119.3750,134,77,0.31819
8239900,-0.03000,116.8125,134,77,0.32479
8239910,-0.03000,114.0625,134,77,0.33529
8239920,-0.02000,111.1875,134,77,0.35067
8239930,0.11000,105.9375,134,77,0.39634
8239940,0.50500,103.8125,134,77,0.42637
8239950,0.88000,102.1875,134,77,0.46032
8239960,0.60000,100.8750,134,77,0.49670
8239970,0.08500,99.3750,134,77,0.56630
8239980,-0.06500,99.0000,134,77,0.59512
8239990,-0.06500,98.8125,134,77,0.62540
8240000,-0.09500,98.7500,135,77,0.65446
8240010,-0.11500,98.8125,135,77,0.70452
8240020,-0.12000,98.8750,135,77,0.72479
8240030,-0.12500,98.8750,135,77,0.74212
8240040,-0.12500,98.5000,135,77,0.76801
8240050,-0.12500,98.1875,135,77,0.77705
8240060,-0.12500,97.8750,135,77,0.78388
8240070,-0.12000,97.4375,135,77,0.78877
8240080,-0.12000,97.0000,135,77,0.79048
8240090,-0.12000,95.9375,135,77,0.78877
8240100,-0.12000,95.4375,135,77,0.78657
8240110,-0.12000,94.8750,135,77,0.78315
8240120,-0.11500,94.3125,135,77,0.77753
8240130,-0.11500,93.2500,135,77,0.76093
8240140,-0.11000,92.7500,135,77,0.74994
8240150,-0.10500,92.2500,135,77,0.73675
8240160,-0.09000,91.3125,135,77,0.72161
8240170,-0.06500,90.8125,135,77,0.68864
8240180,-0.05000,90.3125,135,77,0.67253
8240190,-0.02500,89.8125,135,77,0.65470
8240200,0.01000,88.8125,135,77,0.61807
8240210,0.03000,88.3125,135,77,0.60098
8240220,0.05000,88.0000,135,77,0.58535
8240230,0.08000,87.8125,135,77,0.57143
8240240,0.11000,87.8750,135,77,0.55922
8240250,0.14500,88.9375,135,77,0.54090
8240260,0.17500,90.0000,135,77,0.53431
8240270,0.21500,91.3125,135,77,0.52869
8240280,0.22000,92.9375,135,77,0.52405
8240290,0.19000,96.4375,135,77,0.51697
8240300,0.11000,98.1875,135,77,0.51380
8240310,0.05000,99.8125,135,77,0.51087
8240320,-0.02500,102.2500,135,77,0.50794
8240330,-0.09500,103.0000,135,77,0.50159
8240340,-0.12500,103.3750,135,77,0.49841
8240350,-0.15500,103.3750,135,77,0.49499
8240360,-0.17000,102.0625,135,77,0.48718
8240370,-0.17000,100.8125,135,77,0.48327
8240380,-0.17000,99.2500,135,77,0.47961
8240390,-0.17000,97.4375,135,77,0.47570
8240400,-0.17000,95.5000,135,77,0.47179
8240410,-0.17000,91.7500,135,77,0.46471
8240420,-0.16500,90.0625,135,77,0.46129
8240430,-0.16000,88.6250,135,77,0.45788
8240440,-0.15500,86.2500,135,77,0.45055
8240450,-0.15500,85.4375,135,77,0.44640
8240460,-0.14500,84.7500,135,77,0.44200
8240470,-0.14500,84.1875,135,77,0.43736
8240480,-0.14500,83.8125,135,77,0.43346
8240490,-0.14500,83.3125,135,77,0.42662
8240500,-0.14500,83.1250,135,77,0.42369
8240510,-0.15000,83.0000,135,77,0.42222
8240520,-0.15000,82.8750,135,77,0.42271
8240530,-0.14500,82.6875,135,77,0.43053
8240540,-0.14500,82.5625,135,77,0.43785
8240550,-0.14500,82.3750,135,77,0.44737
8240560,-0.15000,82.2500,135,77,0.45861
8240570,-0.15000,82.0000,135,77,0.48083
8240580,-0.15000,81.8750,135,77,0.49011
8240590,-0.15000,81.7500,135,77,0.49963
8240600,-0.15000,81.5000,135,77,0.51453
8240610,-0.15000,81.3125,135,77,0.51941
8240620,-0.14500,81.1250,135,77,0.52186
8240630,-0.14500,80.9375,135,77,0.52186
8240640,-0.14500,80.7500,135,77,0.51966
8240650,-0.14500,80.3125,135,77,0.50891
8240660,-0.13500,80.0625,135,77,0.50085
8240670,-0.13500,79.8125,135,77,0.49182
8240680,-0.13500,79.5625,135,77,0.48376
8240690,-0.13000,79.0000,135,77,0.46813
8240700,-0.13000,78.7500,135,77,0.45983
8240710,-0.12500,78.4375,135,77,0.45153
8240720,-0.12500,78.1875,135,77,0.44396
8240730,-0.12500,77.6250,135,77,0.43126
8240740,-0.12500,77.3750,135,77,0.42662
8240750,-0.12500,77.1250,135,77,0.42271
8240760,-0.12000,76.8750,135,77,0.41978
8240770,-0.12000,76.3750,135,77,0.41734
8240780,-0.11000,76.1875,135,77,0.41734
8240790,-0.10500,76.0000,135,77,0.41685
8240800,-0.10500,75.5625,135,77,0.41636
8240810,-0.10500,75.4375,135,77,0.41538
8240820,-0.10500,75.2500,135,77,0.41465
8240830,-0.10500,75.0625,135,77,0.41416
8240840,-0.10500,74.9375,135,77,0.41392
8240850,-0.10500,74.5625,135,77,0.41368
8240860,-0.10000,74.4375,135,77,0.41343
8240870,-0.10000,74.2500,135,77,0.41270
8240880,-0.10000,74.0000,135,77,0.41221
8240890,-0.10500,73.8125,135,77,0.41074
8240900,-0.10000,73.6875,135,77,0.40928
8240910,-0.08500,73.5625,135,77,0.40757
8240920,-0.05500,73.2500,135,77,0.40366
8240930,-0.03000,73.1250,135,77,0.40195
8240940,-0.00500,73.0000,135,77,0.40000
8240950,0.00000,72.8125,135,77,0.39805
8240960,0.02000,72.6875,135,77,0.39634
8240970,0.05000,72.4375,135,77,0.39316
8240980,0.05500,72.3125,135,77,0.39219
8240990,0.03500,72.1875,135,77,0.39072
8241000,0.00500,72.0000,135,77,0.38901
8241010,-0.03500,71.7500,135,77,0.38462
8241020,-0.07500,71.5625,135,77,0.38217
8241030,-0.11000,71.4375,135,77,0.37998
8241040,-0.12500,71.1875,135,77,0.37631
8241050,-0.12500,71.0625,135,77,0.37485
8241060,-0.11500,70.9375,135,77,0.37363
8241070,-0.11000,70.8750,135,77,0.37241
8241080,-0.11500,70.7500,135,77,0.37167
8241090,-0.03000,70.5000,135,77,0.37167
8241100,0.26000,70.3750,135,77,0.37167
8241110,0.87500,70.3125,135,77,0.37192
8241120,1.01000,70.1875,135,77,0.37338
8241130,0.45500,70.1250,135,77,0.37436
8241140,-0.17500,70.0625,135,77,0.37558
8241150,-0.24000,70.0000,135,77,0.37680
8241160,-0.20000,69.9375,135,77,0.37924
8241170,-0.20000,69.9375,135,77,0.38071
8241180,-0.20000,69.9375,135,77,0.36874
8241190,-0.20000,69.8750,135,77,0.34969
8241200,-0.20000,69.8125,135,77,0.34066
8241210,-0.20000,69.6250,135,77,0.33455
8241220,-0.18500,69.5000,135,77,0.33407
8241230,-0.17500,69.3750,135,77,0.33407
8241240,-0.16500,69.1875,135,77,0.33455
8241250,-0.15500,68.8750,135,77,0.33651
8241260,-0.15000,68.6875,135,77,0.33773
8241270,-0.14500,68.5000,135,77,0.33919
8241280,-0.13500,68.3125,135,77,0.34261
8241290,-0.13500,68.5000,135,77,0.34408
8241300,-0.12500,69.2500,135,77,0.34554
8241310,-0.11500,70.8750,135,77,0.34676
8241320,-0.11000,73.5625,135,77,0.34774
8241330,-0.09500,82.1875,135,77,0.34945
8241340,-0.08500,87.6250,135,77,0.35043
8241350,-0.07500,93.5000,135,77,0.35116
8241360,-0.05500,105.6250,135,77,0.35360
8241370,-0.03500,111.5000,135,77,0.35507
8241380,-0.01500,116.9375,135,77,0.35653
8241390,0.01000,121.9375,135,77,0.35775
8241400,0.03000,126.2500,135,77,0.35897
8241410,0.05000,132.9375,135,77,0.36166
8241420,0.08000,135.4375,135,77,0.36337
8241430,0.10000,137.3750,135,77,0.36532
8241440,0.12500,140.0000,135,77,0.36728
8241450,0.14500,140.8750,135,77,0.37094
8241460,0.16500,141.4375,135,77,0.37265
8241470,0.17500,141.6875,135,77,0.37411
8241480,0.17500,141.6875,135,77,0.37558
8241490,0.15500,141.0000,135,77,0.37900
8241500,0.11000,140.2500,135,77,0.38046
8241510,0.07000,139.3750,135,77,0.38193
8241520,0.02000,138.2500,135,77,0.38339
8241530,-0.01500,135.4375,135,77,0.38535
8241540,-0.05500,133.8125,135,77,0.38608
8241550,-0.06500,131.9375,135,77,0.38681
8241560,-0.08500,127.8125,135,77,0.39267
8241570,-0.09500,125.5625,135,77,0.39902
8241580,-0.10000,123.1875,135,77,0.40879
8241590,-0.10500,120.7500,135,77,0.42515
8241600,-0.10500,115.8750,135,77,0.48059
8241610,-0.10500,113.5625,135,77,0.51819
8241620,-0.10500,111.4375,135,77,0.56093
8241630,-0.10000,109.5625,135,77,0.60659
8241640,-0.09500,108.0000,135,77,0.65324
8241650,-0.08500,105.6875,135,77,0.74335
8241660,-0.08000,104.8750,135,77,0.78413
8241670,-0.07500,104.3125,135,77,0.81587
8241680,-0.07500,103.5000,135,77,0.86813
8241690,-0.07500,103.2500,135,77,0.89353
8241700,-0.08000,103.0625,135,77,0.91648
8241710,-0.08000,102.8750,135,77,0.93651
8241720,-0.08000,102.6250,135,77,0.95385
8241730,-0.08500,102.0625,135,77,0.98046
8241740,-0.08500,101.6875,135,77,0.98926
8241750,-0.08000,101.3125,135,77,0.99463
8241760,-0.07500,100.8750,135,77,0.99731
8241770,-0.07500,99.9375,135,77,0.99683
8241780,-0.06500,99.3750,135,77,0.99219
8241790,-0.06500,98.8125,135,77,0.98657
8241800,-0.05500,97.6250,135,77,0.97924
8241810,-0.06000,97.0625,135,77,0.95873
8241820,-0.06500,96.5000,135,77,0.94579
8241830,-0.06000,95.9375,135,77,0.93114
8241840,-0.05500,94.8125,135,77,0.89670
8241850,-0.05500,94.2500,135,77,0.87741
8241860,-0.04500,93.6875,135,77,0.85739
8241870,-0.02500,93.1250,135,77,0.83785
8241880,0.00000,92.5625,135,77,0.81880
8241890,0.03000,91.5000,135,77,0.77900
8241900,0.03000,90.9375,135,77,0.75995
8241910,0.04500,90.4375,135,77,0.74188
8241920,0.08500,89.4375,135,77,0.70965
8241930,0.10000,88.9375,135,77,0.69573
8241940,0.08000,88.5000,135,77,0.68303
8241950,0.05000,88.0000,135,77,0.67155
8241960,0.02000,87.5000,135,77,0.66129
8241970,-0.04000,86.6875,135,77,0.64420
8241980,-0.07500,86.2500,135,77,0.63687
8241990,-0.09500,85.8750,135,77,0.63004
8242000,-0.10000,85.1250,134,77,0.61661
8242010,-0.10000,84.8125,134,77,0.61001
8242020,-0.09500,84.5000,134,77,0.60342
8242030,-0.08500,84.1875,134,77,0.59658
8242040,-0.08500,83.8750,134,77,0.58950
8242050,-0.00500,83.3125,134,77,0.57558
8242060,0.47500,83.0000,134,77,0.56850
8242070,0.94000,82.8125,134,77,0.56190
8242080,1.01500,82.5625,134,77,0.55531
8242090,0.30000,82.0625,134,77,0.54139
8242100,-0.22000,81.8125,134,77,0.53455
8242110,-0.20000,81.5625,134,77,0.52796
8242120,-0.16000,81.3125,134,77,0.52137
8242130,-0.15500,80.8125,134,77,0.50769
8242140,-0.15500,80.5625,134,77,0.50061
8242150,-0.15500,80.3125,134,77,0.49377
8242160,-0.15000,80.0000,134,77,0.48718
8242170,-0.15000,79.3125,134,77,0.47375
8242180,-0.14500,79.0000,134,77,0.46789
8242190,-0.14500,78.6250,134,77,0.46154
8242200,-0.13500,77.8750,134,77,0.45495
8242210,-0.12500,77.5000,134,77,0.44225
8242220,-0.12000,77.1875,134,77,0.43590
8242230,-0.10500,76.8750,134,77,0.42930
8242240,-0.09000,76.5000,134,77,0.42271
8242250,-0.08000,75.9375,134,77,0.40977
8242260,-0.06500,75.6875,134,77,0.40391
8242270,-0.05500,75.5625,134,77,0.39927
8242280,-0.04000,75.6875,134,77,0.39512
8242290,-0.02500,77.5000,134,77,0.38559
8242300,-0.00500,79.5625,134,77,0.38046
8242310,0.00000,82.5625,134,77,0.37509
8242320,0.01500,86.3750,134,77,0.36996
8242330,0.03500,95.8125,134,77,0.36044
8242340,0.05000,100.9375,134,77,0.35604
8242350,0.07000,106.1250,134,77,0.35189
8242360,0.10000,116.0000,134,77,0.34481
8242370,0.12000,120.3125,134,77,0.34261
8242380,0.14500,124.1250,134,77,0.34115
8242390,0.18000,127.3125,134,77,0.33944
8242400,0.20500,129.9375,134,77,0.33773
8242410,0.22500,133.5625,134,77,0.33407
8242420,0.23500,134.7500,134,77,0.33211
8242430,0.23000,135.5625,134,77,0.33040
8242440,0.20000,136.1250,134,77,0.32894
8242450,0.14500,136.4375,134,77,0.32650
8242460,0.10000,136.2500,134,77,0.32527
8242470,0.04500,135.8125,134,77,0.32479
8242480,-0.00500,134.5000,134,77,0.32381
8242490,-0.03500,133.6250,134,77,0.32283
8242500,-0.05500,132.5625,134,77,0.32161
8242510,-0.07500,131.3125,134,77,0.32039
8242520,-0.08000,129.8125,134,77,0.31917
8242530,-0.09000,126.3750,134,77,0.31722
8242540,-0.09000,124.3125,134,77,0.31746
8242550,-0.08500,122.0000,134,77,0.31990
8242560,-0.08500,116.8125,134,77,0.33480
8242570,-0.08500,113.9375,134,77,0.34652
8242580,-0.08500,111.0625,134,77,0.36166
8242590,-0.08000,108.2500,134,77,0.38291
8242600,-0.07500,105.7500,134,77,0.40952
8242610,-0.07500,101.9375,134,77,0.47448
8242620,-0.08000,100.6250,134,77,0.51038
8242630,-0.07500,99.6250,134,77,0.54628
8242640,-0.07500,98.8750,134,77,0.58120
8242650,-0.07500,98.1250,134,77,0.64420
8242660,-0.08000,97.9375,134,77,0.67082
8242670,-0.08000,97.8750,134,77,0.69060
8242680,-0.08000,97.8125,134,77,0.71966
8242690,-0.08000,97.6875,134,77,0.73236
8242700,-0.08000,97.5000,134,77,0.74310
8242710,-0.08000,97.3125,134,77,0.75165
8242720,-0.08000,96.6875,134,77,0.75775
8242730,-0.07500,96.3750,134,77,0.76337
8242740,-0.07500,95.9375,134,77,0.76313
8242750,-0.08000,95.5000,134,77,0.76068
8242760,-0.08000,94.4375,134,77,0.75018
8242770,-0.07500,93.8750,134,77,0.74237
8242780,-0.06000,93.3125,134,77,0.73309
8242790,-0.03000,92.6875,134,77,0.72234
8242800,-0.00500,91.5625,134,77,0.69524
8242810,0.00000,91.0000,134,77,0.67912
8242820,0.00500,90.5000,134,77,0.66129
8242830,0.03500,89.9375,134,77,0.64200
8242840,0.07000,89.3750,134,77,0.62125
8242850,0.06000,88.3750,134,77,0.57582
8242860,0.03500,87.8750,134,77,0.55336
8242870,0.00000,87.3750,134,77,0.53382
8242880,-0.02500,86.9375,134,77,0.51600
8242890,-0.07000,86.1250,134,77,0.48083
8242900,-0.10500,85.6875,134,77,0.46569
8242910,-0.12000,85.3125,134,77,0.45250
8242920,-0.12500,84.5000,134,77,0.44078
8242930,-0.12000,84.1875,134,77,0.42173
8242940,-0.11000,83.8750,134,77,0.41392
8242950,-0.10500,83.6250,134,77,0.40684
8242960,-0.08500,83.0625,134,77,0.40024
8242970,0.17500,82.8125,134,77,0.38926
8242980,0.58000,82.5625,134,77,0.38510
8242990,0.96000,82.3750,134,77,0.38022
8243000,0.44000,81.9375,134,77,0.36972
8243010,-0.08500,81.7500,134,77,0.36386
8243020,-0.27000,81.5625,134,77,0.35775
8243030,-0.18500,81.3125,134,77,0.35140
8243040,-0.16500,81.1250,134,77,0.34457
8243050,-0.16000,80.6250,134,77,0.33138
8243060,-0.16000,80.3750,134,77,0.32503
8243070,-0.15500,80.1250,134,77,0.31990
8243080,-0.15000,79.5000,134,77,0.30940
8243090,-0.14500,79.1875,134,77,0.30305
8243100,-0.14000,78.8125,134,77,0.29646
8243110,-0.13500,78.5000,134,77,0.29011
8243120,-0.12500,77.8125,134,77,0.27741
8243130,-0.11500,77.4375,134,77,0.27155
8243140,-0.11500,77.1250,134,77,0.26545
8243150,-0.11000,76.8125,134,77,0.25934
8243160,-0.10000,76.1875,134,77,0.24762
8243170,-0.09500,75.8750,134,77,0.24347
8243180,-0.08000,75.6250,134,77,0.24029
8243190,-0.06500,75.4375,134,77,0.23639
8243200,-0.05500,75.3750,134,77,0.23199
8243210,-0.04000,76.1250,134,77,0.22320
8243220,-0.02500,77.3125,134,77,0.21856
8243230,-0.00500,79.3125,134,77,0.22418
8243240,0.02000,85.6875,134,77,0.23956
8243250,0.03500,89.7500,134,77,0.24103
8243260,0.06000,94.2500,134,77,0.24103
8243270,0.08500,98.9375,134,77,0.24103
8243280,0.11000,108.3750,134,77,0.24127
8243290,0.13500,112.7500,134,77,0.24078
8243300,0.16500,116.6875,134,77,0.24005
8243310,0.19500,120.1250,134,77,0.23932
8243320,0.22500,125.3125,134,77,0.23883
8243330,0.24500,127.1250,134,77,0.23834
8243340,0.25500,128.5000,134,77,0.23834
8243350,0.23500,129.4375,134,77,0.23834
8243360,0.18500,130.2500,134,77,0.23883
8243370,0.14000,130.1875,134,77,0.23980
8243380,0.07500,129.9375,134,77,0.24103
8243390,0.01000,129.4375,134,77,0.24200
8243400,-0.02500,128.7500,134,77,0.24298
8243410,-0.05500,126.7500,134,77,0.24444
8243420,-0.07500,125.5000,134,77,0.24542
8243430,-0.08500,124.0625,134,77,0.24615
8243440,-0.09000,120.5625,134,77,0.24689
8243450,-0.09500,118.5625,134,77,0.24860
8243460,-0.10000,116.3125,134,77,0.24982
8243470,-0.10000,113.8750,134,77,0.25177
8243480,-0.10500,108.5625,134,77,0.25958
8243490,-0.10500,105.9375,134,77,0.26618
8243500,-0.09500,103.4375,134,77,0.27570
8243510,-0.09500,101.3125,134,77,0.28840
8243520,-0.08500,99.5000,134,77,0.30452
8243530,-0.08500,97.0000,134,77,0.34530
8243540,-0.08500,96.1875,134,77,0.36825
8243550,-0.08000,95.6875,134,77,0.39219
8243560,-0.07500,95.3125,134,77,0.41587
8243570,-0.07500,95.0625,134,77,0.45226
8243580,-0.07500,95.0000,134,77,0.46984
8243590,-0.07500,95.0000,134,77,0.48669
8243600,-0.07500,95.0000,134,77,0.51502
8243610,-0.07500,94.8750,134,77,0.52625
8243620,-0.07500,94.6875,134,77,0.53578
8243630,-0.07500,94.4375,134,77,0.54335
8243640,-0.08000,94.1250,134,77,0.54896
8243650,-0.08000,93.4375,134,77,0.55556
8243660,-0.08000,93.0000,134,77,0.55678
8243670,-0.08500,92.5000,134,77,0.55629
8243680,-0.08000,91.5625,134,77,0.55433
8243690,-0.07000,91.0625,134,77,0.54774
8243700,-0.06000,90.5625,134,77,0.54286
8243710,-0.03500,90.0625,134,77,0.53675
8243720,-0.00500,89.0000,134,77,0.52063
8243730,0.00000,88.5000,134,77,0.51062
8243740,0.01000,88.0000,134,77,0.49963
8243750,0.05500,87.5000,134,77,0.48791
8243760,0.08000,87.0000,134,77,0.47570
8243770,0.06500,86.1250,134,77,0.45446
8243780,0.03000,85.6875,134,77,0.44371
8243790,0.00000,85.2500,134,77,0.43321
8243800,0.00000,85.2500,134,77,0.43321
8243810,-0.08000,84.0625,134,77,0.40659
8243820,-0.10500,83.6875,134,77,0.39951
8243830,-0.11500,83.3750,134,77,0.39365
8243840,-0.12000,83.0625,134,77,0.38852
8243850,-0.11500,82.5000,134,77,0.38046
8243860,-0.11000,82.2500,134,77,0.37753
8243870,-0.10500,81.9375,134,77,0.37509
8243880,-0.06500,81.5000,134,77,0.37314
8243890,0.27500,81.2500,134,77,0.36825
8243900,0.69500,81.0625,134,77,0.36532
8243910,0.97000,80.8750,134,77,0.36239
8243920,0.28000,80.5000,134,77,0.35702
8243930,-0.19000,80.3125,134,77,0.35409
8243940,-0.25500,80.1250,134,77,0.35092
8243950,-0.18500,79.8750,134,77,0.34774
8243960,-0.17000,79.6875,134,77,0.34432
8243970,-0.17000,79.1875,134,77,0.33846
8243980,-0.16500,78.9375,134,77,0.33529
8243990,-0.16000,78.6875,134,77,0.33187
8244000,-0.15500,78.3750,134,77,0.32845
8244010,-0.14500,77.8125,134,77,0.32186
8244020,-0.13500,77.5000,134,77,0.31868
8244030,-0.13000,77.1875,134,77,0.31551
8244040,-0.12500,76.8750,134,77,0.31258
8244050,-0.12000,76.2500,134,77,0.30598
8244060,-0.11500,75.9375,134,77,0.30256
8244070,-0.10500,75.5625,134,77,0.29988
8244080,-0.09500,75.0000,134,77,0.29451
8244090,-0.08500,74.7500,134,77,0.29133
8244100,-0.07000,74.5625,134,77,0.28840
8244110,-0.06000,74.4375,134,77,0.28547
8244120,-0.04500,74.5000,134,77,0.28254
8244130,-0.03000,76.0000,134,77,0.27692
8244140,-0.01000,77.7500,134,77,0.27448
8244150,0.01000,80.2500,134,77,0.27204
8244160,0.03000,83.5000,134,77,0.26960
8244170,0.04500,91.8125,134,77,0.26667
8244180,0.06000,96.5000,134,77,0.26496
8244190,0.09000,101.3125,134,77,0.26325
8244200,0.11000,106.1250,134,77,0.26178
8244210,0.14000,114.8750,134,77,0.25934
8244220,0.17500,118.5625,134,77,0.25836
8244230,0.20000,121.6875,134,77,0.25763
8244240,0.22500,124.3125,134,77,0.25714
8244250,0.24500,128.0000,134,77,0.25714
8244260,0.24500,129.1250,134,77,0.25739
8244270,0.22500,129.9375,134,77,0.25812
8244280,0.17000,130.5000,134,77,0.26007
8244290,0.12000,130.4375,134,77,0.26056
8244300,0.06000,130.0625,134,77,0.26105
8244310,-0.00500,129.5625,134,77,0.26129
8244320,-0.03500,128.8750,134,77,0.26129
8244330,-0.06500,126.8750,134,77,0.26129
8244340,-0.09000,125.5625,134,77,0.26129
8244350,-0.10000,124.1250,134,77,0.26129
8244360,-0.10500,120.5625,134,77,0.26227
8244370,-0.10500,118.5000,134,77,0.26349
8244380,-0.10500,116.1875,134,77,0.26471
8244390,-0.11000,113.7500,134,77,0.26691
8244400,-0.11500,111.0625,134,77,0.27057
8244410,-0.11000,105.6875,134,77,0.28449
8244420,-0.10500,103.1875,134,77,0.29597
8244430,-0.10000,101.0625,134,77,0.31087
8244440,-0.09500,99.3125,134,77,0.32894
8244450,-0.09000,96.8750,134,77,0.37216
8244460,-0.08500,96.1875,134,77,0.39585
8244470,-0.08500,95.6875,134,77,0.41685
8244480,-0.08500,95.1875,134,77,0.45617
8244490,-0.08500,95.0625,134,77,0.47595
8244500,-0.08500,95.0625,134,77,0.49451
8244510,-0.08500,95.0625,134,77,0.51136
8244520,-0.09000,95.0000,134,77,0.53846
8244530,-0.09000,94.8750,134,77,0.54896
8244540,-0.09500,94.6875,134,77,0.55775
8244550,-0.10500,94.4375,134,77,0.56459
8244560,-0.10500,94.1250,134,77,0.56972
8244570,-0.10500,93.4375,134,77,0.57289
8244580,-0.10000,93.0000,134,77,0.57338
8244590,-0.10000,92.5625,134,77,0.57289
8244600,-0.09000,91.6250,134,77,0.56825
8244610,-0.08000,91.1250,134,77,0.56435
8244620,-0.05500,90.6250,134,77,0.55922
8244630,-0.03000,90.1250,134,77,0.55263
8244640,-0.02500,89.6250,134,77,0.54481
8244650,-0.01500,88.6250,134,77,0.52552
8244660,0.02000,88.1875,134,77,0.51429
8244670,0.05000,87.6875,134,77,0.50354
8244680,0.05000,87.1875,134,77,0.49304
8244690,0.01000,86.2500,134,77,0.46911
8244700,-0.01500,85.8125,134,77,0.45690
8244710,-0.04000,85.3750,134,77,0.44542
8244720,-0.08500,84.5625,134,77,0.43516
8244730,-0.12500,84.1875,134,77,0.41783
8244740,-0.13500,83.8125,134,77,0.41074
8244750,-0.13500,83.4375,134,77,0.40488
8244760,-0.13500,82.7500,134,77,0.39634
8244770,-0.12500,82.4375,134,77,0.39316
8244780,-0.12500,82.1875,134,77,0.38999
8244790,-0.08500,81.9375,134,77,0.38706
8244800,-0.08500,81.9375,134,77,0.38706
8244810,0.54500,81.2500,134,77,0.37851
8244820,0.95000,81.0625,134,77,0.37582
8244830,0.62000,80.8750,134,77,0.37338
8244840,-0.22500,80.5625,134,77,0.36825
8244850,-0.29000,80.3750,134,77,0.36532
8244860,-0.22500,80.1875,134,77,0.36239
8244870,-0.19000,79.9375,134,77,0.35995
8244880,-0.19000,79.7500,134,77,0.35751
8244890,-0.19000,79.3125,134,77,0.35140
8244900,-0.18000,79.0625,134,77,0.34823
8244910,-0.17500,78.8125,134,77,0.34505
8244920,-0.17000,78.5000,134,77,0.34139
8244930,-0.16000,77.8750,134,77,0.33407
8244940,-0.16000,77.5625,134,77,0.33040
8244950,-0.15000,77.1875,134,77,0.32698
8244960,-0.14500,76.5625,134,77,0.32039
8244970,-0.14000,76.2500,134,77,0.31770
8244980,-0.13000,75.9375,134,77,0.31453
8244990,-0.11500,75.6250,134,77,0.31111
8245000,-0.10500,75.3750,135,76,0.30745
8245010,-0.09500,74.9375,135,76,0.30061
8245020,-0.08500,74.8125,135,76,0.29719
8245030,-0.07500,74.8750,135,76,0.29402
8245040,-0.06000,75.3750,135,76,0.29109
8245050,-0.04000,78.2500,135,76,0.28571
8245060,-0.02500,80.8125,135,76,0.28327
8245070,-0.01000,84.1875,135,76,0.28181
8245080,0.00500,92.6875,135,76,0.28083
8245090,0.03000,97.4375,135,76,0.27741
8245100,0.04500,102.3750,135,76,0.27570
8245110,0.08000,107.1875,135,76,0.27399
8245120,0.11000,111.8750,135,76,0.27277
8245130,0.14000,119.8750,135,76,0.27082
8245140,0.16500,123.0625,135,76,0.27033
8245150,0.20500,125.6875,135,76,0.27009
8245160,0.22500,129.3750,135,76,0.27057
8245170,0.23500,130.5625,135,76,0.27131
8245180,0.21500,131.3750,135,76,0.27155
8245190,0.16500,131.8750,135,76,0.27179
8245200,0.12000,132.0625,135,76,0.27179
8245210,0.05500,131.7500,135,76,0.27204
8245220,-0.01000,131.3125,135,76,0.27228
8245230,-0.04000,130.6875,135,76,0.27253
8245240,-0.07500,129.8750,135,76,0.27302
8245250,-0.10000,127.7500,135,76,0.27375
8245260,-0.11500,126.3750,135,76,0.27448
8245270,-0.11500,124.8125,135,76,0.27546
8245280,-0.12000,123.0625,135,76,0.28376
8245290,-0.12000,118.8750,135,76,0.30305
8245300,-0.12000,116.5000,135,76,0.30891
8245310,-0.12500,113.8750,135,76,0.31575
8245320,-0.12500,108.1875,135,76,0.32503
8245330,-0.12000,105.3750,135,76,0.35507
8245340,-0.11500,102.8125,135,76,0.37729
8245350,-0.11000,100.6875,135,76,0.40415
8245360,-0.11000,99.0000,135,76,0.43492
8245370,-0.10500,96.8125,135,76,0.49255
8245380,-0.10500,96.1875,135,76,0.52552
8245390,-0.10500,95.8125,135,76,0.55971
8245400,-0.10500,95.5625,135,76,0.59316
8245410,-0.10500,95.5000,135,76,0.65299
8245420,-0.10500,95.5625,135,76,0.67814
8245430,-0.10500,95.5625,135,76,0.70012
8245440,-0.11000,95.5625,135,76,0.71893
8245450,-0.10500,95.3750,135,76,0.74774
8245460,-0.10500,95.1250,135,76,0.75604
8245470,-0.10500,94.8750,135,76,0.76142
8245480,-0.11000,94.5000,135,76,0.76606
8245490,-0.11000,93.7500,135,76,0.77094
8245500,-0.10500,93.3125,135,76,0.77094
8245510,-0.10500,92.8125,135,76,0.76899
8245520,-0.09000,92.3125,135,76,0.76532
8245530,-0.06500,91.3125,135,76,0.75287
8245540,-0.04500,90.7500,135,76,0.74359
8245550,-0.02500,90.2500,135,76,0.73236
8245560,-0.02000,89.2500,135,76,0.70574
8245570,0.00500,88.6875,135,76,0.69158
8245580,0.04000,88.1875,135,76,0.67521
8245590,0.04500,87.6875,135,76,0.65739
8245600,0.00500,86.6875,135,76,0.61978
8245610,-0.02500,86.2500,135,76,0.60098
8245620,-0.05500,85.7500,135,76,0.58291
8245630,-0.09500,85.3125,135,76,0.56581
8245640,-0.13000,84.9375,135,76,0.55018
8245650,-0.14000,84.1250,135,76,0.52479
8245660,-0.14500,83.7500,135,76,0.51551
8245670,-0.14500,83.3750,135,76,0.50842
8245680,-0.14000,83.0625,135,76,0.50208
8245690,-0.13000,82.5000,135,76,0.49182
8245700,-0.12000,82.2500,135,76,0.48767
8245710,0.00000,82.0000,135,76,0.48376
8245720,0.42500,81.5000,135,76,0.47546
8245730,0.95500,81.3125,135,76,0.47106
8245740,0.75500,81.1250,135,76,0.46691
8245750,0.05000,80.9375,135,76,0.46252
8245760,-0.28500,80.5625,135,76,0.45372
8245770,-0.23000,80.4375,135,76,0.45006
8245780,-0.19000,80.2500,135,76,0.44591
8245790,-0.18500,80.0000,135,76,0.44151
8245800,-0.18500,80.0000,135,76,0.44151
8245810,-0.18000,79.3125,135,76,0.42686
8245820,-0.17500,79.0000,135,76,0.42149
8245830,-0.17000,78.7500,135,76,0.41587
8245840,-0.16500,78.4375,135,76,0.41026
8245850,-0.16000,77.8125,135,76,0.39853
8245860,-0.15500,77.4375,135,76,0.39390
8245870,-0.15000,77.1250,135,76,0.38974
8245880,-0.14500,76.5000,135,76,0.38486
8245890,-0.13500,76.2500,135,76,0.37411
8245900,-0.13000,75.9375,135,76,0.36850
8245910,-0.11500,75.6875,135,76,0.36288
8245920,-0.10000,75.3125,135,76,0.35214
8245930,-0.08500,75.1875,135,76,0.34676
8245940,-0.07000,75.3750,135,76,0.34188
8245950,-0.05000,75.9375,135,76,0.33700
8245960,-0.03500,77.1875,135,76,0.33236
8245970,-0.02500,82.0625,135,76,0.32674
8245980,-0.00500,85.6250,135,76,0.32357
8245990,0.01000,89.8125,135,76,0.32063
8246000,0.03000,94.3750,135,76,0.31770
8246010,0.06500,104.2500,135,76,0.31233
8246020,0.09000,109.1875,135,76,0.31013
8246030,0.12000,113.8750,135,76,0.30818
8246040,0.14500,121.8125,135,76,0.30476
8246050,0.16500,124.9375,135,76,0.30379
8246060,0.19500,127.5625,135,76,0.30379
8246070,0.22000,129.6250,135,76,0.30427
8246080,0.22500,132.3125,135,76,0.30403
8246090,0.21000,133.0625,135,76,0.30403
8246100,0.17500,133.5000,135,76,0.30403
8246110,0.11000,133.7500,135,76,0.30379
8246120,0.05500,133.6875,135,76,0.30379
8246130,-0.00500,133.0000,135,76,0.30427
8246140,-0.06000,132.3125,135,76,0.30476
8246150,-0.08500,131.5625,135,76,0.30525
8246160,-0.10500,130.5625,135,76,0.30574
8246170,-0.11000,128.1250,135,76,0.30818
8246180,-0.11500,126.6875,135,76,0.30867
8246190,-0.11500,125.0000,135,76,0.30940
8246200,-0.12500,121.0625,135,76,0.31013
8246210,-0.13000,118.7500,135,76,0.31502
8246220,-0.13500,116.1875,135,76,0.32112
8246230,-0.13500,113.5000,135,76,0.33089
8246240,-0.13500,108.1875,135,76,0.36386
8246250,-0.13500,105.8125,135,76,0.38779
8246260,-0.13500,103.8125,135,76,0.41221
8246270,-0.13500,102.1875,135,76,0.43810
8246280,-0.12500,100.8750,135,76,0.46984
8246290,-0.12000,99.1875,135,76,0.54139
8246300,-0.11500,98.6875,135,76,0.57753
8246310,-0.11500,98.3750,135,76,0.61221
8246320,-0.11500,98.0625,135,76,0.67350
8246330,-0.11500,98.0625,135,76,0.69915
8246340,-0.11500,97.9375,135,76,0.72161
8246350,-0.11500,97.8750,135,76,0.74090
8246360,-0.11500,97.5000,135,76,0.76850
8246370,-0.11500,97.3125,135,76,0.77607
8246380,-0.11500,97.0000,135,76,0.78339
8246390,-0.11500,96.6250,135,76,0.78926
8246400,-0.11500,96.2500,135,76,0.79341
8246410,-0.12000,95.3750,135,76,0.79683
8246420,-0.11500,94.8750,135,76,0.79634
8246430,-0.11000,94.3750,135,76,0.79414
8246440,-0.09000,93.8125,135,76,0.78999
8246450,-0.06500,92.8125,135,76,0.77607
8246460,-0.04500,92.3125,135,76,0.76679
8246470,-0.03500,91.7500,135,76,0.75604
8246480,-0.01500,91.2500,135,76,0.74335
8246490,0.02000,90.2500,135,76,0.71306
8246500,0.03000,89.7500,135,76,0.69573
8246510,0.00000,89.3125,135,76,0.67790
8246520,-0.02500,88.8125,135,76,0.65958
8246530,-0.06000,87.8750,135,76,0.62393
8246540,-0.12000,87.4375,135,76,0.60733
8246550,-0.14500,87.0000,135,76,0.59219
8246560,-0.16000,86.6250,135,76,0.57875
8246570,-0.16500,85.8750,135,76,0.55897
8246580,-0.16500,85.5625,135,76,0.55067
8246590,-0.16000,85.2500,135,76,0.54359
8246600,-0.16000,84.6250,135,76,0.53162
8246610,-0.15500,84.3750,135,76,0.52650
8246620,-0.00500,84.1250,135,76,0.52186
8246630,0.45500,83.8750,135,76,0.51722
8246640,1.02500,83.4375,135,76,0.50794
8246650,0.79000,83.2500,135,76,0.50330
8246660,-0.08500,83.0000,135,76,0.49890
8246670,-0.28500,82.8750,135,76,0.49475
8246680,-0.23500,82.6250,135,76,0.48498
8246690,-0.22000,82.5000,135,76,0.47985
8246700,-0.22000,82.3125,135,76,0.47473
8246710,-0.21500,82.1250,135,76,0.46960
8246720,-0.21000,81.9375,135,76,0.46447
8246730,-0.20000,81.4375,135,76,0.45397
8246740,-0.20000,81.0625,135,76,0.44908
8246750,-0.19500,80.7500,135,76,0.44420
8246760,-0.19000,80.4375,135,76,0.43932
8246770,-0.19000,79.6875,135,76,0.43199
8246780,-0.19000,79.3750,135,76,0.42759
8246790,-0.18500,79.0000,135,76,0.42271
8246800,-0.18500,79.0000,135,76,0.42271
8246810,-0.15500,78.0625,135,76,0.40806
8246820,-0.13500,77.7500,135,76,0.40317
8246830,-0.11500,77.5625,135,76,0.39902
8246840,-0.09500,77.5625,135,76,0.39194
8246850,-0.08500,78.0625,135,76,0.38877
8246860,-0.07500,79.1875,135,76,0.38657
8246870,-0.05500,81.1250,135,76,0.38462
8246880,-0.04000,83.9375,135,76,0.38217
8246890,-0.01500,91.8125,135,76,0.37680
8246900,0.00000,96.5625,135,76,0.37411
8246910,0.02000,101.6250,135,76,0.37143
8246920,0.04000,111.9375,135,76,0.36728
8246930,0.06500,116.8750,135,76,0.36630
8246940,0.09000,121.3750,135,76,0.36606
8246950,0.11500,125.3125,135,76,0.36654
8246960,0.14000,128.6875,135,76,0.36728
8246970,0.16500,133.7500,135,76,0.37021
8246980,0.18500,135.5000,135,76,0.37143
8246990,0.18500,136.8125,135,76,0.37192
8247000,0.16500,137.6875,134,76,0.37216
8247010,0.12500,138.5000,134,76,0.37118
8247020,0.05500,138.5625,134,76,0.37021
8247030,0.00000,138.4375,134,76,0.36899
8247040,-0.05000,138.1250,134,76,0.36777
8247050,-0.10000,136.9375,134,76,0.36532
8247060,-0.12500,136.1250,134,76,0.36484
8247070,-0.14500,135.1250,134,76,0.36508
8247080,-0.15500,132.7500,134,76,0.36532
8247090,-0.16000,131.2500,134,76,0.36630
8247100,-0.16000,129.5625,134,76,0.36752
8247110,-0.16000,127.6875,134,76,0.36972
8247120,-0.15500,123.1875,134,76,0.37973
8247130,-0.15000,120.6250,134,76,0.38950
8247140,-0.14500,117.9375,134,76,0.40317
8247150,-0.14500,115.1250,134,76,0.42149
8247160,-0.14000,112.4375,134,76,0.44078
8247170,-0.13000,107.8125,134,76,0.49035
8247180,-0.12500,106.0625,134,76,0.52283
8247190,-0.12000,104.6875,134,76,0.55824
8247200,-0.11500,102.8750,134,76,0.59487
8247210,-0.10500,102.3125,134,76,0.66618
8247220,-0.10000,101.9375,134,76,0.69939
8247230,-0.09500,101.6875,134,76,0.72991
8247240,-0.09500,101.5000,134,76,0.75751
8247250,-0.08500,101.3750,134,76,0.80317
8247260,-0.08500,101.2500,134,76,0.81832
8247270,-0.08500,101.1250,134,76,0.82955
8247280,-0.09000,100.5625,134,76,0.85006
8247290,-0.09500,100.1250,134,76,0.85812
8247300,-0.09500,99.7500,134,76,0.86447
8247310,-0.09500,99.3125,134,76,0.86886
8247320,-0.09500,98.3125,134,76,0.84127
8247330,-0.09000,97.8125,134,76,0.79390
8247340,-0.07500,97.2500,134,76,0.76825
8247350,-0.04500,96.6875,134,76,0.75287
8247360,-0.02500,96.1250,134,76,0.74164
8247370,-0.01500,95.0000,134,76,0.72259
8247380,-0.00500,94.4375,134,76,0.71258
8247390,0.02500,93.8750,134,76,0.70134
8247400,0.06000,92.8125,134,76,0.67497
8247410,0.05500,92.3125,134,76,0.65958
8247420,0.02000,91.8125,134,76,0.64347
8247430,-0.00500,91.3125,134,76,0.62686
8247440,-0.04500,90.8125,134,76,0.61050
8247450,-0.09500,89.8750,134,76,0.57949
8247460,-0.12500,89.5000,134,76,0.56654
8247470,-0.13500,89.0625,134,76,0.55507
8247480,-0.13500,88.3125,134,76,0.53480
8247490,-0.13500,87.9375,134,76,0.52674
8247500,-0.12500,87.5625,134,76,0.51941
8247510,-0.12500,87.3125,134,76,0.51331
8247520,-0.10000,87.0000,134,76,0.50818
8247530,0.13000,86.4375,134,76,0.49915
8247540,0.71500,86.1875,134,76,0.49499
8247550,1.10000,86.0000,134,76,0.49109
8247560,0.65500,85.8125,134,76,0.48718
8247570,-0.08500,85.4375,134,76,0.47888
8247580,-0.24000,85.2500,134,76,0.47448
8247590,-0.19000,85.0625,134,76,0.46960
8247600,-0.18000,84.8750,134,76,0.46447
8247610,-0.18000,84.3750,134,76,0.45397
8247620,-0.18000,84.1250,134,76,0.44860
8247630,-0.18000,83.8750,134,76,0.44322
8247640,-0.18000,83.3125,134,76,0.43272
8247650,-0.17000,83.0000,134,76,0.42735
8247660,-0.16500,82.6875,134,76,0.42271
8247670,-0.15500,82.3750,134,76,0.41832
8247680,-0.15000,82.0625,134,76,0.41319
8247690,-0.15000,81.3750,134,76,0.40293
8247700,-0.14500,81.0625,134,76,0.39805
8247710,-0.14000,80.7500,134,76,0.39341
8247720,-0.12500,80.2500,134,76,0.38437
8247730,-0.11000,80.0000,134,76,0.38022
8247740,-0.10500,79.8750,134,76,0.37607
8247750,-0.09000,79.8750,134,76,0.37192
8247760,-0.07500,81.3125,134,76,0.36508
8247770,-0.07000,83.1875,134,76,0.36190
8247780,-0.05500,85.9375,134,76,0.35849
8247790,-0.03000,89.5625,134,76,0.35482
8247800,-0.03000,89.5625,134,76,0.35482
8247810,0.01000,103.8125,134,76,0.34628
8247820,0.04500,109.1250,134,76,0.34408
8247830,0.07000,114.2500,134,76,0.34188
8247840,0.11000,123.5625,134,76,0.33871
8247850,0.14000,127.4375,134,76,0.33797
8247860,0.16500,130.6875,134,76,0.33773
8247870,0.19500,133.3125,134,76,0.33797
8247880,0.22500,136.9375,134,76,0.33871
8247890,0.23500,138.0625,134,76,0.33919
8247900,0.23500,138.8750,134,76,0.33968
8247910,0.21500,139.3750,134,76,0.34017
8247920,0.16500,139.6250,134,76,0.34066
8247930,0.12500,139.4375,134,76,0.34066
8247940,0.06000,139.1250,134,76,0.34090
8247950,0.00000,138.6875,134,76,0.34139
8247960,-0.03000,138.0000,134,76,0.34188
8247970,-0.05500,136.3750,134,76,0.34261
8247980,-0.07000,135.3750,134,76,0.34310
8247990,-0.08000,134.1875,134,76,0.34359
8248000,-0.08500,132.8125,134,76,0.34383
8248010,-0.08500,129.4375,134,76,0.34530
8248020,-0.08500,127.3750,134,76,0.34750
8248030,-0.08500,125.1250,134,76,0.35189
8248040,-0.08500,119.8125,134,76,0.37021
8248050,-0.08500,116.9375,134,76,0.38510
8248060,-0.09500,114.0625,134,76,0.40073
8248070,-0.08500,111.4375,134,76,0.41856
8248080,-0.07000,109.0625,134,76,0.44200
8248090,-0.06500,105.4375,134,76,0.49841
8248100,-0.06500,104.1250,134,76,0.52845
8248110,-0.06500,103.1875,134,76,0.55824
8248120,-0.06000,101.8750,134,76,0.61343
8248130,-0.06000,101.5625,134,76,0.63785
8248140,-0.05500,101.3125,134,76,0.65958
8248150,-0.05500,101.1250,134,76,0.67863
8248160,-0.05500,100.9375,134,76,0.69206
8248170,-0.05500,100.5625,134,76,0.71209
8248180,-0.04500,100.3125,134,76,0.72112
8248190,-0.04500,100.0000,134,76,0.72869
8248200,-0.04500,99.5625,134,76,0.73480
8248210,-0.04500,98.6250,134,76,0.74212
8248220,-0.04000,98.1250,134,76,0.74359
8248230,-0.03500,97.5625,134,76,0.74335
8248240,-0.01500,96.4375,134,76,0.73822
8248250,0.01000,95.8125,134,76,0.73358
8248260,0.04000,95.1875,134,76,0.72723
8248270,0.05000,94.5625,134,76,0.71941
8248280,0.05000,93.9375,134,76,0.71038
8248290,0.08000,92.7500,134,76,0.68816
8248300,0.11000,92.1250,134,76,0.67424
8248310,0.09500,91.5625,134,76,0.65861
8248320,0.06500,91.0000,134,76,0.64151
8248330,0.03000,89.9375,134,76,0.60464
8248340,-0.01500,89.4375,134,76,0.58584
8248350,-0.05000,88.9375,134,76,0.56752
8248360,-0.08000,88.5000,134,76,0.55165
8248370,-0.09500,87.6250,134,76,0.52308
8248380,-0.09500,87.1875,134,76,0.50965
8248390,-0.09500,86.8125,134,76,0.49719
8248400,-0.09000,86.1250,134,76,0.47521
8248410,-0.08500,85.8125,134,76,0.46545
8248420,-0.06000,85.5000,134,76,0.45641
8248430,0.13000,85.1875,134,76,0.44811
8248440,0.60000,84.6250,134,76,0.43297
8248450,1.03000,84.3125,134,76,0.42589
8248460,0.71500,84.0625,134,76,0.41978
8248470,-0.11500,83.8125,134,76,0.41416
8248480,-0.24000,83.6250,134,76,0.40781
8248490,-0.18000,83.1250,134,76,0.39414
8248500,-0.15500,82.8750,134,76,0.38681
8248510,-0.15500,82.6250,134,76,0.37949
8248520,-0.14500,82.3750,134,76,0.37241
8248530,-0.14500,81.7500,134,76,0.35849
8248540,-0.14500,81.3750,134,76,0.35140
8248550,-0.13500,81.0625,134,76,0.34432
8248560,-0.12500,80.6875,134,76,0.33822
8248570,-0.12500,79.9375,134,76,0.32674
8248580,-0.12500,79.5625,134,76,0.32039
8248590,-0.12000,79.1875,134,76,0.31404
8248600,-0.11500,78.5000,134,76,0.30085
8248610,-0.10500,78.1875,134,76,0.29426
8248620,-0.10000,77.8750,134,76,0.28816
8248630,-0.08500,77.5625,134,76,0.28205
8248640,-0.07500,77.3125,134,76,0.27595
8248650,-0.06500,76.8750,134,76,0.26447
8248660,-0.05000,76.9375,134,76,0.26032
8248670,-0.03500,77.4375,134,76,0.25665
8248680,-0.02500,78.5625,134,76,0.25250
8248690,-0.00500,83.1875,134,76,0.24347
8248700,0.01000,86.6250,134,76,0.23932
8248710,0.02500,90.6875,134,76,0.23541
8248720,0.05000,99.8750,134,76,0.22857
8248730,0.07000,104.7500,134,76,0.22564
8248740,0.10000,109.5625,134,76,0.22295
8248750,0.13000,114.0625,134,76,0.22051
8248760,0.15500,118.2500,134,76,0.21905
8248770,0.19500,124.9375,134,76,0.21734
8248780,0.22500,127.3750,134,76,0.21636
8248790,0.25000,129.3125,134,76,0.21538
8248800,0.26500,131.8125,134,76,0.21441
8248810,0.24500,132.4375,134,76,0.21221
8248820,0.20000,132.7500,134,76,0.21148
8248830,0.14000,132.8125,134,76,0.21074
8248840,0.08000,132.6875,134,76,0.21026
8248850,0.02000,131.6875,134,76,0.20928
8248860,-0.01500,130.9375,134,76,0.20977
8248870,-0.04500,130.0000,134,76,0.21074
8248880,-0.07000,127.6875,134,76,0.21172
8248890,-0.08000,126.1875,134,76,0.21245
8248900,-0.09000,124.5625,134,76,0.21294
8248910,-0.09500,122.6875,134,76,0.21368
8248920,-0.09500,118.1875,134,76,0.21563
8248930,-0.09500,115.5625,134,76,0.21783
8248940,-0.09500,112.8750,134,76,0.22198
8248950,-0.09500,110.0625,134,76,0.22882
8248960,-0.09500,107.3125,134,76,0.23736
8248970,-0.09000,102.6875,134,76,0.26471
8248980,-0.08500,100.9375,134,76,0.28498
8248990,-0.08500,99.5625,134,76,0.30940
8249000,-0.07500,97.7500,134,76,0.36606
8249010,-0.06500,97.2500,134,76,0.39585
8249020,-0.06500,96.8750,134,76,0.42540
8249030,-0.06000,96.6875,134,76,0.45372
8249040,-0.05500,96.5625,134,76,0.50379
8249050,-0.05000,96.5625,134,76,0.52186
8249060,-0.04500,96.4375,134,76,0.53626
8249070,-0.04000,96.2500,134,76,0.55018
8249080,-0.04000,96.1250,134,76,0.56239
8249090,-0.04500,95.6250,134,76,0.58095
8249100,-0.04500,95.2500,134,76,0.58730
8249110,-0.04500,94.8750,134,76,0.59170
8249120,-0.04500,94.4375,134,76,0.59414
8249130,-0.04500,93.5000,134,76,0.59414
8249140,-0.03000,93.0000,134,76,0.59170
8249150,-0.00500,92.5000,134,76,0.58779
8249160,0.02000,92.0000,134,76,0.58266
8249170,0.03000,91.0000,134,76,0.56825
8249180,0.03500,90.5000,134,76,0.55849
8249190,0.07000,89.9375,134,76,0.54701
8249200,0.09500,89.4375,134,76,0.53382
8249210,0.08000,88.4375,134,76,0.50305
8249220,0.02500,87.9375,134,76,0.48620
8249230,0.00000,87.5000,134,76,0.46911
8249240,-0.02500,87.0625,134,76,0.45226
8249250,-0.08500,86.1875,134,76,0.42271
8249260,-0.11500,85.8125,134,76,0.41123
8249270,-0.12500,85.3750,134,76,0.39976
8249280,-0.13000,85.0625,134,76,0.38926
8249290,-0.13500,84.3750,134,76,0.37167
8249300,-0.13500,84.0625,134,76,0.36459
8249310,-0.13000,83.6875,134,76,0.35849
8249320,-0.11500,83.4375,134,76,0.35336
8249330,0.05500,82.8750,134,76,0.34530
8249340,0.63000,82.6875,134,76,0.34164
8249350,0.93000,82.4375,134,76,0.33773
8249360,0.60000,82.1875,134,76,0.33455
8249370,-0.20000,81.7500,134,76,0.33675
8249380,-0.30000,81.5000,134,76,0.34554
8249390,-0.30000,81.5000,134,76,0.34554
8249400,-0.30000,81.5000,134,76,0.34554
8249410,-0.30000,81.5000,134,76,0.34554
8249420,-0.30000,81.5000,134,76,0.34554
8249430,-0.17500,80.0000,134,76,0.33553
8249440,-0.17000,79.7500,134,76,0.33211
8249450,-0.16000,79.1250,134,76,0.32625
8249460,-0.15000,78.8125,134,76,0.32405
8249470,-0.14500,78.4375,134,76,0.32112
8249480,-0.13500,78.0625,134,76,0.31770
8249490,-0.13500,77.3750,134,76,0.31038
8249500,-0.13500,77.0625,134,76,0.30647
8249510,-0.13000,76.7500,134,76,0.30256
8249520,-0.12500,76.4375,134,76,0.29841
8249530,-0.11500,75.8750,134,76,0.29035
8249540,-0.09500,75.6875,134,76,0.28645
8249550,-0.08000,75.5000,134,76,0.28254
8249560,-0.06500,75.6875,134,76,0.27985
8249570,-0.04500,76.3750,134,76,0.27521
8249580,-0.03000,77.7500,134,76,0.27253
8249590,-0.00500,79.8750,134,76,0.26984
8249600,0.00500,86.3750,134,76,0.26471
8249610,0.02000,90.5625,134,76,0.26227
8249620,0.04000,95.0625,134,76,0.25983
8249630,0.05500,99.8125,134,76,0.25763
8249640,0.08000,104.6250,134,76,0.25543
8249650,0.12000,113.6875,134,76,0.25201
8249660,0.14500,117.6250,134,76,0.25153
8249670,0.17000,121.0000,134,76,0.25031
8249680,0.19000,126.0625,134,76,0.24811
8249690,0.19500,127.8125,134,76,0.24737
8249700,0.18500,129.1250,134,76,0.24689
8249710,0.15000,130.0000,134,76,0.24664
8249720,0.10000,130.5625,134,76,0.24664
8249730,0.00500,130.8125,134,76,0.24664
8249740,-0.11000,130.5000,134,76,0.24664
8249750,-0.16000,130.0625,134,76,0.24664
8249760,-0.20000,129.3750,134,76,0.24737
8249770,-0.22000,127.3750,134,76,0.24908
8249780,-0.20000,126.1250,134,76,0.25006
8249790,-0.17000,124.6250,134,76,0.25104
8249800,-0.17000,124.6250,134,76,0.25104
8249810,-0.03500,119.0625,134,76,0.25397
8249820,-0.01500,116.8125,134,76,0.25519
8249830,-0.01500,114.2500,134,76,0.25714
8249840,-0.02000,111.6250,134,76,0.26056
8249850,-0.02000,106.1875,134,76,0.27253
8249860,-0.01000,103.7500,134,76,0.28205
8249870,0.03500,101.6250,134,76,0.29548
8249880,0.27500,99.9375,134,76,0.31306
8249890,0.80000,97.6250,134,76,0.35971
8249900,0.76500,96.9375,134,76,0.38706
8249910,0.35500,96.5000,134,76,0.41587
8249920,-0.03500,96.2500,134,76,0.44518
8249930,-0.04500,96.1250,134,76,0.50037
8249940,-0.05500,96.1875,134,76,0.52527
8249950,-0.08500,96.2500,134,76,0.54750
8249960,-0.10000,96.1875,134,76,0.57827
8249970,-0.10000,96.0625,134,76,0.59145
8249980,-0.10000,95.8750,134,76,0.60342
8249990,-0.10000,95.5625,134,76,0.61343
8250000,-0.10000,95.2500,134,76,0.62149
8250010,-0.10500,94.3125,134,76,0.63199
8250020,-0.10000,93.8125,134,76,0.63443
8250030,-0.09500,93.3125,134,76,0.63492
8250040,-0.09500,92.2500,134,76,0.63053
8250050,-0.09000,91.6875,134,76,0.62637
8250060,-0.09500,91.1250,134,76,0.62076
8250070,-0.09500,90.6250,134,76,0.61392
8250080,-0.08500,90.1250,134,76,0.60537
8250090,-0.07500,89.1250,134,76,0.58364
8250100,-0.07000,88.6875,134,76,0.57070
8250110,-0.05500,88.1875,134,76,0.55653
8250120,-0.04000,87.6875,134,76,0.54164
8250130,-0.02000,86.7500,134,76,0.51013
8250140,0.00000,86.2500,134,76,0.49499
8250150,0.02000,85.7500,134,76,0.48083
8250160,0.04000,85.3125,134,76,0.46935
8250170,0.07500,84.7500,134,76,0.45055
8250180,0.10000,84.8125,134,76,0.44225
8250190,0.14000,85.1250,134,76,0.43541
8250200,0.18500,86.6875,134,76,0.42515
8250210,0.21500,87.9375,134,76,0.42125
8250220,0.24000,89.3750,134,76,0.41807
8250230,0.23000,90.9375,134,76,0.41514
8250240,0.18500,92.5625,134,76,0.41245
8250250,0.11000,95.7500,134,76,0.40830
8250260,0.02000,97.0625,134,76,0.40684
8250270,-0.03000,98.1250,134,76,0.40488
8250280,-0.07500,98.9375,134,76,0.40244
8250290,-0.11500,99.3750,134,76,0.39683
8250300,-0.14000,99.0000,134,76,0.39390
8250310,-0.15500,98.1875,134,76,0.39072
8250320,-0.16000,95.6250,134,76,0.38437
8250330,-0.16000,93.9375,134,76,0.38169
8250340,-0.15500,92.1250,134,76,0.37900
8250350,-0.15000,90.3125,134,76,0.37631
8250360,-0.14500,88.5625,134,76,0.37411
8250370,-0.14000,85.5625,134,76,0.36972
8250380,-0.14000,84.3750,134,76,0.36703
8250390,-0.13500,83.3125,134,76,0.36386
8250400,-0.13500,81.8125,134,76,0.35629
8250410,-0.13500,81.3125,134,76,0.35214
8250420,-0.13000,80.9375,134,76,0.34774
8250430,-0.12500,80.6250,134,76,0.34335
8250440,-0.13000,80.2500,134,76,0.33675
8250450,-0.13000,80.1250,134,76,0.33504
8250460,-0.13000,80.0000,134,76,0.33455
8250470,-0.13000,79.8750,134,76,0.33504
8250480,-0.12500,79.6250,134,76,0.34066
8250490,-0.12500,79.5000,134,76,0.34603
8250500,-0.12500,79.3750,134,76,0.35287
8250510,-0.12500,79.2500,134,76,0.36068
8250520,-0.12500,79.0625,134,76,0.36923
8250530,-0.12500,78.7500,134,76,0.38584
8250540,-0.12000,78.5625,134,76,0.39316
8250550,-0.12000,78.3750,134,76,0.39927
8250560,-0.11500,78.1875,134,76,0.40366
8250570,-0.11500,77.8750,134,76,0.40855
8250580,-0.11500,77.6875,134,76,0.40855
8250590,-0.11500,77.5000,134,76,0.40708
8250600,-0.11500,77.2500,134,76,0.40391
8250610,-0.11500,76.8125,134,76,0.39316
8250620,-0.11000,76.6250,134,76,0.38632
8250630,-0.10500,76.3750,134,76,0.37900
8250640,-0.10500,75.8750,134,76,0.36459
8250650,-0.10500,75.5625,134,76,0.35873
8250660,-0.09500,75.3125,134,76,0.35409
8250670,-0.09500,75.0625,134,76,0.34921
8250680,-0.09500,74.5625,134,76,0.34042
8250690,-0.09500,74.3125,134,76,0.33675
8250700,-0.09500,74.0625,134,76,0.33382
8250710,-0.09500,73.8125,134,76,0.33114
8250720,-0.09500,73.6250,134,76,0.32869
8250730,-0.09000,73.1875,134,76,0.32527
8250740,-0.08500,73.0000,134,76,0.32381
8250750,-0.08500,72.8125,134,76,0.32283
8250760,-0.08500,72.6250,134,76,0.32259
8250770,-0.08500,72.2500,134,76,0.32088
8250780,-0.08500,72.0625,134,76,0.31966
8250790,-0.08500,71.8750,134,76,0.31868
8250800,-0.08500,71.8750,134,76,0.31868
8250810,-0.08000,71.4375,134,76,0.31575
8250820,-0.08500,71.2500,134,76,0.31477
8250830,-0.08000,71.0625,134,76,0.31380
8250840,-0.07500,70.7500,134,76,0.31136
8250850,-0.06000,70.5625,134,76,0.31062
8250860,-0.03500,70.4375,134,76,0.31013
8250870,-0.00500,70.2500,134,76,0.30867
8250880,0.01000,70.1250,134,76,0.30672
8250890,0.01500,69.8125,134,76,0.30232
8250900,0.06000,69.6875,134,76,0.29988
8250910,0.10500,69.5000,134,76,0.29768
8250920,0.12000,69.3750,134,76,0.29524
8250930,0.09000,69.1250,134,76,0.28962
8250940,0.04500,68.9375,134,76,0.28694
8250950,-0.01000,68.7500,134,76,0.28547
8250960,-0.05000,68.5625,134,76,0.28425
8250970,-0.08500,68.3125,134,76,0.27985
8250980,-0.10500,68.2500,134,76,0.27717
8250990,-0.11000,68.1250,134,76,0.27473
8251000,-0.11000,68.0000,134,76,0.27228
8251010,-0.11500,67.7500,134,76,0.26764
8251020,-0.11500,67.6875,134,76,0.26593
8251030,-0.01500,67.5625,134,76,0.26422
8251040,0.27000,67.4375,134,76,0.26276
8251050,0.80000,67.3750,134,76,0.26081
8251060,0.79000,67.3125,134,76,0.26081
8251070,0.25000,67.2500,134,76,0.26032
8251080,-0.28000,67.0625,134,76,0.25934
8251090,-0.27000,67.0000,134,76,0.25885
8251100,-0.21000,66.9375,134,76,0.25861
8251110,-0.19500,66.8750,134,76,0.25861
8251120,-0.19000,66.8125,134,76,0.25861
8251130,-0.18500,66.6250,134,76,0.25861
8251140,-0.18000,66.5000,134,76,0.25885
8251150,-0.17000,66.3750,134,76,0.25983
8251160,-0.16500,66.2500,134,76,0.26129
8251170,-0.16000,66.0000,134,76,0.26300
8251180,-0.15500,65.8125,134,76,0.26398
8251190,-0.14500,65.5625,134,76,0.26496
8251200,-0.13500,65.3750,134,76,0.26593
8251210,-0.12500,65.0000,134,76,0.26838
8251220,-0.11500,64.8750,134,76,0.26984
8251230,-0.10500,64.9375,134,76,0.27131
8251240,-0.08500,66.1250,134,76,0.27375
8251250,-0.07500,67.9375,134,76,0.27521
8251260,-0.06500,70.8750,134,76,0.27692
8251270,-0.04500,74.8750,134,76,0.27839
8251280,-0.03000,79.6250,134,76,0.27961
8251290,-0.01000,90.5000,134,76,0.28181
8251300,0.01000,96.1875,134,76,0.28303
8251310,0.02500,101.8750,134,76,0.28474
8251320,0.04500,107.3125,134,76,0.28669
8251330,0.06500,116.9375,134,76,0.29109
8251340,0.08000,120.8750,134,76,0.29304
8251350,0.09500,124.1250,134,76,0.29524
8251360,0.12000,128.8125,134,76,0.30037
8251370,0.14000,130.3750,134,76,0.30256
8251380,0.16500,131.5625,134,76,0.30476
8251390,0.19500,132.3750,134,76,0.30720
8251400,0.21500,132.8750,134,76,0.30965
8251410,0.22500,132.9375,134,76,0.31429
8251420,0.22500,132.5625,134,76,0.32259
8251430,0.20500,131.9375,134,76,0.33382
8251440,0.16000,129.8750,134,76,0.34579
8251450,0.11000,128.5625,134,76,0.34994
8251460,0.06000,127.0625,134,76,0.35385
8251470,0.01000,125.3750,134,76,0.35678
8251480,-0.02500,123.5000,134,76,0.35897
8251490,-0.04500,119.3750,134,76,0.36313
8251500,-0.06000,117.1250,134,76,0.36581
8251510,-0.07000,114.8125,134,76,0.37021
8251520,-0.08000,112.5000,134,76,0.37729
8251530,-0.09000,107.6875,134,76,0.40610
8251540,-0.08500,105.3750,134,76,0.43028
8251550,-0.08500,103.1250,134,76,0.45617
8251560,-0.08000,99.5000,134,76,0.52308
8251570,-0.07500,98.1875,134,76,0.56679
8251580,-0.07000,97.1250,134,76,0.61392
8251590,-0.06500,96.3750,134,76,0.66203
8251600,-0.05500,95.8125,134,76,0.70940
8251610,-0.05500,95.1875,134,76,0.79585
8251620,-0.05000,95.0625,134,76,0.83346
8251630,-0.04500,95.0000,134,76,0.86642
8251640,-0.04500,94.8750,134,76,0.91868
8251650,-0.05000,94.7500,134,76,0.93504
8251660,-0.05500,94.5625,134,76,0.94628
8251670,-0.05500,94.3125,134,76,0.95726
8251680,-0.05500,94.0625,134,76,0.96630
8251690,-0.05500,93.3750,134,76,0.97705
8251700,-0.05500,92.9375,134,76,0.97802
8251710,-0.06000,92.5000,134,76,0.97631
8251720,-0.06500,92.0000,134,76,0.97241
8251730,-0.07000,91.0000,134,76,0.95678
8251740,-0.07500,90.5000,134,76,0.94530
8251750,-0.07500,90.0000,134,76,0.93236
8251760,-0.07500,89.4375,134,76,0.91770
8251770,-0.07500,88.4375,134,76,0.88303
8251780,-0.07500,87.9375,134,76,0.86374
8251790,-0.06500,87.4375,134,76,0.84298
8251800,-0.06500,87.4375,134,76,0.84298
8251810,-0.08000,86.0625,134,76,0.77411
8251820,-0.07000,85.6250,134,76,0.75067
8251830,-0.01500,85.1875,134,76,0.72796
8251840,0.03000,84.8125,134,76,0.70623
8251850,0.07000,84.0625,134,76,0.66911
8251860,0.07000,83.7500,134,76,0.65421
8251870,0.04000,83.3750,134,76,0.63980
8251880,0.00000,82.7500,134,76,0.62662
8251890,-0.03500,82.4375,134,76,0.60366
8251900,-0.07500,82.1875,134,76,0.59389
8251910,-0.12000,81.9375,134,76,0.58510
8251920,-0.13500,81.6875,134,76,0.57705
8251930,-0.13500,81.1875,134,76,0.56288
8251940,-0.13500,80.9375,134,76,0.55604
8251950,-0.12500,80.6875,134,76,0.54969
8251960,-0.12500,80.2500,134,76,0.53773
8251970,-0.11000,80.0625,134,76,0.53162
8251980,0.02500,79.8750,134,76,0.52527
8251990,0.47500,79.6875,134,76,0.51844
8252000,0.97000,79.3750,135,76,0.50476
8252010,0.71000,79.1875,135,76,0.49817
8252020,-0.01500,79.0000,135,76,0.49133
8252030,-0.28000,78.8125,135,76,0.48425
8252040,-0.22000,78.6250,135,76,0.47741
8252050,-0.19000,78.3125,135,76,0.46471
8252060,-0.19000,78.1250,135,76,0.45934
8252070,-0.19000,77.9375,135,76,0.45324
8252080,-0.19000,77.6875,135,76,0.44664
8252090,-0.19000,77.1875,135,76,0.43321
8252100,-0.18000,76.8750,135,76,0.42662
8252110,-0.17500,76.5625,135,76,0.42027
8252120,-0.16500,76.3125,135,76,0.41392
8252130,-0.16000,75.6875,135,76,0.40171
8252140,-0.15500,75.4375,135,76,0.39585
8252150,-0.15500,75.1250,135,76,0.39121
8252160,-0.14500,74.5625,135,76,0.38169
8252170,-0.13000,74.3125,135,76,0.37582
8252180,-0.11500,74.0625,135,76,0.37021
8252190,-0.09500,73.9375,135,76,0.36508
8252200,-0.08500,73.9375,135,76,0.36020
8252210,-0.07500,75.0000,135,76,0.35067
8252220,-0.06000,76.5000,135,76,0.34628
8252230,-0.04500,78.8750,135,76,0.34237
8252240,-0.03000,82.0625,135,76,0.33846
8252250,-0.01000,90.4375,135,76,0.33187
8252260,0.01500,95.2500,135,76,0.32991
8252270,0.03500,100.2500,135,76,0.32772
8252280,0.05500,110.1250,135,76,0.32552
8252290,0.08500,114.6875,135,76,0.32161
8252300,0.10500,118.7500,135,76,0.31966
8252310,0.12500,122.2500,135,76,0.31844
8252320,0.15500,127.5625,135,76,0.31697
8252330,0.18000,129.4375,135,76,0.31697
8252340,0.20500,130.8750,135,76,0.31722
8252350,0.21500,131.8750,135,76,0.31844
8252360,0.19500,132.9375,135,76,0.32137
8252370,0.16500,133.0625,135,76,0.32186
8252380,0.11000,132.9375,135,76,0.32234
8252390,0.05000,132.6875,135,76,0.32283
8252400,-0.00500,131.5000,135,76,0.32381
8252410,-0.00500,130.6250,135,76,0.32454
8252420,-0.00500,129.6250,135,76,0.32527
8252430,-0.03000,128.4375,135,76,0.32601
8252440,-0.08000,127.0625,135,76,0.32674
8252450,-0.12500,123.6875,135,76,0.32918
8252460,-0.14000,121.7500,135,76,0.33089
8252470,-0.14500,119.6250,135,76,0.33309
8252480,-0.14500,114.8125,135,76,0.33700
8252490,-0.14000,112.1875,135,76,0.35409
8252500,-0.13500,109.6875,135,76,0.36923
8252510,-0.12500,107.2500,135,76,0.38974
8252520,-0.12500,105.1250,135,76,0.41538
8252530,-0.12500,101.7500,135,76,0.48083
8252540,-0.12500,100.5625,135,76,0.51893
8252550,-0.12500,99.6875,135,76,0.55360
8252560,-0.12000,99.0000,135,76,0.58608
8252570,-0.11500,98.2500,135,76,0.65983
8252580,-0.11500,98.0625,135,76,0.69548
8252590,-0.11500,97.9375,135,76,0.72845
8252600,-0.11500,97.8750,135,76,0.75800
8252610,-0.11500,97.6250,135,76,0.80684
8252620,-0.11500,97.4375,135,76,0.82662
8252630,-0.11500,97.1875,135,76,0.84347
8252640,-0.12000,96.8750,135,76,0.85763
8252650,-0.12000,96.0625,135,76,0.87204
8252660,-0.12000,95.6250,135,76,0.87717
8252670,-0.11500,95.1250,135,76,0.88107
8252680,-0.11500,94.6250,135,76,0.88303
8252690,-0.11500,93.5625,135,76,0.88083
8252700,-0.11500,93.0000,135,76,0.87692
8252710,-0.10000,92.5000,135,76,0.87082
8252720,-0.08000,91.9375,135,76,0.86276
8252730,-0.04500,90.9375,135,76,0.84054
8252740,-0.01500,90.4375,135,76,0.82637
8252750,-0.01000,89.9375,135,76,0.81172
8252760,0.01500,89.0625,135,76,0.77924
8252770,0.04500,88.6250,135,76,0.76068
8252780,0.07000,88.2500,135,76,0.74139
8252790,0.04000,87.8125,135,76,0.72210
8252800,0.00500,86.9375,135,76,0.68620
8252810,-0.01500,86.5625,135,76,0.67009
8252820,-0.01500,86.5625,135,76,0.67009
8252830,-0.10500,85.7500,135,76,0.64274
8252840,-0.12500,85.0000,135,76,0.62198
8252850,-0.13000,84.6875,135,76,0.61416
8252860,-0.13000,84.3750,135,76,0.60733
8252870,-0.12500,84.1250,135,76,0.60122
8252880,-0.12000,83.5625,135,76,0.59096
8252890,-0.12500,83.3125,135,76,0.58608
8252900,-0.06500,83.1250,135,76,0.58120
8252910,0.26000,82.8750,135,76,0.57607
8252920,0.85500,82.6875,135,76,0.57094
8252930,1.04000,82.3125,135,76,0.56044
8252940,0.22000,82.1250,135,76,0.55482
8252950,-0.19500,82.0000,135,76,0.54945
8252960,-0.21500,81.6250,135,76,0.53822
8252970,-0.18500,81.4375,135,76,0.53211
8252980,-0.18000,81.2500,135,76,0.52601
8252990,-0.18000,81.0000,135,76,0.51990
8253000,-0.18000,80.8125,135,77,0.51429
8253010,-0.17500,80.2500,135,77,0.50305
8253020,-0.17000,79.9375,135,77,0.49744
8253030,-0.16000,79.6875,135,77,0.49182
8253040,-0.15500,79.0625,135,77,0.48083
8253050,-0.15500,78.7500,135,77,0.47643
8253060,-0.15000,78.4375,135,77,0.47131
8253070,-0.15000,78.1875,135,77,0.46569
8253080,-0.14000,77.8750,135,77,0.46007
8253090,-0.12500,77.3125,135,77,0.44811
8253100,-0.11500,77.1250,135,77,0.44225
8253110,-0.10000,76.9375,135,77,0.43687
8253120,-0.09500,77.1250,135,77,0.43175
8253130,-0.08000,77.8750,135,77,0.42198
8253140,-0.06500,79.3125,135,77,0.41783
8253150,-0.05000,81.6250,135,77,0.41465
8253160,-0.03000,88.7500,135,77,0.40879
8253170,-0.01000,93.1875,135,77,0.40562
8253180,0.01000,98.1250,135,77,0.40269
8253190,0.03500,103.1875,135,77,0.40024
8253200,0.05000,108.3125,135,77,0.39829
8253210,0.07500,117.8125,135,77,0.39634
8253220,0.10000,122.0000,135,77,0.39609
8253230,0.11500,125.5625,135,77,0.39609
8253240,0.14000,128.5625,135,77,0.39658
8253250,0.17000,132.8750,135,77,0.39805
8253260,0.18500,134.3125,135,77,0.39829
8253270,0.19500,135.3750,135,77,0.39853
8253280,0.18500,136.5625,135,77,0.39853
8253290,0.15500,136.8125,135,77,0.39853
8253300,0.10500,136.8125,135,77,0.39853
8253310,0.05000,136.6250,135,77,0.39853
8253320,-0.02000,135.7500,135,77,0.39853
8253330,-0.06000,135.0625,135,77,0.39853
8253340,-0.10000,134.2500,135,77,0.39853
8253350,-0.12500,133.2500,135,77,0.39878
8253360,-0.14500,132.0625,135,77,0.39927
8253370,-0.16000,129.2500,135,77,0.39976
8253380,-0.17000,127.5625,135,77,0.40000
8253390,-0.17000,125.6875,135,77,0.40073
8253400,-0.17000,121.2500,135,77,0.40317
8253410,-0.17000,118.6875,135,77,0.41709
8253420,-0.17000,116.0000,135,77,0.43077
8253430,-0.16500,113.3125,135,77,0.44982
8253440,-0.16500,108.5625,135,77,0.49890
8253450,-0.16000,106.6250,135,77,0.52527
8253460,-0.16000,105.0000,135,77,0.55824
8253470,-0.16000,103.7500,135,77,0.55751
8253480,-0.16000,102.0000,135,77,0.54212
8253490,-0.15500,101.5000,135,77,0.55800
8253500,-0.15500,101.1875,135,77,0.57827
8253510,-0.15500,101.0000,135,77,0.59951
8253520,-0.15500,100.6875,135,77,0.63810
8253530,-0.15000,100.5625,135,77,0.65421
8253540,-0.14500,100.4375,135,77,0.66813
8253550,-0.13500,100.1875,135,77,0.67766
8253560,-0.13000,99.9375,135,77,0.68425
8253570,-0.11500,99.3125,135,77,0.69670
8253580,-0.10500,98.8750,135,77,0.70159
8253590,-0.09500,98.4375,135,77,0.70549
8253600,-0.08500,97.4375,135,77,0.71013
8253610,-0.08500,96.9375,135,77,0.71038
8253620,-0.08000,96.3750,135,77,0.70916
8253630,-0.06500,95.8125,135,77,0.70623
8253640,-0.05000,95.2500,135,77,0.70159
8253650,-0.01500,94.1875,135,77,0.68742
8253660,-0.00500,93.6250,135,77,0.67814
8253670,0.00500,93.0625,135,77,0.66740
8253680,0.03000,92.0000,135,77,0.65519
8253690,0.06000,91.5000,135,77,0.62759
8253700,0.06000,91.0000,135,77,0.61245
8253710,0.03500,90.5000,135,77,0.59683
8253720,-0.00500,89.6250,135,77,0.56703
8253730,-0.03500,89.1875,135,77,0.55311
8253740,-0.09000,88.7500,135,77,0.54017
8253750,-0.13500,88.3750,135,77,0.52918
8253760,-0.14500,88.0000,135,77,0.51941
8253770,-0.14500,87.3750,135,77,0.50208
8253780,-0.15000,87.0625,135,77,0.49475
8253790,-0.14500,86.8125,135,77,0.48816
8253800,-0.14500,86.8125,135,77,0.48816
8253810,-0.15500,86.0625,135,77,0.47326
8253820,0.03000,85.8750,135,77,0.46935
8253830,0.43000,85.6250,135,77,0.46520
8253840,1.00000,85.3750,135,77,0.46105
8253850,0.89000,85.0000,135,77,0.45324
8253860,-0.02500,84.7500,135,77,0.44908
8253870,-0.27000,84.5000,135,77,0.44469
8253880,-0.24000,84.0000,135,77,0.44029
8253890,-0.21000,83.7500,135,77,0.43126
8253900,-0.21500,83.4375,135,77,0.42662
8253910,-0.21500,83.1250,135,77,0.42198
8253920,-0.21500,82.3750,135,77,0.41245
8253930,-0.21500,82.0000,135,77,0.40757
8253940,-0.21500,81.6250,135,77,0.40293
8253950,-0.22000,81.2500,135,77,0.39878
8253960,-0.23000,80.8125,135,77,0.39487
8253970,-0.24000,80.0000,135,77,0.38584
8253980,-0.23000,79.5625,135,77,0.38120
8253990,-0.21500,79.1875,135,77,0.37656
8254000,-0.19000,78.8125,134,77,0.37216
8254010,-0.16000,78.0625,134,77,0.36386
8254020,-0.13500,77.7500,134,77,0.35995
8254030,-0.10500,77.4375,134,77,0.35678
8254040,-0.08500,77.3125,134,77,0.35385
8254050,-0.05000,78.2500,134,77,0.34921
8254060,-0.03500,79.7500,134,77,0.34676
8254070,-0.00500,82.1875,134,77,0.34432
8254080,0.01500,89.4375,134,77,0.34188
8254090,0.04000,94.0000,134,77,0.33700
8254100,0.06000,98.9375,134,77,0.33480
8254110,0.09000,104.0000,134,77,0.33284
8254120,0.12000,113.9375,134,77,0.33016
8254130,0.14000,118.4375,134,77,0.32918
8254140,0.16500,122.4375,134,77,0.32869
8254150,0.19500,125.8750,134,77,0.32894
8254160,0.22000,128.7500,134,77,0.32943
8254170,0.25000,132.8125,134,77,0.33016
8254180,0.27500,134.1250,134,77,0.33040
8254190,0.28500,135.0625,134,77,0.33040
8254200,0.26500,136.1250,134,77,0.33016
8254210,0.21500,136.2500,134,77,0.32918
8254220,0.17000,136.1875,134,77,0.32869
8254230,0.12000,136.0000,134,77,0.32821
8254240,0.05500,135.0000,134,77,0.32747
8254250,0.02000,134.3125,134,77,0.32698
8254260,-0.01500,133.4375,134,77,0.32650
8254270,-0.05500,132.4375,134,77,0.32576
8254280,-0.07000,131.1875,134,77,0.32479
8254290,-0.09000,128.2500,134,77,0.32283
8254300,-0.10500,126.4375,134,77,0.32186
8254310,-0.11500,124.4375,134,77,0.32112
8254320,-0.11500,122.1875,134,77,0.32161
8254330,-0.11500,117.0000,134,77,0.32943
8254340,-0.11500,114.2500,134,77,0.33651
8254350,-0.11000,111.4375,134,77,0.34628
8254360,-0.10500,106.6250,134,77,0.37973
8254370,-0.10000,104.6875,134,77,0.40195
8254380,-0.09500,103.0625,134,77,0.42686
8254390,-0.08500,101.8125,134,77,0.45324
8254400,-0.07500,100.1875,134,77,0.50672
8254410,-0.07000,99.6875,134,77,0.53211
8254420,-0.06500,99.3750,134,77,0.55556
8254430,-0.06500,99.1875,134,77,0.57656
8254440,-0.06500,99.0625,134,77,0.59487
8254450,-0.06500,98.7500,134,77,0.61832
8254460,-0.06500,98.5625,134,77,0.62808
8254470,-0.06000,98.3125,134,77,0.63663
8254480,-0.06000,97.6875,134,77,0.64908
8254490,-0.06500,97.2500,134,77,0.65299
8254500,-0.06500,96.8125,134,77,0.65519
8254510,-0.06500,96.3750,134,77,0.65592
8254520,-0.06500,95.3750,134,77,0.65421
8254530,-0.06500,94.8125,134,77,0.65153
8254540,-0.04500,94.3125,134,77,0.64737
8254550,-0.01500,93.7500,134,77,0.64151
8254560,0.01000,92.6250,134,77,0.62613
8254570,0.01500,92.0625,134,77,0.61612
8254580,0.03000,91.5000,134,77,0.60440
8254590,0.06500,91.0000,134,77,0.59145
8254600,0.08500,89.9375,134,77,0.56142
8254610,0.05500,89.3750,134,77,0.54481
8254620,0.01000,88.8750,134,77,0.52772
8254630,-0.03000,88.4375,134,77,0.51013
8254640,-0.06500,87.9375,134,77,0.49304
8254650,-0.10500,87.1250,134,77,0.46520
8254660,-0.13500,86.6875,134,77,0.45177
8254670,-0.14000,86.2500,134,77,0.43883
8254680,-0.14000,85.3750,134,77,0.41612
8254690,-0.13500,85.0000,134,77,0.40610
8254700,-0.12500,84.6875,134,77,0.39707
8254710,-0.11500,84.3750,134,77,0.38901
