RelativeTimeMilliseconds;ECG;ART;ART (Sys);ART (Dia);PPG
8400000;-0.05500;74.2500;133;76;0.18022
8400010;-0.04000;75.6875;133;76;0.17558
8400020;-0.02500;77.3750;133;76;0.17289
8400030;-0.01000;79.9375;133;76;0.17021
8400040;0.01000;87.1875;133;76;0.16532
8400050;0.04000;91.6250;133;76;0.16313
8400060;0.05500;96.3125;133;76;0.16142
8400070;0.08000;101.1875;133;76;0.15995
8400080;0.11000;110.5000;133;76;0.15775
8400090;0.14000;114.6875;133;76;0.15702
8400100;0.16500;118.3125;133;76;0.15629
8400110;0.20500;121.3125;133;76;0.15629
8400120;0.22500;123.8125;133;76;0.15678
8400130;0.24000;127.1250;133;76;0.15604
8400140;0.23500;128.1250;133;76;0.15531
8400150;0.20000;128.8125;133;76;0.15433
8400160;0.13500;129.1875;133;76;0.15263
8400170;0.08500;129.0000;133;76;0.15214
8400180;0.02500;128.6250;133;76;0.15189
8400190;-0.02500;128.0000;133;76;0.15189
8400200;-0.05000;127.1875;133;76;0.15189
8400210;-0.08000;125.1875;133;76;0.15385
8400220;-0.10000;123.8125;133;76;0.15433
8400230;-0.10500;122.3125;133;76;0.15458
8400240;-0.11500;118.6875;133;76;0.15531
8400250;-0.11500;116.6250;133;76;0.15678
8400260;-0.11500;114.3125;133;76;0.16020
8400270;-0.11500;111.8125;133;76;0.16606
8400280;-0.11500;106.5625;133;76;0.17509
8400290;-0.11000;104.0625;133;76;0.20611
8400300;-0.10500;101.7500;133;76;0.22882
8400310;-0.10000;99.8750;133;76;0.25201
8400320;-0.09500;98.3125;133;76;0.27717
8400330;-0.09000;96.2500;133;76;0.34164
8400340;-0.09000;95.6250;133;76;0.37729
8400350;-0.09000;95.1875;133;76;0.41319
8400360;-0.09000;95.0000;133;76;0.44786
8400370;-0.08500;94.9375;133;76;0.50940
8400380;-0.08500;94.9375;133;76;0.53529
8400390;-0.08500;94.8750;133;76;0.55751
8400400;-0.08500;94.6250;133;76;0.57607
8400410;-0.08500;94.4375;133;76;0.59853
8400420;-0.09000;94.1250;133;76;0.60733
8400430;-0.09000;93.8750;133;76;0.61490
8400440;-0.09000;93.1250;133;76;0.62418
8400450;-0.09500;92.6875;133;76;0.62564
8400460;-0.09500;92.1875;133;76;0.62540
8400470;-0.09000;91.6875;133;76;0.62320
8400480;-0.08000;90.6250;133;76;0.61880
8400490;-0.05500;90.1250;133;76;0.60415
8400500;-0.03500;89.6250;133;76;0.59365
8400510;-0.01500;89.0625;133;76;0.58217
8400520;-0.01000;88.5625;133;76;0.56972
8400530;0.01000;87.5625;133;76;0.53846
8400540;0.05000;87.0625;133;76;0.52063
8400550;0.06500;86.5625;133;76;0.50208
8400560;0.03000;85.6875;133;76;0.46496
8400570;0.00000;85.1875;133;76;0.44737
8400580;-0.02500;84.7500;133;76;0.43126
8400590;-0.07500;84.3125;133;76;0.41661
8400600;-0.11000;83.9375;133;76;0.40366
8400610;-0.13000;83.1875;133;76;0.38486
8400620;-0.12500;82.8125;133;76;0.37705
8400630;-0.12500;82.5000;133;76;0.37021
8400640;-0.12500;82.1875;133;76;0.36410
8400650;-0.11500;81.6250;133;76;0.35360
8400660;-0.11500;81.3750;133;76;0.34896
8400670;-0.04500;81.1250;133;76;0.34310
8400680;0.39000;80.6875;133;76;0.33431
8400690;0.80000;80.5000;133;76;0.33016
8400700;0.85500;80.3125;133;76;0.32552
8400710;0.20000;80.1250;133;76;0.32137
8400720;-0.28000;79.7500;133;76;0.31355
8400730;-0.25000;79.6250;133;76;0.30916
8400740;-0.19500;79.4375;133;76;0.30427
8400750;-0.18000;79.2500;133;76;0.29915
8400760;-0.18000;79.0000;133;76;0.29377
8400770;-0.17500;78.5625;133;76;0.28303
8400780;-0.16500;78.3125;133;76;0.27741
8400790;-0.15500;78.0000;133;76;0.27179
8400800;-0.15500;78.0000;133;76;0.27179
8400810;-0.15500;77.0000;133;76;0.25788
8400820;-0.14500;76.6875;133;76;0.25348
8400830;-0.14000;76.3750;133;76;0.24884
8400840;-0.13500;76.0625;133;76;0.24420
8400850;-0.12500;75.3125;133;76;0.23492
8400860;-0.11000;75.0625;133;76;0.23028
8400870;-0.10000;74.7500;133;76;0.22515
8400880;-0.08500;74.3125;133;76;0.22002
8400890;-0.07000;74.1250;133;76;0.21050
8400900;-0.06000;74.0625;133;76;0.20611
8400910;-0.05000;74.2500;133;76;0.23346
8400920;-0.03500;74.9375;133;76;0.27668
8400930;-0.01500;78.4375;133;76;0.30501
8400940;0.00000;81.4375;133;76;0.30794
8400950;0.01500;85.1250;133;76;0.30818
8400960;0.04000;94.1250;133;76;0.30574
8400970;0.06000;98.9375;133;76;0.30427
8400980;0.08500;103.8125;133;76;0.30256
8400990;0.12000;108.5625;133;76;0.30110
8401000;0.15500;117.0000;133;76;0.30012
8401010;0.17500;120.4375;133;76;0.30037
8401020;0.20500;123.2500;133;76;0.29988
8401030;0.23500;125.5000;133;76;0.29939
8401040;0.24500;127.2500;133;76;0.29890
8401050;0.23500;129.4375;133;76;0.29792
8401060;0.19500;129.9375;133;76;0.29768
8401070;0.14500;130.2500;133;76;0.29719
8401080;0.08000;130.0625;133;76;0.29695
8401090;0.01000;129.6875;133;76;0.29646
8401100;-0.02500;129.0625;133;76;0.29621
8401110;-0.06000;128.3125;133;76;0.29646
8401120;-0.08500;126.3125;133;76;0.29719
8401130;-0.09500;125.0000;133;76;0.29695
8401140;-0.10500;123.5625;133;76;0.29670
8401150;-0.11500;121.9375;133;76;0.29670
8401160;-0.11500;120.0625;133;76;0.29744
8401170;-0.11500;115.6875;133;76;0.30330
8401180;-0.11000;113.1250;133;76;0.31038
8401190;-0.11000;110.3750;133;76;0.32161
8401200;-0.10500;104.6875;133;76;0.33773
8401210;-0.10000;102.0000;133;76;0.37631
8401220;-0.09500;99.6250;133;76;0.40293
8401230;-0.09000;97.7500;133;76;0.43394
8401240;-0.08500;95.3125;133;76;0.50427
8401250;-0.08000;94.6875;133;76;0.54066
8401260;-0.07500;94.2500;133;76;0.57631
8401270;-0.07500;94.0625;133;76;0.61001
8401280;-0.07500;94.0625;133;76;0.64103
8401290;-0.07500;94.1875;133;76;0.69328
8401300;-0.07500;94.3125;133;76;0.71404
8401310;-0.08000;94.3750;133;76;0.72918
8401320;-0.08000;94.3125;133;76;0.74017
8401330;-0.07500;94.0000;133;76;0.75995
8401340;-0.08000;93.7500;133;76;0.76728
8401350;-0.08000;93.3750;133;76;0.77265
8401360;-0.08500;92.5000;133;76;0.77778
8401370;-0.08500;92.0625;133;76;0.77729
8401380;-0.08000;91.6250;133;76;0.77460
8401390;-0.07000;91.1250;133;76;0.76996
8401400;-0.05500;90.6250;133;76;0.76361
8401410;-0.02500;89.5000;133;76;0.74603
8401420;-0.00500;89.0000;133;76;0.73431
8401430;0.00000;88.5000;133;76;0.72039
8401440;0.01500;88.0000;133;76;0.70452
8401450;0.06000;86.9375;133;76;0.66740
8401460;0.07000;86.4375;133;76;0.64689
8401470;0.04000;85.9375;133;76;0.62613
8401480;-0.00500;85.0000;133;76;0.58584
8401490;-0.02500;84.5625;133;76;0.56777
8401500;-0.06000;84.1875;133;76;0.55116
8401510;-0.10500;83.7500;133;76;0.53773
8401520;-0.12500;83.3125;133;76;0.52698
8401530;-0.12500;82.6250;133;76;0.50769
8401540;-0.12500;82.2500;133;76;0.49988
8401550;-0.11500;82.0000;133;76;0.49353
8401560;-0.11000;81.3750;133;76;0.48303
8401570;-0.10500;81.1250;133;76;0.47814
8401580;0.01000;80.9375;133;76;0.47350
8401590;0.30000;80.7500;133;76;0.46862
8401600;0.82500;80.5625;133;76;0.46374
8401610;0.78500;80.1250;133;76;0.45641
8401620;0.22500;79.9375;133;76;0.45226
8401630;-0.24500;79.8125;133;76;0.44737
8401640;-0.24000;79.4375;133;76;0.44249
8401650;-0.18000;79.2500;133;76;0.43272
8401660;-0.18000;79.0625;133;76;0.42784
8401670;-0.17500;78.8125;133;76;0.42271
8401680;-0.17500;78.6250;133;76;0.41758
8401690;-0.17000;78.1875;133;76;0.40488
8401700;-0.17000;77.8750;133;76;0.39829
8401710;-0.16000;77.5625;133;76;0.39463
8401720;-0.14500;76.8750;133;76;0.39096
8401730;-0.14000;76.5625;133;76;0.38120
8401740;-0.13500;76.1875;133;76;0.37607
8401750;-0.13500;75.8750;133;76;0.37094
8401760;-0.12500;75.5625;133;76;0.36606
8401770;-0.12000;74.9375;133;76;0.35678
8401780;-0.10500;74.6250;133;76;0.35214
8401790;-0.09500;74.3750;133;76;0.34725
8401800;-0.09500;74.3750;133;76;0.34725
8401810;-0.06000;73.9375;133;76;0.33651
8401820;-0.05000;74.3125;133;76;0.33333
8401830;-0.03500;75.3125;133;76;0.32991
8401840;-0.01500;77.0625;133;76;0.32650
8401850;0.00000;83.0625;133;76;0.32039
8401860;0.02000;87.1250;133;76;0.31795
8401870;0.04000;91.6875;133;76;0.31551
8401880;0.07000;96.5000;133;76;0.31355
8401890;0.11000;106.4375;133;76;0.31038
8401900;0.13000;111.1875;133;76;0.30989
8401910;0.15000;115.5000;133;76;0.30989
8401920;0.18500;122.5000;133;76;0.30867
8401930;0.20500;125.1250;133;76;0.30818
8401940;0.23500;127.1875;133;76;0.30769
8401950;0.25000;128.7500;133;76;0.30720
8401960;0.24500;129.8750;133;76;0.30672
8401970;0.21000;131.1875;133;76;0.30525
8401980;0.14500;131.4375;133;76;0.30476
8401990;0.09500;131.4375;133;76;0.30452
8402000;0.03000;131.2500;133;76;0.30427
8402010;-0.02000;130.3125;133;76;0.30525
8402020;-0.05500;129.5625;133;76;0.30501
8402030;-0.08500;128.6250;133;76;0.30476
8402040;-0.09500;127.5625;133;76;0.30427
8402050;-0.11000;124.9375;133;76;0.30403
8402060;-0.12500;123.3125;133;76;0.30427
8402070;-0.13000;121.5000;133;76;0.30501
8402080;-0.13500;117.1875;133;76;0.31306
8402090;-0.13500;114.6875;133;76;0.32186
8402100;-0.13000;112.0625;133;76;0.33284
8402110;-0.12500;109.2500;133;76;0.34725
8402120;-0.12000;106.5625;133;76;0.36752
8402130;-0.12000;101.8750;133;76;0.42369
8402140;-0.11500;100.1250;133;76;0.45739
8402150;-0.11000;98.8125;133;76;0.49304
8402160;-0.10000;97.8125;133;76;0.52943
8402170;-0.09500;96.6250;133;76;0.60024
8402180;-0.09000;96.3750;133;76;0.63223
8402190;-0.08500;96.3125;133;76;0.66129
8402200;-0.08500;96.3125;133;76;0.70720
8402210;-0.09000;96.3125;133;76;0.72283
8402220;-0.09000;96.2500;133;76;0.73822
8402230;-0.09500;96.1250;133;76;0.75263
8402240;-0.09500;95.9375;133;76;0.76532
8402250;-0.09500;95.3750;133;76;0.78388
8402260;-0.09500;95.0000;133;76;0.78950
8402270;-0.09500;94.5625;133;76;0.79292
8402280;-0.09500;93.6250;133;76;0.79414
8402290;-0.09500;93.1250;133;76;0.79048
8402300;-0.08500;92.5625;133;76;0.78584
8402310;-0.05500;92.0625;133;76;0.77924
8402320;-0.02500;91.0000;133;76;0.76166
8402330;-0.01000;90.5625;133;76;0.75018
8402340;-0.00500;90.0625;133;76;0.73675
8402350;0.03000;89.5000;133;76;0.72137
8402360;0.06000;89.0000;133;76;0.70427
8402370;0.06000;88.0625;133;76;0.66642
8402380;0.03000;87.6250;133;76;0.64689
8402390;-0.01500;87.1250;133;76;0.62759
8402400;-0.03500;86.6875;133;76;0.60952
8402410;-0.08000;85.8750;133;76;0.58071
8402420;-0.11500;85.4375;133;76;0.56777
8402430;-0.13000;85.1250;133;76;0.55604
8402440;-0.13500;84.7500;133;76;0.54530
8402450;-0.13500;84.1250;133;76;0.52723
8402460;-0.13000;83.8125;133;76;0.51990
8402470;-0.12500;83.5625;133;76;0.51331
8402480;-0.12000;83.2500;133;76;0.50769
8402490;0.05000;82.8125;133;76;0.49719
8402500;0.41000;82.6875;133;76;0.49304
8402510;0.93000;82.5000;133;76;0.48938
8402520;0.67000;82.1250;133;76;0.48034
8402530;0.09000;81.9375;133;76;0.47546
8402540;-0.28000;81.7500;133;76;0.47082
8402550;-0.24000;81.6250;133;76;0.46593
8402560;-0.20000;81.4375;133;76;0.46081
8402570;-0.20000;81.0625;133;76;0.45006
8402580;-0.19500;80.8125;133;76;0.44493
8402590;-0.19000;80.6250;133;76;0.43956
8402600;-0.18500;80.3125;133;76;0.43419
8402610;-0.18000;79.6875;133;76;0.42540
8402620;-0.17000;79.3750;133;76;0.42076
8402630;-0.16500;79.0625;133;76;0.41587
8402640;-0.16000;78.6875;133;76;0.41099
8402650;-0.15000;78.0625;133;76;0.40147
8402660;-0.14500;77.7500;133;76;0.39683
8402670;-0.13500;77.3750;133;76;0.39243
8402680;-0.12500;76.8125;133;76;0.38828
8402690;-0.11000;76.5625;133;76;0.38022
8402700;-0.10000;76.3125;133;76;0.37729
8402710;-0.08500;76.2500;133;76;0.37485
8402720;-0.07000;76.3125;133;76;0.37118
8402730;-0.05500;77.8125;133;76;0.36532
8402740;-0.04000;79.6250;133;76;0.36264
8402750;-0.02500;82.3750;133;76;0.35995
8402760;-0.00500;90.2500;133;76;0.35751
8402770;0.02000;95.0625;133;76;0.35360
8402780;0.03500;100.0625;133;76;0.35214
8402790;0.06500;105.1875;133;76;0.35116
8402800;0.06500;105.1875;133;76;0.35116
8402810;0.11500;119.2500;133;76;0.35165
8402820;0.15000;123.0625;133;76;0.35189
8402830;0.17000;126.2500;133;76;0.35214
8402840;0.19500;128.8750;133;76;0.35214
8402850;0.21500;132.5625;133;76;0.35165
8402860;0.22000;133.7500;133;76;0.35116
8402870;0.20500;134.5625;133;76;0.35043
8402880;0.15500;135.4375;133;76;0.34847
8402890;0.11000;135.5625;133;76;0.34774
8402900;0.04500;135.5000;133;76;0.34774
8402910;-0.00500;135.2500;133;76;0.34799
8402920;-0.05500;134.2500;133;76;0.34774
8402930;-0.08500;133.5000;133;76;0.34750
8402940;-0.10500;132.6250;133;76;0.34725
8402950;-0.11500;131.5625;133;76;0.34701
8402960;-0.12000;130.3125;133;76;0.33553
8402970;-0.12500;127.1875;133;76;0.31136
8402980;-0.12500;125.3750;133;76;0.30989
8402990;-0.13500;123.2500;133;76;0.31331
8403000;-0.13500;120.8750;133;77;0.32161
8403010;-0.12500;115.6250;133;77;0.34701
8403020;-0.12000;112.8750;133;77;0.36752
8403030;-0.11500;110.3125;133;77;0.39341
8403040;-0.11500;106.1250;133;77;0.42369
8403050;-0.10500;104.5000;133;77;0.49280
8403060;-0.10500;103.2500;133;77;0.52894
8403070;-0.10500;102.3125;133;77;0.56459
8403080;-0.10500;101.6250;133;77;0.59902
8403090;-0.10500;100.8750;133;77;0.66056
8403100;-0.09500;100.6875;133;77;0.68352
8403110;-0.10000;100.5625;133;77;0.70232
8403120;-0.10000;100.3125;133;77;0.73944
8403130;-0.10500;100.1250;133;77;0.75531
8403140;-0.10500;99.8750;133;77;0.76899
8403150;-0.10500;99.6250;133;77;0.78046
8403160;-0.10500;99.2500;133;77;0.78974
8403170;-0.10500;98.4375;133;77;0.80147
8403180;-0.10500;97.9375;133;77;0.80415
8403190;-0.10500;97.3750;133;77;0.80513
8403200;-0.10500;96.2500;133;77;0.80098
8403210;-0.09500;95.6875;133;77;0.79585
8403220;-0.06500;95.1250;133;77;0.78974
8403230;-0.03500;94.5625;133;77;0.78217
8403240;-0.01500;93.4375;133;77;0.76190
8403250;-0.00500;92.8750;133;77;0.74896
8403260;0.01500;92.3125;133;77;0.73431
8403270;0.05000;91.8125;133;77;0.71819
8403280;0.05000;91.3125;133;77;0.70134
8403290;0.01500;90.3125;133;77;0.66569
8403300;-0.01500;89.8750;133;77;0.64908
8403310;-0.06000;89.3750;133;77;0.63370
8403320;-0.09500;88.9375;133;77;0.61807
8403330;-0.12500;88.1250;133;77;0.58901
8403340;-0.14000;87.8125;133;77;0.57680
8403350;-0.13500;87.4375;133;77;0.56630
8403360;-0.13500;86.7500;133;77;0.55727
8403370;-0.12500;86.4375;133;77;0.54286
8403380;-0.12500;86.1875;133;77;0.53675
8403390;-0.12500;85.8750;133;77;0.53114
8403400;0.08500;85.3750;133;77;0.52088
8403410;0.49000;85.1875;133;77;0.51624
8403420;1.03500;85.0000;133;77;0.51111
8403430;0.67500;84.8125;133;77;0.50574
8403440;-0.05500;84.3750;133;77;0.49475
8403450;-0.25500;84.1875;133;77;0.48864
8403460;-0.22000;84.0000;133;77;0.48205
8403470;-0.20500;83.8125;133;77;0.47570
8403480;-0.21000;83.6250;133;77;0.46911
8403490;-0.20500;83.1875;133;77;0.45641
8403500;-0.20000;82.9375;133;77;0.45079
8403510;-0.19500;82.6875;133;77;0.44567
8403520;-0.18000;82.0000;133;77;0.44029
8403530;-0.17000;81.6875;133;77;0.42955
8403540;-0.16000;81.3125;133;77;0.42393
8403550;-0.15500;81.0000;133;77;0.41832
8403560;-0.15500;80.6875;133;77;0.41270
8403570;-0.15000;80.0625;133;77;0.40171
8403580;-0.13500;79.7500;133;77;0.39634
8403590;-0.12500;79.4375;133;77;0.39121
8403600;-0.11000;79.1250;133;77;0.38706
8403610;-0.09500;78.6875;133;77;0.37924
8403620;-0.08500;78.6875;133;77;0.37558
8403630;-0.07500;79.0000;133;77;0.37216
8403640;-0.05500;81.5000;133;77;0.36532
8403650;-0.04500;84.0625;133;77;0.36215
8403660;-0.03500;87.5000;133;77;0.35946
8403670;-0.01500;91.7500;133;77;0.35702
8403680;0.00000;96.5625;133;77;0.35531
8403690;0.03500;106.9375;133;77;0.35311
8403700;0.06000;112.1875;133;77;0.35287
8403710;0.09000;117.1250;133;77;0.35287
8403720;0.12000;125.6250;133;77;0.35263
8403730;0.14500;129.0000;133;77;0.35238
8403740;0.18000;131.7500;133;77;0.35214
8403750;0.20500;133.8750;133;77;0.35214
8403760;0.22500;135.5625;133;77;0.35214
8403770;0.22000;137.6875;133;77;0.35189
8403780;0.19500;138.3125;133;77;0.35140
8403790;0.15500;138.6875;133;77;0.35092
8403800;0.15500;138.6875;133;77;0.35092
8403810;0.02500;138.6250;133;77;0.35067
8403820;-0.02000;138.2500;133;77;0.35043
8403830;-0.07000;137.7500;133;77;0.34994
8403840;-0.10500;136.3750;133;77;0.34872
8403850;-0.12000;135.4375;133;77;0.34750
8403860;-0.13500;134.3750;133;77;0.34628
8403870;-0.13500;133.1250;133;77;0.34505
8403880;-0.13500;129.9375;133;77;0.34457
8403890;-0.13500;128.0000;133;77;0.34969
8403900;-0.13500;125.8125;133;77;0.35580
8403910;-0.13000;123.4375;133;77;0.36459
8403920;-0.12500;117.9375;133;77;0.39780
8403930;-0.12500;115.1875;133;77;0.42198
8403940;-0.12500;112.6250;133;77;0.45079
8403950;-0.12500;110.3125;133;77;0.48327
8403960;-0.11500;108.4375;133;77;0.51795
8403970;-0.10500;105.6250;133;77;0.58901
8403980;-0.10000;104.6875;133;77;0.62295
8403990;-0.09000;104.0000;133;77;0.65470
8404000;-0.08500;103.5625;133;76;0.67985
8404010;-0.08500;103.1875;133;76;0.72137
8404020;-0.08500;103.0625;133;76;0.74090
8404030;-0.08500;102.8750;133;76;0.75824
8404040;-0.08500;102.4375;133;76;0.77363
8404050;-0.08000;102.1250;133;76;0.79805
8404060;-0.08000;101.6875;133;76;0.80708
8404070;-0.08000;101.2500;133;76;0.81441
8404080;-0.07500;100.7500;133;76;0.82002
8404090;-0.07500;99.5625;133;76;0.82662
8404100;-0.07500;98.9375;133;76;0.82589
8404110;-0.07500;98.2500;133;76;0.82295
8404120;-0.06500;97.5625;133;76;0.81929
8404130;-0.02500;96.2500;133;76;0.80806
8404140;-0.00500;95.5625;133;76;0.80000
8404150;0.01000;94.8750;133;76;0.78999
8404160;0.01000;93.5625;133;76;0.77851
8404170;0.04500;92.9375;133;76;0.74969
8404180;0.07000;92.3125;133;76;0.73284
8404190;0.07500;91.6875;133;76;0.71477
8404200;0.04000;90.5000;133;76;0.68010
8404210;0.02000;89.9375;133;76;0.66252
8404220;-0.01500;89.3750;133;76;0.64518
8404230;-0.07500;88.8750;133;76;0.62564
8404240;-0.10500;88.3750;133;76;0.60928
8404250;-0.12000;87.4375;133;76;0.58779
8404260;-0.12000;87.0000;133;76;0.57802
8404270;-0.11000;86.5625;133;76;0.56923
8404280;-0.09500;85.8125;133;76;0.55482
8404290;-0.08000;85.4375;133;76;0.54847
8404300;-0.06500;85.0625;133;76;0.54286
8404310;0.16500;84.7500;133;76;0.53773
8404320;0.56500;84.4375;133;76;0.53236
8404330;1.09000;83.8125;133;76;0.52112
8404340;0.82000;83.5000;133;76;0.51502
8404350;0.08000;83.2500;133;76;0.50891
8404360;-0.20500;82.9375;133;76;0.50232
8404370;-0.16000;82.4375;133;76;0.48889
8404380;-0.14500;82.1250;133;76;0.48181
8404390;-0.14500;81.8125;133;76;0.47448
8404400;-0.15000;81.5000;133;76;0.46789
8404410;-0.15000;80.8750;133;76;0.45543
8404420;-0.15500;80.5625;133;76;0.44860
8404430;-0.15000;80.1875;133;76;0.44151
8404440;-0.14500;79.8125;133;76;0.43443
8404450;-0.14500;79.0625;133;76;0.42051
8404460;-0.13500;78.6875;133;76;0.41343
8404470;-0.13500;78.3125;133;76;0.40610
8404480;-0.13500;78.0000;133;76;0.39853
8404490;-0.13500;77.3750;133;76;0.38388
8404500;-0.13000;77.1250;133;76;0.37778
8404510;-0.12500;76.8125;133;76;0.37265
8404520;-0.11500;76.3750;133;76;0.36117
8404530;-0.09500;76.2500;133;76;0.35385
8404540;-0.07500;76.4375;133;76;0.34750
8404550;-0.06500;77.1250;133;76;0.34286
8404560;-0.05000;80.6875;133;76;0.33162
8404570;-0.03500;83.7500;133;76;0.32601
8404580;-0.01500;87.5625;133;76;0.32210
8404590;0.01000;91.9375;133;76;0.31770
8404600;0.03000;96.7500;133;76;0.31306
8404610;0.06000;106.7500;133;76;0.30696
8404620;0.09000;111.6250;133;76;0.30379
8404630;0.13000;116.1250;133;76;0.30061
8404640;0.15500;120.1250;133;76;0.29744
8404650;0.19500;126.3750;133;76;0.29060
8404660;0.22000;128.6250;133;76;0.28791
8404670;0.24500;130.3125;133;76;0.28498
8404680;0.24500;132.5000;133;76;0.28034
8404690;0.23000;133.0625;133;76;0.27912
8404700;0.19500;133.3750;133;76;0.27790
8404710;0.14000;133.3750;133;76;0.27619
8404720;0.06000;132.9375;133;76;0.27326
8404730;0.01000;132.5000;133;76;0.27204
8404740;-0.02500;131.8125;133;76;0.27131
8404750;-0.06000;131.0625;133;76;0.27009
8404760;-0.08500;128.9375;133;76;0.26667
8404770;-0.09500;127.6250;133;76;0.26496
8404780;-0.11000;126.1250;133;76;0.26398
8404790;-0.12000;124.4375;133;76;0.26447
8404800;-0.12000;124.4375;133;76;0.26447
8404810;-0.13000;118.0000;133;76;0.27814
8404820;-0.13000;115.4375;133;76;0.28962
8404830;-0.12500;112.7500;133;76;0.30598
8404840;-0.12000;107.5000;133;76;0.35311
8404850;-0.11500;105.2500;133;76;0.38266
8404860;-0.11000;103.3750;133;76;0.41465
8404870;-0.10500;101.8125;133;76;0.44811
8404880;-0.10500;100.5625;133;76;0.48181
8404890;-0.10500;99.0000;133;76;0.54164
8404900;-0.10500;98.5625;133;76;0.56459
8404910;-0.10000;98.3125;133;76;0.58803
8404920;-0.09500;98.0000;133;76;0.61026
8404930;-0.09000;97.8750;133;76;0.64689
8404940;-0.09000;97.7500;133;76;0.66081
8404950;-0.09000;97.5625;133;76;0.67204
8404960;-0.08500;97.3125;133;76;0.68132
8404970;-0.09000;96.6250;133;76;0.69353
8404980;-0.09000;96.1875;133;76;0.69670
8404990;-0.08500;95.6875;133;76;0.69719
8405000;-0.08500;95.1875;133;76;0.67985
8405010;-0.08500;94.1250;133;76;0.63858
8405020;-0.07500;93.5625;133;76;0.62759
8405030;-0.04500;92.9375;133;76;0.61807
8405040;-0.01500;92.3125;133;76;0.60855
8405050;0.01000;91.1875;133;76;0.58657
8405060;0.02000;90.6250;133;76;0.57363
8405070;0.04000;90.0625;133;76;0.55946
8405080;0.07500;89.5625;133;76;0.54383
8405090;0.08000;88.5000;133;76;0.51184
8405100;0.05000;88.0000;133;76;0.49719
8405110;0.01000;87.5625;133;76;0.48132
8405120;-0.01000;86.6250;133;76;0.46545
8405130;-0.06000;86.1875;133;76;0.43590
8405140;-0.09500;85.8125;133;76;0.42320
8405150;-0.11500;85.4375;133;76;0.41197
8405160;-0.12500;84.6875;133;76;0.39414
8405170;-0.13000;84.3125;133;76;0.38681
8405180;-0.13000;84.0625;133;76;0.38022
8405190;-0.12500;83.7500;133;76;0.37509
8405200;-0.12000;83.2500;133;76;0.36557
8405210;-0.03500;83.0000;133;76;0.36044
8405220;0.33000;82.8125;133;76;0.35507
8405230;0.89000;82.5625;133;76;0.34969
8405240;0.79500;82.3750;133;76;0.34432
8405250;0.12500;81.9375;133;76;0.33358
8405260;-0.30500;81.6875;133;76;0.32845
8405270;-0.25500;81.5000;133;76;0.32308
8405280;-0.21000;81.2500;133;76;0.31746
8405290;-0.19000;80.7500;133;76;0.30769
8405300;-0.19000;80.5000;133;76;0.30403
8405310;-0.18000;80.1875;133;76;0.29939
8405320;-0.17000;79.5625;133;76;0.28962
8405330;-0.16000;79.1875;133;76;0.28449
8405340;-0.15500;78.8125;133;76;0.27937
8405350;-0.15500;78.4375;133;76;0.27448
8405360;-0.15000;78.0625;133;76;0.26960
8405370;-0.14500;77.3125;133;76;0.26056
8405380;-0.13500;77.0000;133;76;0.25641
8405390;-0.12500;76.6250;133;76;0.25324
8405400;-0.11500;76.3125;133;76;0.25079
8405410;-0.10500;75.7500;133;76;0.24469
8405420;-0.09000;75.5000;133;76;0.24151
8405430;-0.07500;75.2500;133;76;0.23810
8405440;-0.06500;75.0625;133;76;0.23468
8405450;-0.05500;75.5000;133;76;0.22882
8405460;-0.03500;76.3750;133;76;0.22589
8405470;-0.02500;78.0625;133;76;0.22295
8405480;-0.00500;83.8125;133;76;0.21929
8405490;0.00500;87.6875;133;76;0.21856
8405500;0.02500;92.1250;133;76;0.21758
8405510;0.05000;96.8125;133;76;0.21636
8405520;0.08000;106.3750;133;76;0.21368
8405530;0.10500;110.9375;133;76;0.21294
8405540;0.14000;115.0625;133;76;0.21221
8405550;0.17000;118.6875;133;76;0.21172
8405560;0.21000;124.1250;133;76;0.21074
8405570;0.23000;126.0000;133;76;0.21026
8405580;0.24500;127.3750;133;76;0.20977
8405590;0.23500;128.3125;133;76;0.21001
8405600;0.19500;128.8750;133;76;0.21074
8405610;0.13000;129.1875;133;76;0.21099
8405620;0.08000;128.9375;133;76;0.21074
8405630;0.02000;128.5625;133;76;0.21026
8405640;-0.03000;127.1875;133;76;0.20928
8405650;-0.06500;126.1875;133;76;0.20904
8405660;-0.08000;125.0625;133;76;0.20904
8405670;-0.09500;123.8125;133;76;0.20904
8405680;-0.10500;120.6250;133;76;0.21026
8405690;-0.11000;118.6875;133;76;0.21197
8405700;-0.11500;116.5625;133;76;0.21416
8405710;-0.11500;114.3125;133;76;0.21783
8405720;-0.11000;111.8125;133;76;0.22393
8405730;-0.10500;106.3750;133;76;0.24689
8405740;-0.10000;103.7500;133;76;0.26471
8405750;-0.10000;101.4375;133;76;0.28669
8405760;-0.10000;97.9375;133;76;0.31258
8405770;-0.09500;96.7500;133;76;0.37192
8405780;-0.08500;95.9375;133;76;0.40342
8405790;-0.08000;95.3750;133;76;0.43077
8405800;-0.08000;95.3750;133;76;0.43077
8405810;-0.08000;94.8750;133;76;0.50623
8405820;-0.08500;94.9375;133;76;0.52943
8405830;-0.08500;95.0000;133;76;0.55018
8405840;-0.08500;95.0000;133;76;0.56825
8405850;-0.08500;94.8750;133;76;0.59609
8405860;-0.08500;94.6875;133;76;0.60635
8405870;-0.08500;94.4375;133;76;0.61416
8405880;-0.09000;94.0625;133;76;0.61978
8405890;-0.09000;93.2500;133;76;0.62344
8405900;-0.09500;92.8125;133;76;0.62344
8405910;-0.09000;92.3125;133;76;0.62198
8405920;-0.08500;91.7500;133;76;0.61880
8405930;-0.06500;90.6250;133;76;0.60733
8405940;-0.04500;90.0625;133;76;0.59902
8405950;-0.02000;89.5000;133;76;0.58877
8405960;-0.01000;88.3750;133;76;0.56337
8405970;-0.00500;87.8750;133;76;0.54872
8405980;0.04000;87.3750;133;76;0.53309
8405990;0.06500;86.8750;133;76;0.51844
8406000;0.05000;85.9375;133;76;0.48913
8406010;0.02000;85.4375;133;76;0.47399
8406020;-0.01500;85.0000;133;76;0.45934
8406030;-0.06000;84.5625;133;76;0.44591
8406040;-0.10000;84.1875;133;76;0.43370
8406050;-0.13000;83.3750;133;76;0.41392
8406060;-0.14000;83.0625;133;76;0.40635
8406070;-0.14500;82.7500;133;76;0.40024
8406080;-0.14000;82.4375;133;76;0.39512
8406090;-0.13500;81.8750;133;76;0.38779
8406100;-0.13000;81.6250;133;76;0.38437
8406110;-0.11000;81.4375;133;76;0.38071
8406120;0.17000;81.0000;133;76;0.37314
8406130;0.58000;80.7500;133;76;0.36899
8406140;0.92000;80.5625;133;76;0.36484
8406150;0.50500;80.3750;133;76;0.36068
8406160;-0.23000;80.0000;133;76;0.35214
8406170;-0.29500;79.8125;133;76;0.34774
8406180;-0.22000;79.5625;133;76;0.34310
8406190;-0.19500;79.3750;133;76;0.33944
8406200;-0.19000;78.8750;133;76;0.33211
8406210;-0.18000;78.6250;133;76;0.32747
8406220;-0.17500;78.3750;133;76;0.32283
8406230;-0.17000;78.0625;133;76;0.31844
8406240;-0.16000;77.8125;133;76;0.31404
8406250;-0.15500;77.2500;133;76;0.30525
8406260;-0.15000;76.8750;133;76;0.30085
8406270;-0.14500;76.5000;133;76;0.29670
8406280;-0.14000;76.1875;133;76;0.29255
8406290;-0.13000;75.5000;133;76;0.28694
8406300;-0.12000;75.1875;133;76;0.28327
8406310;-0.11000;74.9375;133;76;0.27912
8406320;-0.10000;74.3750;133;76;0.27082
8406330;-0.09000;74.1875;133;76;0.26691
8406340;-0.08500;74.0625;133;76;0.26349
8406350;-0.06500;74.1250;133;76;0.26032
8406360;-0.05000;74.5625;133;76;0.25690
8406370;-0.03000;77.3750;133;76;0.25079
8406380;-0.01500;80.0000;133;76;0.24786
8406390;0.00500;83.4375;133;76;0.24591
8406400;0.02000;87.4375;133;76;0.24469
8406410;0.05000;96.6875;133;76;0.24127
8406420;0.08500;101.5625;133;76;0.23956
8406430;0.11000;106.3750;133;76;0.23810
8406440;0.13500;110.9375;133;76;0.23663
8406450;0.16500;118.7500;133;76;0.23419
8406460;0.19500;121.7500;133;76;0.23346
8406470;0.22500;124.2500;133;76;0.23272
8406480;0.24000;127.5000;133;76;0.23223
8406490;0.23500;128.5000;133;76;0.23248
8406500;0.21500;129.1875;133;76;0.23223
8406510;0.17000;129.5000;133;76;0.23150
8406520;0.09500;129.4375;133;76;0.23004
8406530;0.05000;129.1250;133;76;0.22955
8406540;0.00000;128.5625;133;76;0.22930
8406550;-0.05000;127.8750;133;76;0.22930
8406560;-0.07500;126.9375;133;76;0.22930
8406570;-0.09000;124.6250;133;76;0.22930
8406580;-0.10500;123.1875;133;76;0.22955
8406590;-0.12000;121.6250;133;76;0.23053
8406600;-0.12500;119.8125;133;76;0.23223
8406610;-0.12500;115.5625;133;76;0.23834
8406620;-0.12500;113.1250;133;76;0.24493
8406630;-0.12000;110.5000;133;76;0.25495
8406640;-0.12000;107.7500;133;76;0.26886
8406650;-0.11500;102.6250;133;76;0.30989
8406660;-0.11500;100.4375;133;76;0.33675
8406670;-0.11000;98.7500;133;76;0.36654
8406680;-0.10500;96.3750;133;76;0.42613
8406690;-0.09500;95.6875;133;76;0.45201
8406700;-0.09500;95.2500;133;76;0.48059
8406710;-0.08500;95.0000;133;76;0.50891
8406720;-0.08500;94.9375;133;76;0.53553
8406730;-0.08500;94.9375;133;76;0.58144
8406740;-0.09000;94.9375;133;76;0.60024
8406750;-0.09000;94.9375;133;76;0.61612
8406760;-0.09000;94.8125;133;76;0.62930
8406770;-0.08500;94.3750;133;76;0.64811
8406780;-0.08500;94.0000;133;76;0.65446
8406790;-0.08500;93.6250;133;76;0.65739
8406800;-0.08500;93.6250;133;76;0.65739
8406810;-0.09500;92.3125;133;76;0.65763
8406820;-0.09000;91.8125;133;76;0.65495
8406830;-0.08500;91.3125;133;76;0.65055
8406840;-0.07000;90.7500;133;76;0.64444
8406850;-0.04500;89.6875;133;76;0.62662
8406860;-0.02500;89.1250;133;76;0.61514
8406870;-0.01500;88.6250;133;76;0.60195
8406880;0.00000;87.6250;133;76;0.58706
8406890;0.04000;87.1250;133;76;0.55824
8406900;0.05500;86.5625;133;76;0.54188
8406910;0.04000;86.1250;133;76;0.52503
8406920;-0.00500;85.1875;133;76;0.49206
8406930;-0.02500;84.7500;133;76;0.47692
8406940;-0.06500;84.3750;133;76;0.46349
8406950;-0.11500;84.0000;133;76;0.45153
8406960;-0.13000;83.5625;133;76;0.44127
8406970;-0.13500;82.8750;133;76;0.42491
8406980;-0.13500;82.5625;133;76;0.41807
8406990;-0.13500;82.3125;133;76;0.41294
8407000;-0.12500;81.7500;132;76;0.40904
8407010;-0.12500;81.5000;132;76;0.40049
8407020;-0.07500;81.2500;132;76;0.39634
8407030;0.21000;81.0625;132;76;0.39219
8407040;0.74500;80.6875;132;76;0.39756
8407050;0.84500;80.4375;132;76;0.41465
8407060;0.33000;80.2500;132;76;0.42051
8407070;-0.23000;80.0625;132;76;0.42100
8407080;-0.24000;79.6875;132;76;0.41538
8407090;-0.19500;79.5000;132;76;0.41197
8407100;-0.18000;79.2500;132;76;0.40757
8407110;-0.17500;79.0000;132;76;0.40269
8407120;-0.17000;78.7500;132;76;0.39731
8407130;-0.16500;78.1875;132;76;0.38657
8407140;-0.16000;77.8750;132;76;0.38144
8407150;-0.15500;77.5000;132;76;0.37631
8407160;-0.15000;76.8125;132;76;0.37143
8407170;-0.14000;76.4375;132;76;0.36142
8407180;-0.13500;76.0625;132;76;0.35653
8407190;-0.12500;75.6875;132;76;0.35287
8407200;-0.11500;75.0000;132;76;0.34579
8407210;-0.10500;74.6875;132;76;0.34139
8407220;-0.09500;74.4375;132;76;0.33724
8407230;-0.08500;74.1875;132;76;0.33309
8407240;-0.07500;73.9375;132;76;0.32894
8407250;-0.05500;73.8750;132;76;0.32137
8407260;-0.03500;74.3125;132;76;0.31746
8407270;-0.02500;75.3125;132;76;0.31380
8407280;-0.00500;77.0625;132;76;0.31062
8407290;0.01000;83.0625;132;76;0.30794
8407300;0.02000;87.1875;132;76;0.30623
8407310;0.04000;91.6875;132;76;0.30427
8407320;0.06500;101.5625;132;76;0.30037
8407330;0.08000;106.5000;132;76;0.29841
8407340;0.11000;111.1875;132;76;0.29621
8407350;0.14500;115.4375;132;76;0.29451
8407360;0.17000;119.2500;132;76;0.29328
8407370;0.21500;125.0000;132;76;0.29158
8407380;0.23500;127.0000;132;76;0.29158
8407390;0.25000;128.5000;132;76;0.29158
8407400;0.23500;130.3750;132;76;0.29035
8407410;0.21000;130.8750;132;76;0.28962
8407420;0.15500;131.0625;132;76;0.28889
8407430;0.09500;131.0625;132;76;0.28816
8407440;0.03500;130.8125;132;76;0.28767
8407450;-0.01500;129.8125;132;76;0.28694
8407460;-0.05000;129.0000;132;76;0.28645
8407470;-0.08000;128.0625;132;76;0.28596
8407480;-0.09500;126.9375;132;76;0.28547
8407490;-0.10500;124.1875;132;76;0.28669
8407500;-0.11500;122.5000;132;76;0.28767
8407510;-0.11500;120.6250;132;76;0.28962
8407520;-0.11500;118.5625;132;76;0.29353
8407530;-0.11500;113.7500;132;76;0.31111
8407540;-0.11500;111.1250;132;76;0.32650
8407550;-0.11000;108.3750;132;76;0.34701
8407560;-0.10500;103.4375;132;76;0.40293
8407570;-0.10000;101.4375;132;76;0.43639
8407580;-0.10000;99.8125;132;76;0.46691
8407590;-0.09500;98.6250;132;76;0.49597
8407600;-0.09500;97.7500;132;76;0.52894
8407610;-0.09000;96.6875;132;76;0.59585
8407620;-0.08500;96.4375;132;76;0.62662
8407630;-0.09000;96.3125;132;76;0.65446
8407640;-0.09500;96.2500;132;76;0.67912
8407650;-0.09500;96.1875;132;76;0.71917
8407660;-0.09500;96.1250;132;76;0.73455
8407670;-0.09000;95.9375;132;76;0.74725
8407680;-0.09000;95.4375;132;76;0.76337
8407690;-0.08500;95.0625;132;76;0.76654
8407700;-0.08500;94.6250;132;76;0.76948
8407710;-0.08500;94.1875;132;76;0.77118
8407720;-0.09000;93.1875;132;76;0.76996
8407730;-0.09500;92.6250;132;76;0.76679
8407740;-0.09000;92.0625;132;76;0.76166
8407750;-0.06500;91.5000;132;76;0.75433
8407760;-0.04500;90.9375;132;76;0.74505
8407770;-0.02000;89.8125;132;76;0.72039
8407780;-0.01000;89.2500;132;76;0.70647
8407790;0.00000;88.6875;132;76;0.69158
8407800;0.03500;88.1875;132;76;0.67448
8407810;0.06000;87.1875;132;76;0.63687
8407820;0.03000;86.7500;132;76;0.61783
8407830;0.00000;86.2500;132;76;0.59927
8407840;-0.02500;85.8125;132;76;0.58193
8407850;-0.06500;84.8750;132;76;0.55263
8407860;-0.11500;84.5000;132;76;0.54066
8407870;-0.13000;84.0625;132;76;0.53040
8407880;-0.13500;83.3750;132;76;0.51429
8407890;-0.13000;83.0000;132;76;0.50818
8407900;-0.12500;82.6875;132;76;0.50232
8407910;-0.12000;82.3750;132;76;0.49695
8407920;-0.12500;82.0625;132;76;0.49158
8407930;-0.06500;81.6250;132;76;0.48083
8407940;0.24500;81.3750;132;76;0.47546
8407950;0.86500;81.1875;132;76;0.47009
8407960;0.90000;80.9375;132;76;0.46471
8407970;0.14500;80.6250;132;76;0.45372
8407980;-0.23500;80.4375;132;76;0.44884
8407990;-0.26000;80.3125;132;76;0.44444
8408000;-0.20000;80.1250;133;76;0.43956
8408010;-0.18500;79.7500;133;76;0.42882
8408020;-0.18500;79.5000;133;76;0.42344
8408030;-0.18000;79.2500;133;76;0.41783
8408040;-0.17500;78.6250;133;76;0.40659
8408050;-0.17000;78.3125;133;76;0.40049
8408060;-0.16500;78.0000;133;76;0.39438
8408070;-0.16000;77.6875;133;76;0.38852
8408080;-0.15500;77.3750;133;76;0.38266
8408090;-0.15000;76.6875;133;76;0.37411
8408100;-0.14500;76.3750;133;76;0.36947
8408110;-0.13500;76.0625;133;76;0.36459
8408120;-0.12500;75.7500;133;76;0.35971
8408130;-0.11500;75.2500;133;76;0.35018
8408140;-0.10000;75.0625;133;76;0.34554
8408150;-0.08500;74.8750;133;76;0.34115
8408160;-0.07500;75.0000;133;76;0.33675
8408170;-0.06000;75.7500;133;76;0.32894
8408180;-0.04500;77.1250;133;76;0.32650
8408190;-0.03000;79.3750;133;76;0.32479
8408200;-0.01500;82.5000;133;76;0.32283
8408210;0.00000;90.7500;133;76;0.31795
8408220;0.03000;95.5000;133;76;0.31575
8408230;0.05000;100.5000;133;76;0.31380
8408240;0.07500;105.5625;133;76;0.31209
8408250;0.11000;114.9375;133;76;0.30940
8408260;0.14000;119.0000;133;76;0.30867
8408270;0.16500;122.5000;133;76;0.30818
8408280;0.19500;125.3750;133;76;0.30794
8408290;0.22500;129.5000;133;76;0.30842
8408300;0.23500;130.8125;133;76;0.30818
8408310;0.22500;131.8125;133;76;0.30745
8408320;0.19500;132.4375;133;76;0.30672
8408330;0.13000;133.0000;133;76;0.30549
8408340;0.06000;132.9375;133;76;0.30501
8408350;0.01500;132.6875;133;76;0.30452
8408360;-0.03000;131.6875;133;76;0.30427
8408370;-0.07000;130.9375;133;76;0.30379
8408380;-0.09000;130.0625;133;76;0.30403
8408390;-0.10000;129.0000;133;76;0.30452
8408400;-0.11000;126.3125;133;76;0.30525
8408410;-0.11000;124.6250;133;76;0.30647
8408420;-0.11000;122.7500;133;76;0.30916
8408430;-0.11000;120.6875;133;76;0.31429
8408440;-0.10500;118.3750;133;76;0.32332
8408450;-0.11000;113.2500;133;76;0.35507
8408460;-0.11500;110.5625;133;76;0.37827
8408470;-0.12000;108.0000;133;76;0.40586
8408480;-0.12000;105.8125;133;76;0.43736
8408490;-0.11500;102.3750;133;76;0.49573
8408500;-0.11500;101.1875;133;76;0.52918
8408510;-0.10500;100.2500;133;76;0.56410
8408520;-0.10500;99.6250;133;76;0.59829
8408530;-0.10500;98.8750;133;76;0.66056
8408540;-0.11000;98.7500;133;76;0.68742
8408550;-0.11500;98.6250;133;76;0.71136
8408560;-0.11000;98.3750;133;76;0.74969
8408570;-0.10500;98.2500;133;76;0.76459
8408580;-0.09500;98.0000;133;76;0.77460
8408590;-0.09500;97.6875;133;76;0.78144
8408600;-0.10000;96.9375;133;76;0.79438
8408610;-0.10000;96.5000;133;76;0.79878
8408620;-0.10000;96.0000;133;76;0.80147
8408630;-0.09500;95.4375;133;76;0.80195
8408640;-0.09000;94.9375;133;76;0.80049
8408650;-0.07000;93.8125;133;76;0.79243
8408660;-0.05500;93.1875;133;76;0.78559
8408670;-0.02500;92.6250;133;76;0.77680
8408680;-0.00500;91.4375;133;76;0.75385
8408690;0.00000;90.9375;133;76;0.74066
8408700;0.01000;90.3750;133;76;0.72552
8408710;0.04000;89.8125;133;76;0.70891
8408720;0.06000;88.7500;133;76;0.67277
8408730;0.04000;88.2500;133;76;0.65495
8408740;0.00500;87.7500;133;76;0.63785
8408750;-0.03000;87.2500;133;76;0.62198
8408760;-0.06500;86.8125;133;76;0.60733
8408770;-0.11500;86.0625;133;76;0.58291
8408780;-0.14000;85.6875;133;76;0.57363
8408790;-0.15000;85.3750;133;76;0.56532
8408800;-0.15000;85.3750;133;76;0.56532
8408810;-0.15000;84.4375;133;76;0.54335
8408820;-0.15000;84.4375;133;76;0.54335
8408830;-0.13500;83.8750;133;76;0.53162
8408840;-0.06500;83.5000;133;76;0.52137
8408850;0.18500;83.3125;133;76;0.51648
8408860;0.75500;83.1250;133;76;0.51136
8408870;0.96000;82.9375;133;76;0.50623
8408880;0.43000;82.7500;133;76;0.50061
8408890;-0.19500;82.3750;133;76;0.49035
8408900;-0.27000;82.1875;133;76;0.48498
8408910;-0.23000;82.0000;133;76;0.47937
8408920;-0.22000;81.5625;133;76;0.46740
8408930;-0.22000;81.3750;133;76;0.46129
8408940;-0.22000;81.0625;133;76;0.45519
8408950;-0.21000;80.8125;133;76;0.44860
8408960;-0.21000;80.5000;133;76;0.44200
8408970;-0.20000;79.9375;133;76;0.42930
8408980;-0.19000;79.5625;133;76;0.42418
8408990;-0.18500;79.2500;133;76;0.41978
8409000;-0.18000;78.5000;133;76;0.41050
8409010;-0.17500;78.1875;133;76;0.40586
8409020;-0.16500;77.8750;133;76;0.40122
8409030;-0.15500;77.5625;133;76;0.39683
8409040;-0.14000;77.0000;133;76;0.38828
8409050;-0.13000;76.8125;133;76;0.38413
8409060;-0.12000;76.6875;133;76;0.38022
8409070;-0.11000;76.8750;133;76;0.37631
8409080;-0.09500;77.5625;133;76;0.37338
8409090;-0.08500;81.1875;133;76;0.35873
8409100;-0.06500;84.3750;133;76;0.34188
8409110;-0.05500;88.3125;133;76;0.33187
8409120;-0.02500;97.8750;133;76;0.32186
8409130;-0.00500;103.0625;133;76;0.31941
8409140;0.01500;108.3125;133;76;0.31770
8409150;0.04500;113.3125;133;76;0.31673
8409160;0.08000;122.1875;133;76;0.31526
8409170;0.11000;125.8125;133;76;0.31477
8409180;0.14500;128.8125;133;76;0.31477
8409190;0.18500;131.2500;133;76;0.31502
8409200;0.20500;133.1250;133;76;0.31477
8409210;0.22500;135.5000;133;76;0.31306
8409220;0.21500;136.1875;133;76;0.31184
8409230;0.19000;136.6250;133;76;0.31087
8409240;0.14000;136.8125;133;76;0.30989
8409250;0.07000;136.7500;133;76;0.30867
8409260;0.02000;136.4375;133;76;0.30818
8409270;-0.03000;136.0000;133;76;0.30720
8409280;-0.06500;134.6875;133;76;0.30672
8409290;-0.09500;133.8125;133;76;0.30598
8409300;-0.11000;132.7500;133;76;0.30549
8409310;-0.12500;131.5625;133;76;0.30501
8409320;-0.12500;128.5000;133;76;0.30745
8409330;-0.13000;126.6875;133;76;0.31209
8409340;-0.13500;124.6250;133;76;0.32039
8409350;-0.13500;122.3125;133;76;0.33260
8409360;-0.13500;119.8125;133;76;0.34969
8409370;-0.13000;114.2500;133;76;0.39805
8409380;-0.12500;111.5625;133;76;0.42369
8409390;-0.11500;109.1875;133;76;0.45006
8409400;-0.11500;107.2500;133;76;0.48132
8409410;-0.11500;107.2500;133;76;0.48132
8409420;-0.11500;107.2500;133;76;0.48132
8409430;-0.11500;107.2500;133;76;0.48132
8409440;-0.10500;102.1250;133;76;0.64274
8409450;-0.10500;101.6875;133;76;0.69182
8409460;-0.10500;101.5625;133;76;0.71233
8409470;-0.10500;101.4375;133;76;0.73016
8409480;-0.10500;101.3125;133;76;0.74261
8409490;-0.11000;100.8125;133;76;0.76020
8409500;-0.11000;100.5000;133;76;0.76825
8409510;-0.11000;100.0625;133;76;0.77485
8409520;-0.11000;99.6250;133;76;0.77973
8409530;-0.11000;98.6875;133;76;0.78486
8409540;-0.11500;98.1250;133;76;0.78510
8409550;-0.12000;97.5625;133;76;0.78388
8409560;-0.11500;97.0000;133;76;0.78095
8409570;-0.10000;95.7500;133;76;0.77021
8409580;-0.07500;95.1875;133;76;0.76190
8409590;-0.05500;94.5625;133;76;0.75189
8409600;-0.04500;94.0000;133;76;0.74017
8409610;-0.03500;92.8750;133;76;0.71111
8409620;-0.00500;92.3125;133;76;0.69426
8409630;0.01500;91.7500;133;76;0.67643
8409640;0.00000;91.2500;133;76;0.65836
8409650;-0.03000;90.2500;133;76;0.62295
8409660;-0.07000;89.7500;133;76;0.60659
8409670;-0.10500;89.3125;133;76;0.59145
8409680;-0.15500;88.8750;133;76;0.57851
8409690;-0.18000;88.0625;133;76;0.55702
8409700;-0.18500;87.6875;133;76;0.54750
8409710;-0.18000;87.3125;133;76;0.53919
8409720;-0.17000;86.6875;133;76;0.53211
8409730;-0.15500;86.3750;133;76;0.52039
8409740;-0.15000;86.1250;133;76;0.51526
8409750;-0.11000;85.8125;133;76;0.51038
8409760;0.27500;85.3750;133;76;0.49988
8409770;0.77500;85.1250;133;76;0.49451
8409780;1.12500;84.9375;133;76;0.48913
8409790;0.39000;84.7500;133;76;0.48400
8409800;0.39000;84.7500;133;76;0.48400
8409810;-0.21500;84.0625;133;76;0.46569
8409820;-0.17000;83.8125;133;76;0.45958
8409830;-0.17000;83.5625;133;76;0.45348
8409840;-0.16500;83.0000;133;76;0.44127
8409850;-0.16000;82.6875;133;76;0.43516
8409860;-0.14500;82.3750;133;76;0.42930
8409870;-0.13500;82.0000;133;76;0.42344
8409880;-0.12500;81.6875;133;76;0.41856
8409890;-0.11500;81.0000;133;76;0.40904
8409900;-0.10500;80.6250;133;76;0.40391
8409910;-0.10000;80.3125;133;76;0.39878
8409920;-0.09000;79.5625;133;76;0.38852
8409930;-0.07500;79.2500;133;76;0.38364
8409940;-0.06500;79.0000;133;76;0.37900
8409950;-0.05500;78.7500;133;76;0.37436
8409960;-0.05000;78.5625;133;76;0.36972
8409970;-0.04500;78.4375;133;76;0.36142
8409980;-0.03000;78.8750;133;76;0.35824
8409990;-0.01500;79.8125;133;76;0.35580
8410000;-0.00500;81.6250;133;76;0.35311
8410010;0.00500;88.0000;133;76;0.34799
8410020;0.03000;92.3750;133;76;0.34579
8410030;0.04500;97.2500;133;76;0.34359
8410040;0.06000;102.4375;133;76;0.34164
8410050;0.08500;112.8750;133;76;0.33797
8410060;0.10500;117.7500;133;76;0.33626
8410070;0.13000;122.1875;133;76;0.33455
8410080;0.15500;126.0000;133;76;0.33382
8410090;0.18500;131.7500;133;76;0.33260
8410100;0.21500;133.7500;133;76;0.33187
8410110;0.24500;135.2500;133;76;0.33114
8410120;0.25500;137.0625;133;76;0.32943
8410130;0.25000;137.5625;133;76;0.32845
8410140;0.22000;137.8125;133;76;0.32747
8410150;0.17000;137.8750;133;76;0.32650
8410160;0.11000;137.6875;133;76;0.32576
8410170;0.05500;137.0000;133;76;0.32503
8410180;0.00500;136.4375;133;76;0.32527
8410190;-0.01500;135.8125;133;76;0.32576
8410200;-0.04000;135.0000;133;76;0.32576
8410210;-0.05500;132.9375;133;76;0.32527
8410220;-0.06000;131.6250;133;76;0.32552
8410230;-0.06500;130.1875;133;76;0.32674
8410240;-0.06500;128.5000;133;76;0.32991
8410250;-0.07500;124.4375;133;76;0.34603
8410260;-0.07500;122.0000;133;76;0.36068
8410270;-0.07000;119.3125;133;76;0.38022
8410280;-0.06500;113.5625;133;76;0.40049
8410290;-0.06000;110.8125;133;76;0.45079
8410300;-0.05500;108.3125;133;76;0.48278
8410310;-0.04000;106.2500;133;76;0.51673
8410320;-0.03500;104.5625;133;76;0.55116
8410330;-0.03500;102.2500;133;76;0.61685
8410340;-0.02500;101.5000;133;76;0.64615
8410350;-0.02500;101.0000;133;76;0.67277
8410360;-0.02500;100.6250;133;76;0.69621
8410370;-0.02500;100.2500;133;76;0.73358
8410380;-0.02500;100.1250;133;76;0.74554
8410390;-0.03500;99.8750;133;76;0.75409
8410400;-0.03500;99.6250;133;76;0.76264
8410410;-0.03500;99.0000;133;76;0.77607
8410420;-0.03500;98.5625;133;76;0.78071
8410430;-0.04500;98.0625;133;76;0.78413
8410440;-0.04500;97.5000;133;76;0.78608
8410450;-0.05000;96.3750;133;76;0.78510
8410460;-0.05000;95.8125;133;76;0.78193
8410470;-0.04500;95.1875;133;76;0.77680
8410480;-0.01500;93.9375;133;76;0.76166
8410490;0.01000;93.3125;133;76;0.75165
8410500;0.02000;92.6875;133;76;0.73968
8410510;0.02500;92.0625;133;76;0.72576
8410520;0.05000;90.9375;133;76;0.70965
8410530;0.09000;90.3750;133;76;0.67277
8410540;0.09000;89.8125;133;76;0.65250
8410550;0.06000;89.3125;133;76;0.63175
8410560;0.02000;88.2500;133;76;0.59194
8410570;-0.00500;87.7500;133;76;0.57338
8410580;-0.05500;87.2500;133;76;0.55751
8410590;-0.08500;86.8125;133;76;0.54383
8410600;-0.10500;86.3750;133;76;0.53040
8410610;-0.11500;85.5000;133;76;0.50598
8410620;-0.11500;85.1250;133;76;0.49524
8410630;-0.11500;84.8125;133;76;0.48547
8410640;-0.11500;84.1250;133;76;0.46740
8410650;-0.11000;83.8125;133;76;0.45885
8410660;0.00500;83.5625;133;76;0.45079
8410670;0.43000;83.2500;133;76;0.44274
8410680;0.98000;82.7500;133;76;0.42906
8410690;0.79000;82.5000;133;76;0.42198
8410700;0.07000;82.3125;133;76;0.41465
8410710;-0.27000;82.0625;133;76;0.40708
8410720;-0.22000;81.8125;133;76;0.39927
8410730;-0.17000;81.3125;133;76;0.38388
8410740;-0.16000;81.0625;133;76;0.37631
8410750;-0.16000;80.7500;133;76;0.36874
8410760;-0.15500;80.1875;133;76;0.35360
8410770;-0.15500;79.8125;133;76;0.34603
8410780;-0.14500;79.5000;133;76;0.33993
8410790;-0.14000;79.1250;133;76;0.33455
8410800;-0.14000;79.1250;133;76;0.33455
8410810;-0.13500;78.0000;133;76;0.31575
8410820;-0.13000;77.6250;133;76;0.30940
8410830;-0.12500;77.2500;133;76;0.30330
8410840;-0.11500;76.5625;133;76;0.29133
8410850;-0.10500;76.2500;133;76;0.28571
8410860;-0.09500;75.9375;133;76;0.28034
8410870;-0.08000;75.6875;133;76;0.27497
8410880;-0.07000;75.4375;133;76;0.26789
8410890;-0.06500;75.6250;133;76;0.26398
8410900;-0.05500;76.2500;133;76;0.26007
8410910;-0.04500;77.6250;133;76;0.25617
8410920;-0.02500;82.7500;133;76;0.24884
8410930;-0.01000;86.4375;133;76;0.24518
8410940;0.01000;90.6875;133;76;0.24176
8410950;0.03500;95.3750;133;76;0.23858
8410960;0.06000;105.1875;133;76;0.23248
8410970;0.07500;109.9375;133;76;0.23053
8410980;0.10500;114.3125;133;76;0.22906
8410990;0.13000;118.3125;133;76;0.22711
8411000;0.15500;121.6875;132;76;0.22540
8411010;0.18500;126.6875;132;76;0.22271
8411020;0.22000;128.3750;132;76;0.22198
8411030;0.22500;129.6250;132;76;0.22125
8411040;0.21000;130.5000;132;76;0.22051
8411050;0.17000;131.2500;132;76;0.21929
8411060;0.11500;131.2500;132;76;0.21807
8411070;0.05000;131.0625;132;76;0.21709
8411080;-0.00500;130.0625;132;76;0.21734
8411090;-0.04500;129.3125;132;76;0.21709
8411100;-0.07500;128.3750;132;76;0.21685
8411110;-0.10000;127.3125;132;76;0.21636
8411120;-0.11500;124.5625;132;76;0.21538
8411130;-0.12500;122.8750;132;76;0.21514
8411140;-0.12500;121.0625;132;76;0.22442
8411150;-0.12500;119.0000;132;76;0.23980
8411160;-0.12500;116.6875;132;76;0.25055
8411170;-0.12000;111.4375;132;76;0.27155
8411180;-0.11500;108.6250;132;76;0.28400
8411190;-0.11500;106.0000;132;76;0.30037
8411200;-0.11000;103.6250;132;76;0.32112
8411210;-0.10500;99.9375;132;76;0.37265
8411220;-0.10500;98.6250;132;76;0.40171
8411230;-0.09500;97.6250;132;76;0.43126
8411240;-0.09000;96.5000;132;76;0.46056
8411250;-0.08500;96.2500;132;76;0.51502
8411260;-0.07500;96.1250;132;76;0.53895
8411270;-0.07000;96.0625;132;76;0.56020
8411280;-0.07000;96.0000;132;76;0.58901
8411290;-0.07500;95.9375;132;76;0.60122
8411300;-0.07500;95.7500;132;76;0.61221
8411310;-0.07500;95.5000;132;76;0.62149
8411320;-0.08000;94.8750;132;76;0.63419
8411330;-0.08000;94.4375;132;76;0.63785
8411340;-0.07500;94.0000;132;76;0.64005
8411350;-0.08000;93.5000;132;76;0.64054
8411360;-0.08500;92.9375;132;76;0.63956
8411370;-0.08500;91.8750;132;76;0.63199
8411380;-0.06500;91.3125;132;76;0.62589
8411390;-0.04500;90.7500;132;76;0.61832
8411400;-0.02000;89.6875;132;76;0.60928
8411410;-0.00500;89.1875;132;76;0.58706
8411420;0.00000;88.6250;132;76;0.57387
8411430;0.02500;88.0625;132;76;0.55946
8411440;0.06000;87.5625;132;76;0.54383
8411450;0.05500;86.5625;132;76;0.51136
8411460;0.02000;86.0625;132;76;0.49573
8411470;-0.01000;85.6250;132;76;0.48107
8411480;-0.03500;85.1250;132;76;0.46862
8411490;-0.08500;84.2500;132;76;0.44786
8411500;-0.11500;83.8750;132;76;0.43858
8411510;-0.13000;83.5000;132;76;0.43028
8411520;-0.13000;83.1250;132;76;0.42320
8411530;-0.13000;82.4375;132;76;0.41123
8411540;-0.12500;82.1250;132;76;0.40610
8411550;-0.12500;81.8750;132;76;0.40171
8411560;-0.11000;81.3125;132;76;0.39780
8411570;0.10000;81.1250;132;76;0.39096
8411580;0.47500;80.9375;132;76;0.38803
8411590;0.92000;80.7500;132;76;0.38437
8411600;0.52000;80.3125;132;76;0.37607
8411610;-0.03500;80.1250;132;76;0.37143
8411620;-0.30000;79.9375;132;76;0.36679
8411630;-0.22000;79.7500;132;76;0.36215
8411640;-0.20000;79.5000;132;76;0.35751
8411650;-0.19000;79.0625;132;76;0.34725
8411660;-0.19000;78.8125;132;76;0.34237
8411670;-0.18000;78.5000;132;76;0.33773
8411680;-0.17500;78.1875;132;76;0.33407
8411690;-0.17000;77.5625;132;76;0.32747
8411700;-0.16000;77.2500;132;76;0.32357
8411710;-0.15500;76.9375;132;76;0.31941
8411720;-0.14500;76.6250;132;76;0.31551
8411730;-0.13500;75.9375;132;76;0.30720
8411740;-0.12500;75.6250;132;76;0.30281
8411750;-0.12500;75.3125;132;76;0.29841
8411760;-0.11500;75.0625;132;76;0.29451
8411770;-0.10000;74.5000;132;76;0.28816
8411780;-0.08500;74.2500;132;76;0.28620
8411790;-0.07500;74.1250;132;76;0.28376
8411800;-0.07500;74.1250;132;76;0.28376
8411810;-0.05500;75.1875;132;76;0.27497
8411820;-0.05500;75.1875;132;76;0.27497
8411830;-0.02000;79.0000;132;76;0.26935
8411840;-0.00500;82.1875;132;76;0.26716
8411850;0.01500;90.3125;132;76;0.26325
8411860;0.03000;94.9375;132;76;0.26154
8411870;0.06000;99.7500;132;76;0.26007
8411880;0.09000;109.1250;132;76;0.25910
8411890;0.11500;113.3750;132;76;0.25836
8411900;0.15000;117.1250;132;76;0.25763
8411910;0.17500;120.3750;132;76;0.25690
8411920;0.21000;123.0625;132;76;0.25641
8411930;0.24000;126.6875;132;76;0.25543
8411940;0.24500;127.8125;132;76;0.25495
8411950;0.22500;128.5625;132;76;0.25446
8411960;0.19500;129.0000;132;76;0.25397
8411970;0.13000;129.0625;132;76;0.25397
8411980;0.09000;128.7500;132;76;0.25495
8411990;0.04000;128.1875;132;76;0.25568
8412000;-0.00500;126.6875;132;76;0.25665
8412010;-0.03000;125.6250;132;76;0.25714
8412020;-0.05500;124.4375;132;76;0.25763
8412030;-0.07500;123.0000;132;76;0.25812
8412040;-0.08500;121.4375;132;76;0.25861
8412050;-0.09500;117.6250;132;76;0.25983
8412060;-0.10500;115.4375;132;76;0.26203
8412070;-0.11500;113.0000;132;76;0.26667
8412080;-0.12000;107.7500;132;76;0.28278
8412090;-0.12000;105.1250;132;76;0.29621
8412100;-0.11500;102.6250;132;76;0.31404
8412110;-0.11500;100.5000;132;76;0.33602
8412120;-0.10500;97.4375;132;76;0.39023
8412130;-0.10000;96.3750;132;76;0.42027
8412140;-0.09000;95.6875;132;76;0.45055
8412150;-0.08000;95.1875;132;76;0.48034
8412160;-0.07500;94.9375;132;76;0.50867
8412170;-0.07500;94.8125;132;76;0.55653
8412180;-0.06500;94.8125;132;76;0.57387
8412190;-0.06000;94.8750;132;76;0.59121
8412200;-0.06000;94.8125;132;76;0.60708
8412210;-0.06500;94.5000;132;76;0.63346
8412220;-0.06500;94.1875;132;76;0.64298
8412230;-0.07000;93.8750;132;76;0.65031
8412240;-0.07500;92.9375;132;76;0.65812
8412250;-0.08000;92.5000;132;76;0.65934
8412260;-0.08500;92.0000;132;76;0.65885
8412270;-0.08500;91.4375;132;76;0.65690
8412280;-0.08500;90.9375;132;76;0.65348
8412290;-0.08000;89.8125;132;76;0.64274
8412300;-0.05500;89.2500;132;76;0.63516
8412310;-0.03500;88.6875;132;76;0.62589
8412320;-0.01500;87.6250;132;76;0.61490
8412330;-0.01000;87.1250;132;76;0.58852
8412340;0.01000;86.6250;132;76;0.57338
8412350;0.04000;86.1250;132;76;0.55751
8412360;0.06000;85.1875;132;76;0.52552
8412370;0.04000;84.7500;132;76;0.51184
8412380;0.00000;84.3750;132;76;0.49939
8412390;-0.03500;84.0000;132;76;0.48694
8412400;-0.06500;83.5625;132;76;0.47570
8412410;-0.11500;82.8750;132;76;0.45665
8412420;-0.13500;82.5000;132;76;0.44908
8412430;-0.14000;82.1875;132;76;0.44274
8412440;-0.14000;81.8750;132;76;0.43736
8412450;-0.13500;81.2500;132;76;0.42784
8412460;-0.13000;80.9375;132;76;0.42369
8412470;-0.12500;80.6875;132;76;0.41954
8412480;-0.00500;80.2500;132;76;0.41245
8412490;0.29000;80.0000;132;76;0.40855
8412500;0.83500;79.8125;132;76;0.40440
8412510;0.79000;79.6250;132;76;0.40024
8412520;0.22500;79.4375;132;76;0.39585
8412530;-0.25000;79.0625;132;76;0.38632
8412540;-0.25000;78.8750;132;76;0.38144
8412550;-0.20000;78.6250;132;76;0.37656
8412560;-0.19000;78.3750;132;76;0.37167
8412570;-0.18000;77.8750;132;76;0.36313
8412580;-0.18000;77.6250;132;76;0.36020
8412590;-0.17000;77.3125;132;76;0.35678
8412600;-0.16000;77.0625;132;76;0.35263
8412610;-0.15500;76.4375;132;76;0.34432
8412620;-0.14500;76.0625;132;76;0.34017
8412630;-0.14000;75.7500;132;76;0.33578
8412640;-0.13000;75.4375;132;76;0.33138
8412650;-0.12500;74.8125;132;76;0.32308
8412660;-0.11000;74.5000;132;76;0.31868
8412670;-0.10000;74.2500;132;76;0.31453
8412680;-0.08500;73.7500;132;76;0.30940
8412690;-0.07500;73.5625;132;76;0.30623
8412700;-0.06500;73.4375;132;76;0.30305
8412710;-0.06000;73.4375;132;76;0.30012
8412720;-0.04500;74.6875;132;76;0.29426
8412730;-0.03000;76.3125;132;76;0.29133
8412740;-0.01500;78.8125;132;76;0.28864
8412750;0.00500;82.0625;132;76;0.28620
8412760;0.02000;85.9375;132;76;0.28400
8412770;0.03500;95.1250;132;76;0.28107
8412780;0.06000;100.0000;132;76;0.28059
8412790;0.08000;104.9375;132;76;0.27961
8412800;0.08000;104.9375;132;76;0.27961
8412810;0.13500;117.7500;132;76;0.27473
8412820;0.16000;120.9375;132;76;0.27277
8412830;0.18500;123.6250;132;76;0.27131
8412840;0.19000;125.6875;132;76;0.27009
8412850;0.18500;128.4375;132;76;0.26813
8412860;0.17000;129.1875;132;76;0.26740
8412870;0.09000;129.6250;132;76;0.26764
8412880;0.02000;129.8125;132;76;0.26838
8412890;-0.06500;129.6250;132;76;0.26911
8412900;-0.14500;129.2500;132;76;0.26911
8412910;-0.18000;128.6250;132;76;0.26911
8412920;-0.19000;126.9375;132;76;0.26911
8412930;-0.18000;125.8750;132;76;0.26886
8412940;-0.13500;124.5625;132;76;0.26862
8412950;-0.06000;123.1250;132;76;0.26862
8412960;-0.03500;121.4375;132;76;0.26862
8412970;-0.03000;117.4375;132;76;0.27228
8412980;-0.03500;115.0625;132;76;0.27668
8412990;-0.03416;112.5625;132;76;0.28352
8413000;-0.02500;107.2500;132;76;0.30867
8413010;-0.00500;104.7500;132;76;0.32747
8413020;0.09000;102.5000;132;76;0.35018
8413030;0.43500;100.6250;132;76;0.37656
8413040;0.87000;98.1250;132;76;0.43614
8413050;0.68000;97.3750;132;76;0.46691
8413060;0.07500;96.8750;132;76;0.49744
8413070;-0.03500;96.5625;132;76;0.52308
8413080;-0.02500;96.4375;132;76;0.54530
8413090;-0.04500;96.3750;132;76;0.58950
8413100;-0.07000;96.4375;132;76;0.60879
8413110;-0.07500;96.3750;132;76;0.62564
8413120;-0.07500;96.1250;132;76;0.65226
8413130;-0.07500;95.8125;132;76;0.66252
8413140;-0.07500;95.4375;132;76;0.67106
8413150;-0.07500;94.9375;132;76;0.67766
8413160;-0.07500;93.8750;132;76;0.68571
8413170;-0.07500;93.3125;132;76;0.68669
8413180;-0.07500;92.7500;132;76;0.68596
8413190;-0.07500;92.1250;132;76;0.69939
8413200;-0.08000;91.5000;132;76;0.71868
8413210;-0.08000;90.3750;132;76;0.72357
8413220;-0.07500;89.8125;132;76;0.71673
8413230;-0.06500;89.3125;132;76;0.70623
8413240;-0.05500;88.4375;132;76;0.67668
8413250;-0.05000;88.0000;132;76;0.65910
8413260;-0.03500;87.5000;132;76;0.64078
8413270;-0.01500;87.0625;132;76;0.62393
8413280;0.00000;86.1250;132;76;0.59145
8413290;0.02500;85.5625;132;76;0.57534
8413300;0.05000;85.1250;132;76;0.56044
8413310;0.08000;84.7500;132;76;0.54701
8413320;0.10500;84.5000;132;76;0.53529
8413330;0.13500;84.5625;132;76;0.51722
8413340;0.17500;85.0000;132;76;0.51038
8413350;0.20500;85.7500;132;76;0.50452
8413360;0.23500;86.7500;132;76;0.49939
8413370;0.24500;89.1875;132;76;0.49084
8413380;0.20500;90.5625;132;76;0.48718
8413390;0.15500;91.9375;132;76;0.48327
8413400;0.08000;93.1875;132;76;0.47912
8413410;0.00000;95.1250;132;76;0.47009
8413420;-0.05500;95.6875;132;76;0.46496
8413430;-0.10000;95.8750;132;76;0.45983
8413440;-0.11500;95.6875;132;76;0.45470
8413450;-0.13000;94.1875;132;76;0.44518
8413460;-0.13500;92.9375;132;76;0.44029
8413470;-0.13500;91.5000;132;76;0.43614
8413480;-0.13000;89.8750;132;76;0.43223
8413490;-0.12500;86.6875;132;76;0.42320
8413500;-0.12500;85.3125;132;76;0.41832
8413510;-0.12000;84.0625;132;76;0.41368
8413520;-0.11500;82.0625;132;76;0.40366
8413530;-0.11500;81.3125;132;76;0.39878
8413540;-0.10500;80.6875;132;76;0.39365
8413550;-0.10500;80.1875;132;76;0.38852
8413560;-0.10500;79.8125;132;76;0.38364
8413570;-0.10500;79.2500;132;76;0.37509
8413580;-0.11000;79.0625;132;76;0.37241
8413590;-0.11500;78.9375;132;76;0.36996
8413600;-0.11500;78.8125;132;76;0.36874
8413610;-0.12000;78.5625;132;76;0.37143
8413620;-0.12500;78.3750;132;76;0.37558
8413630;-0.12500;78.1875;132;76;0.38144
8413640;-0.12500;78.0000;132;76;0.38877
8413650;-0.12500;77.6250;132;76;0.40586
8413660;-0.12500;77.4375;132;76;0.41416
8413670;-0.12500;77.2500;132;76;0.42125
8413680;-0.12500;76.8750;132;76;0.43175
8413690;-0.12500;76.6875;132;76;0.43492
8413700;-0.12000;76.4375;132;76;0.43590
8413710;-0.11000;76.1875;132;76;0.43516
8413720;-0.11000;76.0000;132;76;0.43272
8413730;-0.11500;75.5000;132;76;0.42320
8413740;-0.11500;75.2500;132;76;0.41685
8413750;-0.11500;75.0000;132;76;0.40977
8413760;-0.11500;74.5000;132;76;0.39463
8413770;-0.11500;74.2500;132;76;0.38828
8413780;-0.11000;74.0000;132;76;0.38291
8413790;-0.10500;73.8125;132;76;0.37729
8413800;-0.10500;73.8125;132;76;0.37729
8413810;-0.10000;73.0625;132;76;0.36264
8413820;-0.09500;72.8125;132;76;0.35873
8413830;-0.09000;72.5625;132;76;0.35531
8413840;-0.08500;72.4375;132;76;0.35238
8413850;-0.08500;72.0625;132;76;0.34799
8413860;-0.08500;71.8750;132;76;0.34628
8413870;-0.08500;71.6875;132;76;0.34530
8413880;-0.08000;71.3750;132;76;0.34457
8413890;-0.07500;71.1875;132;76;0.34237
8413900;-0.07500;71.0000;132;76;0.34090
8413910;-0.07500;70.8750;132;76;0.33944
8413920;-0.07000;70.5625;132;76;0.33602
8413930;-0.07000;70.3750;132;76;0.33407
8413940;-0.07000;70.2500;132;76;0.33211
8413950;-0.07000;70.1250;132;76;0.33016
8413960;-0.07500;69.9375;132;76;0.32821
8413970;-0.07500;69.6250;132;76;0.32503
8413980;-0.07000;69.4375;132;76;0.32405
8413990;-0.06500;69.3125;132;76;0.32283
8414000;-0.06500;69.0000;133;76;0.31917
8414010;-0.05500;68.8125;133;76;0.31697
8414020;-0.01500;68.6250;133;76;0.31429
8414030;0.02000;68.5000;133;76;0.31136
8414040;0.03000;68.1875;133;76;0.30623
8414050;0.03000;68.0625;133;76;0.30403
8414060;0.05000;67.8750;133;76;0.30208
8414070;0.08500;67.6875;133;76;0.30085
8414080;0.09000;67.5625;133;76;0.30037
8414090;0.06000;67.3125;133;76;0.29792
8414100;0.01500;67.1875;133;76;0.29621
8414110;-0.01000;67.0625;133;76;0.29426
8414120;-0.05000;66.8125;133;76;0.29035
8414130;-0.07500;66.6875;133;76;0.28840
8414140;-0.09000;66.5625;133;76;0.28669
8414150;-0.09500;66.4375;133;76;0.28523
8414160;-0.09500;66.2500;133;76;0.28205
8414170;-0.09000;66.1875;133;76;0.28132
8414180;-0.09500;66.0625;133;76;0.28132
8414190;-0.06000;66.0000;133;76;0.28107
8414200;0.21000;65.8750;133;76;0.28083
8414210;0.75000;65.7500;133;76;0.28010
8414220;0.98000;65.7500;133;76;0.28034
8414230;0.42500;65.6875;133;76;0.28059
8414240;-0.25000;65.6250;133;76;0.28156
8414250;-0.27000;65.6250;133;76;0.28205
8414260;-0.21000;65.6250;133;76;0.28254
8414270;-0.19500;65.6250;133;76;0.28376
8414280;-0.19500;65.5625;133;76;0.28523
8414290;-0.19500;65.5625;133;76;0.28694
8414300;-0.19500;65.5000;133;76;0.28742
8414310;-0.19000;65.4375;133;76;0.28791
8414320;-0.19000;65.3125;133;76;0.28840
8414330;-0.18000;65.0000;133;76;0.28962
8414340;-0.17000;64.8750;133;76;0.29035
8414350;-0.16000;64.6875;133;76;0.29109
8414360;-0.15000;64.3750;133;76;0.29304
8414370;-0.14500;64.2500;133;76;0.29451
8414380;-0.13500;64.1875;133;76;0.29621
8414390;-0.12000;64.3750;133;76;0.29768
8414400;-0.11500;65.0000;133;76;0.29890
8414410;-0.10000;68.8750;133;76;0.30085
8414420;-0.08500;72.3750;133;76;0.30183
8414430;-0.07500;76.8750;133;76;0.30281
8414440;-0.06500;87.5625;133;76;0.30379
8414450;-0.04500;93.2500;133;76;0.30525
8414460;-0.03500;98.9375;133;76;0.30574
8414470;-0.01500;104.5000;133;76;0.30696
8414480;0.01000;114.4375;133;76;0.31013
8414490;0.03000;118.5625;133;76;0.31184
8414500;0.05000;122.0000;133;76;0.31404
8414510;0.07000;124.8750;133;76;0.31648
8414520;0.09000;127.0625;133;76;0.31893
8414530;0.12000;130.1250;133;76;0.32479
8414540;0.14000;131.0625;133;76;0.32772
8414550;0.16500;131.6875;133;76;0.33065
8414560;0.19500;132.2500;133;76;0.33578
8414570;0.20500;132.0625;133;76;0.33822
8414580;0.20500;131.6875;133;76;0.34017
8414590;0.18500;131.0000;133;76;0.34212
8414600;0.14500;130.1250;133;76;0.34408
8414610;0.08500;127.8750;133;76;0.34750
8414620;0.04000;126.4375;133;76;0.34896
8414630;0.00000;124.8125;133;76;0.35043
8414640;-0.04500;121.2500;133;76;0.35482
8414650;-0.06500;119.2500;133;76;0.35946
8414660;-0.08500;117.1875;133;76;0.36752
8414670;-0.09500;115.0625;133;76;0.37778
8414680;-0.10500;112.8750;133;76;0.39145
8414690;-0.11000;108.3750;133;76;0.43834
8414700;-0.11500;106.1875;133;76;0.47106
8414710;-0.11500;104.1875;133;76;0.50842
8414720;-0.11500;100.9375;133;76;0.59243
8414730;-0.11500;99.8125;133;76;0.63590
8414740;-0.11500;98.8750;133;76;0.67839
8414750;-0.10500;98.1875;133;76;0.71893
8414760;-0.10000;97.3125;133;76;0.78584
8414770;-0.09500;97.0625;133;76;0.80952
8414780;-0.09000;96.8750;133;76;0.83394
8414790;-0.09000;96.6875;133;76;0.85665
8414800;-0.09000;96.6875;133;76;0.85665
8414810;-0.08500;96.0625;133;76;0.90891
8414820;-0.08000;95.8125;133;76;0.92063
8414830;-0.08000;95.5000;133;76;0.92943
8414840;-0.07500;94.6875;133;76;0.93895
8414850;-0.08000;94.2500;133;76;0.93993
8414860;-0.08000;93.8125;133;76;0.93846
8414870;-0.08000;93.3750;133;76;0.93358
8414880;-0.08000;92.8750;133;76;0.92625
8414890;-0.08500;91.8750;133;76;0.90842
8414900;-0.08500;91.3125;133;76;0.89744
8414910;-0.08500;90.8125;133;76;0.88498
8414920;-0.09000;90.3125;133;76;0.87106
8414930;-0.09500;89.3125;133;76;0.83883
8414940;-0.09500;88.8125;133;76;0.82051
8414950;-0.09000;88.3750;133;76;0.80122
8414960;-0.08500;87.9375;133;76;0.78168
8414970;-0.07500;87.1875;133;76;0.74628
8414980;-0.05000;86.7500;133;76;0.72845
8414990;-0.03000;86.3750;133;76;0.71111
8415000;-0.00500;86.0000;133;76;0.69475
8415010;0.00000;85.3125;133;76;0.66593
8415020;0.02500;85.0000;133;76;0.65348
8415030;0.05000;84.6875;133;76;0.64200
8415040;0.06000;84.3125;133;76;0.63175
8415050;0.03500;83.7500;133;76;0.61392
8415060;-0.01000;83.4375;133;76;0.60586
8415070;-0.04000;83.1875;133;76;0.59853
8415080;-0.09000;82.5625;133;76;0.59170
8415090;-0.13500;82.3125;133;76;0.57827
8415100;-0.15500;82.0625;133;76;0.57167
8415110;-0.15500;81.8125;133;76;0.56484
8415120;-0.15000;81.5625;133;76;0.55800
8415130;-0.13500;81.1250;133;76;0.54408
8415140;-0.13500;80.8750;133;76;0.53700
8415150;-0.13500;80.6250;133;76;0.52991
8415160;0.02500;80.1875;133;76;0.51648
8415170;0.40500;80.0000;133;76;0.51062
8415180;1.04500;79.8125;133;76;0.50427
8415190;0.88000;79.6250;133;76;0.49792
8415200;0.14500;79.4375;133;76;0.49182
8415210;-0.25000;79.0625;133;76;0.47985
8415220;-0.21500;78.9375;133;76;0.47448
8415230;-0.18500;78.7500;133;76;0.46911
8415240;-0.19000;78.6250;133;76;0.44542
8415250;-0.19000;78.1875;133;76;0.39512
8415260;-0.19000;77.9375;133;76;0.38388
8415270;-0.19000;77.6875;133;76;0.37680
8415280;-0.18000;77.1875;133;76;0.37192
8415290;-0.17000;76.8750;133;76;0.36361
8415300;-0.15500;76.6250;133;76;0.35995
8415310;-0.14500;76.3750;133;76;0.35653
8415320;-0.13500;75.8125;133;76;0.35018
8415330;-0.13000;75.5000;133;76;0.34701
8415340;-0.12500;75.2500;133;76;0.34383
8415350;-0.11500;75.0000;133;76;0.34115
8415360;-0.10000;74.8125;133;76;0.33846
8415370;-0.08000;74.8750;133;76;0.33480
8415380;-0.06000;75.4375;133;76;0.33284
8415390;-0.04000;76.6250;133;76;0.33089
8415400;-0.01500;78.6875;133;76;0.32918
8415410;0.01000;85.5000;133;76;0.32625
8415420;0.02000;89.9375;133;76;0.32503
8415430;0.02500;94.8750;133;76;0.32381
8415440;0.04000;105.1250;133;76;0.32259
8415450;0.06000;110.1250;133;76;0.32088
8415460;0.08500;114.8125;133;76;0.32039
8415470;0.11000;119.1250;133;76;0.32015
8415480;0.13000;122.8125;133;76;0.32015
8415490;0.15500;128.5000;133;76;0.32015
8415500;0.17500;130.5000;133;76;0.32015
8415510;0.20000;132.0625;133;76;0.32015
8415520;0.21000;133.2500;133;76;0.31990
8415530;0.21500;134.6250;133;76;0.31941
8415540;0.20500;135.0000;133;76;0.31893
8415550;0.17500;135.1250;133;76;0.31844
8415560;0.12000;135.0625;133;76;0.31795
8415570;0.05000;134.5000;133;76;0.31770
8415580;0.00500;133.9375;133;76;0.31746
8415590;-0.04500;133.2500;133;76;0.31697
8415600;-0.07000;132.3750;133;76;0.31624
8415610;-0.08500;130.1875;133;76;0.31551
8415620;-0.10500;128.8750;133;76;0.31551
8415630;-0.11500;127.3125;133;76;0.31624
8415640;-0.11500;125.6250;133;76;0.31844
8415650;-0.11500;121.5000;133;76;0.33040
8415660;-0.11500;119.1875;133;76;0.34115
8415670;-0.11500;116.6250;133;76;0.35311
8415680;-0.11000;111.3750;133;76;0.38559
8415690;-0.10500;108.9375;133;76;0.40781
8415700;-0.10500;106.8125;133;76;0.43272
8415710;-0.10000;104.9375;133;76;0.45885
8415720;-0.09500;102.3125;133;76;0.51160
8415730;-0.09000;101.4375;133;76;0.53651
8415740;-0.08500;100.8125;133;76;0.55946
8415750;-0.08500;100.3750;133;76;0.58046
8415760;-0.08500;100.1250;133;76;0.59927
8415770;-0.09000;99.8125;133;76;0.62393
8415780;-0.09000;99.6250;133;76;0.63516
8415790;-0.08500;99.4375;133;76;0.64567
8415800;-0.08500;99.4375;133;76;0.64567
8415810;-0.08000;98.5625;133;76;0.66886
8415820;-0.08000;98.2500;133;76;0.67375
8415830;-0.08000;97.8125;133;76;0.67717
8415840;-0.08500;96.9375;133;76;0.68034
8415850;-0.09000;96.4375;133;76;0.67985
8415860;-0.08500;95.8750;133;76;0.67790
8415870;-0.08000;95.3750;133;76;0.67399
8415880;-0.08000;94.2500;133;76;0.66252
8415890;-0.07500;93.7500;133;76;0.65519
8415900;-0.07500;93.1875;133;76;0.64689
8415910;-0.05000;92.6875;133;76;0.63736
8415920;-0.02500;92.1250;133;76;0.62662
8415930;0.00000;91.1875;133;76;0.60220
8415940;0.02000;90.6875;133;76;0.58877
8415950;0.04000;90.2500;133;76;0.57509
8415960;0.07500;89.3125;133;76;0.54921
8415970;0.08500;88.8125;133;76;0.53797
8415980;0.05000;88.3750;133;76;0.52650
8415990;0.02500;88.0000;133;76;0.51575
8416000;-0.00500;87.1875;133;76;0.50598
8416010;-0.06000;86.8750;133;76;0.48987
8416020;-0.09500;86.5000;133;76;0.48327
8416030;-0.10500;86.1250;133;76;0.47741
8416040;-0.10500;85.8125;133;76;0.47204
8416050;-0.11000;85.1250;133;76;0.46227
8416060;-0.10500;84.8750;133;76;0.45763
8416070;-0.10000;84.5625;133;76;0.45348
8416080;-0.10500;84.3125;133;76;0.44933
8416090;-0.03500;83.6875;133;76;0.44103
8416100;0.46500;83.4375;133;76;0.43663
8416110;0.96500;83.1250;133;76;0.43223
8416120;1.00500;82.8750;133;76;0.42759
8416130;0.14500;82.2500;133;76;0.41807
8416140;-0.20500;82.0000;133;76;0.41343
8416150;-0.21000;81.6875;133;76;0.40879
8416160;-0.17500;81.0625;133;76;0.40024
8416170;-0.17500;80.7500;133;76;0.39683
8416180;-0.17000;80.4375;133;76;0.39292
8416190;-0.16500;80.1250;133;76;0.38901
8416200;-0.16000;79.3750;133;76;0.38120
8416210;-0.15500;79.0000;133;76;0.37729
8416220;-0.14500;78.5625;133;76;0.37338
8416230;-0.14000;78.1875;133;76;0.36947
8416240;-0.13500;77.7500;133;76;0.36581
8416250;-0.13000;77.0625;133;76;0.35873
8416260;-0.12500;76.6875;133;76;0.35580
8416270;-0.12000;76.3750;133;76;0.35336
8416280;-0.11500;76.0625;133;76;0.35067
8416290;-0.09500;75.5000;133;76;0.34481
8416300;-0.08500;75.3125;133;76;0.34212
8416310;-0.06500;75.2500;133;76;0.33968
8416320;-0.05000;76.5625;133;76;0.33504
8416330;-0.04000;78.3125;133;76;0.33309
8416340;-0.03000;81.0000;133;76;0.33138
8416350;-0.01000;84.5000;133;76;0.32967
8416360;0.00500;88.6875;133;76;0.32821
8416370;0.02500;98.2500;133;76;0.32674
8416380;0.04500;103.2500;133;76;0.32601
8416390;0.07500;108.1250;133;76;0.32527
8416400;0.09500;112.8125;133;76;0.32479
8416410;0.12000;120.7500;133;76;0.32332
8416420;0.15500;123.8125;133;76;0.32259
8416430;0.17500;126.3750;133;76;0.32161
8416440;0.19500;128.3750;133;76;0.32063
8416450;0.22500;131.0625;133;76;0.31868
8416460;0.23500;131.8125;133;76;0.31795
8416470;0.22500;132.3750;133;76;0.31746
8416480;0.18500;132.6250;133;76;0.31600
8416490;0.14500;132.5000;133;76;0.31526
8416500;0.08500;132.1875;133;76;0.31429
8416510;0.01500;131.7500;133;76;0.31306
8416520;-0.02500;131.1250;133;76;0.31184
8416530;-0.05500;129.4375;133;76;0.30916
8416540;-0.08000;128.3125;133;76;0.30769
8416550;-0.09500;127.0625;133;76;0.30623
8416560;-0.10500;124.0000;133;76;0.30525
8416570;-0.11000;122.1250;133;76;0.30574
8416580;-0.11000;120.0625;133;76;0.30769
8416590;-0.10500;117.8125;133;76;0.31184
8416600;-0.10500;112.8125;133;76;0.32918
8416610;-0.10500;110.2500;133;76;0.34310
8416620;-0.10500;107.8125;133;76;0.36020
8416630;-0.10000;105.5625;133;76;0.37998
8416640;-0.09500;103.6250;133;76;0.40195
8416650;-0.09500;100.5625;133;76;0.44860
8416660;-0.09500;99.5000;133;76;0.46862
8416670;-0.09000;98.6875;133;76;0.48596
8416680;-0.08500;98.1250;133;76;0.50427
8416690;-0.08000;97.3750;133;76;0.53846
8416700;-0.07500;97.1250;133;76;0.55287
8416710;-0.07000;96.9375;133;76;0.56508
8416720;-0.07000;96.8125;133;76;0.57534
8416730;-0.07500;96.3125;133;76;0.59023
8416740;-0.07500;96.0625;133;76;0.59512
8416750;-0.07500;95.6875;133;76;0.59829
8416760;-0.07500;95.3125;133;76;0.60000
8416770;-0.07500;94.4375;133;76;0.59829
8416780;-0.07500;93.9375;133;76;0.59634
8416790;-0.08000;93.4375;133;76;0.59365
8416800;-0.08000;93.4375;133;76;0.59365
8416810;-0.07500;91.8750;133;76;0.57900
8416820;-0.05500;91.3125;133;76;0.57167
8416830;-0.02500;90.7500;133;76;0.56337
8416840;-0.00500;89.6875;133;76;0.54286
8416850;0.00500;89.1250;133;76;0.53089
8416860;0.03000;88.5625;133;76;0.51941
8416870;0.07000;88.0625;133;76;0.50769
8416880;0.08500;87.5625;133;76;0.49451
8416890;0.06000;86.6250;133;76;0.46691
8416900;0.01500;86.1875;133;76;0.45348
8416910;-0.02000;85.7500;133;76;0.44078
8416920;-0.05500;85.3125;133;76;0.42882
8416930;-0.09500;84.4375;133;76;0.40757
8416940;-0.12500;84.0625;133;76;0.39878
8416950;-0.12500;83.7500;133;76;0.39121
8416960;-0.12500;83.3750;133;76;0.38437
8416970;-0.12500;82.7500;133;76;0.37460
8416980;-0.11500;82.4375;133;76;0.36996
8416990;-0.11500;82.1875;133;76;0.36557
8417000;-0.04500;81.6875;133;76;0.36093
8417010;0.26500;81.4375;133;76;0.35189
8417020;0.77500;81.1875;133;76;0.34725
8417030;0.86500;81.0000;133;76;0.34261
8417040;0.07000;80.5000;133;76;0.33333
8417050;-0.27500;80.3125;133;76;0.32845
8417060;-0.26000;80.0625;133;76;0.32430
8417070;-0.19000;79.8750;133;76;0.32063
8417080;-0.18000;79.6250;133;76;0.31673
8417090;-0.17500;79.1875;133;76;0.30794
8417100;-0.17000;78.8750;133;76;0.30330
8417110;-0.16500;78.6250;133;76;0.29890
8417120;-0.16000;78.3125;133;76;0.29451
8417130;-0.15500;77.6875;133;76;0.28596
8417140;-0.15500;77.3750;133;76;0.28181
8417150;-0.14500;77.0000;133;76;0.27741
8417160;-0.14000;76.3125;133;76;0.26960
8417170;-0.13500;75.9375;133;76;0.26667
8417180;-0.12000;75.6250;133;76;0.26300
8417190;-0.10500;75.3125;133;76;0.25934
8417200;-0.09500;74.8125;133;76;0.25177
8417210;-0.08500;74.5625;133;76;0.24811
8417220;-0.07500;74.3750;133;76;0.24493
8417230;-0.06000;74.3125;133;76;0.24176
8417240;-0.05000;74.5000;133;76;0.23858
8417250;-0.03500;76.3125;133;76;0.23321
8417260;-0.01500;78.3125;133;76;0.23199
8417270;-0.00500;81.0625;133;76;0.23126
8417280;0.01000;88.4375;133;76;0.22979
8417290;0.03500;92.7500;133;76;0.24029
8417300;0.06000;97.3125;133;76;0.24274
8417310;0.10000;101.8125;133;76;0.24322
8417320;0.13000;106.1875;133;76;0.24298
8417330;0.15500;114.0000;133;76;0.24200
8417340;0.18500;116.4583;133;76;0.24176
8417350;0.20000;117.1875;133;76;0.24176
8417360;0.23500;119.8125;133;76;0.24151
8417370;0.25500;123.5000;133;76;0.24176
8417380;0.24500;124.6250;133;76;0.24274
8417390;0.22500;125.3750;133;76;0.24322
8417400;0.17500;125.7500;133;76;0.24347
8417410;0.09000;125.6875;133;76;0.24371
8417420;0.04000;125.3125;133;76;0.24371
8417430;-0.01000;124.7500;133;76;0.24371
8417440;-0.05500;123.0000;133;76;0.24371
8417450;-0.07500;121.8750;133;76;0.24371
8417460;-0.09500;120.5625;133;76;0.24396
8417470;-0.10500;119.0625;133;76;0.24493
8417480;-0.11500;115.4375;133;76;0.24689
8417490;-0.11500;113.4375;133;76;0.24786
8417500;-0.11000;111.1875;133;76;0.24957
8417510;-0.10500;108.8125;133;76;0.25250
8417520;-0.10500;106.3125;133;76;0.25739
8417530;-0.10500;101.3750;133;76;0.27546
8417540;-0.10500;99.2500;133;76;0.28962
8417550;-0.10000;97.4375;133;76;0.30720
8417560;-0.10000;94.8750;133;76;0.35189
8417570;-0.10000;94.0625;133;76;0.37387
8417580;-0.09500;93.5000;133;76;0.39512
8417590;-0.08500;93.1250;133;76;0.41880
8417600;-0.08500;92.9375;133;76;0.44322
8417610;-0.08500;92.8125;133;76;0.48938
8417620;-0.08000;92.8125;133;76;0.50940
8417630;-0.08000;92.8125;133;76;0.52723
8417640;-0.08500;92.6875;133;76;0.55556
8417650;-0.08500;92.5000;133;76;0.56630
8417660;-0.08500;92.2500;133;76;0.57485
8417670;-0.08500;91.9375;133;76;0.58022
8417680;-0.09000;91.2500;133;76;0.58608
8417690;-0.09000;90.8125;133;76;0.58730
8417700;-0.09500;90.3750;133;76;0.58730
8417710;-0.09500;89.8750;133;76;0.58559
8417720;-0.09500;89.3750;133;76;0.58217
8417730;-0.08500;88.3750;133;76;0.57094
8417740;-0.06500;87.8750;133;76;0.56313
8417750;-0.04000;87.3750;133;76;0.55409
8417760;-0.01500;86.4375;133;76;0.54408
8417770;-0.00500;86.0000;133;76;0.52186
8417780;0.01000;85.5625;133;76;0.51087
8417790;0.05500;85.1250;133;76;0.49817
8417800;0.05500;85.1250;133;76;0.49817
8417810;0.03500;83.8125;133;76;0.45812
8417820;-0.01500;83.3750;133;76;0.44591
8417830;-0.03500;83.0000;133;76;0.43492
8417840;-0.08500;82.2500;133;76;0.41709
8417850;-0.11000;81.9375;133;76;0.41001
8417860;-0.13500;81.6250;133;76;0.40415
8417870;-0.14000;81.3125;133;76;0.39976
8417880;-0.14000;81.0000;133;76;0.39658
8417890;-0.13500;80.3750;133;76;0.38999
8417900;-0.12500;80.1250;133;76;0.38657
8417910;-0.11500;79.8750;133;76;0.38315
8417920;-0.03500;79.6875;133;76;0.37949
8417930;0.43000;79.2500;133;76;0.37241
8417940;0.83000;79.0625;133;76;0.36899
8417950;0.76500;78.8750;133;76;0.36581
8417960;-0.01500;78.5000;133;76;0.35995
8417970;-0.28500;78.3750;133;76;0.35751
8417980;-0.25000;78.1875;133;76;0.35531
8417990;-0.19000;78.0625;133;76;0.35238
8418000;-0.18000;77.8750;132;76;0.34921
8418010;-0.17500;77.4375;132;76;0.34212
8418020;-0.17000;77.2500;132;76;0.33822
8418030;-0.16500;77.0000;132;76;0.33431
8418040;-0.16000;76.4375;132;76;0.33065
8418050;-0.15500;76.1250;132;76;0.32332
8418060;-0.15000;75.8125;132;76;0.31941
8418070;-0.14500;75.5000;132;76;0.31648
8418080;-0.14000;75.1875;132;76;0.31380
8418090;-0.13500;74.5000;132;76;0.30745
8418100;-0.13000;74.2500;132;76;0.30427
8418110;-0.12500;73.9375;132;76;0.30085
8418120;-0.11500;73.6250;132;76;0.29792
8418130;-0.09500;73.1875;132;76;0.29182
8418140;-0.08500;73.0000;132;76;0.28864
8418150;-0.07000;72.8750;132;76;0.28571
8418160;-0.05500;73.4375;132;76;0.28083
8418170;-0.04000;74.5000;132;76;0.27961
8418180;-0.02500;76.2500;132;76;0.27766
8418190;-0.00500;78.8125;132;76;0.27546
8418200;0.01000;82.1250;132;76;0.27302
8418210;0.03000;90.1250;132;76;0.26886
8418220;0.06000;94.6250;132;76;0.26716
8418230;0.08000;99.1875;132;76;0.26569
8418240;0.11000;108.0000;132;76;0.26374
8418250;0.13000;111.9375;132;76;0.26300
8418260;0.14500;115.3750;132;76;0.26252
8418270;0.15500;118.2500;132;76;0.26276
8418280;0.16500;122.3125;132;76;0.26398
8418290;0.16500;123.6875;132;76;0.26422
8418300;0.13000;124.6250;132;76;0.26422
8418310;0.05000;125.1875;132;76;0.26398
8418320;-0.00500;125.5000;132;76;0.26349
8418330;-0.07500;125.3125;132;76;0.26252
8418340;-0.14500;124.9375;132;76;0.26227
8418350;-0.16000;124.3125;132;76;0.26203
8418360;-0.15500;123.5000;132;76;0.26203
8418370;-0.10500;121.4375;132;76;0.26349
8418380;-0.05500;120.0625;132;76;0.26398
8418390;-0.01500;118.5625;132;76;0.26447
8418400;-0.01000;114.9375;132;76;0.26569
8418410;-0.02000;112.8750;132;76;0.26716
8418420;-0.02500;110.6250;132;76;0.26960
8418430;-0.01500;108.2500;132;76;0.27399
8418440;-0.00500;105.7500;132;76;0.28083
8418450;0.11000;100.8750;132;76;0.30427
8418460;0.53500;98.7500;132;76;0.32137
8418470;0.79500;97.0625;132;76;0.33871
8418480;0.62000;95.7500;132;76;0.35726
8418490;0.04000;94.0625;132;76;0.40537
8418500;-0.05500;93.6250;132;76;0.43223
8418510;-0.04000;93.3125;132;76;0.45885
8418520;-0.08000;93.1875;132;76;0.50842
8418530;-0.09500;93.2500;132;76;0.53016
8418540;-0.10500;93.3125;132;76;0.54921
8418550;-0.10500;93.3125;132;76;0.56557
8418560;-0.10500;93.3125;132;76;0.57949
8418570;-0.11000;93.0000;132;76;0.59609
8418580;-0.10500;92.7500;132;76;0.60293
8418590;-0.10500;92.3750;132;76;0.60879
8418600;-0.10500;91.9375;132;76;0.61343
8418610;-0.10500;90.9375;132;76;0.61783
8418620;-0.10500;90.4375;132;76;0.61783
8418630;-0.10000;89.9375;132;76;0.61587
8418640;-0.09500;89.4375;132;76;0.61221
8418650;-0.09500;88.5000;132;76;0.60024
8418660;-0.08500;88.0000;132;76;0.59219
8418670;-0.07500;87.5625;132;76;0.58364
8418680;-0.06500;87.1875;132;76;0.57411
8418690;-0.05000;86.3125;132;76;0.55092
8418700;-0.03000;85.8750;132;76;0.53773
8418710;-0.01500;85.4375;132;76;0.52381
8418720;0.00500;84.5000;132;76;0.51013
8418730;0.04000;84.0625;132;76;0.48400
8418740;0.06000;83.6250;132;76;0.47228
8418750;0.09500;83.2500;132;76;0.46178
8418760;0.13000;82.5000;132;76;0.44567
8418770;0.15500;82.3125;132;76;0.44005
8418780;0.18500;82.3125;132;76;0.43492
8418790;0.21500;82.5000;132;76;0.43077
8418800;0.21500;82.5000;132;76;0.43077
8418810;0.19000;84.0625;132;76;0.42173
8418820;0.11500;84.8750;132;76;0.41929
8418830;0.04000;85.6875;132;76;0.41685
8418840;-0.01500;86.5625;132;76;0.41441
8418850;-0.07500;87.9375;132;76;0.40928
8418860;-0.12000;88.3125;132;76;0.40635
8418870;-0.13500;88.5000;132;76;0.40342
8418880;-0.15000;88.3750;132;76;0.40073
8418890;-0.15500;87.3750;132;76;0.39463
8418900;-0.15500;86.4375;132;76;0.39145
8418910;-0.15500;85.3125;132;76;0.38803
8418920;-0.15500;84.0625;132;76;0.38437
8418930;-0.14500;81.6875;132;76;0.37729
8418940;-0.14500;80.6250;132;76;0.37387
8418950;-0.14000;79.6875;132;76;0.37045
8418960;-0.13500;78.1250;132;76;0.36459
8418970;-0.13500;77.5625;132;76;0.36190
8418980;-0.13500;77.1250;132;76;0.35873
8418990;-0.14000;76.6875;132;76;0.35531
8419000;-0.13500;76.4375;132;75;0.35189
8419010;-0.13500;76.0000;132;75;0.34457
8419020;-0.14000;75.8125;132;75;0.34115
8419030;-0.14500;75.6250;132;75;0.33797
8419040;-0.14000;75.5000;132;75;0.33553
8419050;-0.14000;75.1250;132;75;0.33358
8419060;-0.14000;74.9375;132;75;0.33407
8419070;-0.14000;74.7500;132;75;0.33553
8419080;-0.14500;74.4375;132;75;0.34115
8419090;-0.14500;74.2500;132;75;0.34481
8419100;-0.14000;74.0625;132;75;0.34896
8419110;-0.13500;73.9375;132;75;0.35311
8419120;-0.13500;73.5625;132;75;0.35702
8419130;-0.13500;73.3750;132;75;0.36264
8419140;-0.13500;73.2500;132;75;0.36410
8419150;-0.13500;73.1250;132;75;0.36410
8419160;-0.13500;72.8750;132;75;0.36166
8419170;-0.13000;72.6875;132;75;0.35971
8419180;-0.12500;72.5000;132;75;0.35653
8419190;-0.12500;72.3750;132;75;0.35238
8419200;-0.12500;72.1875;132;75;0.34774
8419210;-0.12000;71.8125;132;75;0.33748
8419220;-0.11500;71.6250;132;75;0.33260
8419230;-0.11500;71.4375;132;75;0.32796
8419240;-0.11000;71.0000;132;75;0.32405
8419250;-0.10500;70.8125;132;75;0.31770
8419260;-0.10500;70.6250;132;75;0.31526
8419270;-0.10500;70.4375;132;75;0.31380
8419280;-0.10000;70.1875;132;75;0.31306
8419290;-0.09500;69.8125;132;75;0.31111
8419300;-0.09500;69.6250;132;75;0.31038
8419310;-0.10000;69.5000;132;75;0.30965
8419320;-0.09500;69.3125;132;75;0.30916
8419330;-0.09000;69.0000;132;75;0.30794
8419340;-0.08500;68.8750;132;75;0.31429
8419350;-0.08500;68.6875;132;75;0.32430
8419360;-0.08500;68.3750;132;75;0.33114
8419370;-0.08500;68.1875;132;75;0.33236
8419380;-0.08500;68.0625;132;75;0.33211
8419390;-0.08000;67.9375;132;75;0.33114
8419400;-0.08000;67.8125;132;75;0.32967
8419410;-0.07500;67.5000;132;75;0.32674
8419420;-0.07500;67.3750;132;75;0.32503
8419430;-0.06000;67.2500;132;75;0.32357
8419440;-0.03000;66.9375;132;75;0.32234
8419450;-0.00500;66.7500;132;75;0.31917
8419460;0.00000;66.6250;132;75;0.31722
8419470;0.01000;66.5000;132;75;0.31624
8419480;0.04500;66.2500;132;75;0.31404
8419490;0.07000;66.0625;132;75;0.31233
8419500;0.06000;65.9375;132;75;0.31013
8419510;0.02500;65.8125;132;75;0.30769
8419520;0.00000;65.5625;132;75;0.30549
8419530;-0.03500;65.4375;132;75;0.30061
8419540;-0.06500;65.3125;132;75;0.29817
8419550;-0.09500;65.1875;132;75;0.29597
8419560;-0.10500;64.9375;132;75;0.29353
8419570;-0.11000;64.8750;132;75;0.29084
8419580;-0.10500;64.7500;132;75;0.28913
8419590;-0.10500;64.6250;132;75;0.28742
8419600;-0.10000;64.5000;132;75;0.28596
8419610;0.01000;64.3125;132;75;0.28352
8419620;0.40000;64.2500;132;75;0.28230
8419630;0.96000;64.1875;132;75;0.28132
8419640;0.79500;64.1250;132;75;0.28010
8419650;0.09500;64.0000;132;75;0.27839
8419660;-0.27500;64.0000;132;75;0.27790
8419670;-0.23000;63.9375;132;75;0.27839
8419680;-0.18500;63.8750;132;75;0.27961
8419690;-0.17500;63.8750;132;75;0.28034
8419700;-0.17000;63.8125;132;75;0.28059
8419710;-0.17000;63.8125;132;75;0.28107
8419720;-0.16000;63.6250;132;75;0.28205
8419730;-0.16000;63.5000;132;75;0.28254
8419740;-0.16000;63.4375;132;75;0.28327
8419750;-0.15500;63.3125;132;75;0.28376
8419760;-0.14500;62.9375;132;75;0.28596
8419770;-0.14500;62.7500;132;75;0.28767
8419780;-0.13000;62.5625;132;75;0.28889
8419790;-0.11500;62.3750;132;75;0.28987
8419800;-0.11500;62.3750;132;75;0.28987
8419810;-0.10500;62.2500;132;75;0.29304
8419820;-0.09500;62.7500;132;75;0.29426
8419830;-0.08500;64.0000;132;75;0.29524
8419840;-0.06500;66.2500;132;75;0.29670
8419850;-0.06000;73.8750;132;75;0.29988
8419860;-0.04500;78.8125;132;75;0.30159
8419870;-0.03500;84.1250;132;75;0.30354
8419880;-0.01000;95.0000;132;75;0.30720
8419890;0.00500;100.2500;132;75;0.30867
8419900;0.02000;105.2500;132;75;0.31038
8419910;0.04000;109.8750;132;75;0.31209
8419920;0.05500;113.8125;132;75;0.31404
8419930;0.07500;119.8750;132;75;0.31844
8419940;0.10000;122.0625;132;75;0.32088
8419950;0.13000;123.6875;132;75;0.32357
8419960;0.15500;125.0000;132;75;0.32625
8419970;0.18000;126.3750;132;75;0.33260
8419980;0.20500;126.6875;132;75;0.33529
8419990;0.21500;126.6250;132;75;0.33773
8420000;0.21000;125.7500;133;75;0.34017
8420010;0.17000;124.9375;133;75;0.34457
8420020;0.13000;123.9375;133;75;0.34676
8420030;0.08000;122.6875;133;75;0.34872
8420040;0.02000;119.6875;133;75;0.35165
8420050;-0.00500;118.0000;133;75;0.35311
8420060;-0.02000;116.1875;133;75;0.35507
8420070;-0.05500;114.2500;133;75;0.35726
8420080;-0.08000;112.2500;133;75;0.36044
8420090;-0.09500;108.1875;133;75;0.37436
8420100;-0.10500;106.1250;133;75;0.38803
8420110;-0.10500;104.1250;133;75;0.40757
8420120;-0.11000;102.0625;133;75;0.43370
8420130;-0.10500;98.3125;133;75;0.50476
8420140;-0.09500;96.8125;133;75;0.54701
8420150;-0.10500;95.6250;133;75;0.59170
8420160;-0.10500;93.9375;133;75;0.67619
8420170;-0.10500;93.4375;133;75;0.71038
8420180;-0.10500;93.0625;133;75;0.74652
8420190;-0.10500;92.8125;133;75;0.78168
8420200;-0.10000;92.6875;133;75;0.81368
8420210;-0.09500;92.5000;133;75;0.86642
8420220;-0.09500;92.4375;133;75;0.88694
8420230;-0.09500;92.3125;133;75;0.90379
8420240;-0.09500;92.0000;133;75;0.91746
8420250;-0.09500;91.6875;133;75;0.93529
8420260;-0.09000;91.3750;133;75;0.93822
8420270;-0.08000;91.0000;133;75;0.93797
8420280;-0.07500;90.2500;133;75;0.93382
8420290;-0.08000;89.8125;133;75;0.92894
8420300;-0.08500;89.3125;133;75;0.92186
8420310;-0.08500;88.8125;133;75;0.91282
8420320;-0.09000;88.3125;133;75;0.90183
8420330;-0.10000;87.3750;133;75;0.87424
8420340;-0.09500;86.9375;133;75;0.85812
8420350;-0.09500;86.5000;133;75;0.84054
8420360;-0.08500;86.0000;133;75;0.82173
8420370;-0.07500;85.1875;133;75;0.78510
8420380;-0.06000;84.8125;133;75;0.76557
8420390;-0.03000;84.4375;133;75;0.74579
8420400;-0.01500;84.0625;133;75;0.72650
8420410;-0.01000;83.3125;133;75;0.69060
8420420;0.00500;82.9375;133;75;0.67448
8420430;0.03500;82.6250;133;75;0.65983
8420440;0.06000;82.3125;133;75;0.64689
8420450;0.04000;81.6875;133;75;0.62491
8420460;-0.00500;81.4375;133;75;0.61612
8420470;-0.03500;81.1875;133;75;0.60830
8420480;-0.08000;80.6875;133;75;0.59243
8420490;-0.11500;80.3750;133;75;0.58510
8420500;-0.14500;80.1250;133;75;0.57827
8420510;-0.15500;79.8750;133;75;0.57192
8420520;-0.15500;79.3750;133;75;0.56581
8420530;-0.15500;79.1875;133;75;0.55409
8420540;-0.14500;78.9375;133;75;0.54823
8420550;-0.14500;78.7500;133;75;0.54237
8420560;-0.08500;78.5625;133;75;0.53626
8420570;0.23500;78.1875;133;75;0.52552
8420580;0.87000;78.0000;133;75;0.51941
8420590;0.85500;77.8125;133;75;0.51331
8420600;0.30000;77.6250;133;75;0.50696
8420610;-0.28500;77.2500;133;75;0.49451
8420620;-0.27000;77.1250;133;75;0.48840
8420630;-0.22000;77.0000;133;75;0.48254
8420640;-0.20000;76.8125;133;75;0.47692
8420650;-0.20000;76.5625;133;75;0.46593
8420660;-0.19000;76.3750;133;75;0.46129
8420670;-0.19000;76.1250;133;75;0.45714
8420680;-0.18500;75.6250;133;75;0.44713
8420690;-0.18000;75.3125;133;75;0.44225
8420700;-0.17000;75.0625;133;75;0.43736
8420710;-0.17000;74.7500;133;75;0.43223
8420720;-0.16000;74.5000;133;75;0.42711
8420730;-0.15500;73.9375;133;75;0.41661
8420740;-0.14000;73.6875;133;75;0.41197
8420750;-0.13000;73.4375;133;75;0.40781
8420760;-0.12000;73.1875;133;75;0.40366
8420770;-0.10500;72.8750;133;75;0.39780
8420780;-0.09000;72.8750;133;75;0.39463
8420790;-0.08000;73.1875;133;75;0.39145
8420800;-0.06500;74.0000;133;75;0.38828
8420810;-0.05000;78.1875;133;75;0.38266
8420820;-0.04000;81.5625;133;75;0.38022
8420830;-0.02000;85.6250;133;75;0.37753
8420840;-0.00500;95.0625;133;75;0.37338
8420850;0.01000;100.0000;133;75;0.37167
8420860;0.04000;104.8750;133;75;0.37070
8420870;0.07000;109.5625;133;75;0.37070
8420880;0.09000;113.8750;133;75;0.37021
8420890;0.11500;121.0625;133;75;0.36923
8420900;0.14500;123.8125;133;75;0.36874
8420910;0.17000;126.0000;133;75;0.36850
8420920;0.19500;129.0000;133;75;0.36850
8420930;0.21500;129.9375;133;75;0.36899
8420940;0.21500;130.6250;133;75;0.36899
8420950;0.18500;131.0000;133;75;0.36899
8420960;0.14000;131.1250;133;75;0.36850
8420970;0.07500;130.8750;133;75;0.36899
8420980;0.01000;130.5000;133;75;0.36923
8420990;-0.04500;129.9375;133;75;0.36947
8421000;-0.08000;128.3750;133;75;0.36996
8421010;-0.11000;127.3125;133;75;0.36996
8421020;-0.13000;126.1250;133;75;0.36996
8421030;-0.14000;124.6875;133;75;0.37021
8421040;-0.14500;123.1250;133;75;0.37070
8421050;-0.14500;119.5000;133;75;0.37582
8421060;-0.14000;117.3750;133;75;0.38144
8421070;-0.13500;115.1250;133;75;0.39023
8421080;-0.13500;112.6250;133;75;0.40415
8421090;-0.13500;107.4375;133;75;0.44811
8421100;-0.13000;105.0625;133;75;0.47766
8421110;-0.12500;102.9375;133;75;0.51136
8421120;-0.12500;99.8125;133;75;0.58510
8421130;-0.12000;98.7500;133;75;0.62271
8421140;-0.11000;97.8750;133;75;0.65934
8421150;-0.10500;97.3125;133;75;0.69402
8421160;-0.10000;96.6875;133;75;0.75043
8421170;-0.10000;96.5625;133;75;0.77021
8421180;-0.08500;96.5000;133;75;0.79048
8421190;-0.07000;96.3750;133;75;0.80952
8421200;-0.07000;96.3125;133;75;0.82686
8421210;-0.08000;96.0625;133;75;0.85470
8421220;-0.08500;95.8125;133;75;0.86471
8421230;-0.09000;95.5000;133;75;0.87277
8421240;-0.09500;94.6875;133;75;0.88278
8421250;-0.09000;94.3125;133;75;0.88474
8421260;-0.09000;93.8125;133;75;0.88376
8421270;-0.08500;93.3750;133;75;0.88083
8421280;-0.06500;92.3125;133;75;0.87204
8421290;-0.04000;91.8125;133;75;0.86545
8421300;-0.01500;91.3125;133;75;0.85690
8421310;-0.00500;90.8125;133;75;0.84689
8421320;-0.00500;90.3750;133;75;0.83492
8421330;0.00500;89.4375;133;75;0.80635
8421340;0.02500;88.9375;133;75;0.78974
8421350;0.01000;88.5000;133;75;0.77216
8421360;-0.01500;88.0625;133;75;0.75409
8421370;-0.04500;87.1875;133;75;0.72112
8421380;-0.08000;86.7500;133;75;0.70452
8421390;-0.10500;86.3125;133;75;0.65739
8421400;-0.12500;85.9375;133;75;0.59658
8421410;-0.13500;85.1875;133;75;0.54017
8421420;-0.13500;84.8750;133;75;0.52625
8421430;-0.13000;84.5000;133;75;0.51648
8421440;-0.12000;83.9375;133;75;0.50330
8421450;-0.12500;83.6250;133;75;0.49841
8421460;-0.06500;83.4375;133;75;0.49426
8421470;0.41000;83.1875;133;75;0.49035
8421480;0.90000;82.9375;133;75;0.48669
8421490;1.00000;82.5625;133;75;0.47888
8421500;0.18000;82.3750;133;75;0.47473
8421510;-0.19500;82.1875;133;75;0.47033
8421520;-0.20000;81.8750;133;75;0.46178
8421530;-0.15500;81.6875;133;75;0.45763
8421540;-0.14000;81.5625;133;75;0.45348
8421550;-0.16000;81.3750;133;75;0.44957
8421560;-0.16000;81.1250;133;75;0.44567
8421570;-0.16000;80.5625;133;75;0.43834
8421580;-0.15000;80.3125;133;75;0.43443
8421590;-0.14500;80.0000;133;75;0.43004
8421600;-0.14500;79.3750;133;75;0.42076
8421610;-0.13500;79.0625;133;75;0.41612
8421620;-0.13500;78.7500;133;75;0.41172
8421630;-0.13500;78.5000;133;75;0.40733
8421640;-0.12500;77.8750;133;75;0.39927
8421650;-0.12000;77.6250;133;75;0.39536
8421660;-0.10500;77.3750;133;75;0.39194
8421670;-0.09500;77.1250;133;75;0.38901
8421680;-0.08000;77.0000;133;75;0.38608
8421690;-0.06500;77.4375;133;75;0.37973
8421700;-0.05500;78.3750;133;75;0.37680
8421710;-0.04500;80.1875;133;75;0.37436
8421720;-0.03500;82.9375;133;75;0.37216
8421730;-0.02500;90.6250;133;75;0.36801
8421740;-0.00500;95.3125;133;75;0.36581
8421750;0.02000;100.2500;133;75;0.36386
8421760;0.05000;105.2500;133;75;0.36215
8421770;0.08000;114.8125;133;75;0.36044
8421780;0.10000;118.9375;133;75;0.35971
8421790;0.13000;122.5625;133;75;0.35897
8421800;0.16000;125.6250;133;75;0.35873
8421810;0.19500;129.9375;133;75;0.35849
8421820;0.21500;131.4375;133;75;0.35849
8421830;0.22000;132.5000;133;75;0.35824
8421840;0.19500;133.6875;133;75;0.35775
8421850;0.16500;133.9375;133;75;0.35702
8421860;0.09500;134.0000;133;75;0.35678
8421870;0.05000;133.8750;133;75;0.35653
8421880;0.00000;133.1875;133;75;0.35629
8421890;-0.04500;132.6250;133;75;0.35531
8421900;-0.07500;131.9375;133;75;0.35458
8421910;-0.10500;131.0625;133;75;0.35385
8421920;-0.13000;130.0625;133;75;0.35311
8421930;-0.14500;127.6250;133;75;0.35189
8421940;-0.14500;126.1250;133;75;0.35189
8421950;-0.13500;124.3750;133;75;0.35287
8421960;-0.13000;122.4375;133;75;0.35531
8421970;-0.13500;117.9375;133;75;0.36654
8421980;-0.14000;115.4375;133;75;0.37729
8421990;-0.14000;113.0000;133;75;0.39194
8422000;-0.13500;108.3750;132;75;0.43175
8422010;-0.12500;106.5000;132;75;0.45592
8422020;-0.11500;104.8750;132;75;0.48156
8422030;-0.10500;103.5625;132;75;0.50794
8422040;-0.10500;102.5625;132;75;0.53407
8422050;-0.09500;101.2500;132;75;0.58266
8422060;-0.09000;100.8125;132;75;0.60098
8422070;-0.08500;100.5000;132;75;0.61587
8422080;-0.08000;100.0625;132;75;0.64591
8422090;-0.08000;99.7500;132;75;0.65910
8422100;-0.08000;99.4375;132;75;0.67057
8422110;-0.08000;99.1250;132;75;0.68034
8422120;-0.08000;98.3125;132;75;0.68864
8422130;-0.07500;97.8125;132;75;0.70012
8422140;-0.07500;97.3125;132;75;0.70354
8422150;-0.07000;96.6875;132;75;0.70549
8422160;-0.07000;96.1250;132;75;0.70525
8422170;-0.07000;94.8750;132;75;0.70159
8422180;-0.05500;94.2500;132;75;0.69866
8422190;-0.02000;93.6250;132;75;0.69499
8422200;0.02000;92.4375;132;75;0.68327
8422210;0.03500;91.8125;132;75;0.67521
8422220;0.03500;91.1875;132;75;0.66593
8422230;0.05500;90.6250;132;75;0.65543
8422240;0.07000;90.0625;132;75;0.64371
8422250;0.05500;89.0000;132;75;0.61783
8422260;0.00500;88.5000;132;75;0.60537
8422270;-0.02000;88.0000;132;75;0.59365
8422280;-0.05000;87.0000;132;75;0.56996
8422290;-0.07000;86.5625;132;75;0.55897
8422300;-0.09500;86.1250;132;75;0.54872
8422310;-0.10500;85.6875;132;75;0.53944
8422320;-0.10500;85.3125;132;75;0.53114
8422330;-0.09500;84.5625;132;75;0.51697
8422340;-0.08000;84.1875;132;75;0.51062
8422350;-0.07500;83.8750;132;75;0.50501
8422360;-0.01500;83.5625;132;75;0.50012
8422370;0.32000;82.9375;132;75;0.49084
8422380;0.97500;82.6875;132;75;0.48620
8422390;0.97000;82.4375;132;75;0.48156
8422400;0.14000;81.9375;132;75;0.47204
8422410;-0.22000;81.6875;132;75;0.46691
8422420;-0.21500;81.5000;132;75;0.46154
8422430;-0.16500;81.2500;132;75;0.45617
8422440;-0.15500;80.7500;132;75;0.44542
8422450;-0.15500;80.5000;132;75;0.44005
8422460;-0.15500;80.1875;132;75;0.43516
8422470;-0.15000;79.8750;132;75;0.43053
8422480;-0.15000;79.8750;132;75;0.43053
8422490;-0.11500;121.1250;132;75;0.28645
8422500;-0.11500;121.1250;132;75;0.28645
8422510;-0.11500;121.1250;132;75;0.28645
8422520;-0.11500;121.1250;132;75;0.28645
8422530;-0.11500;121.1250;132;75;0.28645
8422540;-0.11500;121.1250;132;75;0.28645
8422550;-0.11500;121.1250;132;75;0.28645
8422560;-0.11500;121.1250;132;75;0.28645
8422570;-0.11500;121.1250;132;75;0.28645
8422580;-0.11500;121.1250;132;75;0.28645
8422590;-0.11500;121.1250;132;75;0.28645
8422600;-0.07500;96.0000;132;75;0.47595
8422610;-0.07500;96.0000;132;75;0.47595
8422620;-0.07500;96.0000;132;75;0.47595
8422630;-0.07500;96.0000;132;75;0.47595
8422640;-0.07500;96.0000;132;75;0.47595
8422650;-0.07500;96.0000;132;75;0.47595
8422660;-0.07500;96.0000;132;75;0.47595
8422670;-0.07500;96.0000;132;75;0.47595
8422680;-0.07500;96.0000;132;75;0.47595
8422690;-0.07500;96.0000;132;75;0.47595
8422700;-0.07500;96.0000;132;75;0.47595
8422710;-0.07500;96.0000;132;75;0.47595
8422720;-0.07500;96.0000;132;75;0.47595
8422730;-0.07500;96.0000;132;75;0.47595
8422740;-0.07500;96.0000;132;75;0.47595
8422750;-0.07500;96.0000;132;75;0.47595
8422760;-0.07500;96.0000;132;75;0.47595
8422770;-0.07500;96.0000;132;75;0.47595
8422780;-0.07500;96.0000;132;75;0.47595
8422790;-0.07500;96.0000;132;75;0.47595
8422800;-0.07500;96.0000;132;75;0.47595
8422810;-0.07500;96.0000;132;75;0.47595
8422820;-0.07500;96.0000;132;75;0.47595
8422830;-0.07500;96.0000;132;75;0.47595
8422840;-0.07500;96.0000;132;75;0.47595
8422850;-0.07500;96.0000;132;75;0.47595
8422860;-0.07500;96.0000;132;75;0.47595
8422870;-0.07500;96.0000;132;75;0.47595
8422880;-0.07500;96.0000;132;75;0.47595
8422890;-0.07500;96.0000;132;75;0.47595
8422900;-0.07500;96.0000;132;75;0.47595
8422910;-0.07500;96.0000;132;75;0.47595
8422920;-0.07500;96.0000;132;75;0.47595
8422930;-0.07500;96.0000;132;75;0.47595
8422940;-0.07500;96.0000;132;75;0.47595
8422950;-0.07500;96.0000;132;75;0.47595
8422960;-0.07500;95.5000;132;75;0.51258
8422970;-0.07500;95.3750;132;75;0.52967
8422980;-0.07500;95.2500;132;75;0.54579
8422990;-0.08000;95.1875;132;75;0.56020
8423000;-0.08000;95.0625;132;75;0.57241
8423010;-0.08000;94.6875;132;75;0.59023
8423020;-0.08000;94.3750;132;75;0.59634
8423030;-0.08500;94.0625;132;75;0.60049
8423040;-0.08500;93.6875;132;75;0.60317
8423050;-0.08000;92.8125;132;75;0.60415
8423060;-0.06500;92.3750;132;75;0.60220
8423070;-0.05000;91.8750;132;75;0.59902
8423080;-0.01500;91.3750;132;75;0.59512
8423090;0.00000;90.3125;132;75;0.58364
8423100;0.00500;89.8125;132;75;0.57607
8423110;0.01000;89.3125;132;75;0.56728
8423120;0.03500;88.3125;132;75;0.55678
8423130;0.03000;87.8125;132;75;0.53236
8423140;0.00000;87.3125;132;75;0.51844
8423150;-0.04500;86.8125;132;75;0.50403
8423160;-0.07000;85.8750;132;75;0.47912
8423170;-0.09000;85.4375;132;75;0.46642
8423180;-0.11500;85.0000;132;75;0.45372
8423190;-0.13500;84.5625;132;75;0.44176
8423200;-0.13500;84.1875;132;75;0.43053
8423210;-0.13500;83.4375;132;75;0.41123
8423220;-0.13500;83.0625;132;75;0.40342
8423230;-0.13000;82.7500;132;75;0.39658
8423240;-0.11000;82.1250;132;75;0.39072
8423250;0.15000;81.8750;132;75;0.38120
8423260;0.54000;81.6250;132;75;0.37753
8423270;0.90000;81.4375;132;75;0.37460
8423280;0.52500;81.1875;132;75;0.37143
8423290;-0.14500;80.7500;132;75;0.36459
8423300;-0.28500;80.5625;132;75;0.36117
8423310;-0.22000;80.3125;132;75;0.35775
8423320;-0.18500;80.1250;132;75;0.35433
8423330;-0.17500;79.6875;132;75;0.34628
8423340;-0.17000;79.5000;132;75;0.34188
8423350;-0.17000;79.2500;132;75;0.33748
8423360;-0.17000;78.9375;132;75;0.33407
8423370;-0.16500;78.3125;132;75;0.32772
8423380;-0.16000;78.0625;132;75;0.32405
8423390;-0.15500;77.7500;132;75;0.32015
8423400;-0.14500;77.0625;132;75;0.31184
8423410;-0.14500;76.7500;132;75;0.30769
8423420;-0.14000;76.4375;132;75;0.30354
8423430;-0.13500;76.1250;132;75;0.29963
8423440;-0.12500;75.8125;132;75;0.28742
8423450;-0.11500;75.2500;132;75;0.26081
8423460;-0.10500;75.0000;132;75;0.25470
8423470;-0.09000;74.8125;132;75;0.25055
8423480;-0.07500;74.7500;132;75;0.24664
8423490;-0.06000;75.5625;132;75;0.23883
8423500;-0.04000;76.8750;132;75;0.23492
8423510;-0.02500;78.8750;132;75;0.23126
8423520;-0.00500;81.6875;132;75;0.22808
8423530;0.01500;89.1250;132;75;0.22247
8423540;0.03500;93.5000;132;75;0.22002
8423550;0.06000;98.0000;132;75;0.21758
8423560;0.09000;106.8750;132;75;0.21612
8423570;0.12500;110.9375;132;75;0.21416
8423580;0.15000;114.5625;132;75;0.21294
8423590;0.18000;117.6875;132;75;0.21197
8423600;0.22000;122.3125;132;75;0.21099
8423610;0.23500;123.8750;132;75;0.21074
8423620;0.23500;124.9375;132;75;0.21026
8423630;0.21500;125.6875;132;75;0.20952
8423640;0.16500;126.0625;132;75;0.20879
8423650;0.09000;126.0000;132;75;0.20781
8423660;0.04000;125.6875;132;75;0.20830
8423670;-0.01000;125.1875;132;75;0.20830
8423680;-0.06500;123.5625;132;75;0.20830
8423690;-0.08500;122.5000;132;75;0.20830
8423700;-0.10500;121.3125;132;75;0.20830
8423710;-0.11500;119.8750;132;75;0.20855
8423720;-0.11500;118.3125;132;75;0.20879
8423730;-0.11500;114.5000;132;75;0.20977
8423740;-0.12500;112.3750;132;75;0.21148
8423750;-0.12500;110.0625;132;75;0.21441
8423760;-0.12500;107.6250;132;75;0.21905
8423770;-0.12000;102.6250;132;75;0.23639
8423780;-0.12000;100.4375;132;75;0.25079
8423790;-0.11500;98.5625;132;75;0.26935
8423800;-0.11500;98.5625;132;75;0.26935
8423810;-0.11500;94.9375;132;75;0.34579
8423820;-0.10500;94.3125;132;75;0.37558
8423830;-0.10500;93.8750;132;75;0.40586
8423840;-0.10000;93.5625;132;75;0.43565
8423850;-0.09500;93.3750;132;75;0.48718
8423860;-0.09500;93.3750;132;75;0.50672
8423870;-0.09500;93.3125;132;75;0.52625
8423880;-0.09500;93.1250;132;75;0.54481
8423890;-0.09500;92.9375;132;75;0.57558
8423900;-0.10000;92.7500;132;75;0.58706
8423910;-0.10500;92.4375;132;75;0.59585
8423920;-0.10500;91.6875;132;75;0.60684
8423930;-0.10500;91.3125;132;75;0.60928
8423940;-0.10500;90.8750;132;75;0.60977
8423950;-0.10500;90.3750;132;75;0.60830
8423960;-0.09000;89.8750;132;75;0.60488
8423970;-0.06500;88.8750;132;75;0.59463
8423980;-0.03000;88.3750;132;75;0.58730
8423990;-0.02000;87.8750;132;75;0.57827
8424000;-0.02000;86.9375;131;75;0.56777
8424010;0.00000;86.4375;131;75;0.54237
8424020;0.02000;86.0000;131;75;0.52772
8424030;0.02000;85.5625;131;75;0.51209
8424040;-0.03000;84.6250;131;75;0.48034
8424050;-0.05500;84.1875;131;75;0.46642
8424060;-0.08000;83.8125;131;75;0.45372
8424070;-0.11000;83.3750;131;75;0.44078
8424080;-0.13000;83.0625;131;75;0.42833
8424090;-0.14000;82.3750;131;75;0.40733
8424100;-0.14500;82.0000;131;75;0.39902
8424110;-0.14000;81.6875;131;75;0.39219
8424120;-0.13000;81.3750;131;75;0.38632
8424130;-0.12500;80.8125;131;75;0.37705
8424140;-0.08000;80.5625;131;75;0.37314
8424150;0.18500;80.3125;131;75;0.36923
8424160;0.79000;79.8750;131;75;0.36313
8424170;0.90000;79.6875;131;75;0.35971
8424180;0.34000;79.5000;131;75;0.35604
8424190;-0.26000;79.3125;131;75;0.35189
8424200;-0.26500;79.1250;131;75;0.34774
8424210;-0.17000;78.7500;131;75;0.33895
8424220;-0.14000;78.5625;131;75;0.33431
8424230;-0.14500;78.3750;131;75;0.32967
8424240;-0.14500;78.1875;131;75;0.32527
8424250;-0.15000;77.6875;131;75;0.31746
8424260;-0.14500;77.3750;131;75;0.31429
8424270;-0.14500;77.0625;131;75;0.31062
8424280;-0.13500;76.8125;131;75;0.30696
8424290;-0.13500;76.1250;131;75;0.29841
8424300;-0.13500;75.8125;131;75;0.29402
8424310;-0.12500;75.5000;131;75;0.28962
8424320;-0.12500;74.9375;131;75;0.28107
8424330;-0.11500;74.6250;131;75;0.27692
8424340;-0.10500;74.3125;131;75;0.27302
8424350;-0.09500;74.0625;131;75;0.26911
8424360;-0.08000;73.8125;131;75;0.26618
8424370;-0.07000;73.6250;131;75;0.26032
8424380;-0.05500;73.9375;131;75;0.25690
8424390;-0.04500;74.6875;131;75;0.25348
8424400;-0.02500;76.1875;131;75;0.25055
8424410;-0.00500;81.5000;131;75;0.24542
8424420;0.01000;85.1875;131;75;0.24322
8424430;0.04000;89.3750;131;75;0.24078
8424440;0.05500;93.8750;131;75;0.23858
8424450;0.08500;103.1875;131;75;0.23516
8424460;0.11000;107.6250;131;75;0.23443
8424470;0.14000;111.7500;131;75;0.23321
8424480;0.17000;118.6250;131;75;0.23053
8424490;0.19500;121.1875;131;75;0.22906
8424500;0.22000;123.1875;131;75;0.22759
8424510;0.24000;124.7500;131;75;0.22637
8424520;0.23500;125.8750;131;75;0.22564
8424530;0.21000;127.0000;131;75;0.22442
8424540;0.15500;127.1250;131;75;0.22393
8424550;0.09000;127.0625;131;75;0.22344
8424560;0.01500;126.2500;131;75;0.22418
8424570;-0.02500;125.5625;131;75;0.22418
8424580;-0.06500;124.6875;131;75;0.22418
8424590;-0.09500;123.6875;131;75;0.22393
8424600;-0.11000;122.5000;131;75;0.22369
8424610;-0.12000;119.6250;131;75;0.22295
8424620;-0.12500;117.8750;131;75;0.22320
8424630;-0.12500;115.9375;131;75;0.22369
8424640;-0.12500;113.8125;131;75;0.22515
8424650;-0.12500;109.1875;131;75;0.23321
8424660;-0.12500;106.6875;131;75;0.24054
8424670;-0.12500;104.2500;131;75;0.25128
8424680;-0.11500;100.0000;131;75;0.28547
8424690;-0.11500;98.3750;131;75;0.30891
8424700;-0.11500;97.0625;131;75;0.33578
8424710;-0.10500;96.0000;131;75;0.36532
8424720;-0.10500;95.2500;131;75;0.39683
8424730;-0.10500;94.3125;131;75;0.45958
8424740;-0.10000;94.1250;131;75;0.48913
8424750;-0.10000;94.0000;131;75;0.51648
8424760;-0.10000;93.8750;131;75;0.55531
8424770;-0.10000;93.8125;131;75;0.57241
8424780;-0.10500;93.6875;131;75;0.58803
8424790;-0.10500;93.5000;131;75;0.60195
8424800;-0.10500;93.5000;131;75;0.60195
8424810;-0.10500;92.5625;131;75;0.63053
8424820;-0.10500;92.1875;131;75;0.63565
8424830;-0.10500;91.7500;131;75;0.63883
8424840;-0.10000;90.8750;131;75;0.63932
8424850;-0.10000;90.3750;131;75;0.63663
8424860;-0.09000;89.8750;131;75;0.63223
8424870;-0.05500;89.3750;131;75;0.62686
8424880;-0.03000;88.8750;131;75;0.62027
8424890;-0.01500;87.8750;131;75;0.60147
8424900;-0.01000;87.3750;131;75;0.58974
8424910;0.01000;86.8750;131;75;0.57631
8424920;0.03000;86.3750;131;75;0.56166
8424930;0.03000;85.4375;131;75;0.52943
8424940;-0.01500;85.0000;131;75;0.51331
8424950;-0.04000;84.5625;131;75;0.49744
8424960;-0.05500;84.1875;131;75;0.48376
8424970;-0.07500;83.3750;131;75;0.45934
8424980;-0.08500;82.9375;131;75;0.44786
8424990;-0.10000;82.6250;131;75;0.43736
8425000;-0.11000;81.9375;130;73;0.42002
8425010;-0.11500;81.6250;130;73;0.41294
8425020;-0.11000;81.3125;130;73;0.40708
8425030;-0.10500;81.0625;130;73;0.40195
8425040;-0.05500;80.5625;130;73;0.39341
8425050;0.14500;80.3125;130;73;0.38974
8425060;0.64000;80.1250;130;73;0.38608
8425070;0.90500;79.9375;130;73;0.38193
8425080;0.47500;79.7500;130;73;0.37729
8425090;-0.17000;79.3750;130;73;0.36728
8425100;-0.25500;79.1875;130;73;0.36190
8425110;-0.19500;78.9375;130;73;0.35678
8425120;-0.17000;78.7500;130;73;0.35165
8425130;-0.16500;78.3750;130;73;0.34237
8425140;-0.15500;78.1250;130;73;0.33822
8425150;-0.15500;77.8750;130;73;0.33382
8425160;-0.14500;77.5625;130;73;0.33016
8425170;-0.13500;77.0000;130;73;0.32332
8425180;-0.13000;76.7500;130;73;0.31917
8425190;-0.12500;76.4375;130;73;0.31477
8425200;-0.12000;75.7500;130;73;0.30549
8425210;-0.11500;75.4375;130;73;0.30061
8425220;-0.11000;75.1250;130;73;0.29597
8425230;-0.10500;74.8125;130;73;0.29133
8425240;-0.09500;74.5625;130;73;0.28694
8425250;-0.08500;74.0625;130;73;0.27937
8425260;-0.07500;73.8750;130;73;0.27692
8425270;-0.06000;73.7500;130;73;0.27375
8425280;-0.04500;74.4375;130;73;0.27009
8425290;-0.03000;75.6250;130;73;0.26300
8425300;-0.01500;77.5625;130;73;0.26007
8425310;0.00000;80.2500;130;73;0.25714
8425320;0.01500;87.8125;130;73;0.25446
8425330;0.04000;92.3125;130;73;0.24933
8425340;0.06000;97.0000;130;73;0.24713
8425350;0.09000;101.7500;130;73;0.24518
8425360;0.11500;106.3750;130;73;0.24396
8425370;0.14500;114.7500;130;73;0.24249
8425380;0.18000;118.2500;130;73;0.24151
8425390;0.20500;121.1250;130;73;0.24054
8425400;0.23500;123.5000;130;73;0.23956
8425410;0.25500;126.6875;130;73;0.23810
8425420;0.25000;127.6875;130;73;0.23712
8425430;0.22500;128.3125;130;73;0.23639
8425440;0.17500;128.8125;130;73;0.23590
8425450;0.09500;128.6875;130;73;0.23492
8425460;0.04000;128.4375;130;73;0.23541
8425470;-0.00500;128.0000;130;73;0.23541
8425480;-0.05000;126.5000;130;73;0.24689
8425490;-0.07000;125.5000;130;73;0.26447
8425500;-0.09000;124.3125;130;73;0.27253
8425510;-0.10500;122.9375;130;73;0.27619
8425520;-0.11000;121.4375;130;73;0.27790
8425530;-0.11500;117.8750;130;73;0.28034
8425540;-0.12000;115.7500;130;73;0.28303
8425550;-0.12000;113.5000;130;73;0.28767
8425560;-0.12000;111.0625;130;73;0.29475
8425570;-0.11500;105.8750;130;73;0.32112
8425580;-0.11500;103.4375;130;73;0.34164
8425590;-0.11000;101.3125;130;73;0.36728
8425600;-0.10500;99.5625;130;73;0.39731
8425610;-0.10000;97.1250;130;73;0.46642
8425620;-0.09500;96.3125;130;73;0.50305
8425630;-0.09500;95.6875;130;73;0.53944
8425640;-0.08500;95.3125;130;73;0.57436
8425650;-0.08000;95.0000;130;73;0.63297
8425660;-0.08000;94.9375;130;73;0.65421
8425670;-0.08000;94.8750;130;73;0.67570
8425680;-0.08500;94.7500;130;73;0.69548
8425690;-0.08500;94.3750;130;73;0.72698
8425700;-0.08500;94.1250;130;73;0.73919
8425710;-0.08500;93.8125;130;73;0.74921
8425720;-0.08500;93.0625;130;73;0.76239
8425730;-0.08500;92.5625;130;73;0.76557
8425740;-0.08500;92.1250;130;73;0.76654
8425750;-0.08500;91.6250;130;73;0.76532
8425760;-0.09000;91.1250;130;73;0.76190
8425770;-0.09000;90.1250;130;73;0.75140
8425780;-0.07500;89.6250;130;73;0.74359
8425790;-0.05500;89.1250;130;73;0.73382
8425800;-0.02500;88.1250;130;73;0.72210
8425810;0.00000;87.6250;130;73;0.69231
8425820;0.00000;87.1250;130;73;0.67497
8425830;0.01000;86.6250;130;73;0.65641
8425840;0.03500;85.6875;130;73;0.61856
8425850;0.04000;85.2500;130;73;0.60171
8425860;0.01000;84.8125;130;73;0.58608
8425870;-0.03000;84.3750;130;73;0.57045
8425880;-0.06000;83.6250;130;73;0.54164
8425890;-0.07500;83.2500;130;73;0.52943
8425900;-0.10500;82.8750;130;73;0.51868
8425910;-0.12500;82.5625;130;73;0.50965
8425920;-0.12500;82.1875;130;73;0.50159
8425930;-0.12000;81.6250;130;73;0.48816
8425940;-0.11000;81.3125;130;73;0.48230
8425950;-0.11000;81.0625;130;73;0.47741
8425960;-0.09000;80.8125;130;73;0.47302
8425970;0.10000;80.4375;130;73;0.46300
8425980;0.70000;80.1875;130;73;0.45788
8425990;0.98000;79.9375;130;73;0.45275
8426000;0.56500;79.7500;131;74;0.44737
8426010;-0.18000;79.3750;131;74;0.43614
8426020;-0.27500;79.1875;131;74;0.43053
8426030;-0.21000;79.0000;131;74;0.42515
8426040;-0.18000;78.5625;131;74;0.41416
8426050;-0.17000;78.3125;131;74;0.40952
8426060;-0.17000;78.1250;131;74;0.40513
8426070;-0.16000;77.8750;131;74;0.40024
8426080;-0.16000;77.6250;131;74;0.39487
8426090;-0.15500;77.1250;131;74;0.38339
8426100;-0.15500;76.8125;131;74;0.37729
8426110;-0.14500;76.5000;131;74;0.37143
8426120;-0.14500;75.8750;131;74;0.35995
8426130;-0.13500;75.5625;131;74;0.35433
8426140;-0.13000;75.3125;131;74;0.34921
8426150;-0.11500;75.0000;131;74;0.34505
8426160;-0.11000;74.7500;131;74;0.34164
8426170;-0.09500;74.3750;131;74;0.33358
8426180;-0.08000;74.1875;131;74;0.32967
8426190;-0.06500;74.1875;131;74;0.32576
8426200;-0.05500;74.3750;131;74;0.32186
8426210;-0.04500;76.3125;131;74;0.31429
8426220;-0.03500;78.4375;131;74;0.31062
8426230;-0.01500;81.3750;131;74;0.30696
8426240;0.01000;89.2500;131;74;0.30037
8426250;0.03000;93.8750;131;74;0.29841
8426260;0.05000;98.6875;131;74;0.29744
8426270;0.08000;103.5625;131;74;0.29597
8426280;0.10000;108.3125;131;74;0.29451
8426290;0.13000;116.8125;131;74;0.29231
8426300;0.16500;120.3125;131;74;0.29182
8426310;0.18000;123.2500;131;74;0.29158
8426320;0.21500;125.5625;131;74;0.29158
8426330;0.25000;128.8125;131;74;0.29084
8426340;0.24500;129.8125;131;74;0.29035
8426350;0.23000;130.5625;131;74;0.29060
8426360;0.18000;131.1250;131;74;0.29109
8426370;0.13000;131.0625;131;74;0.29084
8426380;0.07000;130.8750;131;74;0.29035
8426390;0.00000;130.5000;131;74;0.29011
8426400;-0.02500;129.9375;131;74;0.28987
8426410;-0.05500;128.3125;131;74;0.28987
8426420;-0.08000;127.2500;131;74;0.28987
8426430;-0.09500;126.0000;131;74;0.28987
8426440;-0.10500;124.6250;131;74;0.29011
8426450;-0.11000;121.1875;131;74;0.29280
8426460;-0.11500;119.1875;131;74;0.29621
8426470;-0.12000;117.0000;131;74;0.30134
8426480;-0.12000;112.0000;131;74;0.32137
8426490;-0.12000;109.3750;131;74;0.33822
8426500;-0.12000;106.8125;131;74;0.36020
8426510;-0.11500;104.5000;131;74;0.38730
8426520;-0.11500;102.5625;131;74;0.41880
8426530;-0.11500;99.7500;131;74;0.49060
8426540;-0.10500;98.8125;131;74;0.52821
8426550;-0.10500;98.1250;131;74;0.56044
8426560;-0.10000;97.3750;131;74;0.58926
8426570;-0.09500;97.1875;131;74;0.64982
8426580;-0.09500;97.1250;131;74;0.67766
8426590;-0.09500;97.0625;131;74;0.70256
8426600;-0.09500;96.9375;131;74;0.74310
8426610;-0.09500;96.7500;131;74;0.75922
8426620;-0.09500;96.4375;131;74;0.77289
8426630;-0.09500;96.1875;131;74;0.78437
8426640;-0.09500;95.4375;131;74;0.79951
8426650;-0.09500;95.0000;131;74;0.80220
8426660;-0.09500;94.5625;131;74;0.80244
8426670;-0.09000;94.0000;131;74;0.80220
8426680;-0.07500;93.5000;131;74;0.80098
8426690;-0.04500;92.5000;131;74;0.79316
8426700;-0.00500;92.0000;131;74;0.78632
8426710;0.00000;91.5000;131;74;0.77778
8426720;-0.00500;90.5000;131;74;0.76728
8426730;0.01000;90.0000;131;74;0.74090
8426740;0.03000;89.5625;131;74;0.72503
8426750;0.01000;89.0625;131;74;0.70891
8426760;-0.02000;88.5625;131;74;0.69280
8426770;-0.05500;87.6875;131;74;0.65617
8426780;-0.08000;87.3125;131;74;0.63761
8426790;-0.11500;86.8750;131;74;0.62002
8426800;-0.13500;86.5000;131;74;0.60342
8426810;-0.14500;85.7500;131;74;0.57534
8426820;-0.14500;85.3750;131;74;0.56410
8426830;-0.13500;85.0625;131;74;0.55433
8426840;-0.13000;84.7500;131;74;0.54603
8426850;-0.12500;84.1250;131;74;0.53309
8426860;-0.02500;83.8750;131;74;0.52821
8426870;0.26500;83.6250;131;74;0.52357
8426880;0.84500;83.4375;131;74;0.51868
8426890;0.89000;82.9375;131;74;0.50867
8426900;0.32500;82.7500;131;74;0.50403
8426910;-0.25000;82.5625;131;74;0.49915
8426920;-0.24000;82.3750;131;74;0.49402
8426930;-0.19000;82.0000;131;74;0.48376
8426940;-0.18500;81.8125;131;74;0.47839
8426950;-0.19000;81.6250;131;74;0.47350
8426960;-0.18500;81.4375;131;74;0.46911
8426970;-0.18000;80.9375;131;74;0.45885
8426980;-0.17500;80.6875;131;74;0.45372
8426990;-0.17000;80.3750;131;74;0.44884
8427000;-0.16000;79.8125;131;74;0.43858
8427010;-0.16000;79.5000;131;74;0.43321
8427020;-0.15500;79.1875;131;74;0.42759
8427030;-0.14500;78.8750;131;74;0.42222
8427040;-0.13500;78.5625;131;74;0.41709
8427050;-0.12000;78.0000;131;74;0.40757
8427060;-0.11000;77.7500;131;74;0.40391
8427070;-0.09500;77.5625;131;74;0.39976
8427080;-0.09000;77.3750;131;74;0.39560
8427090;-0.08500;77.8750;131;74;0.38681
8427100;-0.07000;78.8750;131;74;0.38266
8427110;-0.05500;80.6250;131;74;0.37875
8427120;-0.03500;83.3125;131;74;0.37485
8427130;-0.02500;91.0000;131;74;0.36825
8427140;-0.01500;95.6250;131;74;0.36532
8427150;0.00000;100.5625;131;74;0.36361
8427160;0.03000;105.5625;131;74;0.36239
8427170;0.05500;115.1250;131;74;0.35946
8427180;0.09000;119.3750;131;74;0.35824
8427190;0.11000;123.0625;131;74;0.35726
8427200;0.14000;126.2500;131;74;0.35653
8427210;0.17000;130.7500;131;74;0.35604
8427220;0.18500;132.3125;131;74;0.35604
8427230;0.19500;133.4375;131;74;0.35604
8427240;0.18500;134.2500;131;74;0.35580
8427250;0.14500;135.1250;131;74;0.35482
8427260;0.09000;135.2500;131;74;0.35507
8427270;0.02500;135.1875;131;74;0.35458
8427280;-0.04500;134.6250;131;74;0.35287
8427290;-0.07500;134.1250;131;74;0.35189
8427300;-0.10500;133.4375;131;74;0.35092
8427310;-0.13000;132.6250;131;74;0.35043
8427320;-0.14500;131.6875;131;74;0.34994
8427330;-0.16000;129.2500;131;74;0.34994
8427340;-0.16000;127.6875;131;74;0.35043
8427350;-0.16000;126.0000;131;74;0.35214
8427360;-0.16000;124.0625;131;74;0.35580
8427370;-0.15500;119.5000;131;74;0.37143
8427380;-0.15500;116.9375;131;74;0.38535
8427390;-0.15000;114.3750;131;74;0.40440
8427400;-0.14500;109.6250;131;74;0.45690
8427410;-0.14000;107.6250;131;74;0.48913
8427420;-0.13500;105.9375;131;74;0.52430
8427430;-0.12500;104.6250;131;74;0.56093
8427440;-0.12500;102.6875;131;74;0.62784
8427450;-0.11500;102.0625;131;74;0.65421
8427460;-0.11500;101.6250;131;74;0.68230
8427470;-0.11000;101.3125;131;74;0.70940
8427480;-0.11000;101.0625;131;74;0.73407
8427490;-0.11000;100.6250;131;74;0.77582
8427500;-0.10500;100.3750;131;74;0.79292
8427510;-0.10500;100.0625;131;74;0.80757
8427520;-0.10500;99.7500;131;74;0.81978
8427530;-0.10500;99.0625;131;74;0.81392
8427540;-0.10500;98.6250;131;74;0.78437
8427550;-0.10000;98.1250;131;74;0.76923
8427560;-0.09500;97.0625;131;74;0.76068
8427570;-0.09000;96.5000;131;74;0.75263
8427580;-0.09000;96.0000;131;74;0.74921
8427590;-0.08500;95.4375;131;74;0.74505
8427600;-0.08500;94.3125;131;74;0.73944
8427610;-0.08500;93.8125;131;74;0.72357
8427620;-0.08000;93.2500;131;74;0.71306
8427630;-0.05500;92.7500;131;74;0.70085
8427640;-0.02500;92.2500;131;74;0.68718
8427650;0.00000;91.3125;131;74;0.65885
8427660;0.01000;90.8125;131;74;0.64322
8427670;0.02000;90.3750;131;74;0.62711
8427680;0.04000;89.9375;131;74;0.61099
8427690;0.05500;89.0625;131;74;0.58095
8427700;0.03500;88.6875;131;74;0.56728
8427710;-0.00500;88.3125;131;74;0.55482
8427720;-0.03000;87.9375;131;74;0.54359
8427730;-0.06000;87.2500;131;74;0.52527
8427740;-0.08500;86.8750;131;74;0.51770
8427750;-0.10500;86.5625;131;74;0.51136
8427760;-0.10500;86.2500;131;74;0.50574
8427770;-0.10500;85.6250;131;74;0.49499
8427780;-0.10000;85.3750;131;74;0.48962
8427790;-0.10000;85.1250;131;74;0.48449
8427800;-0.09500;84.8750;131;74;0.47937
8427810;0.08000;84.3750;131;74;0.46911
8427820;0.71000;84.1875;131;74;0.46398
8427830;1.08000;84.0000;131;74;0.45836
8427840;0.63000;83.5625;131;74;0.44737
8427850;0.03000;83.3750;131;74;0.44249
8427860;-0.24000;83.2500;131;74;0.43736
8427870;-0.18500;83.0625;131;74;0.43199
8427880;-0.17500;82.8750;131;74;0.42686
8427890;-0.17500;82.5000;131;74;0.41661
8427900;-0.17000;82.2500;131;74;0.41172
8427910;-0.17000;82.0000;131;74;0.40708
8427920;-0.17000;81.4375;131;74;0.39805
8427930;-0.16500;81.1250;131;74;0.39316
8427940;-0.16000;80.8125;131;74;0.38852
8427950;-0.15500;80.5000;131;74;0.38486
8427960;-0.15000;79.8750;131;74;0.38120
8427970;-0.14500;79.5000;131;74;0.37314
8427980;-0.13500;79.1875;131;74;0.36947
8427990;-0.12500;78.8750;131;74;0.36581
8428000;-0.11000;78.6250;130;74;0.36239
8428010;-0.09500;78.1875;130;74;0.35629
8428020;-0.08500;78.1250;130;74;0.35336
8428030;-0.08000;78.3125;130;74;0.35067
8428040;-0.07000;79.0000;130;74;0.34847
8428050;-0.05500;82.8125;130;74;0.34554
8428060;-0.04500;86.0625;130;74;0.34383
8428070;-0.02000;90.0625;130;74;0.34237
8428080;-0.00500;94.6875;130;74;0.34139
8428090;0.01500;104.7500;130;74;0.33993
8428100;0.04000;109.8125;130;74;0.33944
8428110;0.06000;114.6875;130;74;0.33895
8428120;0.09000;119.1250;130;74;0.33846
8428130;0.12500;126.4375;130;74;0.33822
8428140;0.15000;129.2500;130;74;0.33846
8428150;0.18000;131.4375;130;74;0.33919
8428160;0.21000;134.3750;130;74;0.34017
8428170;0.22000;135.2500;130;74;0.34042
8428180;0.22500;135.8750;130;74;0.34066
8428190;0.20000;136.2500;130;74;0.34066
8428200;0.15000;136.3750;130;74;0.34017
8428210;0.10500;136.2500;130;74;0.33968
8428220;0.03500;135.9375;130;74;0.33919
8428230;-0.00500;135.5000;130;74;0.33871
8428240;-0.04500;134.9375;130;74;0.33822
8428250;-0.07500;133.3750;130;74;0.33822
8428260;-0.09000;132.3750;130;74;0.33797
8428270;-0.10500;131.1875;130;74;0.33748
8428280;-0.12000;128.2500;130;74;0.33700
8428290;-0.12500;126.4375;130;74;0.33797
8428300;-0.12500;124.4375;130;74;0.34139
8428310;-0.12500;122.2500;130;74;0.34823
8428320;-0.11500;117.0625;130;74;0.35897
8428330;-0.10500;114.1250;130;74;0.39438
8428340;-0.10500;111.1875;130;74;0.41880
8428350;-0.09500;108.3125;130;74;0.44249
8428360;-0.09000;105.7500;130;74;0.46642
8428370;-0.08500;101.9375;130;74;0.52576
8428380;-0.08000;100.6875;130;74;0.55678
8428390;-0.07500;99.6875;130;74;0.58657
8428400;-0.07500;99.0000;130;74;0.61441
8428410;-0.07000;98.3750;130;74;0.66227
8428420;-0.06500;98.2500;130;74;0.68205
8428430;-0.06500;98.1875;130;74;0.69939
8428440;-0.06500;98.1875;130;74;0.71404
8428450;-0.06000;98.0000;130;74;0.73089
8428460;-0.06000;97.8125;130;74;0.73773
8428470;-0.06000;97.5000;130;74;0.74359
8428480;-0.06500;96.6875;130;74;0.75092
8428490;-0.06000;96.2500;130;74;0.75214
8428500;-0.05500;95.7500;130;74;0.75189
8428510;-0.05500;95.2500;130;74;0.75018
8428520;-0.05000;94.1250;130;74;0.74237
8428530;-0.03500;93.5000;130;74;0.73602
8428540;-0.00500;92.9375;130;74;0.72772
8428550;0.01000;92.3125;130;74;0.71795
8428560;0.02000;91.7500;130;74;0.70696
8428570;0.02500;90.5625;130;74;0.67937
8428580;0.06000;90.0000;130;74;0.66276
8428590;0.08500;89.4375;130;74;0.64444
8428600;0.07500;88.9375;130;74;0.62491
8428610;0.03000;87.8750;130;74;0.58413
8428620;0.01000;87.3125;130;74;0.56410
8428630;-0.01500;86.8750;130;74;0.54481
8428640;-0.07000;85.9375;130;74;0.51111
8428650;-0.09000;85.5000;130;74;0.49768
8428660;-0.10000;85.1250;130;74;0.48474
8428670;-0.10500;84.7500;130;74;0.47253
8428680;-0.10500;84.3750;130;74;0.46154
8428690;-0.10000;83.6875;130;74;0.44274
8428700;-0.09500;83.3750;130;74;0.43492
8428710;-0.05000;83.1250;130;74;0.42808
8428720;0.15500;82.8750;130;74;0.42149
8428730;0.66000;82.3125;130;74;0.40952
8428740;0.91500;82.0625;130;74;0.40391
8428750;0.47500;81.8750;130;74;0.39902
8428760;-0.16000;81.5000;130;74;0.39414
8428770;-0.23500;81.2500;130;74;0.38242
8428780;-0.18000;81.0625;130;74;0.37582
8428790;-0.16000;80.8125;130;74;0.36899
8428800;-0.16000;80.8125;130;74;0.36899
8428810;-0.15500;80.0625;130;74;0.34823
8428820;-0.15000;79.7500;130;74;0.34139
8428830;-0.14500;79.4375;130;74;0.33455
8428840;-0.14000;78.8125;130;74;0.32186
8428850;-0.13500;78.5000;130;74;0.31673
8428860;-0.13500;78.1250;130;74;0.31087
8428870;-0.12500;77.8125;130;74;0.30476
8428880;-0.12500;77.0625;130;74;0.29280
8428890;-0.11500;76.6875;130;74;0.28694
8428900;-0.11500;76.3750;130;74;0.28132
8428910;-0.10000;76.1250;130;74;0.27595
8428920;-0.09500;75.8125;130;74;0.27057
8428930;-0.08000;75.3750;130;74;0.26032
8428940;-0.07000;75.2500;130;74;0.25543
8428950;-0.05500;75.3750;130;74;0.25226
8428960;-0.04000;75.9375;130;74;0.24982
8428970;-0.02500;78.9375;130;74;0.24298
8428980;-0.00500;81.5625;130;74;0.23956
8428990;0.01000;85.0000;130;74;0.23639
8429000;0.03000;93.3750;130;74;0.23321
8429010;0.05000;98.0000;130;74;0.22711
8429020;0.07500;102.6250;130;74;0.22466
8429030;0.10000;107.1875;130;74;0.22247
8429040;0.13500;115.4375;130;74;0.22002
8429050;0.16500;118.8125;130;74;0.22002
8429060;0.19500;121.6250;130;74;0.21978
8429070;0.22500;123.9375;130;74;0.21929
8429080;0.24500;126.9375;130;74;0.21832
8429090;0.24000;127.8750;130;74;0.21783
8429100;0.20500;128.4375;130;74;0.21734
8429110;0.16500;128.7500;130;74;0.21685
8429120;0.11000;128.5625;130;74;0.21612
8429130;0.03500;128.1875;130;74;0.21490
8429140;0.00000;127.6250;130;74;0.21514
8429150;-0.04000;126.9375;130;74;0.21587
8429160;-0.07500;125.0000;130;74;0.21587
8429170;-0.08500;123.7500;130;74;0.21563
8429180;-0.10000;122.3125;130;74;0.21563
8429190;-0.10500;120.6875;130;74;0.21563
8429200;-0.11000;116.8125;130;74;0.21587
8429210;-0.11500;114.6250;130;74;0.21856
8429220;-0.11500;112.1875;130;74;0.22198
8429230;-0.11500;109.5625;130;74;0.22808
8429240;-0.11500;104.2500;130;74;0.24860
8429250;-0.10500;101.8750;130;74;0.26276
8429260;-0.10500;99.8750;130;74;0.28230
8429270;-0.10000;98.2500;130;74;0.30623
8429280;-0.09500;97.0000;130;74;0.33358
8429290;-0.09000;95.3750;130;74;0.39438
8429300;-0.08500;94.9375;130;74;0.42540
8429310;-0.08500;94.6875;130;74;0.45543
8429320;-0.08000;94.5625;130;74;0.48352
8429330;-0.08000;94.5625;130;74;0.53236
8429340;-0.08000;94.5625;130;74;0.55018
8429350;-0.08500;94.5000;130;74;0.56410
8429360;-0.08000;94.3750;130;74;0.57778
8429370;-0.08000;93.9375;130;74;0.60049
8429380;-0.08500;93.6250;130;74;0.60879
8429390;-0.08500;93.2500;130;74;0.61514
8429400;-0.08500;92.8125;130;74;0.61954
8429410;-0.08500;91.8750;130;74;0.62222
8429420;-0.08500;91.3750;130;74;0.62051
8429430;-0.08000;90.9375;130;74;0.61709
8429440;-0.05500;89.9375;130;74;0.60586
8429450;-0.03500;89.3750;130;74;0.59829
8429460;0.00000;88.8750;130;74;0.58901
8429470;0.04000;88.3750;130;74;0.57802
8429480;0.05000;87.8750;130;74;0.56532
8429490;0.06500;86.8750;130;74;0.53553
8429500;0.07500;86.3750;130;74;0.51917
8429510;0.04000;85.9375;130;74;0.50256
8429520;0.00000;85.5000;130;74;0.48571
8429530;-0.02500;84.6250;130;74;0.45397
8429540;-0.07500;84.2500;130;74;0.44103
8429550;-0.11000;83.4375;130;74;0.41905
8429560;-0.11500;83.4375;130;74;0.41905
8429570;-0.11500;82.7500;130;74;0.40000
8429580;-0.11500;82.4375;130;74;0.39780
8429590;-0.11000;82.1250;130;74;0.39976
8429600;-0.10500;81.5000;130;74;0.39536
8429610;-0.09500;81.2500;130;74;0.39219
8429620;-0.00500;81.0000;130;74;0.38901
8429630;0.48500;80.8125;130;74;0.38584
8429640;0.87500;80.6250;130;74;0.38266
8429650;0.75500;80.2500;130;74;0.37778
8429660;0.08000;80.0625;130;74;0.37460
8429670;-0.27500;79.8750;130;74;0.37143
8429680;-0.22000;79.6875;130;74;0.36801
8429690;-0.17500;79.2500;130;74;0.35971
8429700;-0.16000;79.0625;130;74;0.35531
8429710;-0.16000;78.8750;130;74;0.35092
8429720;-0.16000;78.6250;130;74;0.34652
8429730;-0.15500;78.0625;130;74;0.33797
8429740;-0.15500;77.7500;130;74;0.33480
8429750;-0.14500;77.5000;130;74;0.33187
8429760;-0.14000;77.1875;130;74;0.32845
8429770;-0.13500;76.5000;130;74;0.32088
8429780;-0.13000;76.1875;130;74;0.31673
8429790;-0.12500;75.8125;130;74;0.31258
8429800;-0.12500;75.8125;130;74;0.31258
8429810;-0.09500;74.9375;130;74;0.30037
8429820;-0.08500;74.6875;130;74;0.29646
8429830;-0.08000;74.4375;130;74;0.29255
8429840;-0.06500;74.0625;130;74;0.28620
8429850;-0.05500;74.1875;130;74;0.28425
8429860;-0.04000;74.6250;130;74;0.28156
8429870;-0.02500;75.6250;130;74;0.27863
8429880;-0.01000;77.3125;130;74;0.27570
8429890;0.01000;83.0000;130;74;0.27057
8429900;0.03000;86.8125;130;74;0.26862
8429910;0.05000;91.0625;130;74;0.26667
8429920;0.08000;95.5625;130;74;0.26471
8429930;0.11000;104.7500;130;74;0.26154
8429940;0.13000;109.0625;130;74;0.26105
8429950;0.15500;113.0000;130;74;0.26129
8429960;0.19000;119.3750;130;74;0.26081
