RelativeTimeMilliseconds;ECG;ART;ART (Sys);ART (Dia);PPG
9600000;0.53000;74.1875;118;70;0.34994
9600010;0.91000;73.9375;118;70;0.34481
9600020;0.64500;73.7500;118;70;0.33993
9600030;0.07500;73.5625;118;70;0.33578
9600040;-0.25000;73.3750;118;70;0.33211
9600050;-0.18000;73.0000;118;70;0.32283
9600060;-0.14500;72.8125;118;70;0.31770
9600070;-0.13500;72.6250;118;70;0.31233
9600080;-0.14000;72.1875;118;70;0.30183
9600090;-0.14000;71.9375;118;70;0.29695
9600100;-0.14000;71.6875;118;70;0.29206
9600110;-0.13500;71.4375;118;70;0.28742
9600120;-0.13000;71.1875;118;70;0.28278
9600130;-0.12500;70.6250;118;70;0.27448
9600140;-0.12500;70.3125;118;70;0.27131
9600150;-0.12500;70.0000;118;70;0.26764
9600160;-0.11500;69.3750;118;70;0.25934
9600170;-0.11000;69.1250;118;70;0.25519
9600180;-0.10500;68.8750;118;70;0.25104
9600190;-0.09500;68.6250;118;70;0.24689
9600200;-0.09000;68.3750;118;70;0.24274
9600210;-0.07500;67.9375;118;70;0.23443
9600220;-0.07000;67.8750;118;70;0.23028
9600230;-0.05500;68.0000;118;70;0.22735
9600240;-0.04500;68.5625;118;70;0.22491
9600250;-0.03500;71.5000;118;70;0.21905
9600260;-0.02500;73.9375;118;70;0.21612
9600270;-0.00500;77.0000;118;70;0.21319
9600280;0.01000;84.1875;118;70;0.20806
9600290;0.03000;88.0625;118;70;0.20586
9600300;0.05500;91.8750;118;70;0.20391
9600310;0.07000;95.6250;118;70;0.20195
9600320;0.09500;99.1875;118;70;0.20024
9600330;0.13000;105.1250;118;70;0.19756
9600340;0.14500;107.5000;118;70;0.19756
9600350;0.17500;109.4375;118;70;0.19707
9600360;0.18500;112.0625;118;70;0.19560
9600370;0.18000;112.8750;118;70;0.19463
9600380;0.15500;113.3750;118;70;0.19390
9600390;0.09000;113.6875;118;70;0.19341
9600400;0.03000;113.6250;118;70;0.19267
9600410;-0.01000;113.3125;118;70;0.19243
9600420;-0.05500;112.8125;118;70;0.19219
9600430;-0.09500;112.1250;118;70;0.19292
9600440;-0.11000;111.2500;118;70;0.19414
9600450;-0.12500;108.9375;118;70;0.19487
9600460;-0.13500;107.5625;118;70;0.19487
9600470;-0.13500;106.0000;118;70;0.19487
9600480;-0.13000;104.2500;118;70;0.19463
9600490;-0.12500;100.4375;118;70;0.19438
9600500;-0.12500;98.3750;118;70;0.19512
9600510;-0.12500;96.3125;118;70;0.19731
9600520;-0.12500;94.2500;118;70;0.20171
9600530;-0.12000;90.7500;118;70;0.21856
9600540;-0.11500;89.4375;118;70;0.23101
9600550;-0.11500;88.3750;118;70;0.24786
9600560;-0.10500;86.8125;118;70;0.26911
9600570;-0.10500;86.3125;118;70;0.32283
9600580;-0.10500;85.9375;118;70;0.35336
9600590;-0.10500;85.6250;118;70;0.38486
9600600;-0.10000;85.3750;118;70;0.41636
9600610;-0.10000;85.0000;118;70;0.47546
9600620;-0.10500;84.8125;118;70;0.50183
9600630;-0.10500;84.6250;118;70;0.52259
9600640;-0.10500;84.3750;118;70;0.53944
9600650;-0.10500;83.8125;118;70;0.57192
9600660;-0.10500;83.4375;118;70;0.58535
9600670;-0.10000;83.0625;118;70;0.59658
9600680;-0.09500;82.3125;118;70;0.61172
9600690;-0.09500;81.8750;118;70;0.61612
9600700;-0.08500;81.5000;118;70;0.61856
9600710;-0.06000;81.0625;118;70;0.61905
9600720;-0.03000;80.6250;118;70;0.61734
9600730;-0.00500;79.8125;118;70;0.60879
9600740;-0.00500;79.3750;118;70;0.60244
9600750;0.01500;79.0000;118;70;0.59414
9600760;0.05500;78.6250;118;70;0.58437
9600770;0.07500;77.8750;118;70;0.55995
9600780;0.04000;77.4375;118;70;0.54554
9600790;0.01000;77.0625;118;70;0.52991
9600800;0.01000;77.0625;118;70;0.52991
9600810;-0.06000;76.0625;118;70;0.48059
9600820;-0.10000;75.7500;118;70;0.46520
9600830;-0.12000;75.3750;118;70;0.45201
9600840;-0.12500;74.7500;118;70;0.42906
9600850;-0.12500;74.5000;118;70;0.41856
9600860;-0.12500;74.1875;118;70;0.40904
9600870;-0.11500;73.9375;118;70;0.40073
9600880;-0.10500;73.6875;118;70;0.39341
9600890;-0.03500;73.3125;118;70;0.38071
9600900;0.31000;73.1250;118;70;0.37485
9600910;0.83000;72.9375;118;70;0.36947
9600920;0.86500;72.7500;118;70;0.36410
9600930;0.09500;72.3750;118;70;0.35458
9600940;-0.23000;72.1875;118;70;0.35067
9600950;-0.22000;72.0000;118;70;0.34676
9600960;-0.16000;71.8125;118;70;0.34261
9600970;-0.14500;71.4375;118;70;0.33407
9600980;-0.14000;71.2500;118;70;0.32869
9600990;-0.13500;71.0000;118;70;0.32381
9601000;-0.13500;70.8125;118;70;0.33358
9601010;-0.12500;70.3125;118;70;0.35531
9601020;-0.12000;70.0625;118;70;0.35653
9601030;-0.11500;69.7500;118;70;0.35604
9601040;-0.10500;69.5000;118;70;0.35458
9601050;-0.10500;68.9375;118;70;0.34823
9601060;-0.10000;68.6875;118;70;0.34432
9601070;-0.09500;68.3750;118;70;0.34017
9601080;-0.08500;68.0625;118;70;0.33602
9601090;-0.07500;67.5625;118;70;0.32796
9601100;-0.07000;67.3750;118;70;0.32381
9601110;-0.06500;67.1875;118;70;0.32015
9601120;-0.05500;67.0625;118;70;0.31673
9601130;-0.04500;67.3750;118;70;0.31111
9601140;-0.03500;68.2500;118;70;0.30916
9601150;-0.02500;69.7500;118;70;0.30672
9601160;-0.01500;74.8750;118;70;0.30159
9601170;0.00000;78.1875;118;70;0.29890
9601180;0.01500;81.9375;118;70;0.29646
9601190;0.03500;85.8125;118;70;0.29402
9601200;0.05000;89.7500;118;70;0.29182
9601210;0.07000;97.3750;118;70;0.28816
9601220;0.09000;100.8125;118;70;0.28620
9601230;0.12000;103.8750;118;70;0.28523
9601240;0.14000;106.4375;118;70;0.28474
9601250;0.16500;110.3125;118;70;0.28254
9601260;0.18000;111.6250;118;70;0.28156
9601270;0.17500;112.6250;118;70;0.28059
9601280;0.14000;113.3750;118;70;0.27961
9601290;0.07000;114.1875;118;70;0.27814
9601300;0.02000;114.2500;118;70;0.27741
9601310;-0.03500;114.1250;118;70;0.27692
9601320;-0.08500;113.7500;118;70;0.27668
9601330;-0.13500;112.5000;118;70;0.27692
9601340;-0.15500;111.6250;118;70;0.27766
9601350;-0.17000;110.6250;118;70;0.27766
9601360;-0.17000;108.0625;118;70;0.27692
9601370;-0.17500;106.5000;118;70;0.27668
9601380;-0.17500;104.8125;118;70;0.27643
9601390;-0.17000;103.0000;118;70;0.27643
9601400;-0.16000;98.8750;118;70;0.27790
9601410;-0.15500;96.7500;118;70;0.28083
9601420;-0.15500;94.6875;118;70;0.28620
9601430;-0.14500;92.8125;118;70;0.29377
9601440;-0.13500;91.1875;118;70;0.30379
9601450;-0.12500;88.7500;118;70;0.33700
9601460;-0.11500;87.8750;118;70;0.35995
9601470;-0.10500;87.1875;118;70;0.38632
9601480;-0.10500;86.6250;118;70;0.41514
9601490;-0.09500;85.9375;118;70;0.47643
9601500;-0.08500;85.7500;118;70;0.50672
9601510;-0.07500;85.5625;118;70;0.53553
9601520;-0.07500;85.3125;118;70;0.56215
9601530;-0.07000;84.8750;118;70;0.60122
9601540;-0.07500;84.6250;118;70;0.61905
9601550;-0.07500;84.3125;118;70;0.63565
9601560;-0.08000;84.0000;118;70;0.65031
9601570;-0.08000;83.3125;118;70;0.67350
9601580;-0.08000;82.8750;118;70;0.68156
9601590;-0.07500;82.4375;118;70;0.68767
9601600;-0.06000;81.6250;118;70;0.69377
9601610;-0.03500;81.1875;118;70;0.69377
9601620;-0.00500;80.7500;118;70;0.69182
9601630;0.02500;80.3750;118;70;0.68816
9601640;0.04000;79.5625;118;70;0.67619
9601650;0.06000;79.1250;118;70;0.66813
9601660;0.10000;78.7500;118;70;0.65861
9601670;0.12500;78.3750;118;70;0.64737
9601680;0.10500;78.0000;118;70;0.63443
9601690;0.07000;77.2500;118;70;0.60513
9601700;0.04000;76.8750;118;70;0.58926
9601710;-0.01000;76.5625;118;70;0.57289
9601720;-0.04500;76.1875;118;70;0.55678
9601730;-0.06500;75.5000;118;70;0.53016
9601740;-0.06500;75.1875;118;70;0.51746
9601750;-0.06500;74.8750;118;70;0.50549
9601760;-0.06000;74.3125;118;70;0.49451
9601770;-0.05000;74.0625;118;70;0.47570
9601780;-0.04500;73.8125;118;70;0.46764
9601790;0.00000;73.5625;118;70;0.46056
9601800;0.00000;73.5625;118;70;0.46056
9601810;0.81500;72.9375;118;70;0.44274
9601820;0.98500;72.7500;118;70;0.43761
9601830;0.27000;72.5625;118;70;0.43321
9601840;-0.19500;72.2500;118;70;0.42515
9601850;-0.19500;72.1250;118;70;0.42076
9601860;-0.13000;71.8750;118;70;0.41612
9601870;-0.12500;71.6875;118;70;0.41172
9601880;-0.12500;71.2500;118;70;0.40244
9601890;-0.12500;71.0625;118;70;0.39780
9601900;-0.12500;70.8125;118;70;0.39267
9601910;-0.12000;70.6250;118;70;0.38779
9601920;-0.11500;70.1250;118;70;0.37875
9601930;-0.10500;69.8125;118;70;0.37534
9601940;-0.09500;69.5625;118;70;0.37143
9601950;-0.08500;69.2500;118;70;0.36728
9601960;-0.07500;68.9375;118;70;0.36313
9601970;-0.06500;68.3750;118;70;0.35507
9601980;-0.06500;68.1250;118;70;0.35116
9601990;-0.06000;67.8750;118;70;0.34725
9602000;-0.05000;67.6250;118;70;0.34335
9602010;-0.03500;67.1875;118;70;0.33480
9602020;-0.03500;67.1250;118;70;0.33187
9602030;-0.02500;67.2500;118;70;0.32967
9602040;-0.01500;69.0625;118;70;0.32772
9602050;-0.01500;70.9375;118;70;0.32210
9602060;-0.00500;73.5000;118;70;0.31893
9602070;0.00500;76.6250;118;70;0.31575
9602080;0.01500;80.1875;118;70;0.31282
9602090;0.03000;88.0625;118;70;0.30672
9602100;0.05000;92.0625;118;70;0.30427
9602110;0.06500;95.9375;118;70;0.30183
9602120;0.08500;99.6250;118;70;0.29963
9602130;0.12000;105.9375;118;70;0.29817
9602140;0.14000;108.3750;118;70;0.29719
9602150;0.17500;110.4375;118;70;0.29597
9602160;0.19000;112.0625;118;70;0.29475
9602170;0.18500;114.2500;118;70;0.29255
9602180;0.16500;114.9375;118;70;0.29182
9602190;0.12000;115.4375;118;70;0.29109
9602200;0.05500;115.6250;118;70;0.29060
9602210;-0.01500;115.5625;118;70;0.28987
9602220;-0.05500;115.2500;118;70;0.28962
9602230;-0.09500;114.7500;118;70;0.28987
9602240;-0.12000;113.2500;118;70;0.28962
9602250;-0.13000;112.1875;118;70;0.28913
9602260;-0.13500;110.9375;118;70;0.28840
9602270;-0.14500;109.5625;118;70;0.28791
9602280;-0.14500;107.9375;118;70;0.28767
9602290;-0.14500;104.3125;118;70;0.28742
9602300;-0.14000;102.3125;118;70;0.28791
9602310;-0.14000;100.2500;118;70;0.28987
9602320;-0.13500;95.8750;118;70;0.29915
9602330;-0.13500;93.8750;118;70;0.30696
9602340;-0.12500;92.1250;118;70;0.31868
9602350;-0.12000;90.6875;118;70;0.33504
9602360;-0.11500;89.5000;118;70;0.35556
9602370;-0.11000;87.8125;118;70;0.40757
9602380;-0.10500;87.2500;118;70;0.43736
9602390;-0.10000;86.8750;118;70;0.46838
9602400;-0.09500;86.3125;118;70;0.49988
9602410;-0.09500;86.1250;118;70;0.55946
9602420;-0.09000;85.9375;118;70;0.58657
9602430;-0.08500;85.7500;118;70;0.60781
9602440;-0.08500;85.5000;118;70;0.62515
9602450;-0.08500;84.9375;118;70;0.65910
9602460;-0.09000;84.6250;118;70;0.67350
9602470;-0.09000;84.2500;118;70;0.68571
9602480;-0.08500;83.5000;118;70;0.70379
9602490;-0.08000;83.1250;118;70;0.70940
9602500;-0.07500;82.6875;118;70;0.71306
9602510;-0.05500;82.2500;118;70;0.71453
9602520;-0.03000;81.7500;118;70;0.71429
9602530;-0.00500;80.9375;118;70;0.70769
9602540;0.01500;80.5000;118;70;0.70256
9602550;0.02500;80.1250;118;70;0.69621
9602560;0.05000;79.6875;118;70;0.68791
9602570;0.09500;78.8750;118;70;0.66667
9602580;0.10000;78.5000;118;70;0.65348
9602590;0.06000;78.0625;118;70;0.63907
9602600;0.02000;77.3125;118;70;0.60733
9602610;-0.00500;77.0000;118;70;0.59072
9602620;-0.04500;76.6250;118;70;0.57436
9602630;-0.08500;76.2500;118;70;0.55995
9602640;-0.10500;75.6250;118;70;0.53333
9602650;-0.11000;75.3125;118;70;0.52039
9602660;-0.11000;75.0000;118;70;0.50842
9602670;-0.09500;74.6875;118;70;0.49768
9602680;-0.09000;74.4375;118;70;0.48816
9602690;-0.08000;74.0000;118;70;0.47253
9602700;0.09500;73.7500;118;70;0.46618
9602710;0.43500;73.5625;118;70;0.46032
9602720;0.94500;73.3125;118;70;0.45495
9602730;0.69000;72.9375;118;70;0.44615
9602740;0.10500;72.7500;118;70;0.44176
9602750;-0.25000;72.5625;118;70;0.43736
9602760;-0.20000;72.4375;118;70;0.43272
9602770;-0.16000;72.0625;118;70;0.42295
9602780;-0.15500;71.8750;118;70;0.41807
9602790;-0.15000;71.7500;118;70;0.41294
9602800;-0.15000;71.7500;118;70;0.41294
9602810;-0.14500;71.1250;118;70;0.39780
9602820;-0.13500;70.9375;118;70;0.39292
9602830;-0.13000;70.6875;118;70;0.38901
9602840;-0.12500;70.1875;118;70;0.38193
9602850;-0.12000;69.9375;118;70;0.37778
9602860;-0.11500;69.6875;118;70;0.37363
9602870;-0.11000;69.4375;118;70;0.36923
9602880;-0.10500;69.1875;118;70;0.36484
9602890;-0.09000;68.6875;118;70;0.35653
9602900;-0.07500;68.4375;118;70;0.35238
9602910;-0.06500;68.3125;118;70;0.34847
9602920;-0.05500;68.1875;118;70;0.34139
9602930;-0.04500;68.4375;118;70;0.33895
9602940;-0.03000;69.1250;118;70;0.33578
9602950;-0.01500;70.5625;118;70;0.33236
9602960;0.00000;75.4375;118;70;0.32601
9602970;0.01000;78.8125;118;70;0.32283
9602980;0.02500;82.5625;118;70;0.31990
9602990;0.04000;86.5625;118;70;0.31722
9603000;0.05500;90.6875;119;70;0.31453
9603010;0.07000;98.6875;119;70;0.30940
9603020;0.09000;102.3750;119;70;0.30720
9603030;0.11000;105.6250;119;70;0.30574
9603040;0.14000;110.9375;119;70;0.29817
9603050;0.16500;112.9375;119;70;0.28889
9603060;0.18500;114.5625;119;70;0.28400
9603070;0.19000;115.8125;119;70;0.28132
9603080;0.18500;116.7500;119;70;0.27961
9603090;0.15500;117.9375;119;70;0.27790
9603100;0.09000;118.2500;119;70;0.27717
9603110;0.04000;118.3125;119;70;0.27668
9603120;-0.01500;117.8750;119;70;0.27619
9603130;-0.06500;117.3750;119;70;0.27692
9603140;-0.09500;116.6875;119;70;0.27692
9603150;-0.11500;115.8750;119;70;0.27692
9603160;-0.13000;113.6875;119;70;0.27692
9603170;-0.13500;112.3750;119;70;0.27668
9603180;-0.13000;110.8750;119;70;0.27668
9603190;-0.12500;109.1875;119;70;0.27692
9603200;-0.12500;105.3125;119;70;0.27863
9603210;-0.11500;103.1875;119;70;0.28132
9603220;-0.10500;101.0000;119;70;0.28669
9603230;-0.09000;98.8125;119;70;0.29402
9603240;-0.08500;96.7500;119;70;0.30452
9603250;-0.07500;93.3750;119;70;0.33919
9603260;-0.07500;92.1250;119;70;0.36361
9603270;-0.07500;91.1875;119;70;0.39267
9603280;-0.07500;90.3750;119;70;0.42491
9603290;-0.08000;89.3750;119;70;0.49573
9603300;-0.08500;89.0000;119;70;0.53211
9603310;-0.09000;88.7500;119;70;0.56752
9603320;-0.09500;88.5625;119;70;0.60098
9603330;-0.10000;88.1875;119;70;0.65031
9603340;-0.10500;88.0000;119;70;0.67326
9603350;-0.10500;87.7500;119;70;0.69499
9603360;-0.10500;87.0625;119;70;0.73162
9603370;-0.10500;86.6875;119;70;0.74579
9603380;-0.10000;86.3125;119;70;0.75751
9603390;-0.10000;85.8750;119;70;0.76679
9603400;-0.09500;85.4375;119;70;0.77387
9603410;-0.08500;84.5625;119;70;0.78217
9603420;-0.06500;84.1875;119;70;0.78242
9603430;-0.03000;83.8125;119;70;0.78022
9603440;-0.01000;83.3750;119;70;0.77705
9603450;0.00000;82.5625;119;70;0.76654
9603460;0.03000;82.1250;119;70;0.75849
9603470;0.05500;81.7500;119;70;0.74823
9603480;0.05500;80.9375;119;70;0.73602
9603490;0.02500;80.5625;119;70;0.70623
9603500;-0.01500;80.1875;119;70;0.68913
9603510;-0.05000;79.8125;119;70;0.67106
9603520;-0.10500;79.0625;119;70;0.63516
9603530;-0.14000;78.6875;119;70;0.61929
9603540;-0.15500;78.3750;119;70;0.60293
9603550;-0.16000;78.0625;119;70;0.58706
9603560;-0.16000;77.7500;119;70;0.57216
9603570;-0.16000;77.1875;119;70;0.54676
9603580;-0.14500;76.9375;119;70;0.53626
9603590;-0.14000;76.6250;119;70;0.52698
9603600;-0.06000;76.3750;119;70;0.51893
9603610;0.31000;75.9375;119;70;0.50525
9603620;0.96000;75.7500;119;70;0.49988
9603630;0.92500;75.5625;119;70;0.49499
9603640;0.24500;75.2500;119;70;0.48962
9603650;-0.27000;75.1250;119;70;0.47814
9603660;-0.24500;75.0000;119;70;0.47228
9603670;-0.20000;74.8125;119;70;0.46667
9603680;-0.18000;74.4375;119;70;0.45568
9603690;-0.18000;74.1875;119;70;0.45055
9603700;-0.18500;74.0000;119;70;0.44542
9603710;-0.18500;73.7500;119;70;0.44054
9603720;-0.18000;73.5000;119;70;0.43565
9603730;-0.17000;72.9375;119;70;0.42711
9603740;-0.15500;72.6250;119;70;0.42247
9603750;-0.14500;72.3750;119;70;0.41758
9603760;-0.12500;71.7500;119;70;0.40781
9603770;-0.11500;71.5000;119;70;0.40317
9603780;-0.10500;71.2500;119;70;0.39853
9603790;-0.10500;71.0000;119;70;0.39414
9603800;-0.10500;71.0000;119;70;0.39414
9603810;-0.11000;70.3750;119;70;0.38095
9603820;-0.09000;70.3750;119;70;0.37753
9603830;-0.06500;70.6250;119;70;0.37436
9603840;0.01000;72.6250;119;70;0.36752
9603850;0.04000;74.6875;119;70;0.36386
9603860;0.03000;77.5625;119;70;0.36020
9603870;0.03000;81.0000;119;70;0.35678
9603880;0.05000;89.0000;119;70;0.35043
9603890;0.04500;93.2500;119;70;0.34750
9603900;0.03500;97.5000;119;70;0.34457
9603910;0.05500;101.6250;119;70;0.34188
9603920;0.08000;105.4375;119;70;0.33944
9603930;0.11000;111.8750;119;70;0.33724
9603940;0.14000;114.3750;119;70;0.33626
9603950;0.18500;116.5000;119;70;0.33553
9603960;0.21500;118.1875;119;70;0.33504
9603970;0.24000;120.6250;119;70;0.33553
9603980;0.23500;121.4375;119;70;0.33578
9603990;0.20500;122.0625;119;70;0.33553
9604000;0.16000;122.5625;119;70;0.33455
9604010;0.11000;122.5625;119;70;0.33382
9604020;0.06000;122.4375;119;70;0.33333
9604030;0.00000;122.1250;119;70;0.33309
9604040;-0.03500;121.6250;119;70;0.33260
9604050;-0.06500;120.2500;119;70;0.33040
9604060;-0.08500;119.3125;119;70;0.32918
9604070;-0.08500;118.1250;119;70;0.32845
9604080;-0.08500;116.8125;119;70;0.32796
9604090;-0.08500;113.6250;119;70;0.32747
9604100;-0.08500;111.7500;119;70;0.32821
9604110;-0.09000;109.6875;119;70;0.33040
9604120;-0.08500;107.5000;119;70;0.33529
9604130;-0.07500;102.9375;119;70;0.35067
9604140;-0.07000;100.8125;119;70;0.36459
9604150;-0.06500;98.9375;119;70;0.38339
9604160;-0.05500;96.1250;119;70;0.43492
9604170;-0.05500;95.0000;119;70;0.46642
9604180;-0.05500;94.1250;119;70;0.50061
9604190;-0.05500;93.4375;119;70;0.53602
9604200;-0.05000;92.9375;119;70;0.57143
9604210;-0.04000;92.2500;119;70;0.63907
9604220;-0.03500;92.0000;119;70;0.66569
9604230;-0.03000;91.7500;119;70;0.68816
9604240;-0.03500;91.1875;119;70;0.73382
9604250;-0.03000;90.8750;119;70;0.75409
9604260;-0.02500;90.5000;119;70;0.77167
9604270;-0.02500;90.1250;119;70;0.78681
9604280;-0.03000;89.6875;119;70;0.79927
9604290;-0.04000;88.8750;119;70;0.81685
9604300;-0.04500;88.3750;119;70;0.82271
9604310;-0.04000;87.9375;119;70;0.82662
9604320;-0.01500;87.0625;119;70;0.82735
9604330;0.00000;86.6250;119;70;0.82393
9604340;0.02000;86.1250;119;70;0.82002
9604350;0.02000;85.6875;119;70;0.81465
9604360;0.04000;85.2500;119;70;0.80757
9604370;0.07000;84.3750;119;70;0.78803
9604380;0.07000;84.0000;119;70;0.77558
9604390;0.05000;83.5625;119;70;0.76142
9604400;0.01500;83.1875;119;70;0.74554
9604410;-0.03000;82.3750;119;70;0.70916
9604420;-0.07500;82.0000;119;70;0.69133
9604430;-0.11500;81.6250;119;70;0.67399
9604440;-0.13500;80.8750;119;70;0.63810
9604450;-0.13500;80.5625;119;70;0.62100
9604460;-0.13500;80.2500;119;70;0.60513
9604470;-0.12500;80.0000;119;70;0.59096
9604480;-0.12500;79.6875;119;70;0.57827
9604490;-0.13000;79.1250;119;70;0.55702
9604500;0.00000;78.8750;119;70;0.54823
9604510;0.34000;78.6250;119;70;0.54017
9604520;1.02000;78.1875;119;70;0.52601
9604530;0.99000;78.0000;119;70;0.51990
9604540;0.27500;77.8125;119;70;0.51380
9604550;-0.23500;77.6250;119;70;0.50769
9604560;-0.23500;77.1875;119;70;0.49597
9604570;-0.21500;77.0000;119;70;0.48987
9604580;-0.22000;76.8125;119;70;0.48425
9604590;-0.22500;76.5625;119;70;0.47863
9604600;-0.22500;76.3125;119;70;0.47302
9604610;-0.23000;75.8125;119;70;0.46203
9604620;-0.23500;75.5625;119;70;0.45714
9604630;-0.23000;75.3125;119;70;0.45226
9604640;-0.22000;75.0000;119;70;0.44689
9604650;-0.21500;74.4375;119;70;0.43590
9604660;-0.20500;74.1250;119;70;0.43077
9604670;-0.20000;73.8750;119;70;0.42564
9604680;-0.19000;73.3125;119;70;0.42076
9604690;-0.18000;73.0625;119;70;0.41074
9604700;-0.16500;72.8750;119;70;0.40610
9604710;-0.16000;72.6875;119;70;0.40122
9604720;-0.14500;72.6250;119;70;0.39267
9604730;-0.13500;73.0625;119;70;0.38926
9604740;-0.11500;74.1250;119;70;0.38559
9604750;-0.09500;75.9375;119;70;0.38169
9604760;-0.08000;78.5000;119;70;0.37778
9604770;-0.05500;85.5000;119;70;0.37070
9604780;-0.04500;89.5625;119;70;0.36752
9604790;-0.02000;93.8125;119;70;0.36459
9604800;-0.02000;93.8125;119;70;0.36459
9604810;0.04000;106.0000;119;70;0.35726
9604820;0.07500;109.5000;119;70;0.35580
9604830;0.10500;112.5625;119;70;0.35458
9604840;0.14000;117.3125;119;70;0.35336
9604850;0.16000;119.0000;119;70;0.35116
9604860;0.18500;120.3125;119;70;0.35067
9604870;0.19500;121.3750;119;70;0.35043
9604880;0.19000;122.0625;119;70;0.35018
9604890;0.16000;123.0000;119;70;0.35018
9604900;0.12000;123.1875;119;70;0.35018
9604910;0.05500;123.2500;119;70;0.35018
9604920;0.01000;123.1250;119;70;0.35018
9604930;-0.03500;122.3125;119;70;0.35043
9604940;-0.06500;121.6875;119;70;0.34994
9604950;-0.08500;120.9375;119;70;0.34921
9604960;-0.10000;118.8125;119;70;0.34725
9604970;-0.10500;117.5000;119;70;0.34628
9604980;-0.11000;116.0625;119;70;0.34530
9604990;-0.10500;114.3750;119;70;0.34457
9605000;-0.10500;112.5625;118;70;0.34408
9605010;-0.09500;108.3750;118;70;0.34750
9605020;-0.09500;106.0625;118;70;0.35214
9605030;-0.08500;103.6250;118;70;0.35946
9605040;-0.08000;99.1250;118;70;0.38779
9605050;-0.07500;97.2500;118;70;0.40928
9605060;-0.07500;95.6875;118;70;0.43516
9605070;-0.07500;94.4375;118;70;0.46496
9605080;-0.07000;93.3750;118;70;0.50574
9605090;-0.06500;91.9375;118;70;0.55580
9605100;-0.06500;91.4375;118;70;0.56239
9605110;-0.06000;91.0625;118;70;0.57875
9605120;-0.05500;90.5000;118;70;0.61074
9605130;-0.05500;90.2500;118;70;0.62808
9605140;-0.06000;90.0000;118;70;0.64542
9605150;-0.06500;89.6875;118;70;0.66154
9605160;-0.06500;89.3125;118;70;0.67570
9605170;-0.06500;88.5000;118;70;0.69768
9605180;-0.06500;88.0625;118;70;0.70549
9605190;-0.06500;87.6250;118;70;0.71160
9605200;-0.05500;87.1250;118;70;0.71575
9605210;-0.03500;86.1250;118;70;0.71868
9605220;-0.01500;85.5625;118;70;0.71673
9605230;0.01000;85.1250;118;70;0.71282
9605240;0.02500;84.1250;118;70;0.70794
9605250;0.03500;83.6250;118;70;0.69426
9605260;0.06000;83.1875;118;70;0.68523
9605270;0.10000;82.6875;118;70;0.67473
9605280;0.09000;82.2500;118;70;0.66252
9605290;0.05000;81.3125;118;70;0.63297
9605300;0.01000;80.8750;118;70;0.61587
9605310;-0.02000;80.4375;118;70;0.59756
9605320;-0.07500;79.6875;118;70;0.56435
9605330;-0.10500;79.2500;118;70;0.54652
9605340;-0.11500;78.8750;118;70;0.52869
9605350;-0.12000;78.5000;118;70;0.51136
9605360;-0.12000;78.1875;118;70;0.49499
9605370;-0.11500;77.5000;118;70;0.46569
9605380;-0.11000;77.1875;118;70;0.45299
9605390;-0.09500;76.8750;118;70;0.44151
9605400;0.06000;76.3125;118;70;0.43101
9605410;0.63500;76.0625;118;70;0.41270
9605420;0.97000;75.8125;118;70;0.40537
9605430;0.50500;75.6250;118;70;0.39927
9605440;-0.07000;75.3750;118;70;0.39292
9605450;-0.28000;74.9375;118;70;0.37973
9605460;-0.20000;74.6875;118;70;0.37289
9605470;-0.17500;74.5000;118;70;0.36630
9605480;-0.17000;74.2500;118;70;0.35971
9605490;-0.17000;73.7500;118;70;0.34701
9605500;-0.16500;73.4375;118;70;0.34090
9605510;-0.16000;73.1875;118;70;0.33480
9605520;-0.15500;72.5625;118;70;0.32552
9605530;-0.15500;72.2500;118;70;0.32015
9605540;-0.14500;71.9375;118;70;0.31453
9605550;-0.13500;71.6250;118;70;0.30867
9605560;-0.13500;71.3125;118;70;0.30281
9605570;-0.13000;70.6875;118;70;0.28913
9605580;-0.12000;70.3750;118;70;0.28474
9605590;-0.10500;70.1250;118;70;0.27985
9605600;-0.09500;69.8125;118;70;0.27473
9605610;-0.08000;69.3750;118;70;0.26545
9605620;-0.06500;69.1875;118;70;0.26178
9605630;-0.05000;69.1875;118;70;0.25861
9605640;-0.03500;70.3125;118;70;0.25519
9605650;-0.02000;71.8125;118;70;0.24737
9605660;-0.01000;73.9375;118;70;0.24322
9605670;0.00000;76.6875;118;70;0.23932
9605680;0.01000;80.0000;118;70;0.23468
9605690;0.03000;87.5625;118;70;0.22784
9605700;0.05000;91.5000;118;70;0.22491
9605710;0.07000;95.4375;118;70;0.22198
9605720;0.10000;102.6250;118;70;0.21856
9605730;0.12000;105.7500;118;70;0.21661
9605740;0.14000;108.3750;118;70;0.21416
9605750;0.16500;110.5625;118;70;0.21221
9605760;0.18000;112.3125;118;70;0.21099
9605770;0.18500;114.6875;118;70;0.20855
9605780;0.18500;114.6875;118;70;0.20855
9605790;0.18500;114.6875;118;70;0.20855
9605800;0.18500;114.6875;118;70;0.20855
9605810;0.01000;116.0625;118;70;0.20391
9605820;-0.05000;115.6875;118;70;0.20415
9605830;-0.09000;115.1250;118;70;0.20440
9605840;-0.11500;114.4375;118;70;0.20391
9605850;-0.13500;112.4375;118;70;0.20244
9605860;-0.14500;111.1875;118;70;0.20147
9605870;-0.15000;109.8125;118;70;0.20073
9605880;-0.15000;108.2500;118;70;0.20000
9605890;-0.15000;104.5625;118;70;0.19951
9605900;-0.14500;102.5625;118;70;0.20049
9605910;-0.14000;100.3125;118;70;0.20342
9605920;-0.13500;98.0625;118;70;0.20781
9605930;-0.12500;93.6250;118;70;0.22002
9605940;-0.11500;91.8125;118;70;0.23541
9605950;-0.11000;90.3750;118;70;0.24786
9605960;-0.10500;88.2500;118;70;0.29646
9605970;-0.10500;87.5625;118;70;0.32674
9605980;-0.09500;87.0625;118;70;0.35751
9605990;-0.09000;86.6875;118;70;0.38852
9606000;-0.08500;86.4375;118;70;0.41905
9606010;-0.08000;86.0625;118;70;0.47253
9606020;-0.08000;85.9375;118;70;0.49280
9606030;-0.07500;85.7500;118;70;0.51355
9606040;-0.07500;85.6250;118;70;0.53333
9606050;-0.07500;85.0625;118;70;0.56654
9606060;-0.07500;84.7500;118;70;0.57949
9606070;-0.07500;84.3750;118;70;0.58974
9606080;-0.08000;84.0625;118;70;0.59756
9606090;-0.08000;83.2500;118;70;0.60708
9606100;-0.07000;82.8125;118;70;0.60879
9606110;-0.05000;82.4375;118;70;0.60830
9606120;-0.02500;81.6250;118;70;0.60611
9606130;0.00000;81.1875;118;70;0.59756
9606140;0.00500;80.7500;118;70;0.59072
9606150;0.02000;80.3125;118;70;0.58217
9606160;0.06000;79.9375;118;70;0.57192
9606170;0.08000;79.1250;118;70;0.54701
9606180;0.06000;78.6875;118;70;0.53236
9606190;0.01500;78.3125;118;70;0.51624
9606200;-0.00500;78.0000;118;70;0.49939
9606210;-0.05000;77.2500;118;70;0.46740
9606220;-0.10000;76.8750;118;70;0.45372
9606230;-0.11500;76.5000;118;70;0.43956
9606240;-0.12000;76.1875;118;70;0.42564
9606250;-0.12000;75.5625;118;70;0.40098
9606260;-0.11500;75.3125;118;70;0.39072
9606270;-0.11500;75.0000;118;70;0.38169
9606280;-0.11000;74.6875;118;70;0.37387
9606290;-0.04500;74.2500;118;70;0.36117
9606300;0.19000;74.0625;118;70;0.35580
9606310;0.70000;73.8125;118;70;0.35165
9606320;0.83000;73.4375;118;70;0.34408
9606330;0.34000;73.2500;118;70;0.34017
9606340;-0.23500;73.0625;118;70;0.33626
9606350;-0.25000;72.8750;118;70;0.33211
9606360;-0.20000;72.6875;118;70;0.32796
9606370;-0.18000;72.3125;118;70;0.31941
9606380;-0.18000;72.0625;118;70;0.31502
9606390;-0.17000;71.8750;118;70;0.31087
9606400;-0.17000;71.6250;118;70;0.30672
9606410;-0.16500;71.1875;118;70;0.29963
9606420;-0.15500;70.8750;118;70;0.29695
9606430;-0.15000;70.6250;118;70;0.29353
9606440;-0.14500;70.3125;118;70;0.28938
9606450;-0.13500;69.7500;118;70;0.28107
9606460;-0.12500;69.4375;118;70;0.27717
9606470;-0.12500;69.1250;118;70;0.27326
9606480;-0.11500;68.8750;118;70;0.26935
9606490;-0.10500;68.3750;118;70;0.26203
9606500;-0.09000;68.1875;118;70;0.25836
9606510;-0.08000;67.9375;118;70;0.25592
9606520;-0.06500;67.7500;118;70;0.25397
9606530;-0.05500;68.0625;118;70;0.24835
9606540;-0.04000;68.8125;118;70;0.24542
9606550;-0.02500;70.1875;118;70;0.24249
9606560;-0.01000;74.9375;118;70;0.23712
9606570;-0.00500;78.1250;118;70;0.23443
9606580;0.01000;81.7500;118;70;0.23175
9606590;0.03000;85.5625;118;70;0.22906
9606600;0.04000;89.4375;118;70;0.22662
9606610;0.06000;97.0625;118;70;0.22369
9606620;0.08500;100.4375;118;70;0.22344
9606630;0.11500;103.5625;118;70;0.22295
9606640;0.14500;106.1875;118;70;0.22222
9606650;0.16500;110.1250;118;70;0.22076
9606660;0.19000;111.5625;118;70;0.22027
9606670;0.19500;112.5625;118;70;0.21954
9606680;0.16500;113.8750;118;70;0.21807
9606690;0.13000;114.1250;118;70;0.21734
9606700;0.07500;114.1875;118;70;0.21661
9606710;0.00500;114.0000;118;70;0.21661
9606720;-0.03500;113.6250;118;70;0.21734
9606730;-0.07500;112.3750;118;70;0.21734
9606740;-0.10500;111.5000;118;70;0.21734
9606750;-0.11500;110.3750;118;70;0.21734
9606760;-0.12500;107.7500;118;70;0.21758
9606770;-0.13000;106.1875;118;70;0.21856
9606780;-0.13000;104.5000;118;70;0.21905
9606790;-0.13000;102.5625;118;70;0.21954
9606800;-0.13000;102.5625;118;70;0.21954
9606810;-0.13000;96.1875;118;70;0.22637
9606820;-0.12500;94.0625;118;70;0.23199
9606830;-0.12000;92.1250;118;70;0.24054
9606840;-0.11500;89.1875;118;70;0.26960
9606850;-0.10500;88.1250;118;70;0.29035
9606860;-0.10000;87.2500;118;70;0.31477
9606870;-0.09500;86.6250;118;70;0.34261
9606880;-0.09500;86.1250;118;70;0.37265
9606890;-0.09500;85.5000;118;70;0.43443
9606900;-0.09500;85.3125;118;70;0.46447
9606910;-0.09500;85.1250;118;70;0.48938
9606920;-0.09000;85.0000;118;70;0.51038
9606930;-0.08500;84.6250;118;70;0.55238
9606940;-0.09000;84.3750;118;70;0.57094
9606950;-0.09500;84.1250;118;70;0.58706
9606960;-0.09500;83.8125;118;70;0.60073
9606970;-0.09500;83.1250;118;70;0.62051
9606980;-0.09500;82.6875;118;70;0.62711
9606990;-0.09500;82.3125;118;70;0.63126
9607000;-0.08000;81.5000;118;69;0.63297
9607010;-0.06000;81.1250;118;69;0.63077
9607020;-0.03500;80.6875;118;69;0.62759
9607030;-0.00500;80.2500;118;69;0.62320
9607040;0.00000;79.8750;118;69;0.61734
9607050;0.02000;79.0625;118;69;0.60024
9607060;0.05000;78.6875;118;69;0.58877
9607070;0.09000;78.3125;118;69;0.57607
9607080;0.08000;77.9375;118;69;0.56215
9607090;0.05000;77.1875;118;69;0.53089
9607100;0.03000;76.8750;118;69;0.51453
9607110;0.00500;76.5000;118;69;0.49988
9607120;-0.03000;76.1250;118;69;0.48645
9607130;-0.04500;75.5000;118;69;0.46911
9607140;-0.04500;75.1875;118;69;0.47204
9607150;-0.03500;74.8750;118;69;0.46862
9607160;-0.01000;74.3125;118;69;0.45617
9607170;0.01000;74.0625;118;69;0.44957
9607180;0.03000;73.8125;118;69;0.44347
9607190;0.09000;73.5625;118;69;0.43810
9607200;0.29000;73.3750;118;69;0.43297
9607210;0.77500;73.0000;118;69;0.42515
9607220;1.05000;72.8125;118;69;0.42100
9607230;0.60000;72.6250;118;69;0.41685
9607240;-0.04000;72.4375;118;69;0.41270
9607250;-0.16500;72.0625;118;69;0.40440
9607260;-0.12500;71.8750;118;69;0.40000
9607270;-0.12000;71.6875;118;69;0.39560
9607280;-0.13500;71.5000;118;69;0.39121
9607290;-0.14500;71.1250;118;69;0.38315
9607300;-0.15500;70.8750;118;69;0.37924
9607310;-0.16000;70.6250;118;69;0.37607
9607320;-0.16000;70.3125;118;69;0.37338
9607330;-0.16000;69.7500;118;69;0.36679
9607340;-0.15500;69.5000;118;69;0.36288
9607350;-0.15500;69.1875;118;69;0.35897
9607360;-0.15500;68.6250;118;69;0.35507
9607370;-0.15500;68.3750;118;69;0.34676
9607380;-0.15500;68.1250;118;69;0.34261
9607390;-0.14000;67.8750;118;69;0.33846
9607400;-0.11500;67.4375;118;69;0.33162
9607410;-0.08500;67.3125;118;69;0.32943
9607420;-0.05000;67.3125;118;69;0.32674
9607430;-0.02500;67.5000;118;69;0.32381
9607440;-0.00500;68.1875;118;69;0.32088
9607450;0.00500;71.5000;118;69;0.31477
9607460;0.01500;74.1875;118;69;0.31184
9607470;0.02000;77.3750;118;69;0.30891
9607480;0.02000;84.9375;118;69;0.30598
9607490;0.03000;88.9375;118;69;0.30061
9607500;0.03000;92.8750;118;69;0.29841
9607510;0.04000;96.7500;118;69;0.29695
9607520;0.06000;103.5625;118;69;0.29451
9607530;0.07500;106.3750;118;69;0.29304
9607540;0.10000;108.7500;118;69;0.29182
9607550;0.12500;110.6875;118;69;0.29060
9607560;0.14000;112.1875;118;69;0.28962
9607570;0.14500;114.2500;118;69;0.28816
9607580;0.13000;114.8125;118;69;0.28718
9607590;0.09000;115.1875;118;69;0.28645
9607600;0.03500;115.3750;118;69;0.28571
9607610;-0.02000;115.1250;118;69;0.28620
9607620;-0.07500;114.6875;118;69;0.28645
9607630;-0.11500;114.1250;118;69;0.28645
9607640;-0.13500;113.3125;118;69;0.28645
9607650;-0.15500;111.2500;118;69;0.28645
9607660;-0.15500;109.9375;118;69;0.28645
9607670;-0.15500;108.5000;118;69;0.28620
9607680;-0.16000;105.0625;118;69;0.28596
9607690;-0.16000;103.1250;118;69;0.28645
9607700;-0.16000;101.0625;118;69;0.28791
9607710;-0.16000;99.0000;118;69;0.29084
9607720;-0.16000;94.8125;118;69;0.30379
9607730;-0.15500;93.0000;118;69;0.31551
9607740;-0.15500;91.4375;118;69;0.33114
9607750;-0.14500;90.1875;118;69;0.35067
9607760;-0.14500;89.1875;118;69;0.37411
9607770;-0.14000;87.7500;118;69;0.43004
9607780;-0.14000;87.2500;118;69;0.46032
9607790;-0.13500;86.8750;118;69;0.49060
9607800;-0.13500;86.8750;118;69;0.49060
9607810;-0.13000;86.1250;118;69;0.56581
9607820;-0.12500;85.9375;118;69;0.58755
9607830;-0.12500;85.6875;118;69;0.60806
9607840;-0.13000;85.4375;118;69;0.62662
9607850;-0.12500;84.8125;118;69;0.65665
9607860;-0.12500;84.5000;118;69;0.66838
9607870;-0.12000;84.1250;118;69;0.67766
9607880;-0.11500;83.3125;118;69;0.69035
9607890;-0.11000;82.8750;118;69;0.69377
9607900;-0.10000;82.4375;118;69;0.69548
9607910;-0.07500;82.0625;118;69;0.69475
9607920;-0.05000;81.6250;118;69;0.69255
9607930;-0.02500;80.8125;118;69;0.68425
9607940;-0.01500;80.3750;118;69;0.67766
9607950;0.00500;80.0000;118;69;0.66911
9607960;0.04000;79.6250;118;69;0.65861
9607970;0.05000;78.8125;118;69;0.63346
9607980;0.03000;78.4375;118;69;0.61929
9607990;-0.00500;78.0625;118;69;0.60415
9608000;-0.04000;77.2500;118;69;0.57436
9608010;-0.07500;76.9375;118;69;0.56093
9608020;-0.12000;76.5625;118;69;0.54676
9608030;-0.13500;76.2500;118;69;0.53284
9608040;-0.13500;75.8750;118;69;0.51990
9608050;-0.13500;75.3125;118;69;0.49695
9608060;-0.12500;75.0000;118;69;0.48742
9608070;-0.11500;74.7500;118;69;0.47888
9608080;-0.11000;74.2500;118;69;0.47131
9608090;0.00500;74.0000;118;69;0.45836
9608100;0.29000;73.7500;118;69;0.45250
9608110;0.82000;73.5625;118;69;0.44762
9608120;0.78500;73.1875;118;69;0.43883
9608130;0.22500;73.0000;118;69;0.43419
9608140;-0.24500;72.8125;118;69;0.42930
9608150;-0.24000;72.6250;118;69;0.42442
9608160;-0.18000;72.5000;118;69;0.41954
9608170;-0.16500;72.0625;118;69;0.41026
9608180;-0.16500;71.8125;118;69;0.40562
9608190;-0.16500;71.5625;118;69;0.40098
9608200;-0.16000;71.1250;118;69;0.39267
9608210;-0.15500;70.8750;118;69;0.38926
9608220;-0.15000;70.6250;118;69;0.38510
9608230;-0.14500;70.3125;118;69;0.38071
9608240;-0.14000;70.0000;118;69;0.37631
9608250;-0.13500;69.3750;118;69;0.36825
9608260;-0.12500;69.0625;118;69;0.36410
9608270;-0.11500;68.8125;118;69;0.35995
9608280;-0.10500;68.5625;118;69;0.35604
9608290;-0.09500;68.1250;118;69;0.34799
9608300;-0.08500;67.9375;118;69;0.34383
9608310;-0.07500;67.7500;118;69;0.34090
9608320;-0.06500;67.7500;118;69;0.33822
9608330;-0.05500;68.7500;118;69;0.33187
9608340;-0.04500;70.1875;118;69;0.32869
9608350;-0.03000;72.2500;118;69;0.32576
9608360;-0.02000;78.4375;118;69;0.31990
9608370;-0.00500;82.1250;118;69;0.31722
9608380;0.01000;86.1250;118;69;0.31429
9608390;0.03000;90.1875;118;69;0.31136
9608400;0.05000;94.2500;118;69;0.30842
9608410;0.07000;101.8125;118;69;0.30549
9608420;0.10000;105.0625;118;69;0.30403
9608430;0.13500;107.8750;118;69;0.30256
9608440;0.15500;110.2500;118;69;0.30134
9608450;0.18500;113.7500;118;69;0.29915
9608460;0.21000;114.9375;118;69;0.29841
9608470;0.20500;115.8125;118;69;0.29744
9608480;0.17500;116.5000;118;69;0.29670
9608490;0.11000;117.1875;118;69;0.29548
9608500;0.06000;117.1875;118;69;0.29475
9608510;0.00500;117.0000;118;69;0.29475
9608520;-0.04500;116.0625;118;69;0.29499
9608530;-0.07500;115.3750;118;69;0.29451
9608540;-0.10000;114.5000;118;69;0.29377
9608550;-0.11500;113.4375;118;69;0.29304
9608560;-0.12000;112.1250;118;69;0.29231
9608570;-0.12500;109.1250;118;69;0.29084
9608580;-0.12500;107.3750;118;69;0.29035
9608590;-0.12500;105.5000;118;69;0.29060
9608600;-0.12500;103.4375;118;69;0.29206
9608610;-0.12500;99.0625;118;69;0.30061
9608620;-0.12000;96.9375;118;69;0.30916
9608630;-0.11500;95.0000;118;69;0.32161
9608640;-0.10500;92.0000;118;69;0.35849
9608650;-0.09500;90.8125;118;69;0.38291
9608660;-0.09000;89.8750;118;69;0.41026
9608670;-0.09000;89.1875;118;69;0.43980
9608680;-0.08500;88.6250;118;69;0.47057
9608690;-0.08500;87.8125;118;69;0.53089
9608700;-0.08500;87.5625;118;69;0.55556
9608710;-0.08500;87.3125;118;69;0.57656
9608720;-0.08000;87.0625;118;69;0.59853
9608730;-0.07500;86.6250;118;69;0.63907
9608740;-0.07500;86.3125;118;69;0.65592
9608750;-0.07500;86.0000;118;69;0.67057
9608760;-0.07000;85.6250;118;69;0.68278
9608770;-0.07000;84.8750;118;69;0.70134
9608780;-0.06500;84.5000;118;69;0.70769
9608790;-0.06500;84.0625;118;69;0.71184
9608800;-0.06500;84.0625;118;69;0.71184
9608810;-0.02500;82.8125;118;69;0.71136
9608820;-0.02500;82.8125;118;69;0.71136
9608830;0.01000;82.0625;118;69;0.70354
9608840;0.02000;81.6250;118;69;0.69744
9608850;0.05500;80.8125;118;69;0.68010
9608860;0.09000;80.4375;118;69;0.66862
9608870;0.09000;80.0625;118;69;0.65568
9608880;0.06000;79.6875;118;69;0.64127
9608890;0.02000;79.0000;118;69;0.60977
9608900;-0.00500;78.6250;118;69;0.59487
9608910;-0.06500;78.2500;118;69;0.58095
9608920;-0.09000;77.9375;118;69;0.56630
9608930;-0.10000;77.2500;118;69;0.53748
9608940;-0.10500;76.9375;118;69;0.52430
9608950;-0.10500;76.6250;118;69;0.51258
9608960;-0.10500;76.3750;118;69;0.50208
9608970;-0.09500;75.8750;118;69;0.48449
9608980;-0.08500;75.6250;118;69;0.47692
9608990;0.04000;75.3750;118;69;0.46984
9609000;0.48500;75.0000;119;70;0.45788
9609010;1.00500;74.7500;119;70;0.45324
9609020;0.76500;74.5625;119;70;0.44835
9609030;0.05000;74.3750;119;70;0.44347
9609040;-0.25500;74.0625;119;70;0.43394
9609050;-0.20000;73.8750;119;70;0.42930
9609060;-0.17000;73.7500;119;70;0.42491
9609070;-0.16500;73.5625;119;70;0.42027
9609080;-0.16500;73.3750;119;70;0.41538
9609090;-0.16000;72.9375;119;70;0.40610
9609100;-0.16000;72.6875;119;70;0.40195
9609110;-0.15500;72.3750;119;70;0.39853
9609120;-0.14500;72.1250;119;70;0.39463
9609130;-0.14000;71.5625;119;70;0.38584
9609140;-0.13500;71.3125;119;70;0.38169
9609150;-0.13000;71.0625;119;70;0.37729
9609160;-0.12500;70.7500;119;70;0.37314
9609170;-0.11500;70.2500;119;70;0.36532
9609180;-0.10500;70.0000;119;70;0.35556
9609190;-0.09500;69.7500;119;70;0.34286
9609200;-0.08500;69.4375;119;70;0.33455
9609210;-0.07000;69.5625;119;70;0.32527
9609220;-0.06500;70.0000;119;70;0.32112
9609230;-0.05500;70.9375;119;70;0.31697
9609240;-0.04500;75.0625;119;70;0.30940
9609250;-0.03000;78.1250;119;70;0.30598
9609260;-0.01500;81.7500;119;70;0.30281
9609270;0.00000;85.6875;119;70;0.30012
9609280;0.03000;94.0000;119;70;0.29499
9609290;0.04500;98.1250;119;70;0.29255
9609300;0.07000;102.0625;119;70;0.29084
9609310;0.10000;105.6875;119;70;0.28987
9609320;0.12500;108.9375;119;70;0.28864
9609330;0.15500;114.0000;119;70;0.28645
9609340;0.18500;115.8125;119;70;0.28571
9609350;0.20500;117.3125;119;70;0.28547
9609360;0.21500;118.5000;119;70;0.28523
9609370;0.20000;120.0625;119;70;0.28523
9609380;0.17500;120.5000;119;70;0.28547
9609390;0.12500;120.7500;119;70;0.28547
9609400;0.05000;120.7500;119;70;0.28596
9609410;0.00500;120.4375;119;70;0.28669
9609420;-0.04500;120.0000;119;70;0.28645
9609430;-0.07500;119.3750;119;70;0.28571
9609440;-0.09000;118.5625;119;70;0.28498
9609450;-0.10500;116.4375;119;70;0.28376
9609460;-0.11000;115.1250;119;70;0.28327
9609470;-0.11000;113.6250;119;70;0.28303
9609480;-0.11000;110.0625;119;70;0.28425
9609490;-0.11000;108.0625;119;70;0.28694
9609500;-0.10500;105.8750;119;70;0.29158
9609510;-0.10500;103.6250;119;70;0.29866
9609520;-0.10500;99.3125;119;70;0.32552
9609530;-0.10500;97.5625;119;70;0.34603
9609540;-0.10000;96.0000;119;70;0.37118
9609550;-0.09500;94.7500;119;70;0.40049
9609560;-0.09500;92.9375;119;70;0.43321
9609570;-0.08500;92.2500;119;70;0.50403
9609580;-0.08000;91.7500;119;70;0.53993
9609590;-0.07500;91.3125;119;70;0.57485
9609600;-0.07500;90.6875;119;70;0.63370
9609610;-0.08000;90.4375;119;70;0.65543
9609620;-0.08000;90.1875;119;70;0.67814
9609630;-0.07500;89.9375;119;70;0.69963
9609640;-0.07500;89.6250;119;70;0.71941
9609650;-0.07500;88.8750;119;70;0.75189
9609660;-0.08000;88.5000;119;70;0.76435
9609670;-0.08500;88.1250;119;70;0.77460
9609680;-0.08000;87.3125;119;70;0.78852
9609690;-0.07500;86.8750;119;70;0.79219
9609700;-0.07000;86.4375;119;70;0.79243
9609710;-0.04500;86.0000;119;70;0.79023
9609720;-0.02500;85.5625;119;70;0.78706
9609730;-0.00500;84.6875;119;70;0.77680
9609740;0.00000;84.2500;119;70;0.76899
9609750;0.02000;83.8125;119;70;0.75946
9609760;0.06000;83.3750;119;70;0.74799
9609770;0.07500;82.5625;119;70;0.71990
9609780;0.04000;82.1875;119;70;0.70354
9609790;0.01000;81.7500;119;70;0.68620
9609800;-0.02500;81.3750;119;70;0.66813
9609810;-0.08000;80.6250;119;70;0.63541
9609820;-0.11500;80.3125;119;70;0.61880
9609830;-0.13000;79.9375;119;70;0.60269
9609840;-0.13500;79.3125;119;70;0.57338
9609850;-0.13500;78.9375;119;70;0.56044
9609860;-0.13000;78.6250;119;70;0.54896
9609870;-0.12500;78.3750;119;70;0.53895
9609880;-0.13000;78.1250;119;70;0.52991
9609890;-0.01500;77.6875;119;70;0.51453
9609900;0.30000;77.4375;119;70;0.50842
9609910;0.89500;77.2500;119;70;0.50281
9609920;0.99000;77.0000;119;70;0.49695
9609930;0.16500;76.6250;119;70;0.48571
9609940;-0.21000;76.4375;119;70;0.48010
9609950;-0.23500;76.2500;119;70;0.47448
9609960;-0.19000;75.8750;119;70;0.46300
9609970;-0.19000;75.6875;119;70;0.45739
9609980;-0.19500;75.5000;119;70;0.45177
9609990;-0.20000;75.2500;119;70;0.44640
9610000;-0.20000;75.0000;118;70;0.44103
9610010;-0.20000;74.5000;118;70;0.43199
9610020;-0.19000;74.1875;118;70;0.42735
9610030;-0.18000;73.9375;118;70;0.42222
9610040;-0.17000;73.6250;118;70;0.41709
9610050;-0.16500;73.0000;118;70;0.40733
9610060;-0.16000;72.7500;118;70;0.40269
9610070;-0.14500;72.4375;118;70;0.39805
9610080;-0.13500;71.9375;118;70;0.38877
9610090;-0.13000;71.7500;118;70;0.38437
9610100;-0.11500;71.6250;118;70;0.38095
9610110;-0.10000;71.6250;118;70;0.37778
9610120;-0.09000;71.8750;118;70;0.37387
9610130;-0.07500;74.0000;118;70;0.36581
9610140;-0.06500;76.1875;118;70;0.36190
9610150;-0.05500;79.0625;118;70;0.35800
9610160;-0.03500;86.6250;118;70;0.35433
9610170;-0.01000;90.8125;118;70;0.34774
9610180;0.00500;95.1875;118;70;0.34505
9610190;0.03500;99.5000;118;70;0.34261
9610200;0.05500;103.6250;118;70;0.34066
9610210;0.08000;110.9375;118;70;0.33919
9610220;0.12000;113.9375;118;70;0.33846
9610230;0.14000;116.4375;118;70;0.33773
9610240;0.16500;118.5000;118;70;0.33675
9610250;0.19500;121.4375;118;70;0.33480
9610260;0.20000;122.5000;118;70;0.33407
9610270;0.19000;123.3125;118;70;0.33333
9610280;0.16500;123.8750;118;70;0.33309
9610290;0.12000;124.5000;118;70;0.33260
9610300;0.05000;124.5000;118;70;0.33260
9610310;0.00000;124.3750;118;70;0.33260
9610320;-0.04500;123.5625;118;70;0.33236
9610330;-0.09000;122.9375;118;70;0.33162
9610340;-0.11000;122.1250;118;70;0.33114
9610350;-0.12500;121.1875;118;70;0.33065
9610360;-0.13000;120.0000;118;70;0.33016
9610370;-0.13000;117.1250;118;70;0.32991
9610380;-0.13000;115.4375;118;70;0.33040
9610390;-0.13000;113.5625;118;70;0.33211
9610400;-0.13000;111.5000;118;70;0.33578
9610410;-0.12500;106.9375;118;70;0.34896
9610420;-0.12000;104.6250;118;70;0.36142
9610430;-0.12000;102.3750;118;70;0.37875
9610440;-0.11500;100.3750;118;70;0.40122
9610450;-0.11500;97.3125;118;70;0.45934
9610460;-0.10500;96.2500;118;70;0.49304
9610470;-0.10000;95.3750;118;70;0.52821
9610480;-0.09500;94.1250;118;70;0.59805
9610490;-0.09000;93.6875;118;70;0.63077
9610500;-0.08500;93.4375;118;70;0.65690
9610510;-0.08500;93.1875;118;70;0.67863
9610520;-0.08500;92.9375;118;70;0.70134
9610530;-0.08500;92.4375;118;70;0.74237
9610540;-0.08500;92.1250;118;70;0.75971
9610550;-0.08000;91.8125;118;70;0.77460
9610560;-0.07500;91.3750;118;70;0.78755
9610570;-0.08000;90.5625;118;70;0.80684
9610580;-0.08500;90.1250;118;70;0.81319
9610590;-0.08500;89.6875;118;70;0.81758
9610600;-0.08500;89.1875;118;70;0.81856
9610610;-0.06500;88.2500;118;70;0.81514
9610620;-0.03500;87.8125;118;70;0.81197
9610630;0.00000;87.3750;118;70;0.80733
9610640;0.00500;86.9375;118;70;0.80122
9610650;0.02000;86.0000;118;70;0.78315
9610660;0.05000;85.5625;118;70;0.77118
9610670;0.07500;85.1250;118;70;0.75726
9610680;0.06000;84.2500;118;70;0.72454
9610690;0.04000;83.8750;118;70;0.70623
9610700;0.00000;83.4375;118;70;0.68864
9610710;-0.03500;83.0625;118;70;0.67155
9610720;-0.09500;82.3125;118;70;0.63516
9610730;-0.11500;81.9375;118;70;0.61783
9610740;-0.12000;81.5625;118;70;0.60171
9610750;-0.12000;81.2500;118;70;0.58706
9610760;-0.12000;80.8750;118;70;0.57411
9610770;-0.10500;80.2500;118;70;0.55238
9610780;-0.10000;79.8750;118;70;0.54335
9610790;-0.08500;79.5625;118;70;0.53553
9610800;0.14500;78.9375;118;70;0.52234
9610810;0.70500;78.6875;118;70;0.51600
9610820;1.09000;78.3750;118;70;0.51013
9610830;0.63000;78.0625;118;70;0.50452
9610840;-0.17500;77.5000;118;70;0.49280
9610850;-0.25000;77.2500;118;70;0.48718
9610860;-0.19000;76.9375;118;70;0.48156
9610870;-0.18000;76.6875;118;70;0.47570
9610880;-0.18000;76.3750;118;70;0.46984
9610890;-0.17000;75.7500;118;70;0.45861
9610900;-0.17000;75.4375;118;70;0.45372
9610910;-0.16000;75.0625;118;70;0.44933
9610920;-0.15500;74.3125;118;70;0.43932
9610930;-0.15000;73.9375;118;70;0.43394
9610940;-0.14500;73.6250;118;70;0.42882
9610950;-0.14000;73.2500;118;70;0.42344
9610960;-0.13500;72.9375;118;70;0.41807
9610970;-0.12500;72.2500;118;70;0.40757
9610980;-0.11500;71.8750;118;70;0.40244
9610990;-0.10500;71.5625;118;70;0.39756
9611000;-0.09500;71.0625;118;70;0.39023
9611010;-0.08000;71.0000;118;70;0.38632
9611020;-0.06500;71.1250;118;70;0.38217
9611030;-0.04500;71.6875;118;70;0.37827
9611040;-0.03500;72.9375;118;70;0.37411
9611050;-0.02500;77.6875;118;70;0.36630
9611060;-0.00500;81.0625;118;70;0.36264
9611070;0.01000;84.9375;118;70;0.35922
9611080;0.02000;89.0625;118;70;0.35629
9611090;0.04500;97.6250;118;70;0.35092
9611100;0.07000;101.7500;118;70;0.34921
9611110;0.09000;105.5625;118;70;0.34799
9611120;0.11000;109.0625;118;70;0.34676
9611130;0.14500;114.6250;118;70;0.34457
9611140;0.16500;116.7500;118;70;0.34310
9611150;0.19500;118.4375;118;70;0.34164
9611160;0.20500;120.8125;118;70;0.33871
9611170;0.20500;121.5625;118;70;0.33724
9611180;0.18000;122.1250;118;70;0.33578
9611190;0.13000;122.4375;118;70;0.33431
9611200;0.09000;122.6250;118;70;0.33358
9611210;0.03500;122.4375;118;70;0.33211
9611220;-0.02000;122.1250;118;70;0.33114
9611230;-0.05000;121.6250;118;70;0.32112
9611240;-0.07500;121.0000;118;70;0.30647
9611250;-0.09500;119.0625;118;70;0.29377
9611260;-0.11000;117.8750;118;70;0.29060
9611270;-0.11500;116.4375;118;70;0.28816
9611280;-0.11500;114.8750;118;70;0.28596
9611290;-0.11500;111.1875;118;70;0.28327
9611300;-0.11000;109.0625;118;70;0.28400
9611310;-0.10500;106.8125;118;70;0.28669
9611320;-0.10500;104.5000;118;70;0.29206
9611330;-0.10000;100.0000;118;70;0.31502
9611340;-0.10000;98.0000;118;70;0.33333
9611350;-0.09500;96.3229;118;70;0.33854
9611360;-0.09500;94.9375;118;70;0.35580
9611370;-0.09000;93.8125;118;70;0.41026
9611380;-0.09000;92.8750;118;70;0.44054
9611390;-0.09500;92.1250;118;70;0.47106
9611400;-0.09500;91.1250;118;70;0.52601
9611410;-0.09500;90.8125;118;70;0.54701
9611420;-0.09500;90.5625;118;70;0.56899
9611430;-0.09500;90.2500;118;70;0.58974
9611440;-0.09500;90.0000;118;70;0.60855
9611450;-0.09500;89.3750;118;70;0.63834
9611460;-0.09500;89.0625;118;70;0.64957
9611470;-0.09000;88.6875;118;70;0.65885
9611480;-0.08500;87.8125;118;70;0.67106
9611490;-0.08500;87.3750;118;70;0.67473
9611500;-0.07000;86.8750;118;70;0.67668
9611510;-0.04000;86.3750;118;70;0.67619
9611520;-0.01500;85.9375;118;70;0.67375
9611530;-0.00500;84.9375;118;70;0.66593
9611540;0.00500;84.4375;118;70;0.65983
9611550;0.03000;83.9375;118;70;0.65201
9611560;0.07000;83.5000;118;70;0.64249
9611570;0.06000;82.5625;118;70;0.61783
9611580;0.02500;82.1250;118;70;0.60293
9611590;-0.01500;81.6875;118;70;0.58657
9611600;-0.05500;80.8125;118;70;0.55238
9611610;-0.09000;80.3750;118;70;0.53602
9611620;-0.12500;80.0000;118;70;0.51819
9611630;-0.14000;79.5625;118;70;0.50012
9611640;-0.14000;79.1875;118;70;0.48230
9611650;-0.14500;78.4375;118;70;0.44957
9611660;-0.13500;78.1250;118;70;0.43492
9611670;-0.13000;77.8125;118;70;0.42173
9611680;-0.10500;77.1875;118;70;0.39927
9611690;0.02500;76.8750;118;70;0.38974
9611700;0.46000;76.6250;118;70;0.38120
9611710;0.91000;76.3750;118;70;0.37411
9611720;0.66000;76.1875;118;70;0.36801
9611730;-0.03500;75.6875;118;70;0.35580
9611740;-0.30000;75.4375;118;70;0.34945
9611750;-0.24000;75.1875;118;70;0.34310
9611760;-0.19500;75.0000;118;70;0.33675
9611770;-0.19000;74.5000;118;70;0.32454
9611780;-0.18500;74.2500;118;70;0.31868
9611790;-0.18500;74.0000;118;70;0.31306
9611800;-0.18500;74.0000;118;70;0.31306
9611810;-0.17500;73.1250;118;70;0.29890
9611820;-0.17000;72.8750;118;70;0.29451
9611830;-0.16500;72.5625;118;70;0.28962
9611840;-0.15500;71.9375;118;70;0.27961
9611850;-0.15000;71.6250;118;70;0.27448
9611860;-0.14000;71.3125;118;70;0.26935
9611870;-0.13000;71.0000;118;70;0.26422
9611880;-0.12000;70.6875;118;70;0.25934
9611890;-0.10500;70.1875;118;70;0.24908
9611900;-0.10000;69.9375;118;70;0.24396
9611910;-0.09500;69.6875;118;70;0.24029
9611920;-0.08500;69.5625;118;70;0.23761
9611930;-0.06500;69.8125;118;70;0.23053
9611940;-0.05500;70.6250;118;70;0.22686
9611950;-0.03500;72.0000;118;70;0.22320
9611960;-0.02500;74.0625;118;70;0.21954
9611970;-0.00500;80.0000;118;70;0.21245
9611980;0.00500;83.6250;118;70;0.20904
9611990;0.02500;87.4375;118;70;0.20586
9612000;0.05000;95.3125;118;69;0.20073
9612010;0.07000;99.0625;118;69;0.19927
9612020;0.10000;102.5625;118;69;0.19731
9612030;0.13500;105.6250;118;69;0.19560
9612040;0.15500;108.2500;118;69;0.19414
9612050;0.18000;112.1250;118;69;0.19194
9612060;0.19000;113.4375;118;69;0.19096
9612070;0.17500;114.4375;118;69;0.18999
9612080;0.14000;115.1875;118;69;0.18901
9612090;0.07000;115.8125;118;69;0.18730
9612100;0.02500;115.8125;118;69;0.18632
9612110;-0.02500;115.6250;118;69;0.18632
9612120;-0.06500;115.2500;118;69;0.18706
9612130;-0.09500;113.8750;118;69;0.18657
9612140;-0.11500;112.9375;118;69;0.18608
9612150;-0.13000;111.7500;118;69;0.18584
9612160;-0.13500;110.4375;118;69;0.18559
9612170;-0.13500;107.3750;118;69;0.18559
9612180;-0.13500;105.6250;118;69;0.18584
9612190;-0.13500;103.6875;118;69;0.18632
9612200;-0.13500;99.4375;118;69;0.18950
9612210;-0.12500;97.2500;118;69;0.19316
9612220;-0.11500;95.1250;118;69;0.19853
9612230;-0.11500;93.1875;118;69;0.20684
9612240;-0.10500;91.5625;118;69;0.21880
9612250;-0.10500;89.1875;118;69;0.25568
9612260;-0.10000;88.3750;118;69;0.28083
9612270;-0.09500;87.7500;118;69;0.30916
9612280;-0.08500;86.9375;118;69;0.37094
9612290;-0.08500;86.6875;118;69;0.40269
9612300;-0.08000;86.5000;118;69;0.43370
9612310;-0.08000;86.3125;118;69;0.45934
9612320;-0.07500;86.1250;118;69;0.48156
9612330;-0.07500;85.7500;118;69;0.52625
9612340;-0.06500;85.5000;118;69;0.54579
9612350;-0.06500;85.1875;118;69;0.56264
9612360;-0.06500;84.8125;118;69;0.57680
9612370;-0.06500;84.1250;118;69;0.59780
9612380;-0.06500;83.7500;118;69;0.60488
9612390;-0.06500;83.3125;118;69;0.60952
9612400;-0.05500;82.5000;118;69;0.61221
9612410;-0.04000;82.0625;118;69;0.61026
9612420;-0.01000;81.6250;118;69;0.60733
9612430;0.01000;81.1875;118;69;0.60269
9612440;0.01500;80.7500;118;69;0.59658
9612450;0.03000;79.9375;118;69;0.57851
9612460;0.07000;79.5000;118;69;0.56654
9612470;0.08500;79.1250;118;69;0.55287
9612480;0.06000;78.3750;118;69;0.53773
9612490;0.02000;78.0000;118;69;0.50452
9612500;-0.00500;77.5625;118;69;0.48913
9612510;-0.05500;77.2500;118;69;0.47473
9612520;-0.08500;76.8750;118;69;0.45958
9612530;-0.11000;76.1875;118;69;0.43053
9612540;-0.11500;75.8750;118;69;0.41734
9612550;-0.11500;75.5625;118;69;0.40513
9612560;-0.11000;75.3125;118;69;0.39414
9612570;-0.10500;74.7500;118;69;0.37631
9612580;-0.09500;74.5000;118;69;0.36923
9612590;-0.04000;74.2500;118;69;0.36288
9612600;0.34000;73.8125;118;69;0.35238
9612610;0.75500;73.6250;118;69;0.34847
9612620;0.92000;73.3750;118;69;0.34408
9612630;0.16000;73.1875;118;69;0.33944
9612640;-0.23000;73.0625;118;69;0.33480
9612650;-0.24500;72.6250;118;69;0.32601
9612660;-0.18000;72.4375;118;69;0.32186
9612670;-0.16500;72.2500;118;69;0.31770
9612680;-0.16000;72.0625;118;69;0.31331
9612690;-0.16000;71.6875;118;69;0.30452
9612700;-0.15500;71.4375;118;69;0.30085
9612710;-0.15500;71.1875;118;69;0.29768
9612720;-0.14500;70.9375;118;69;0.29402
9612730;-0.13500;70.3750;118;69;0.28571
9612740;-0.13500;70.1250;118;69;0.28132
9612750;-0.13000;69.8125;118;69;0.27692
9612760;-0.12500;69.2500;118;69;0.27253
9612770;-0.11500;69.0000;118;69;0.26398
9612780;-0.10500;68.6875;118;69;0.25983
9612790;-0.09000;68.4375;118;69;0.25568
9612800;-0.09000;68.4375;118;69;0.25568
9612810;-0.07500;67.8125;118;69;0.24689
9612820;-0.06500;67.6250;118;69;0.24396
9612830;-0.05500;67.6875;118;69;0.24078
9612840;-0.04500;69.0625;118;69;0.23443
9612850;-0.03500;70.6250;118;69;0.23101
9612860;-0.02000;72.9375;118;69;0.22784
9612870;-0.00500;75.8750;118;69;0.22491
9612880;0.01000;79.2500;118;69;0.22198
9612890;0.02000;86.9375;118;69;0.21661
9612900;0.04000;90.9375;118;69;0.21538
9612910;0.06000;94.8750;118;69;0.21465
9612920;0.08500;98.5625;118;69;0.21343
9612930;0.11000;104.9375;118;69;0.21074
9612940;0.14500;107.5625;118;69;0.20977
9612950;0.17000;109.6875;118;69;0.20904
9612960;0.19000;112.7500;118;69;0.20830
9612970;0.19000;113.6875;118;69;0.20684
9612980;0.16500;114.3750;118;69;0.20611
9612990;0.11000;114.8750;118;69;0.20562
9613000;0.06500;115.0625;118;69;0.20513
9613010;0.00500;114.9375;118;69;0.20635
9613020;-0.05500;114.5625;118;69;0.20659
9613030;-0.08000;114.0625;118;69;0.20659
9613040;-0.10500;113.3125;118;69;0.20635
9613050;-0.12000;111.2500;118;69;0.20586
9613060;-0.12500;110.0000;118;69;0.20562
9613070;-0.13000;108.5625;118;69;0.20537
9613080;-0.13000;105.2500;118;69;0.20537
9613090;-0.13000;103.3750;118;69;0.20586
9613100;-0.12500;101.3750;118;69;0.20733
9613110;-0.12500;99.2500;118;69;0.20977
9613120;-0.12000;95.1875;118;69;0.21954
9613130;-0.11500;93.3750;118;69;0.22857
9613140;-0.10500;91.8750;118;69;0.24151
9613150;-0.09500;90.6250;118;69;0.25885
9613160;-0.09000;89.5625;118;69;0.28034
9613170;-0.08500;88.0625;118;69;0.33504
9613180;-0.07500;87.5625;118;69;0.36630
9613190;-0.07500;87.1250;118;69;0.39878
9613200;-0.07500;86.8125;118;69;0.43150
9613210;-0.07000;86.3125;118;69;0.48376
9613220;-0.06500;86.1250;118;69;0.50965
9613230;-0.06500;85.8750;118;69;0.53455
9613240;-0.06500;85.3750;118;69;0.57705
9613250;-0.06500;85.0625;118;69;0.59414
9613260;-0.06500;84.7500;118;69;0.60830
9613270;-0.06000;84.3750;118;69;0.62002
9613280;-0.06000;83.6250;118;69;0.62930
9613290;-0.05500;83.1875;118;69;0.68474
9613300;-0.04500;82.7500;118;69;0.69939
9613310;-0.02500;82.3125;118;69;0.70549
9613320;0.00000;81.4375;118;69;0.70647
9613330;0.02000;81.0625;118;69;0.70281
9613340;0.03000;80.6250;118;69;0.69695
9613350;0.04500;80.1875;118;69;0.68889
9613360;0.07000;79.8125;118;69;0.67888
9613370;0.10000;79.0625;118;69;0.65348
9613380;0.08000;78.6875;118;69;0.63834
9613390;0.05000;78.2500;118;69;0.62222
9613400;0.01500;77.5000;118;69;0.60562
9613410;-0.03000;77.1875;118;69;0.57607
9613420;-0.06500;76.8125;118;69;0.56068
9613430;-0.10000;76.5000;118;69;0.54554
9613440;-0.11500;75.8125;118;69;0.51746
9613450;-0.11500;75.5000;118;69;0.50501
9613460;-0.10500;75.1875;118;69;0.49377
9613470;-0.10000;74.9375;118;69;0.48352
9613480;-0.09500;74.6875;118;69;0.47424
9613490;-0.07500;74.1875;118;69;0.45885
9613500;0.20500;73.9375;118;69;0.45324
9613510;0.60500;73.7500;118;69;0.44860
9613520;0.97000;73.5625;118;69;0.44371
9613530;0.41000;73.1875;118;69;0.43370
9613540;-0.12000;73.0000;118;69;0.42833
9613550;-0.26500;72.7500;118;69;0.42295
9613560;-0.19500;72.5625;118;69;0.41783
9613570;-0.17000;72.2500;118;69;0.40781
9613580;-0.16500;72.1250;118;69;0.40317
9613590;-0.16500;71.8750;118;69;0.39853
9613600;-0.16000;71.3750;118;69;0.39365
9613610;-0.16000;71.1250;118;69;0.38608
9613620;-0.15500;70.8125;118;69;0.38169
9613630;-0.15500;70.5625;118;69;0.37705
9613640;-0.14500;70.0625;118;69;0.36777
9613650;-0.14500;69.7500;118;69;0.36313
9613660;-0.14000;69.4375;118;69;0.35849
9613670;-0.13500;69.1875;118;69;0.35433
9613680;-0.13000;68.8750;118;69;0.35018
9613690;-0.12500;68.3750;118;69;0.34164
9613700;-0.11500;68.1250;118;69;0.33822
9613710;-0.09500;67.9375;118;69;0.33529
9613720;-0.08500;67.7500;118;69;0.33187
9613730;-0.07500;67.7500;118;69;0.32405
9613740;-0.06500;68.3125;118;69;0.32039
9613750;-0.05500;69.3750;118;69;0.31648
9613760;-0.04500;71.1875;118;69;0.31282
9613770;-0.03500;76.8750;118;69;0.30574
9613780;-0.01500;80.5000;118;69;0.30256
9613790;-0.00500;84.3750;118;69;0.29963
9613800;0.02000;92.3750;118;69;0.29548
9613810;0.03500;96.3125;118;69;0.29451
9613820;0.06000;100.0625;118;69;0.29304
9613830;0.09000;103.4375;118;69;0.29133
9613840;0.12000;108.9375;118;69;0.28889
9613850;0.14000;111.0625;118;69;0.28791
9613860;0.16500;112.7500;118;69;0.28694
9613870;0.17500;114.0625;118;69;0.28596
9613880;0.16000;115.0625;118;69;0.28523
9613890;0.12000;116.3125;118;69;0.28425
9613900;0.05500;116.5625;118;69;0.28449
9613910;0.00500;116.6875;118;69;0.28498
9613920;-0.04500;116.5625;118;69;0.28474
9613930;-0.09000;115.8125;118;69;0.28376
9613940;-0.10500;115.1250;118;69;0.28327
9613950;-0.12500;114.3125;118;69;0.28303
9613960;-0.13500;112.0625;118;69;0.28278
9613970;-0.13500;110.6250;118;69;0.28278
9613980;-0.14000;109.0625;118;69;0.28278
9613990;-0.13500;107.3750;118;69;0.28278
9614000;-0.13500;105.4375;118;69;0.28303
9614010;-0.13000;101.2500;118;69;0.28669
9614020;-0.12500;98.9375;118;69;0.29060
9614030;-0.12000;96.6875;118;69;0.29719
9614040;-0.11500;94.5000;118;69;0.30720
9614050;-0.11000;91.0000;118;69;0.34042
9614060;-0.10500;89.7500;118;69;0.36386
9614070;-0.09500;88.7500;118;69;0.39121
9614080;-0.09000;87.3750;118;69;0.45397
9614090;-0.08500;86.9375;118;69;0.48742
9614100;-0.08500;86.6250;118;69;0.51600
9614110;-0.08000;86.4375;118;69;0.54164
9614120;-0.08000;86.2500;118;69;0.56923
9614130;-0.07500;85.9375;118;69;0.62173
9614140;-0.07500;85.7500;118;69;0.64493
9614150;-0.07500;85.5625;118;69;0.66545
9614160;-0.07000;85.0625;118;69;0.68327
9614170;-0.06500;84.6875;118;69;0.71038
9614180;-0.06000;84.3125;118;69;0.71966
9614190;-0.05500;83.8750;118;69;0.72650
9614200;-0.05000;83.5000;118;69;0.73016
9614210;-0.03500;82.6250;118;69;0.73211
9614220;-0.00500;82.1875;118;69;0.73138
9614230;0.02500;81.7500;118;69;0.72918
9614240;0.05000;81.3125;118;69;0.72527
9614250;0.06500;80.5000;118;69;0.71160
9614260;0.09500;80.1250;118;69;0.70208
9614270;0.12500;79.6875;118;69;0.69060
9614280;0.13000;78.8750;118;69;0.66203
9614290;0.11000;78.5000;118;69;0.64567
9614300;0.07000;78.1250;118;69;0.63004
9614310;0.04500;77.7500;118;69;0.61441
9614320;-0.00500;77.0000;118;69;0.57924
9614330;-0.03500;76.6250;118;69;0.56166
9614340;-0.04500;76.3125;118;69;0.54481
9614350;-0.05500;75.9375;118;69;0.52943
9614360;-0.05000;75.6250;118;69;0.51526
9614370;-0.04500;75.0625;118;69;0.49158
9614380;-0.04000;74.8125;118;69;0.48205
9614390;-0.03500;74.5625;118;69;0.47375
9614400;0.04000;74.3125;118;69;0.46716
9614410;0.41000;73.8750;118;69;0.45617
9614420;0.99000;73.6250;118;69;0.45104
9614430;0.90000;73.4375;118;69;0.44591
9614440;0.23000;73.2500;118;69;0.44078
9614450;-0.22000;72.8750;118;69;0.43028
9614460;-0.17500;72.6875;118;69;0.42491
9614470;-0.12500;72.5000;118;69;0.41978
9614480;-0.12000;72.3125;118;69;0.41490
9614490;-0.12000;71.8750;118;69;0.40513
9614500;-0.11500;71.6875;118;69;0.40122
9614510;-0.11500;71.4375;118;69;0.39780
9614520;-0.10500;71.1875;118;69;0.39390
9614530;-0.09500;70.6250;118;69;0.38535
9614540;-0.09500;70.3750;118;69;0.38071
9614550;-0.09500;70.0625;118;69;0.37607
9614560;-0.09500;69.4375;118;69;0.36679
9614570;-0.09000;69.1250;118;69;0.36239
9614580;-0.08500;68.8750;118;69;0.35800
9614590;-0.08000;68.6250;118;69;0.35360
9614600;-0.07500;68.3750;118;69;0.35018
9614610;-0.06500;67.9375;118;69;0.34359
9614620;-0.05500;67.7500;118;69;0.33944
9614630;-0.05000;67.6875;118;69;0.33529
9614640;-0.04000;67.8750;118;69;0.33114
9614650;-0.03500;69.7500;118;69;0.32332
9614660;-0.01500;71.6875;118;69;0.31990
9614670;-0.00500;74.3750;118;69;0.31648
9614680;0.01000;77.6250;118;69;0.31331
9614690;0.03000;85.3125;118;69;0.30769
9614700;0.04500;89.4375;118;69;0.30598
9614710;0.06000;93.5625;118;69;0.30501
9614720;0.09000;101.3125;118;69;0.30183
9614730;0.11000;104.6875;118;69;0.30012
9614740;0.13000;107.6875;118;69;0.29841
9614750;0.16500;110.1875;118;69;0.29695
9614760;0.18500;112.3125;118;69;0.29548
9614770;0.19500;115.2500;118;69;0.29255
9614780;0.19500;116.3125;118;69;0.29133
9614790;0.16000;117.0625;118;69;0.29011
9614800;0.16000;117.0625;118;69;0.29011
9614810;0.04000;118.1875;118;69;0.29035
9614820;-0.00500;118.1250;118;69;0.29011
9614830;-0.06500;117.8750;118;69;0.28987
9614840;-0.10000;116.8750;118;69;0.28938
9614850;-0.12000;116.1250;118;69;0.28913
9614860;-0.13500;115.1250;118;69;0.28889
9614870;-0.14000;114.0000;118;69;0.28864
9614880;-0.15000;111.1875;118;69;0.28816
9614890;-0.15500;109.5625;118;69;0.28791
9614900;-0.16000;107.7500;118;69;0.28840
9614910;-0.16000;105.7500;118;69;0.28987
9614920;-0.16000;103.5625;118;69;0.29182
9614930;-0.16000;99.0000;118;69;0.30208
9614940;-0.16000;96.8125;118;69;0.31258
9614950;-0.15000;94.8750;118;69;0.32796
9614960;-0.14000;93.2500;118;69;0.34774
9614970;-0.13500;90.8750;118;69;0.40000
9614980;-0.12000;90.0625;118;69;0.43126
9614990;-0.11500;89.3750;118;69;0.46422
9615000;-0.10500;88.5625;119;70;0.52088
9615010;-0.10500;88.3125;119;70;0.55018
9615020;-0.09500;88.0625;119;70;0.57949
9615030;-0.09500;87.8750;119;70;0.60733
9615040;-0.09000;87.7500;119;70;0.63297
9615050;-0.09000;87.2500;119;70;0.67619
9615060;-0.08500;87.0000;119;70;0.69353
9615070;-0.08500;86.6875;119;70;0.70842
9615080;-0.08000;86.3750;119;70;0.72088
9615090;-0.07500;85.5625;119;70;0.73919
9615100;-0.07500;85.1875;119;70;0.74383
9615110;-0.06500;84.7500;119;70;0.74603
9615120;-0.03500;83.8750;119;70;0.74823
9615130;-0.01500;83.4375;119;70;0.74701
9615140;0.00000;83.0625;119;70;0.74383
9615150;0.01000;82.6250;119;70;0.73895
9615160;0.03000;81.8125;119;70;0.72332
9615170;0.06000;81.4375;119;70;0.71258
9615180;0.06500;81.0625;119;70;0.69963
9615190;0.04000;80.6875;119;70;0.68523
9615200;0.00000;80.3125;119;70;0.67082
9615210;-0.03000;79.5625;119;70;0.63956
9615220;-0.06500;79.1875;119;70;0.62173
9615230;-0.11000;78.8125;119;70;0.60391
9615240;-0.13000;78.1250;119;70;0.58632
9615250;-0.14000;77.8125;119;70;0.55482
9615260;-0.14500;77.5000;119;70;0.54115
9615270;-0.14000;77.1875;119;70;0.52869
9615280;-0.13500;76.9375;119;70;0.51770
9615290;-0.13000;76.3750;119;70;0.49963
9615300;-0.03000;76.1250;119;70;0.49304
9615310;0.26000;75.8750;119;70;0.48742
9615320;0.83500;75.6875;119;70;0.48181
9615330;0.95000;75.3125;119;70;0.46618
9615340;0.17000;75.1875;119;70;0.45348
9615350;-0.21500;75.0000;119;70;0.44444
9615360;-0.24000;74.8125;119;70;0.43736
9615370;-0.19000;74.4375;119;70;0.42589
9615380;-0.18500;74.2500;119;70;0.42027
9615390;-0.18500;74.1250;119;70;0.41514
9615400;-0.18000;73.6875;119;70;0.40684
9615410;-0.17500;73.4375;119;70;0.40244
9615420;-0.17000;73.1875;119;70;0.39805
9615430;-0.17000;72.9375;119;70;0.39365
9615440;-0.16500;72.6875;119;70;0.38926
9615450;-0.16000;72.1250;119;70;0.38046
9615460;-0.15000;71.8125;119;70;0.37607
9615470;-0.14500;71.5625;119;70;0.37143
9615480;-0.13000;71.0000;119;70;0.36679
9615490;-0.11500;70.7500;119;70;0.35775
9615500;-0.10500;70.5000;119;70;0.35433
9615510;-0.09500;70.2500;119;70;0.35165
9615520;-0.07500;70.0000;119;70;0.34481
9615530;-0.06500;70.1875;119;70;0.34115
9615540;-0.05000;70.7500;119;70;0.33748
9615550;-0.04000;71.8750;119;70;0.33407
9615560;-0.02500;73.7500;119;70;0.33040
9615570;-0.01000;79.6250;119;70;0.32357
9615580;0.00000;83.4375;119;70;0.32039
9615590;0.02000;87.5000;119;70;0.31746
9615600;0.04000;91.7500;119;70;0.31575
9615610;0.06500;100.1250;119;70;0.31331
9615620;0.09500;104.0000;119;70;0.31184
9615630;0.12500;107.6250;119;70;0.31062
9615640;0.14500;110.7500;119;70;0.30940
9615650;0.18000;115.6250;119;70;0.30745
9615660;0.19500;117.4375;119;70;0.30647
9615670;0.21000;118.8750;119;70;0.30549
9615680;0.20500;120.0000;119;70;0.30476
9615690;0.18500;121.5625;119;70;0.30403
9615700;0.12500;122.0000;119;70;0.30427
9615710;0.08000;122.3125;119;70;0.30476
9615720;0.01500;122.3750;119;70;0.30501
9615730;-0.03500;122.0000;119;70;0.30476
9615740;-0.07500;121.5625;119;70;0.30452
9615750;-0.09500;120.9375;119;70;0.30427
9615760;-0.10500;120.1250;119;70;0.30403
9615770;-0.11500;118.0625;119;70;0.30305
9615780;-0.12500;116.7500;119;70;0.30256
9615790;-0.12500;115.1875;119;70;0.30208
9615800;-0.12500;113.5000;119;70;0.30256
9615810;-0.12500;109.5625;119;70;0.30574
9615820;-0.12000;107.3125;119;70;0.30965
9615830;-0.12000;105.0625;119;70;0.31648
9615840;-0.11500;100.6250;119;70;0.34261
9615850;-0.11500;98.7500;119;70;0.36288
9615860;-0.11000;97.1250;119;70;0.38828
9615870;-0.10500;95.8125;119;70;0.41783
9615880;-0.10500;93.8125;119;70;0.48596
9615890;-0.10000;93.1250;119;70;0.52210
9615900;-0.10000;92.6250;119;70;0.55311
9615910;-0.10000;92.1875;119;70;0.58071
9615920;-0.09500;91.9375;119;70;0.61026
9615930;-0.09500;91.3750;119;70;0.66716
9615940;-0.09500;91.0625;119;70;0.69206
9615950;-0.09500;90.7500;119;70;0.71429
9615960;-0.09750;90.1250;119;70;0.75116
9615970;-0.10000;89.8125;119;70;0.76581
9615980;-0.10000;89.3750;119;70;0.77827
9615990;-0.10000;88.9375;119;70;0.78852
9616000;-0.10000;88.5000;119;70;0.79438
9616010;-0.09500;87.6250;119;70;0.80073
9616020;-0.07000;87.1875;119;70;0.80269
9616030;-0.04500;86.6875;119;70;0.80269
9616040;-0.01500;86.2500;119;70;0.80122
9616050;0.00000;85.3125;119;70;0.79267
9616060;0.01000;84.8750;119;70;0.78535
9616070;0.03500;84.4375;119;70;0.77607
9616080;0.07000;83.6250;119;70;0.75165
9616090;0.06000;83.1875;119;70;0.73773
9616100;0.02000;82.8125;119;70;0.72308
9616110;-0.02500;82.4375;119;70;0.70647
9616120;-0.06000;82.0625;119;70;0.68864
9616130;-0.11500;81.3125;119;70;0.65177
9616140;-0.15000;80.9375;119;70;0.63370
9616150;-0.15500;80.5625;119;70;0.61661
9616160;-0.15500;79.8750;119;70;0.60049
9616170;-0.15500;79.5625;119;70;0.57265
9616180;-0.14500;79.3125;119;70;0.56068
9616190;-0.14000;79.0000;119;70;0.55018
9616200;-0.11500;78.4375;119;70;0.53358
9616210;0.05000;78.2500;119;70;0.52601
9616220;0.57500;78.0000;119;70;0.51893
9616230;1.07500;77.8125;119;70;0.51233
9616240;0.58000;77.4375;119;70;0.49988
9616250;-0.03500;77.1875;119;70;0.49402
9616260;-0.27000;77.0000;119;70;0.48840
9616270;-0.22000;76.8125;119;70;0.48254
9616280;-0.20000;76.6875;119;70;0.47692
9616290;-0.20000;76.3125;119;70;0.46593
9616300;-0.20000;76.0625;119;70;0.46105
9616310;-0.20000;75.8125;119;70;0.45568
9616320;-0.19500;75.3125;119;70;0.44396
9616330;-0.19000;75.0000;119;70;0.43810
9616340;-0.19000;74.7500;119;70;0.43223
9616350;-0.18000;74.4375;119;70;0.42662
9616360;-0.17000;73.8750;119;70;0.41587
9616370;-0.17000;73.5625;119;70;0.41099
9616380;-0.16000;73.2500;119;70;0.40610
9616390;-0.14500;73.0000;119;70;0.40147
9616400;-0.13500;72.7500;119;70;0.39756
9616410;-0.12000;72.3125;119;70;0.38999
9616420;-0.11000;72.1250;119;70;0.38559
9616430;-0.10000;72.0625;119;70;0.38095
9616440;-0.09000;72.3125;119;70;0.37680
9616450;-0.07500;74.6250;119;70;0.36874
9616460;-0.06500;76.9375;119;70;0.36508
9616470;-0.05500;80.0000;119;70;0.36142
9616480;-0.02500;87.7500;119;70;0.35433
9616490;-0.01000;92.0625;119;70;0.35189
9616500;0.01000;96.4375;119;70;0.34994
9616510;0.04000;100.8125;119;70;0.34774
9616520;0.06000;104.9375;119;70;0.34579
9616530;0.09000;112.0625;119;70;0.34212
9616540;0.12500;114.9375;119;70;0.34090
9616550;0.14500;117.3750;119;70;0.33993
9616560;0.16500;119.3750;119;70;0.33919
9616570;0.18500;122.2500;119;70;0.33797
9616580;0.18500;123.2500;119;70;0.33748
9616590;0.17000;124.0000;119;70;0.33700
9616600;0.13000;124.9375;119;70;0.33700
9616610;0.06000;125.1250;119;70;0.33700
9616620;0.01000;125.1250;119;70;0.33651
9616630;-0.04500;125.0000;119;70;0.33602
9616640;-0.07500;124.6875;119;70;0.33553
9616650;-0.10500;123.5625;119;70;0.33504
9616660;-0.12000;122.6875;119;70;0.33480
9616670;-0.13500;121.7500;119;70;0.33431
9616680;-0.14000;120.5625;119;70;0.33382
9616690;-0.14000;117.7500;119;70;0.33358
9616700;-0.13500;116.0000;119;70;0.33431
9616710;-0.14000;114.1250;119;70;0.33529
9616720;-0.14000;112.0625;119;70;0.33773
9616730;-0.14000;107.5625;119;70;0.35092
9616740;-0.13500;105.3125;119;70;0.36361
9616750;-0.12500;103.1875;119;70;0.38144
9616760;-0.12500;99.6875;119;70;0.43077
9616770;-0.12500;98.3125;119;70;0.46129
9616780;-0.12000;97.1875;119;70;0.49475
9616790;-0.11500;96.1875;119;70;0.52967
9616800;-0.11500;96.1875;119;70;0.52967
9616810;-0.09500;94.3125;119;70;0.61734
9616820;-0.09000;93.8750;119;70;0.64689
9616830;-0.09000;93.4375;119;70;0.67497
9616840;-0.08500;92.6250;119;70;0.72357
9616850;-0.08000;92.2500;119;70;0.74383
9616860;-0.07500;91.8125;119;70;0.76142
9616870;-0.06500;91.3750;119;70;0.77656
9616880;-0.06500;90.8750;119;70;0.78926
9616890;-0.05500;89.8750;119;70;0.80610
9616900;-0.05500;89.3125;119;70;0.80952
9616910;-0.05500;88.8125;119;70;0.81294
9616920;-0.04500;88.2500;119;70;0.81587
9616930;-0.01500;87.1875;119;70;0.81685
9616940;0.01000;86.6250;119;70;0.81441
9616950;0.04000;86.1250;119;70;0.81026
9616960;0.05500;85.0625;119;70;0.79634
9616970;0.08000;84.5625;119;70;0.78657
9616980;0.11000;84.0625;119;70;0.77460
9616990;0.12500;83.5625;119;70;0.76093
9617000;0.10500;82.6250;118;70;0.73138
9617010;0.07000;82.1875;118;70;0.71477
9617020;0.03500;81.7500;118;70;0.69719
9617030;-0.01500;81.2500;118;70;0.67888
9617040;-0.05500;80.8750;118;70;0.66032
9617050;-0.07500;80.0625;118;70;0.62491
9617060;-0.08500;79.6875;118;70;0.60830
9617070;-0.08500;79.2500;118;70;0.59292
9617080;-0.08500;78.5625;118;70;0.57900
9617090;-0.08500;78.1875;118;70;0.55580
9617100;-0.08500;77.9375;118;70;0.54676
9617110;-0.01500;77.6250;118;70;0.53773
9617120;0.35000;77.3125;118;70;0.52943
9617130;0.90000;76.7500;118;70;0.51380
9617140;0.90000;76.5000;118;70;0.50647
9617150;0.22000;76.2500;118;70;0.49939
9617160;-0.25500;75.7500;118;70;0.48523
9617170;-0.21500;75.5625;118;70;0.47814
9617180;-0.17000;75.3125;118;70;0.47082
9617190;-0.17000;75.0625;118;70;0.46349
9617200;-0.17000;74.8125;118;70;0.45690
9617210;-0.16500;74.2500;118;70;0.44444
9617220;-0.16000;73.9375;118;70;0.43736
9617230;-0.15000;73.6250;118;70;0.43028
9617240;-0.14500;73.3125;118;70;0.42295
9617250;-0.14000;72.6875;118;70;0.40879
9617260;-0.13500;72.3750;118;70;0.40195
9617270;-0.13500;72.0000;118;70;0.39536
9617280;-0.12500;71.6875;118;70;0.38877
9617290;-0.11500;71.0625;118;70;0.37607
9617300;-0.10500;70.7500;118;70;0.37094
9617310;-0.08500;70.4375;118;70;0.36508
9617320;-0.07000;69.9375;118;70;0.35311
9617330;-0.05500;69.8125;118;70;0.34701
9617340;-0.03500;69.7500;118;70;0.34090
9617350;-0.02500;70.1250;118;70;0.33480
9617360;-0.00500;72.5000;118;70;0.32308
9617370;0.00000;74.7500;118;70;0.31722
9617380;0.01000;77.7500;118;70;0.29841
9617390;0.03000;81.1875;118;70;0.27350
9617400;0.05000;85.0625;118;70;0.25983
9617410;0.07000;93.3125;118;70;0.24567
9617420;0.09000;97.3750;118;70;0.24078
9617430;0.12000;101.3125;118;70;0.23639
9617440;0.14500;108.0000;118;70;0.22882
9617450;0.17500;110.7500;118;70;0.22564
9617460;0.20500;113.0000;118;70;0.22295
9617470;0.22500;114.8125;118;70;0.22051
9617480;0.24500;117.3125;118;70;0.21563
9617490;0.24000;118.1875;118;70;0.21416
9617500;0.21000;118.7500;118;70;0.21319
9617510;0.15000;119.0625;118;70;0.21148
9617520;0.10500;119.1875;118;70;0.20952
9617530;0.05000;118.8750;118;70;0.20635
9617540;-0.00500;118.5000;118;70;0.20513
9617550;-0.03500;117.9375;118;70;0.20391
9617560;-0.07500;117.2500;118;70;0.20293
9617570;-0.09500;115.1875;118;70;0.20098
9617580;-0.10500;113.8750;118;70;0.19976
9617590;-0.11500;112.3750;118;70;0.19853
9617600;-0.11500;108.9375;118;70;0.19829
9617610;-0.12000;106.9375;118;70;0.19805
9617620;-0.11500;104.8125;118;70;0.19805
9617630;-0.11000;102.5625;118;70;0.19976
9617640;-0.10500;100.3125;118;70;0.20391
9617650;-0.10000;96.1250;118;70;0.22271
9617660;-0.10000;94.3750;118;70;0.23907
9617670;-0.09500;92.8750;118;70;0.26032
9617680;-0.09000;90.7500;118;70;0.31502
9617690;-0.08500;90.0000;118;70;0.34237
9617700;-0.08500;89.3750;118;70;0.36899
9617710;-0.07500;88.9375;118;70;0.39927
9617720;-0.07500;88.3125;118;70;0.46056
9617730;-0.08000;88.0625;118;70;0.48913
9617740;-0.08500;87.8125;118;70;0.51551
9617750;-0.08000;87.5625;118;70;0.53895
9617760;-0.08500;87.3125;118;70;0.55946
9617770;-0.08500;86.6875;118;70;0.59121
9617780;-0.08500;86.3125;118;70;0.60293
9617790;-0.09000;85.8750;118;70;0.61245
9617800;-0.09000;85.0625;118;70;0.62173
9617810;-0.09000;84.6250;118;70;0.62442
9617820;-0.08500;84.1250;118;70;0.62564
9617830;-0.05000;83.6875;118;70;0.62515
9617840;-0.02500;83.2500;118;70;0.62271
9617850;0.00000;82.3750;118;70;0.61270
9617860;0.00000;81.9375;118;70;0.60513
9617870;0.03000;81.5000;118;70;0.59585
9617880;0.05500;81.0625;118;70;0.58486
9617890;0.07000;80.1875;118;70;0.55897
9617900;0.03500;79.8125;118;70;0.54505
9617910;-0.01500;79.4375;118;70;0.52918
9617920;-0.03500;79.0625;118;70;0.51160
9617930;-0.08500;78.2500;118;70;0.47448
9617940;-0.13000;77.8750;118;70;0.45592
9617950;-0.14500;77.5000;118;70;0.43810
9617960;-0.15000;76.8125;118;70;0.40610
9617970;-0.15000;76.5000;118;70;0.39194
9617980;-0.14500;76.1875;118;70;0.37924
9617990;-0.13500;75.8750;118;70;0.36923
9618000;-0.13500;75.3125;118;70;0.35336
9618010;-0.06500;75.1250;118;70;0.34579
9618020;0.37500;74.8750;118;70;0.33895
9618030;0.79500;74.6875;118;70;0.33236
9618040;0.78000;74.4375;118;70;0.32601
9618050;-0.00500;74.0625;118;70;0.31404
9618060;-0.31000;73.8125;118;70;0.30867
9618070;-0.29000;73.6250;118;70;0.30305
9618080;-0.23500;73.4375;118;70;0.29744
9618090;-0.22500;73.0625;118;70;0.28718
9618100;-0.22500;72.8125;118;70;0.28327
9618110;-0.22000;72.5625;118;70;0.27863
9618120;-0.21500;72.0625;118;70;0.26813
9618130;-0.21000;71.8125;118;70;0.26276
9618140;-0.21000;71.5000;118;70;0.25739
9618150;-0.20000;71.2500;118;70;0.25226
9618160;-0.19000;70.9375;118;70;0.24737
9618170;-0.18000;70.3125;118;70;0.23858
9618180;-0.17000;70.0000;118;70;0.23443
9618190;-0.15500;69.6875;118;70;0.23150
9618200;-0.14000;69.4375;118;70;0.22906
9618210;-0.12500;68.9375;118;70;0.22173
9618220;-0.10500;68.6875;118;70;0.21709
9618230;-0.09000;68.4375;118;70;0.21221
9618240;-0.07500;68.3125;118;70;0.20757
9618250;-0.05500;68.5000;118;70;0.19878
9618260;-0.03500;69.2500;118;70;0.19512
9618270;-0.02500;70.5625;118;70;0.19170
9618280;-0.00500;72.5625;118;70;0.18828
9618290;0.01000;78.4375;118;70;0.18266
9618300;0.02500;82.0000;118;70;0.18120
9618310;0.04000;85.8125;118;70;0.17900
9618320;0.06000;93.6250;118;70;0.17680
9618330;0.09500;97.3750;118;70;0.17289
9618340;0.11500;100.8125;118;70;0.17094
9618350;0.14500;103.9375;118;70;0.16923
9618360;0.18000;106.6875;118;70;0.16752
9618370;0.21500;110.7500;118;70;0.16484
9618380;0.22500;112.1250;118;70;0.16410
9618390;0.22500;113.1875;118;70;0.16459
9618400;0.19000;114.4375;118;70;0.16581
9618410;0.15000;114.6250;118;70;0.16581
9618420;0.09000;114.6875;118;70;0.16557
9618430;0.02000;114.5000;118;70;0.16532
9618440;-0.02500;114.1250;118;70;0.16508
9618450;-0.06500;112.8125;118;70;0.16484
9618460;-0.10000;111.9375;118;70;0.16484
9618470;-0.11500;110.8125;118;70;0.16484
9618480;-0.13500;109.5625;118;70;0.16484
9618490;-0.13500;106.5000;118;70;0.16557
9618500;-0.13500;104.6875;118;70;0.16679
9618510;-0.13500;102.7500;118;70;0.16752
9618520;-0.12500;98.5625;118;70;0.16947
9618530;-0.12000;96.3125;118;70;0.17216
9618540;-0.11500;94.2500;118;70;0.17705
9618550;-0.10500;92.3125;118;70;0.18486
9618560;-0.10000;89.4375;118;70;0.21221
9618570;-0.09500;88.3750;118;70;0.23272
9618580;-0.09000;87.5625;118;70;0.25763
9618590;-0.08000;86.8750;118;70;0.28230
9618600;-0.07500;86.3750;118;70;0.30769
9618610;-0.06500;85.7500;118;70;0.37045
9618620;-0.05500;85.5625;118;70;0.40342
9618630;-0.05500;85.3750;118;70;0.43565
9618640;-0.04500;85.1875;118;70;0.46569
9618650;-0.04000;84.7500;118;70;0.51795
9618660;-0.04500;84.5625;118;70;0.53968
9618670;-0.04500;84.2500;118;70;0.55849
9618680;-0.05000;83.6250;118;70;0.57411
9618690;-0.04500;83.2500;118;70;0.59560
9618700;-0.04500;82.8125;118;70;0.60147
9618710;-0.04500;82.4375;118;70;0.60659
9618720;-0.03500;82.0000;118;70;0.61050
9618730;-0.02000;81.1875;118;70;0.61294
9618740;0.00500;80.8125;118;70;0.61123
9618750;0.03500;80.4375;118;70;0.60464
9618760;0.05000;79.6250;118;70;0.58901
9618770;0.06000;79.2500;118;70;0.57192
9618780;0.09500;78.8750;118;70;0.55946
9618790;0.13000;78.4375;118;70;0.54628
9618800;0.11000;77.6875;118;70;0.51429
9618810;0.08000;77.3125;118;70;0.49695
9618820;0.05000;76.9375;118;70;0.47937
9618830;0.01500;76.5625;118;70;0.46203
9618840;-0.04000;75.8750;118;70;0.42979
9618850;-0.06500;75.5625;118;70;0.41514
9618860;-0.08000;75.2500;118;70;0.40220
9618870;-0.08500;74.9375;118;70;0.39072
9618880;-0.08500;74.6250;118;70;0.38071
9618890;-0.08500;74.1250;118;70;0.36654
9618900;-0.08500;73.8750;118;70;0.36044
9618910;-0.06500;73.6250;118;70;0.35458
9618920;0.23000;73.2500;118;70;0.34359
9618930;0.64500;73.0000;118;70;0.33871
9618940;0.94000;72.8125;118;70;0.33382
9618950;0.50000;72.6250;118;70;0.32918
9618960;-0.21000;72.3125;118;70;0.32039
9618970;-0.26000;72.1250;118;70;0.31575
9618980;-0.19000;71.9375;118;70;0.31209
9618990;-0.16000;71.7500;118;70;0.30891
9619000;-0.15500;71.5625;118;69;0.30501
9619010;-0.15500;71.1250;118;69;0.29597
9619020;-0.15000;70.8750;118;69;0.29158
9619030;-0.14500;70.6875;118;69;0.28718
9619040;-0.14000;70.1875;118;69;0.28278
9619050;-0.14000;69.8750;118;69;0.27424
9619060;-0.13500;69.6250;118;69;0.26984
9619070;-0.13500;69.3125;118;69;0.26569
9619080;-0.13000;69.0625;118;69;0.26154
9619090;-0.12500;68.4375;118;69;0.25568
9619100;-0.11500;68.1875;118;69;0.25250
9619110;-0.11000;67.9375;118;69;0.24860
9619120;-0.10000;67.4375;118;69;0.24054
9619130;-0.09500;67.2500;118;69;0.23663
9619140;-0.09000;67.1875;118;69;0.23272
9619150;-0.08500;67.2500;118;69;0.22882
9619160;-0.07500;67.6250;118;69;0.22515
9619170;-0.07500;70.0000;118;69;0.21807
9619180;-0.07500;72.2500;118;69;0.21563
9619190;-0.07500;75.1250;118;69;0.21392
9619200;-0.07500;82.2500;118;69;0.21148
9619210;-0.05500;86.1875;118;69;0.20733
9619220;-0.02500;90.1250;118;69;0.20537
9619230;0.01000;94.0000;118;69;0.20342
9619240;0.05000;97.6875;118;69;0.20147
9619250;0.10000;104.1875;118;69;0.19780
9619260;0.14000;106.8125;118;69;0.19634
9619270;0.17500;109.0000;118;69;0.19512
9619280;0.20500;112.1250;118;69;0.19414
9619290;0.21000;113.1875;118;69;0.19487
9619300;0.19500;113.9375;118;69;0.19487
9619310;0.13500;114.5000;118;69;0.19463
9619320;0.08000;114.7500;118;69;0.19414
9619330;0.00000;114.6875;118;69;0.19341
9619340;-0.04000;114.3750;118;69;0.19316
9619350;-0.08000;113.8750;118;69;0.19267
9619360;-0.10500;113.1875;118;69;0.19243
9619370;-0.11000;111.2500;118;69;0.19170
9619380;-0.11000;110.0625;118;69;0.19219
9619390;-0.10500;108.6875;118;69;0.19292
9619400;-0.09500;105.4375;118;69;0.19316
9619410;-0.08500;103.5625;118;69;0.19341
9619420;-0.08000;101.5625;118;69;0.21709
9619430;-0.07500;99.4375;118;69;0.25372
9619440;-0.06000;97.3125;118;69;0.27619
9619450;-0.04000;93.3750;118;69;0.31111
9619460;-0.02500;91.6875;118;69;0.33162
9619470;-0.01000;90.3125;118;69;0.35604
9619480;0.01000;88.3125;118;69;0.42662
9619490;0.02000;87.6250;118;69;0.45714
9619500;0.02500;87.0625;118;69;0.50867
9619510;0.03000;86.6250;118;69;0.54408
9619520;0.04000;86.0000;118;69;0.61099
9619530;0.04000;85.8125;118;69;0.64103
9619540;0.03500;85.5625;118;69;0.66789
9619550;0.02000;85.3125;118;69;0.69158
9619560;0.01000;85.0625;118;69;0.71184
9619570;0.00000;84.4375;118;69;0.74090
9619580;-0.00500;84.1250;118;69;0.74945
9619590;-0.00500;83.8125;118;69;0.75751
9619600;-0.01000;83.4375;118;69;0.76386
9619610;-0.01500;82.6875;118;69;0.77094
9619620;-0.01500;82.2500;118;69;0.77118
9619630;-0.01000;81.8125;118;69;0.76948
9619640;0.01500;81.0000;118;69;0.75946
9619650;0.03500;80.5625;118;69;0.75140
9619660;0.04500;80.1875;118;69;0.74139
9619670;0.05000;79.7500;118;69;0.73016
9619680;0.08000;79.0000;118;69;0.70330
9619690;0.11000;78.6875;118;69;0.68694
9619700;0.11500;78.3125;118;69;0.66911
9619710;0.08000;77.9375;118;69;0.65031
9619720;0.03500;77.2500;118;69;0.63126
9619730;-0.00500;76.8750;118;69;0.59487
9619740;-0.04500;76.5625;118;69;0.57802
9619750;-0.09000;76.2500;118;69;0.56215
9619760;-0.10500;75.9375;118;69;0.54774
9619770;-0.10500;75.3125;118;69;0.52381
9619780;-0.11000;75.0625;118;69;0.51477
9619790;-0.11000;74.8125;118;69;0.50574
9619800;-0.11000;74.8125;118;69;0.50574
9619810;-0.09500;74.0625;118;69;0.48254
9619820;0.06000;73.8125;118;69;0.47619
9619830;0.51000;73.5625;118;69;0.47033
9619840;0.89000;73.3750;118;69;0.46471
9619850;0.77500;72.9375;118;69;0.45421
9619860;-0.05500;72.7500;118;69;0.44908
9619870;-0.28500;72.5625;118;69;0.44493
9619880;-0.23500;72.1875;118;69;0.44078
9619890;-0.18500;71.9375;118;69;0.43077
9619900;-0.17500;71.7500;118;69;0.42564
9619910;-0.16500;71.5000;118;69;0.42051
9619920;-0.16000;71.0000;118;69;0.40977
9619930;-0.15500;70.7500;118;69;0.40440
9619940;-0.15500;70.4375;118;69;0.39927
9619950;-0.15000;70.1875;118;69;0.39438
9619960;-0.15000;69.9375;118;69;0.38950
9619970;-0.14500;69.3125;118;69;0.38169
9619980;-0.13500;69.0000;118;69;0.37875
9619990;-0.12500;68.6875;118;69;0.37509
9620000;-0.11500;68.3750;119;70;0.37118
9620010;-0.10500;67.8750;119;70;0.36288
9620020;-0.09500;67.6250;119;70;0.35873
9620030;-0.08500;67.4375;119;70;0.35458
9620040;-0.07500;67.1875;119;70;0.34628
9620050;-0.07000;67.3125;119;70;0.34212
9620060;-0.06500;67.8125;119;70;0.33822
9620070;-0.05000;68.8125;119;70;0.33553
9620080;-0.04000;70.5000;119;70;0.33333
9620090;-0.02500;75.9375;119;70;0.32796
9620100;-0.00500;79.5000;119;70;0.32503
9620110;0.00500;83.3125;119;70;0.32186
9620120;0.02500;91.3750;119;70;0.31600
9620130;0.03000;95.3125;119;70;0.31355
9620140;0.05000;99.1250;119;70;0.31136
9620150;0.07500;102.5625;119;70;0.30965
9620160;0.10000;105.6875;119;70;0.30794
9620170;0.12500;110.4375;119;70;0.30549
9620180;0.15500;112.1250;119;70;0.30525
9620190;0.17500;113.5000;119;70;0.30476
9620200;0.17500;115.3125;119;70;0.30379
9620210;0.15500;115.8750;119;70;0.30330
9620220;0.11000;116.1875;119;70;0.30281
9620230;0.04500;116.3125;119;70;0.30183
9620240;0.00500;116.1875;119;70;0.30061
9620250;-0.04000;115.5000;119;70;0.29841
9620260;-0.08500;114.9375;119;70;0.29719
9620270;-0.10500;114.1250;119;70;0.29695
9620280;-0.12000;113.1250;119;70;0.29768
9620290;-0.13500;110.6250;119;70;0.29817
9620300;-0.14500;109.0625;119;70;0.29817
9620310;-0.14500;107.3750;119;70;0.29841
9620320;-0.15000;103.4375;119;70;0.30305
9620330;-0.14500;101.3125;119;70;0.30916
9620340;-0.13500;99.0000;119;70;0.31893
9620350;-0.12500;96.6875;119;70;0.33358
9620360;-0.12500;94.4375;119;70;0.35311
9620370;-0.12000;90.7500;119;70;0.40220
9620380;-0.11500;89.3750;119;70;0.42833
9620390;-0.11500;88.3750;119;70;0.46032
9620400;-0.11500;87.5625;119;70;0.49548
9620410;-0.11500;86.5625;119;70;0.56825
9620420;-0.10500;86.2500;119;70;0.60317
9620430;-0.10000;86.0625;119;70;0.63541
9620440;-0.09500;85.9375;119;70;0.66496
9620450;-0.09000;85.7500;119;70;0.71453
9620460;-0.09500;85.6250;119;70;0.73455
9620470;-0.10500;85.3750;119;70;0.74896
9620480;-0.11500;85.1250;119;70;0.75971
9620490;-0.12500;84.5000;119;70;0.78364
9620500;-0.13000;84.0625;119;70;0.79023
9620510;-0.14500;83.6250;119;70;0.79463
9620520;-0.14000;82.7500;119;70;0.79560
9620530;-0.12500;82.3125;119;70;0.79243
9620540;-0.10000;81.9375;119;70;0.78730
9620550;-0.06500;81.5000;119;70;0.77973
9620560;-0.03500;81.0625;119;70;0.77021
9620570;-0.00500;80.1875;119;70;0.74799
9620580;0.02000;79.8125;119;70;0.73407
9620590;0.05000;79.3750;119;70;0.71819
9620600;0.09500;79.0000;119;70;0.70037
9620610;0.09000;78.1875;119;70;0.66154
9620620;0.05000;77.8125;119;70;0.64176
9620630;0.02500;77.5000;119;70;0.62198
9620640;-0.00500;77.1250;119;70;0.60293
9620650;-0.04500;76.5000;119;70;0.56899
9620660;-0.06500;76.1875;119;70;0.55556
9620670;-0.07500;75.8750;119;70;0.54408
9620680;-0.07000;75.5625;119;70;0.53333
9620690;-0.06000;74.9375;119;70;0.51526
9620700;-0.05500;74.6250;119;70;0.50794
9620710;-0.05500;74.3125;119;70;0.50159
9620720;-0.03000;73.8125;119;70;0.49011
9620730;0.13000;73.5625;119;70;0.48449
9620740;0.60000;73.3750;119;70;0.47912
9620750;1.02000;73.1250;119;70;0.47350
9620760;0.65500;72.9375;119;70;0.46789
9620770;-0.03000;72.5625;119;70;0.45861
9620780;-0.23000;72.3750;119;70;0.45348
9620790;-0.17000;72.1875;119;70;0.44811
9620800;-0.14000;72.0625;119;70;0.44249
9620810;-0.13500;71.6875;119;70;0.43175
9620820;-0.13000;71.5000;119;70;0.42637
9620830;-0.12500;71.3125;119;70;0.42100
9620840;-0.12500;70.9375;119;70;0.41050
9620850;-0.11500;70.6875;119;70;0.40488
9620860;-0.11500;70.4375;119;70;0.40049
9620870;-0.10000;70.1875;119;70;0.39658
9620880;-0.09500;69.9375;119;70;0.39219
9620890;-0.08500;69.4375;119;70;0.38291
9620900;-0.08500;69.1875;119;70;0.37827
9620910;-0.08000;68.9375;119;70;0.37363
9620920;-0.07000;68.6875;119;70;0.36899
9620930;-0.06000;68.3125;119;70;0.35971
9620940;-0.05500;68.1875;119;70;0.35482
9620950;-0.05000;68.1250;119;70;0.35018
9620960;-0.03500;68.8125;119;70;0.34335
9620970;-0.03000;69.9375;119;70;0.34115
9620980;-0.02000;71.7500;119;70;0.33822
9620990;-0.01500;74.3125;119;70;0.33504
9621000;-0.00500;77.4375;119;70;0.33211
9621010;0.01500;85.0625;119;70;0.32625
9621020;0.03000;89.1250;119;70;0.32357
9621030;0.05500;93.2500;119;70;0.32088
9621040;0.09000;101.0625;119;70;0.31673
9621050;0.12000;104.5000;119;70;0.31502
9621060;0.14000;107.5625;119;70;0.31453
9621070;0.16500;110.1250;119;70;0.31477
9621080;0.19500;114.0000;119;70;0.31429
9621090;0.21500;115.3750;119;70;0.31380
9621100;0.22000;116.4375;119;70;0.31355
9621110;0.21000;117.2500;119;70;0.31380
9621120;0.16000;118.1875;119;70;0.31404
9621130;0.11500;118.3750;119;70;0.31404
9621140;0.05000;118.3750;119;70;0.31404
9621150;-0.01500;118.1875;119;70;0.31404
9621160;-0.04500;117.8125;119;70;0.31404
9621170;-0.07500;116.5000;119;70;0.31526
9621180;-0.09500;115.5625;119;70;0.31526
9621190;-0.10500;114.5000;119;70;0.31526
9621200;-0.11000;113.1875;119;70;0.31502
9621210;-0.11500;110.1250;119;70;0.31648
9621220;-0.12000;108.3750;119;70;0.31990
9621230;-0.12000;106.4375;119;70;0.32625
9621240;-0.11500;102.1250;119;70;0.33651
9621250;-0.11500;99.8750;119;70;0.37216
9621260;-0.11000;97.7500;119;70;0.39390
9621270;-0.10000;95.7500;119;70;0.41783
9621280;-0.09500;92.6250;119;70;0.48205
9621290;-0.08500;91.5625;119;70;0.51868
9621300;-0.08000;90.6875;119;70;0.55629
9621310;-0.07500;90.0000;119;70;0.59365
9621320;-0.06500;89.4375;119;70;0.62930
9621330;-0.06500;88.8125;119;70;0.69255
9621340;-0.06500;88.5625;119;70;0.71941
9621350;-0.06500;88.3750;119;70;0.74335
9621360;-0.06500;88.1875;119;70;0.76435
9621370;-0.07500;87.6875;119;70;0.79096
9621380;-0.07500;87.4375;119;70;0.80244
9621390;-0.07500;87.1250;119;70;0.81294
9621400;-0.07000;86.7500;119;70;0.82173
9621410;-0.07500;86.0000;119;70;0.83297
9621420;-0.07500;85.5625;119;70;0.83565
9621430;-0.07500;85.1250;119;70;0.83614
9621440;-0.06000;84.2500;119;70;0.81661
9621450;-0.04000;83.8750;119;70;0.78266
9621460;-0.01500;83.4375;119;70;0.74994
9621470;0.01000;83.0625;119;70;0.71893
9621480;0.01500;82.6875;119;70;0.70256
9621490;0.02500;81.8750;119;70;0.67057
9621500;0.06500;81.5000;119;70;0.65372
9621510;0.07500;81.1250;119;70;0.63614
9621520;0.04500;80.3750;119;70;0.60122
9621530;0.01500;80.0625;119;70;0.58437
9621540;-0.01500;79.6875;119;70;0.56850
9621550;-0.07500;79.3125;119;70;0.55507
9621560;-0.11000;79.0000;119;70;0.54335
9621570;-0.13500;78.3125;119;70;0.52137
9621580;-0.14000;78.0000;119;70;0.51209
9621590;-0.14500;77.6875;119;70;0.50403
9621600;-0.13500;77.3750;119;70;0.49695
9621610;-0.13000;76.8125;119;70;0.48474
9621620;-0.12500;76.5625;119;70;0.47937
9621630;-0.07500;76.3125;119;70;0.47424
9621640;0.22500;76.1250;119;70;0.46935
9621650;0.90500;75.6875;119;70;0.46007
9621660;1.00500;75.5000;119;70;0.45568
9621670;0.38000;75.3125;119;70;0.45104
9621680;-0.24000;74.9375;119;70;0.44103
9621690;-0.25000;74.8125;119;70;0.43614
9621700;-0.20000;74.6250;119;70;0.43101
9621710;-0.20000;74.4375;119;70;0.42589
9621720;-0.19500;74.2500;119;70;0.42100
9621730;-0.19000;73.8750;119;70;0.41197
9621740;-0.19000;73.6250;119;70;0.40757
9621750;-0.19000;73.3750;119;70;0.40391
9621760;-0.18500;73.1250;119;70;0.40049
9621770;-0.18000;72.5625;119;70;0.39243
9621780;-0.17500;72.3125;119;70;0.38828
9621790;-0.17500;72.0000;119;70;0.38388
9621800;-0.17500;72.0000;119;70;0.38388
9621810;-0.16000;71.1875;119;70;0.37021
9621820;-0.14500;70.9375;119;70;0.36630
9621830;-0.14000;70.6875;119;70;0.36264
9621840;-0.12500;70.3750;119;70;0.35580
9621850;-0.11500;70.3125;119;70;0.35336
9621860;-0.10000;70.5625;119;70;0.35116
9621870;-0.09000;71.3125;119;70;0.34872
9621880;-0.07500;72.6875;119;70;0.34603
9621890;-0.06000;77.7500;119;70;0.34042
9621900;-0.05000;81.2500;119;70;0.33773
9621910;-0.03500;85.1875;119;70;0.33553
9621920;-0.01500;93.6875;119;70;0.33211
9621930;0.00500;97.9375;119;70;0.33065
9621940;0.03500;102.0000;119;70;0.32918
9621950;0.06000;105.8125;119;70;0.32869
9621960;0.09500;112.1875;119;70;0.32845
9621970;0.12000;114.7500;119;70;0.32796
9621980;0.15000;116.8125;119;70;0.32747
9621990;0.17500;118.5000;119;70;0.32698
9622000;0.18500;119.8125;119;70;0.32674
9622010;0.18500;121.6250;119;70;0.32625
9622020;0.15500;122.1875;119;70;0.32601
9622030;0.12000;122.5625;119;70;0.32601
9622040;0.06000;122.8125;119;70;0.32576
9622050;-0.01000;122.6875;119;70;0.32527
9622060;-0.05500;122.3750;119;70;0.32552
9622070;-0.10000;121.9375;119;70;0.32503
9622080;-0.11500;121.2500;119;70;0.32405
9622090;-0.13500;119.4375;119;70;0.32234
9622100;-0.14000;118.2500;119;70;0.32234
9622110;-0.14500;116.8750;119;70;0.32381
9622120;-0.14500;113.6250;119;70;0.32747
9622130;-0.14500;111.7500;119;70;0.34505
9622140;-0.14500;109.6875;119;70;0.36044
9622150;-0.14500;107.5000;119;70;0.37729
9622160;-0.14000;103.0000;119;70;0.42125
9622170;-0.13500;101.0000;119;70;0.45055
9622180;-0.12500;99.1875;119;70;0.48230
9622190;-0.12500;97.6250;119;70;0.51551
9622200;-0.12500;95.3125;119;70;0.54872
9622210;-0.11500;94.4375;119;70;0.61197
9622220;-0.11500;93.7500;119;70;0.64054
9622230;-0.11500;93.1875;119;70;0.66642
9622240;-0.11000;92.4375;119;70;0.71013
9622250;-0.10500;92.1250;119;70;0.72503
9622260;-0.10500;91.8750;119;70;0.73626
9622270;-0.10000;91.5625;119;70;0.74799
9622280;-0.10000;91.1875;119;70;0.75873
9622290;-0.10000;90.5000;119;70;0.77607
9622300;-0.10500;90.1250;119;70;0.78217
9622310;-0.10500;89.7500;119;70;0.78657
9622320;-0.10500;89.3125;119;70;0.78901
9622330;-0.10500;88.3750;119;70;0.78779
9622340;-0.09500;87.8750;119;70;0.78437
9622350;-0.08500;87.4375;119;70;0.77875
9622360;-0.04500;86.5625;119;70;0.76288
9622370;-0.02500;86.1250;119;70;0.75287
9622380;-0.01500;85.6250;119;70;0.74115
9622390;0.00000;85.1875;119;70;0.72772
9622400;0.04000;84.3125;119;70;0.69670
9622410;0.05500;83.9375;119;70;0.67961
9622420;0.05000;83.5000;119;70;0.66203
9622430;0.02000;83.1250;119;70;0.64444
9622440;-0.01500;82.7500;119;70;0.62759
9622450;-0.06500;82.0000;119;70;0.59756
9622460;-0.12000;81.6875;119;70;0.58510
9622470;-0.14000;81.3125;119;70;0.57289
9622480;-0.14500;80.9375;119;70;0.56117
9622490;-0.13500;80.2500;119;70;0.54090
9622500;-0.13500;79.9375;119;70;0.53211
9622510;-0.13000;79.6250;119;70;0.52430
9622520;-0.12500;79.1250;119;70;0.51062
9622530;-0.10000;78.8750;119;70;0.50427
9622540;0.12500;78.6250;119;70;0.49792
9622550;0.82000;78.3750;119;70;0.49231
9622560;1.12000;78.1875;119;70;0.48694
9622570;0.64000;77.7500;119;70;0.47570
9622580;-0.15000;77.5625;119;70;0.47009
9622590;-0.24000;77.3750;119;70;0.46447
9622600;-0.19000;77.1875;119;70;0.45910
9622610;-0.19000;76.8125;119;70;0.44835
9622620;-0.19500;76.5625;119;70;0.44298
9622630;-0.19000;76.3750;119;70;0.43785
9622640;-0.18000;75.8750;119;70;0.42808
9622650;-0.18000;75.6250;119;70;0.42369
9622660;-0.17000;75.3125;119;70;0.41954
9622670;-0.16000;75.0625;119;70;0.41490
9622680;-0.15500;74.7500;119;70;0.41001
9622690;-0.15500;74.2500;119;70;0.40024
9622700;-0.14500;73.9375;119;70;0.39560
9622710;-0.13500;73.6250;119;70;0.39121
9622720;-0.12000;73.3125;119;70;0.38681
9622730;-0.10000;72.8750;119;70;0.37851
9622740;-0.09000;72.6250;119;70;0.37460
9622750;-0.07500;72.5000;119;70;0.37143
9622760;-0.06500;72.5625;119;70;0.36874
9622770;-0.04500;73.7500;119;70;0.36264
9622780;-0.03000;75.2500;119;70;0.35946
9622790;-0.01500;77.6250;119;70;0.35653
9622800;-0.01500;77.6250;119;70;0.35653
9622810;0.02000;88.3750;119;70;0.34847
9622820;0.03500;92.5625;119;70;0.34628
9622830;0.05500;96.8125;119;70;0.34457
9622840;0.07500;104.8125;119;70;0.34237
9622850;0.10000;108.4375;119;70;0.34237
9622860;0.12500;111.5625;119;70;0.34261
9622870;0.16500;114.3125;119;70;0.34286
9622880;0.18500;116.5625;119;70;0.34310
9622890;0.21500;119.8125;119;70;0.34335
9622900;0.23000;120.9375;119;70;0.34335
9622910;0.23000;121.7500;119;70;0.34310
9622920;0.21000;122.4375;119;70;0.34286
9622930;0.17000;123.1250;119;70;0.34188
9622940;0.10000;123.1875;119;70;0.34139
9622950;0.06000;123.1250;119;70;0.34115
9622960;0.00000;122.4375;119;70;0.34115
9622970;-0.02500;121.8750;119;70;0.34066
9622980;-0.05500;121.1250;119;70;0.33993
9622990;-0.07500;120.1875;119;70;0.33919
9623000;-0.09000;117.8125;118;70;0.33944
9623010;-0.10000;116.3750;118;70;0.34139
9623020;-0.10000;114.7500;118;70;0.34554
9623030;-0.10000;112.9375;118;70;0.35311
9623040;-0.09500;110.9375;118;70;0.36435
9623050;-0.09500;106.5625;118;70;0.39707
9623060;-0.08500;104.2500;118;70;0.41612
9623070;-0.08500;102.0625;118;70;0.44078
9623080;-0.08500;100.0625;118;70;0.46886
9623090;-0.07500;96.7500;118;70;0.53065
9623100;-0.07500;95.4375;118;70;0.56190
9623110;-0.07000;94.3750;118;70;0.59219
9623120;-0.06500;93.4375;118;70;0.62051
9623130;-0.06500;92.1250;118;70;0.66984
9623140;-0.06000;91.6250;118;70;0.69060
9623150;-0.05500;91.2500;118;70;0.70574
9623160;-0.06500;90.6250;118;70;0.72918
9623170;-0.06500;90.2500;118;70;0.73993
9623180;-0.07000;89.8750;118;70;0.74896
9623190;-0.07000;89.4375;118;70;0.75629
9623200;-0.06500;89.0625;118;70;0.76190
9623210;-0.06500;88.1875;118;70;0.76752
9623220;-0.06500;87.6875;118;70;0.76752
9623230;-0.06500;87.2500;118;70;0.76557
9623240;-0.05500;86.7500;118;70;0.76190
9623250;-0.03500;85.7500;118;70;0.74872
9623260;-0.00500;85.2500;118;70;0.74017
9623270;0.01500;84.7500;118;70;0.72991
9623280;0.02000;84.2500;118;70;0.71770
9623290;0.04500;83.3125;118;70;0.68864
9623300;0.08500;82.8750;118;70;0.67179
9623310;0.08500;82.3750;118;70;0.65397
9623320;0.05500;81.9375;118;70;0.63541
9623330;0.01000;81.0000;118;70;0.59756
9623340;-0.01000;80.5625;118;70;0.57900
9623350;-0.06000;80.1875;118;70;0.56264
9623360;-0.10000;79.8125;118;70;0.54774
9623370;-0.11500;79.0000;118;70;0.51770
9623380;-0.11500;78.6250;118;70;0.50403
9623390;-0.11500;78.2500;118;70;0.49133
9623400;-0.10500;77.8750;118;70;0.47985
9623410;-0.10500;77.2500;118;70;0.45934
9623420;-0.09500;77.0000;118;70;0.45006
9623430;0.01000;76.6875;118;70;0.44151
9623440;0.50500;76.1875;118;70;0.42686
9623450;0.90000;75.8750;118;70;0.42100
9623460;0.81000;75.6875;118;70;0.41441
9623470;0.11000;75.4375;118;70;0.40757
9623480;-0.27000;75.0000;118;70;0.39341
9623490;-0.22000;74.7500;118;70;0.36923
9623500;-0.18000;74.5625;118;70;0.33626
9623510;-0.17000;74.3125;118;70;0.31600
9623520;-0.17000;74.0625;118;70;0.30208
9623530;-0.17000;73.5000;118;70;0.28230
9623540;-0.17000;73.2500;118;70;0.27424
9623550;-0.16500;72.9375;118;70;0.26813
9623560;-0.16000;72.6250;118;70;0.26300
9623570;-0.15500;72.0000;118;70;0.25128
9623580;-0.15000;71.6875;118;70;0.24542
9623590;-0.14500;71.3750;118;70;0.23932
9623600;-0.14000;71.0625;118;70;0.23346
9623610;-0.13500;70.3750;118;70;0.22247
9623620;-0.11500;70.1250;118;70;0.21709
9623630;-0.10500;69.8125;118;70;0.21197
9623640;-0.08500;69.5625;118;70;0.20684
9623650;-0.07000;69.1875;118;70;0.20000
9623660;-0.06000;69.1875;118;70;0.19585
9623670;-0.05000;69.4375;118;70;0.19145
9623680;-0.03500;71.5625;118;70;0.18730
9623690;-0.02500;73.6250;118;70;0.17924
9623700;-0.02000;76.3125;118;70;0.17558
9623710;0.00000;79.5000;118;70;0.17241
9623720;0.01500;83.1250;118;70;0.16947
9623730;0.04000;90.9375;118;70;0.16386
9623740;0.05500;94.8125;118;70;0.16117
9623750;0.07500;98.5625;118;70;0.15971
9623760;0.10000;105.1250;118;70;0.15824
9623770;0.12000;107.8125;118;70;0.15702
9623780;0.15500;110.0625;118;70;0.15556
9623790;0.17500;111.8750;118;70;0.15433
9623800;0.19000;113.2500;118;70;0.15311
9623810;0.17500;115.0000;118;70;0.15116
9623820;0.14500;115.5000;118;70;0.15018
9623830;0.07500;115.7500;118;70;0.14896
9623840;0.01000;115.6250;118;70;0.14799
9623850;-0.03000;115.2500;118;70;0.14847
9623860;-0.07500;114.6875;118;70;0.14847
9623870;-0.11500;113.9375;118;70;0.14823
9623880;-0.12500;112.0000;118;70;0.14799
9623890;-0.13500;110.7500;118;70;0.14750
9623900;-0.14000;109.3125;118;70;0.14750
9623910;-0.14500;107.7500;118;70;0.14847
9623920;-0.15000;106.0000;118;70;0.15067
9623930;-0.15000;102.0625;118;70;0.16215
9623940;-0.14500;99.9375;118;70;0.17338
9623950;-0.14000;97.7500;118;70;0.18632
9623960;-0.13000;93.6875;118;70;0.22369
9623970;-0.12500;92.0625;118;70;0.24982
9623980;-0.12500;90.6875;118;70;0.27961
9623990;-0.12000;89.5625;118;70;0.31184
9624000;-0.11500;88.6875;118;69;0.34505
9624010;-0.11000;87.3750;118;69;0.41172
9624020;-0.10500;86.9375;118;69;0.44298
9624030;-0.10000;86.6250;118;69;0.47179
9624040;-0.09500;86.3750;118;69;0.49792
9624050;-0.09500;86.0000;118;69;0.53382
9624060;-0.09500;85.7500;118;69;0.54945
9624070;-0.09500;85.5625;118;69;0.56337
9624080;-0.09500;85.2500;118;69;0.57460
9624090;-0.09500;84.6250;118;69;0.58999
9624100;-0.09500;84.2500;118;69;0.59414
9624110;-0.09500;83.8750;118;69;0.59634
9624120;-0.09000;83.0625;118;69;0.59438
9624130;-0.08500;82.6875;118;69;0.59048
9624140;-0.07500;82.2500;118;69;0.58486
9624150;-0.04500;81.8125;118;69;0.57778
9624160;-0.02000;81.3750;118;69;0.56947
9624170;0.00000;80.5625;118;69;0.54628
9624180;0.01000;80.1250;118;69;0.53187
9624190;0.03500;79.6875;118;69;0.51600
9624200;0.07000;79.3125;118;69;0.49915
9624210;0.08000;78.5625;118;69;0.46300
9624220;0.03500;78.1875;118;69;0.44469
9624230;0.01000;77.8125;118;69;0.42686
9624240;-0.01500;77.4375;118;69;0.41001
9624250;-0.07500;76.6875;118;69;0.38413
9624260;-0.10000;76.3125;118;69;0.37192
9624270;-0.11500;76.0000;118;69;0.36068
9624280;-0.12000;75.3750;118;69;0.34188
9624290;-0.11500;75.1250;118;69;0.33407
9624300;-0.10500;74.8125;118;69;0.32674
9624310;-0.09500;74.5625;118;69;0.32015
9624320;-0.09000;74.3125;118;69;0.31429
9624330;0.05500;73.8125;118;69;0.30354
9624340;0.38000;73.6250;118;69;0.29866
9624350;0.85500;73.3750;118;69;0.29475
9624360;0.62500;73.0000;118;69;0.28718
9624370;0.07000;72.8125;118;69;0.28254
9624380;-0.28500;72.6250;118;69;0.27741
9624390;-0.21500;72.4375;118;69;0.27179
9624400;-0.18000;72.2500;118;69;0.26618
9624410;-0.17000;71.8125;118;69;0.25519
9624420;-0.17000;71.5625;118;69;0.24982
9624430;-0.16500;71.3750;118;69;0.24469
9624440;-0.16000;71.1875;118;69;0.23956
9624450;-0.15500;70.6875;118;69;0.23297
9624460;-0.14500;70.4375;118;69;0.22979
9624470;-0.13500;70.1875;118;69;0.22589
9624480;-0.13500;69.5625;118;69;0.21758
9624490;-0.13000;69.2500;118;69;0.21343
9624500;-0.12500;68.9375;118;69;0.20928
9624510;-0.11500;68.6875;118;69;0.20488
9624520;-0.10500;68.1875;118;69;0.20049
9624530;-0.09500;67.9375;118;69;0.19219
9624540;-0.08500;67.7500;118;69;0.18828
9624550;-0.07500;67.5625;118;69;0.18584
9624560;-0.06500;67.5625;118;69;0.18168
9624570;-0.05500;68.0000;118;69;0.17900
9624580;-0.04000;68.9375;118;69;0.17631
9624590;-0.03000;70.6250;118;69;0.17338
9624600;-0.01500;72.9375;118;69;0.17045
9624610;0.00000;79.1875;118;69;0.16581
9624620;0.01000;82.8750;118;69;0.16410
9624630;0.03000;86.6875;118;69;0.16239
9624640;0.05000;94.3125;118;69;0.16093
9624650;0.08000;97.8750;118;69;0.16044
9624660;0.10000;101.1250;118;69;0.15946
9624670;0.12750;104.0000;118;69;0.15824
9624680;0.15500;108.5000;118;69;0.15580
9624690;0.17500;110.0625;118;69;0.15507
9624700;0.18500;111.3125;118;69;0.15433
9624710;0.18500;112.1875;118;69;0.15385
9624720;0.16500;112.7500;118;69;0.15336
9624730;0.12000;113.2500;118;69;0.15287
9624740;0.05500;113.1250;118;69;0.15263
9624750;0.00000;112.8125;118;69;0.15336
9624760;-0.06000;111.6875;118;69;0.15507
9624770;-0.08500;110.8125;118;69;0.15556
9624780;-0.11000;109.8125;118;69;0.15604
9624790;-0.12500;108.6250;118;69;0.15653
9624800;-0.12500;108.6250;118;69;0.15653
9624810;-0.14000;104.1250;118;69;0.15922
9624820;-0.13500;102.3125;118;69;0.16190
9624830;-0.13500;100.3750;118;69;0.16703
9624840;-0.14000;96.1875;118;69;0.18657
9624850;-0.14000;94.1250;118;69;0.20024
9624860;-0.13000;92.1875;118;69;0.21880
9624870;-0.12500;90.5000;118;69;0.24225
9624880;-0.12000;89.1250;118;69;0.27033
9624890;-0.11000;87.0625;118;69;0.33553
9624900;-0.10500;86.3750;118;69;0.37045
9624910;-0.10000;85.8750;118;69;0.40537
9624920;-0.09500;85.5000;118;69;0.43907
9624930;-0.08500;84.9375;118;69;0.49915
9624940;-0.08500;84.7500;118;69;0.52454
9624950;-0.08500;84.5625;118;69;0.54383
9624960;-0.08000;84.1250;118;69;0.57289
9624970;-0.08000;83.9375;118;69;0.58535
9624980;-0.07500;83.6875;118;69;0.59560
9624990;-0.07500;83.3750;118;69;0.60366
9625000;-0.07500;83.0625;118;69;0.60952
9625010;-0.07500;82.3125;118;69;0.61514
9625020;-0.07500;81.9375;118;69;0.61465
9625030;-0.07000;81.5625;118;69;0.61221
9625040;-0.05500;80.7500;118;69;0.60171
9625050;-0.03500;80.3750;118;69;0.59414
9625060;-0.00500;79.9375;118;69;0.58462
9625070;0.01500;79.5625;118;69;0.57338
9625080;0.02000;79.1875;118;69;0.56020
9625090;0.04000;78.3750;118;69;0.52869
9625100;0.08500;78.0000;118;69;0.51111
9625110;0.10000;77.6250;118;69;0.49280
9625120;0.07000;77.2500;118;69;0.47473
9625130;0.02500;76.5625;118;69;0.44029
9625140;0.00500;76.1875;118;69;0.42613
9625150;-0.03500;75.8750;118;69;0.41392
9625160;-0.07500;75.5625;118;69;0.40195
9625170;-0.09500;74.9375;118;69;0.38095
9625180;-0.10000;74.6250;118;69;0.37216
9625190;-0.10000;74.3750;118;69;0.36435
9625200;-0.10000;73.8125;118;69;0.35092
9625210;-0.09500;73.6250;118;69;0.34481
9625220;-0.08500;73.3750;118;69;0.33919
9625230;0.02000;73.1250;118;69;0.33382
9625240;0.29500;72.8750;118;69;0.32845
9625250;0.81000;72.5000;118;69;0.32063
9625260;0.87500;72.3750;118;69;0.31648
9625270;0.24500;72.1875;118;69;0.31209
9625280;-0.26500;71.8750;118;69;0.30256
9625290;-0.23000;71.6250;118;69;0.29792
9625300;-0.16000;71.5000;118;69;0.29304
9625310;-0.15500;71.3125;118;69;0.28791
9625320;-0.15500;71.1250;118;69;0.28254
9625330;-0.15500;70.6250;118;69;0.27277
9625340;-0.15000;70.3750;118;69;0.26911
9625350;-0.14500;70.1250;118;69;0.26593
9625360;-0.13500;69.6250;118;69;0.26203
9625370;-0.12500;69.3125;118;69;0.25348
9625380;-0.12500;69.0625;118;69;0.24908
9625390;-0.11500;68.8125;118;69;0.24493
9625400;-0.11000;68.5000;118;69;0.24029
9625410;-0.10500;67.9375;118;69;0.23175
9625420;-0.09500;67.6875;118;69;0.22735
9625430;-0.08500;67.4375;118;69;0.22320
9625440;-0.07500;67.2500;118;69;0.21929
9625450;-0.06000;66.9375;118;69;0.21465
9625460;-0.05000;67.0000;118;69;0.21197
9625470;-0.03500;67.3125;118;69;0.20904
9625480;-0.02500;69.6875;118;69;0.20586
9625490;-0.01500;71.8750;118;69;0.20024
9625500;-0.00500;74.6875;118;69;0.19780
9625510;0.00500;78.0000;118;69;0.19536
9625520;0.01500;81.6875;118;69;0.19292
9625530;0.03000;89.5000;118;69;0.18901
9625540;0.06000;93.3750;118;69;0.21465
9625550;0.07000;97.0625;118;69;0.25421
9625560;0.09500;103.6250;118;69;0.28181
9625570;0.11000;106.2500;118;69;0.28547
9625580;0.13500;108.4375;118;69;0.28669
9625590;0.16000;110.1875;118;69;0.28694
9625600;0.18000;111.6250;118;69;0.28669
9625610;0.18500;113.4375;118;69;0.28620
9625620;0.16500;113.9375;118;69;0.28620
9625630;0.12000;114.2500;118;69;0.28571
9625640;0.06000;114.2500;118;69;0.28523
9625650;0.00000;113.8125;118;69;0.28645
9625660;-0.05000;113.2500;118;69;0.28645
9625670;-0.08500;112.5625;118;69;0.28620
9625680;-0.11500;110.6875;118;69;0.28571
9625690;-0.13000;109.5000;118;69;0.28498
9625700;-0.13500;108.1250;118;69;0.28523
9625710;-0.14000;106.5625;118;69;0.28620
9625720;-0.14000;104.8125;118;69;0.28864
9625730;-0.14000;101.0000;118;69;0.30134
9625740;-0.14000;98.8750;118;69;0.31160
9625750;-0.13500;96.6875;118;69;0.32479
9625760;-0.13500;94.3750;118;69;0.34359
9625770;-0.12500;90.3750;118;69;0.39731
9625780;-0.12000;88.8750;118;69;0.43028
9625790;-0.11000;87.6250;118;69;0.46593
9625800;-0.11000;87.6250;118;69;0.46593
9625810;-0.10500;85.4375;118;69;0.57582
9625820;-0.10500;85.0625;118;69;0.61001
9625830;-0.10500;84.8125;118;69;0.64151
9625840;-0.11000;84.5625;118;69;0.69182
9625850;-0.10500;84.4375;118;69;0.70891
9625860;-0.10000;84.3125;118;69;0.72601
9625870;-0.09500;84.1875;118;69;0.74164
9625880;-0.09500;83.6875;118;69;0.76630
9625890;-0.09500;83.4375;118;69;0.77534
9625900;-0.09500;83.1250;118;69;0.78168
9625910;-0.09500;82.8125;118;69;0.78559
9625920;-0.09500;82.0625;118;69;0.78608
9625930;-0.09500;81.6250;118;69;0.78266
9625940;-0.09500;81.2500;118;69;0.77680
9625950;-0.07500;80.8125;118;69;0.76923
9625960;-0.05000;80.3750;118;69;0.76020
9625970;-0.02500;79.5625;118;69;0.73626
9625980;-0.02000;79.1875;118;69;0.72161
9625990;0.02000;78.8125;118;69;0.70476
9626000;0.05000;78.4375;119;69;0.68620
9626010;0.07500;77.6875;119;69;0.64591
9626020;0.04000;77.3125;119;69;0.62540
9626030;0.00500;76.9375;119;69;0.60513
9626040;-0.03000;76.1875;119;69;0.56947
9626050;-0.07500;75.8750;119;69;0.55531
9626060;-0.10500;75.5000;119;69;0.54139
9626070;-0.11500;75.1875;119;69;0.52845
9626080;-0.11000;74.8750;119;69;0.51697
9626090;-0.10500;74.3125;119;69;0.49792
9626100;-0.08500;74.0000;119;69;0.49011
9626110;-0.08000;73.7500;119;69;0.48327
9626120;-0.07500;73.5000;119;69;0.47692
9626130;0.05500;73.0625;119;69;0.46545
9626140;0.36500;72.8750;119;69;0.46032
9626150;0.88000;72.6875;119;69;0.45592
9626160;0.85500;72.3750;119;69;0.45079
9626170;0.18500;72.1875;119;69;0.43980
9626180;-0.24000;72.0625;119;69;0.43419
9626190;-0.21000;71.8750;119;69;0.42882
9626200;-0.18000;71.6875;119;69;0.42344
9626210;-0.17500;71.3750;119;69;0.41319
9626220;-0.18000;71.1875;119;69;0.40806
9626230;-0.18000;70.9375;119;69;0.40317
9626240;-0.17500;70.6875;119;69;0.39829
9626250;-0.16500;70.1875;119;69;0.39072
9626260;-0.16000;69.9375;119;69;0.38632
9626270;-0.15500;69.6875;119;69;0.38144
9626280;-0.15000;69.4375;119;69;0.37656
9626290;-0.14500;68.8125;119;69;0.36679
9626300;-0.14500;68.5625;119;69;0.36166
9626310;-0.13000;68.2500;119;69;0.35678
9626320;-0.12000;68.0000;119;69;0.35189
9626330;-0.10500;67.5625;119;69;0.34261
9626340;-0.09500;67.3750;119;69;0.33968
9626350;-0.08000;67.2500;119;69;0.33724
9626360;-0.06500;67.2500;119;69;0.33431
9626370;-0.05000;68.3125;119;69;0.32747
9626380;-0.03500;69.7500;119;69;0.32430
9626390;-0.01500;71.8750;119;69;0.32112
9626400;-0.01000;74.6875;119;69;0.31795
9626410;0.00000;81.7500;119;69;0.31233
9626420;0.01000;85.7500;119;69;0.30989
9626430;0.03000;89.7500;119;69;0.30794
9626440;0.05000;97.5625;119;69;0.30598
9626450;0.08000;101.0625;119;69;0.30501
9626460;0.10500;104.2500;119;69;0.30427
9626470;0.14000;107.0000;119;69;0.30379
9626480;0.17000;111.1250;119;69;0.30330
9626490;0.20000;112.6250;119;69;0.30232
9626500;0.21500;113.7500;119;69;0.30183
9626510;0.21000;114.6875;119;69;0.30110
9626520;0.18500;115.3125;119;69;0.30061
9626530;0.14000;115.8750;119;69;0.29988
9626540;0.08000;115.8750;119;69;0.30012
9626550;0.01000;115.6875;119;69;0.30085
9626560;-0.03500;115.3750;119;69;0.30110
9626570;-0.07500;114.0625;119;69;0.29988
9626580;-0.09500;113.1875;119;69;0.29890
9626590;-0.11000;112.0625;119;69;0.29817
9626600;-0.12000;110.8125;119;69;0.29768
9626610;-0.12500;107.7500;119;69;0.29988
9626620;-0.12500;106.0000;119;69;0.30403
9626630;-0.12500;104.1250;119;69;0.31160
9626640;-0.12000;99.8750;119;69;0.33724
9626650;-0.11500;97.6250;119;69;0.35409
9626660;-0.11500;95.4375;119;69;0.37729
9626670;-0.10500;93.3750;119;69;0.40586
9626680;-0.10000;91.6250;119;69;0.43858
9626690;-0.09500;89.1250;119;69;0.51160
9626700;-0.08500;88.2500;119;69;0.54921
9626710;-0.07500;87.6250;119;69;0.58584
9626720;-0.06500;87.0625;119;69;0.62076
9626730;-0.06000;86.3750;119;69;0.68278
9626740;-0.06000;86.1875;119;69;0.70549
9626750;-0.06000;86.0625;119;69;0.72357
9626760;-0.07000;85.6875;119;69;0.75824
9626770;-0.07500;85.4375;119;69;0.77314
9626780;-0.07500;85.1250;119;69;0.78559
9626790;-0.07000;84.8750;119;69;0.79585
9626800;-0.07000;84.8750;119;69;0.79585
9626810;-0.07500;83.8125;119;69;0.81245
9626820;-0.07000;83.4375;119;69;0.81319
9626830;-0.06500;83.0000;119;69;0.81172
9626840;-0.05000;82.2500;119;69;0.80195
9626850;-0.03000;81.8750;119;69;0.79390
9626860;0.00000;81.5000;119;69;0.78413
9626870;0.02000;81.1250;119;69;0.77216
9626880;0.03000;80.3750;119;69;0.75824
9626890;0.04500;80.0625;119;69;0.72454
9626900;0.08000;79.6875;119;69;0.70574
9626910;0.09000;79.3750;119;69;0.68571
9626920;0.07000;79.0000;119;69;0.66545
9626930;0.02000;78.3125;119;69;0.62613
9626940;0.00000;77.9375;119;69;0.60928
9626950;-0.04500;77.6250;119;69;0.59414
9626960;-0.10000;77.0000;119;69;0.56459
9626970;-0.12000;76.7500;119;69;0.55140
9626980;-0.12500;76.4375;119;69;0.53968
9626990;-0.12500;76.1250;119;69;0.52943
9627000;-0.12500;75.8750;119;70;0.52039
9627010;-0.11500;75.4375;119;70;0.50476
9627020;-0.11500;75.1875;119;70;0.49792
9627030;-0.04000;75.0000;119;70;0.49133
9627040;0.20000;74.7500;119;70;0.48547
9627050;0.73500;74.3125;119;70;0.47473
9627060;0.93500;74.1250;119;70;0.46911
9627070;0.37500;73.9375;119;70;0.46325
9627080;-0.25500;73.6250;119;70;0.45226
9627090;-0.26000;73.4375;119;70;0.44664
9627100;-0.19500;73.2500;119;70;0.44103
9627110;-0.18000;73.0625;119;70;0.43541
9627120;-0.18000;72.9375;119;70;0.42979
9627130;-0.16500;72.5000;119;70;0.41905
9627140;-0.15500;72.3125;119;70;0.41465
9627150;-0.14500;72.0625;119;70;0.41099
9627160;-0.13500;71.5000;119;70;0.40244
9627170;-0.13500;71.1875;119;70;0.39805
9627180;-0.13500;70.9375;119;70;0.39390
9627190;-0.14000;70.6875;119;70;0.38974
9627200;-0.14000;70.4375;119;70;0.38559
9627210;-0.14000;69.8750;119;70;0.37729
9627220;-0.13500;69.6250;119;70;0.37338
9627230;-0.12500;69.4375;119;70;0.36947
9627240;-0.10500;69.0000;119;70;0.36679
9627250;-0.08000;68.9375;119;70;0.36142
9627260;-0.06500;69.1250;119;70;0.35824
9627270;-0.05000;69.7500;119;70;0.35507
9627280;-0.04500;72.8750;119;70;0.34896
9627290;-0.04500;75.5625;119;70;0.34579
9627300;-0.04500;78.8125;119;70;0.34286
9627310;-0.03000;82.5625;119;70;0.34042
9627320;-0.01500;86.5625;119;70;0.33846
9627330;0.00500;94.9375;119;70;0.33529
9627340;0.02500;98.9375;119;70;0.33504
9627350;0.06500;102.6875;119;70;0.33529
9627360;0.09000;106.0625;119;70;0.33529
9627370;0.12000;111.6250;119;70;0.33431
9627380;0.14500;113.7500;119;70;0.33382
9627390;0.17500;115.3750;119;70;0.33333
9627400;0.18500;116.6875;119;70;0.33284
9627410;0.18500;118.4375;119;70;0.33187
9627420;0.15500;119.0000;119;70;0.33114
9627430;0.12500;119.3125;119;70;0.33016
9627440;0.06000;119.5000;119;70;0.33016
9627450;-0.01500;119.1875;119;70;0.33040
9627460;-0.06000;118.7500;119;70;0.33016
9627470;-0.09500;118.1875;119;70;0.32967
9627480;-0.12000;116.5625;119;70;0.32869
9627490;-0.13000;115.4375;119;70;0.32821
9627500;-0.13500;114.1875;119;70;0.32821
9627510;-0.14000;112.8125;119;70;0.32943
9627520;-0.13500;111.1875;119;70;0.33260
9627530;-0.13500;107.5000;119;70;0.34872
9627540;-0.13000;105.4375;119;70;0.36093
9627550;-0.12500;103.2500;119;70;0.37656
9627560;-0.12000;98.9375;119;70;0.42564
9627570;-0.11500;97.0000;119;70;0.45739
9627580;-0.11000;95.3125;119;70;0.49255
9627590;-0.10500;93.9375;119;70;0.51673
9627600;-0.10500;92.8125;119;70;0.53431
9627610;-0.10000;91.1875;119;70;0.58974
9627620;-0.09500;90.6250;119;70;0.61905
9627630;-0.09500;90.2500;119;70;0.64713
9627640;-0.09000;89.9375;119;70;0.66935
9627650;-0.09000;89.5000;119;70;0.70696
9627660;-0.09000;89.2500;119;70;0.72479
9627670;-0.08500;89.0625;119;70;0.74090
9627680;-0.08000;88.5000;119;70;0.76581
9627690;-0.07500;88.1875;119;70;0.77460
9627700;-0.07500;87.8125;119;70;0.78095
9627710;-0.08500;87.4375;119;70;0.78510
9627720;-0.08500;87.1250;119;70;0.78730
9627730;-0.08500;86.2500;119;70;0.78535
9627740;-0.07500;85.8125;119;70;0.78095
9627750;-0.05000;85.3750;119;70;0.77485
9627760;-0.01500;84.5000;119;70;0.75897
9627770;0.00000;84.0625;119;70;0.74847
9627780;0.01000;83.6875;119;70;0.73626
9627790;0.03500;83.2500;119;70;0.72234
9627800;0.03500;83.2500;119;70;0.72234
9627810;0.07000;82.0625;119;70;0.67082
9627820;0.04000;81.6875;119;70;0.65226
9627830;0.01000;81.2500;119;70;0.63370
9627840;-0.01500;80.8750;119;70;0.61709
9627850;-0.07000;80.1875;119;70;0.58681
9627860;-0.10500;79.8125;119;70;0.57192
9627870;-0.12500;79.5000;119;70;0.55824
9627880;-0.13500;78.8750;119;70;0.53529
9627890;-0.13500;78.5625;119;70;0.52576
9627900;-0.12500;78.3125;119;70;0.51746
9627910;-0.11500;78.0000;119;70;0.50989
9627920;-0.11500;77.5625;119;70;0.49695
9627930;-0.06000;77.3750;119;70;0.49084
9627940;0.29000;77.1250;119;70;0.48547
9627950;0.88000;76.8750;119;70;0.48059
9627960;0.97500;76.5625;119;70;0.47546
9627970;0.31000;76.3750;119;70;0.46496
9627980;-0.21000;76.2500;119;70;0.45958
9627990;-0.23000;76.0625;119;70;0.45421
9628000;-0.19000;75.9375;119;70;0.44884
9628010;-0.19500;75.5625;119;70;0.43834
9628020;-0.20500;75.3750;119;70;0.43297
9628030;-0.21000;75.1875;119;70;0.42759
9628040;-0.20500;74.9375;119;70;0.42320
9628050;-0.20000;74.3750;119;70;0.41465
9628060;-0.19500;74.1250;119;70;0.41026
9628070;-0.19000;73.8125;119;70;0.40586
9628080;-0.18000;73.5000;119;70;0.40147
9628090;-0.17000;72.9375;119;70;0.39219
9628100;-0.16500;72.6250;119;70;0.38755
9628110;-0.15500;72.3125;119;70;0.38315
9628120;-0.14000;72.0625;119;70;0.37900
9628130;-0.12500;71.5625;119;70;0.37094
9628140;-0.11500;71.3750;119;70;0.36777
9628150;-0.09500;71.3125;119;70;0.36508
9628160;-0.07500;71.5000;119;70;0.36190
9628170;-0.06500;73.3750;119;70;0.35604
9628180;-0.05000;75.4375;119;70;0.35336
9628190;-0.04000;78.1875;119;70;0.35092
9628200;-0.02500;85.5000;119;70;0.34872
9628210;0.00000;89.6250;119;70;0.34457
9628220;0.02000;93.9375;119;70;0.34286
9628230;0.05000;98.1875;119;70;0.34139
9628240;0.08000;106.1250;119;70;0.34042
9628250;0.10000;109.5625;119;70;0.33993
9628260;0.13000;112.5625;119;70;0.33968
9628270;0.15000;115.1250;119;70;0.33968
9628280;0.17500;117.1875;119;70;0.33968
9628290;0.20500;120.2500;119;70;0.33944
9628300;0.21500;121.3125;119;70;0.33895
9628310;0.20500;122.1250;119;70;0.33822
9628320;0.17500;123.0625;119;70;0.33626
9628330;0.13000;123.3125;119;70;0.33529
9628340;0.07000;123.3750;119;70;0.33480
9628350;0.02000;123.2500;119;70;0.33455
9628360;-0.03000;122.5000;119;70;0.33333
9628370;-0.05500;121.8125;119;70;0.33260
9628380;-0.08000;121.0625;119;70;0.33187
9628390;-0.09500;120.0625;119;70;0.33138
9628400;-0.10500;118.9375;119;70;0.33138
9628410;-0.11500;116.1250;119;70;0.33504
9628420;-0.11500;114.4375;119;70;0.34042
9628430;-0.12500;112.5625;119;70;0.34921
9628440;-0.12500;108.3750;119;70;0.37411
9628450;-0.12500;106.1875;119;70;0.39390
9628460;-0.12500;104.0000;119;70;0.41880
9628470;-0.12000;102.0000;119;70;0.44835
9628480;-0.12000;100.1875;119;70;0.48107
9628490;-0.11500;97.3750;119;70;0.55092
9628500;-0.11000;96.3125;119;70;0.58559
9628510;-0.10500;95.5000;119;70;0.61880
9628520;-0.10000;94.3750;119;70;0.64957
9628530;-0.09500;93.9375;119;70;0.70354
9628540;-0.09000;93.6250;119;70;0.72283
9628550;-0.09000;93.3125;119;70;0.73846
9628560;-0.09000;93.0000;119;70;0.75433
9628570;-0.09500;92.3750;119;70;0.78168
9628580;-0.09500;92.0625;119;70;0.79243
9628590;-0.09000;91.6875;119;70;0.80098
9628600;-0.09500;90.8125;119;70;0.81197
9628610;-0.09500;90.3750;119;70;0.81490
9628620;-0.09500;89.9375;119;70;0.81587
9628630;-0.09000;89.5000;119;70;0.81490
9628640;-0.08000;88.5625;119;70;0.80562
9628650;-0.07000;88.0625;119;70;0.79927
9628660;-0.04500;87.5625;119;70;0.79145
9628670;-0.01500;87.0625;119;70;0.78193
9628680;0.00000;86.6250;119;70;0.77070
9628690;0.01500;85.7500;119;70;0.74310
9628700;0.04500;85.3125;119;70;0.72698
9628710;0.07000;84.8750;119;70;0.70965
9628720;0.06500;84.1250;119;70;0.69158
9628730;0.03000;83.7500;119;70;0.65592
9628740;0.00500;83.3750;119;70;0.64029
9628750;-0.03500;83.0000;119;70;0.62418
9628760;-0.08500;82.2500;119;70;0.59487
9628770;-0.11000;81.8750;119;70;0.58217
9628780;-0.11500;81.5625;119;70;0.57070
9628790;-0.10500;81.1875;119;70;0.56068
9628800;-0.10500;81.1875;119;70;0.56068
9628810;-0.08500;80.1875;119;70;0.53626
9628820;-0.08500;79.8750;119;70;0.52967
9628830;-0.09000;79.5625;119;70;0.52332
9628840;0.14000;78.8750;119;70;0.51160
9628850;0.56500;78.6250;119;70;0.50549
9628860;1.05500;78.3125;119;70;0.49963
9628870;0.78000;78.0000;119;70;0.49377
9628880;-0.09000;77.3750;119;70;0.48156
9628890;-0.24500;77.1250;119;70;0.47521
9628900;-0.19000;76.8125;119;70;0.46911
9628910;-0.17000;76.5000;119;70;0.46325
9628920;-0.17500;76.1875;119;70;0.45763
9628930;-0.17000;75.5625;119;70;0.44737
9628940;-0.16000;75.2500;119;70;0.44298
9628950;-0.16000;74.9375;119;70;0.43834
9628960;-0.15000;74.5625;119;70;0.43346
9628970;-0.13000;73.8750;119;70;0.42369
9628980;-0.11500;73.5625;119;70;0.41856
9628990;-0.10500;73.1875;119;70;0.41368
9629000;-0.09500;72.5000;118;69;0.40415
9629010;-0.08000;72.1875;118;69;0.39976
9629020;-0.06500;71.8125;118;69;0.39536
9629030;-0.06500;71.5000;118;69;0.39121
9629040;-0.06500;71.2500;118;69;0.38779
9629050;-0.05000;70.8125;118;69;0.38071
9629060;-0.03500;70.8125;118;69;0.37680
9629070;-0.03000;71.2500;118;69;0.37289
9629080;-0.02000;72.1875;118;69;0.36923
9629090;-0.00500;76.3750;118;69;0.36264
9629100;0.00000;79.5000;118;69;0.35995
9629110;0.01000;83.1875;118;69;0.35726
9629120;0.02000;87.2500;118;69;0.35482
9629130;0.04000;95.7500;118;69;0.35018
9629140;0.06000;99.8750;118;69;0.34872
9629150;0.08000;103.8125;118;69;0.34725
9629160;0.10500;107.3750;118;69;0.34554
9629170;0.13000;113.3125;118;69;0.34212
9629180;0.15000;115.5000;118;69;0.34066
9629190;0.17500;117.3125;118;69;0.33895
9629200;0.19000;119.9375;118;69;0.33602
9629210;0.19500;120.7500;118;69;0.33431
9629220;0.17500;121.3750;118;69;0.33284
9629230;0.13000;121.7500;118;69;0.33162
9629240;0.08000;122.0000;118;69;0.33089
9629250;0.02000;121.8125;118;69;0.32991
9629260;-0.03500;121.4375;118;69;0.32894
9629270;-0.07000;120.9375;118;69;0.32747
9629280;-0.10083;120.2500;118;69;0.32593
9629290;-0.12500;119.3750;118;69;0.32430
9629300;-0.14000;118.3750;118;69;0.32259
9629310;-0.15000;117.1250;118;69;0.32088
9629320;-0.15500;115.7500;118;69;0.31966
9629330;-0.14500;112.4375;118;69;0.32186
9629340;-0.13500;110.5625;118;69;0.32625
9629350;-0.12500;108.4375;118;69;0.33309
9629360;-0.11000;103.8125;118;69;0.36117
9629370;-0.10500;101.3750;118;69;0.38266
9629380;-0.09000;99.0000;118;69;0.40879
9629390;-0.07500;96.9375;118;69;0.43858
9629400;-0.06500;93.6875;118;69;0.50330
9629410;-0.06000;92.5000;118;69;0.53602
9629420;-0.05500;91.5625;118;69;0.56728
9629430;-0.05500;90.8750;118;69;0.59658
9629440;-0.05000;90.3125;118;69;0.62295
9629450;-0.04500;89.6250;118;69;0.65910
9629460;-0.03500;89.4375;118;69;0.67521
9629470;-0.02500;89.2500;118;69;0.68987
9629480;-0.02500;89.0000;118;69;0.70232
9629490;-0.02000;88.5625;118;69;0.72088
9629500;-0.02500;88.2500;118;69;0.72723
9629510;-0.03500;87.8750;118;69;0.73162
9629520;-0.04000;87.4375;118;69;0.73358
9629530;-0.04000;86.6250;118;69;0.73187
9629540;-0.02500;86.1875;118;69;0.72796
9629550;0.00000;85.7500;118;69;0.72210
9629560;0.02500;85.2500;118;69;0.71502
9629570;0.02500;84.3125;118;69;0.69621
9629580;0.02000;83.8750;118;69;0.68449
9629590;0.03000;83.3750;118;69;0.67082
9629600;0.07500;82.5000;118;69;0.63785
9629610;0.08000;82.0625;118;69;0.61880
9629620;0.05000;81.6875;118;69;0.59853
9629630;0.01000;81.2500;118;69;0.57753
9629640;-0.02000;80.8125;118;69;0.55629
9629650;-0.08500;79.9375;118;69;0.47790
9629660;-0.12500;79.5625;118;69;0.44737
9629670;-0.15000;79.1250;118;69;0.42369
9629680;-0.16000;78.3750;118;69;0.38803
9629690;-0.16500;78.0625;118;69;0.37411
9629700;-0.16000;77.7500;118;69;0.36215
9629710;-0.16000;77.4375;118;69;0.35165
9629720;-0.15000;76.8750;118;69;0.33382
9629730;-0.05500;76.5625;118;69;0.32576
9629740;0.32000;76.3125;118;69;0.31941
9629750;0.86000;76.0625;118;69;0.31429
9629760;0.70000;75.8750;118;69;0.30867
9629770;0.01500;75.3750;118;69;0.29719
9629780;-0.34500;75.1875;118;69;0.29109
9629790;-0.27000;74.9375;118;69;0.28498
9629800;-0.24000;74.7500;118;69;0.27888
9629810;-0.23500;74.3125;118;69;0.26716
9629820;-0.24000;74.0625;118;69;0.26154
9629830;-0.24000;73.8125;118;69;0.25592
9629840;-0.24000;73.5625;118;69;0.25031
9629850;-0.23000;73.0000;118;69;0.24225
9629860;-0.22500;72.6875;118;69;0.23736
9629870;-0.22000;72.4375;118;69;0.23223
9629880;-0.21000;71.8125;118;69;0.22173
9629890;-0.20000;71.5000;118;69;0.21661
9629900;-0.19500;71.1250;118;69;0.21148
9629910;-0.19000;70.8125;118;69;0.20659
9629920;-0.18000;70.5625;118;69;0.20195
9629930;-0.17000;70.0000;118;69;0.19267
9629940;-0.16500;69.8125;118;69;0.18950
9629950;-0.16000;69.5625;118;69;0.18706
9629960;-0.14000;69.2500;118;69;0.17949
9629970;-0.12500;69.4375;118;69;0.17558
9629980;-0.10500;70.0000;118;69;0.17167
9629990;-0.07500;71.1875;118;69;0.16777
9630000;-0.06000;73.0000;117;69;0.16410
9630010;-0.03500;78.5625;117;69;0.15702
9630020;-0.01000;82.0000;117;69;0.15385
