RelativeTimeMilliseconds;ECG;ART;ART (Sys);ART (Dia);PPG
10200000;-0.12000;119.1875;125;73;0.26447
10200010;-0.12500;117.6875;125;73;0.26447
10200020;-0.13000;116.0625;125;73;0.26447
10200030;-0.13500;114.1875;125;73;0.26447
10200040;-0.13000;109.9375;125;73;0.26569
10200050;-0.12500;107.5625;125;73;0.26813
10200060;-0.12000;105.1250;125;73;0.27253
10200070;-0.11500;102.8125;125;73;0.27961
10200080;-0.11500;100.6250;125;73;0.29011
10200090;-0.11000;97.2500;125;73;0.31648
10200100;-0.10500;96.0000;125;73;0.34237
10200110;-0.10000;95.0000;125;73;0.36850
10200120;-0.09500;93.6250;125;73;0.41319
10200130;-0.09000;93.2500;125;73;0.43932
10200140;-0.08500;92.9375;125;73;0.46593
10200150;-0.08500;92.7500;125;73;0.49182
10200160;-0.08500;92.3750;125;73;0.53773
10200170;-0.08500;92.1875;125;73;0.55727
10200180;-0.08000;91.9375;125;73;0.57192
10200190;-0.08000;91.6875;125;73;0.58339
10200200;-0.08000;91.0625;125;73;0.60464
10200210;-0.07500;90.7500;125;73;0.61343
10200220;-0.07500;90.3750;125;73;0.62051
10200230;-0.07500;89.9375;125;73;0.62564
10200240;-0.07500;89.5625;125;73;0.62930
10200250;-0.06500;88.6875;125;73;0.63150
10200260;-0.03500;88.2500;125;73;0.63028
10200270;-0.01500;87.7500;125;73;0.62759
10200280;0.01000;87.3125;125;73;0.62320
10200290;0.01000;86.3750;125;73;0.61050
10200300;0.03500;85.9375;125;73;0.60195
10200310;0.07000;85.5000;125;73;0.59145
10200320;0.08500;85.0625;125;73;0.57973
10200330;0.06000;84.1875;125;73;0.55287
10200340;0.02000;83.8125;125;73;0.53871
10200350;-0.01500;83.3750;125;73;0.52430
10200360;-0.05500;82.9375;125;73;0.51013
10200370;-0.09500;82.1875;125;73;0.48425
10200380;-0.12000;81.8125;125;73;0.47375
10200390;-0.12000;81.4375;125;73;0.46496
10200400;-0.12000;81.0625;125;73;0.45641
10200410;-0.11500;80.5000;125;73;0.44151
10200420;-0.11000;80.2500;125;73;0.43541
10200430;-0.10500;79.9375;125;73;0.42979
10200440;-0.03500;79.4375;125;73;0.42466
10200450;0.40500;79.1875;125;73;0.41514
10200460;0.84000;79.0000;125;73;0.41050
10200470;0.82500;78.8125;125;73;0.40610
10200480;0.26000;78.6250;125;73;0.40244
10200490;-0.23500;78.2500;125;73;0.39560
10200500;-0.24000;78.0625;125;73;0.39194
10200510;-0.17500;77.8125;125;73;0.38828
10200520;-0.16500;77.6250;125;73;0.38437
10200530;-0.16500;77.1875;125;73;0.37656
10200540;-0.16000;76.9375;125;73;0.37265
10200550;-0.15500;76.6875;125;73;0.36874
10200560;-0.15500;76.4375;125;73;0.36484
10200570;-0.14500;75.8750;125;73;0.35726
10200580;-0.14000;75.5000;125;73;0.35433
10200590;-0.13500;75.1875;125;73;0.35165
10200600;-0.13000;74.8750;125;73;0.34823
10200610;-0.12500;74.2500;125;73;0.34066
10200620;-0.11500;74.0000;125;73;0.33700
10200630;-0.10500;73.6875;125;73;0.33333
10200640;-0.09500;73.4375;125;73;0.32991
10200650;-0.08500;72.9375;125;73;0.32308
10200660;-0.08000;72.6875;125;73;0.31990
10200670;-0.07500;72.5000;125;73;0.31673
10200680;-0.06500;72.8750;125;73;0.31282
10200690;-0.05500;73.6875;125;73;0.31062
10200700;-0.03500;75.1875;125;73;0.30794
10200710;-0.01500;77.4375;125;73;0.30501
10200720;-0.00500;80.4375;125;73;0.30232
10200730;0.01000;88.0000;125;73;0.29719
10200740;0.04000;92.2500;125;73;0.29475
10200750;0.05500;96.6250;125;73;0.29231
10200760;0.08000;105.3125;125;73;0.29011
10200770;0.11000;109.2500;125;73;0.28620
10200780;0.13000;112.7500;125;73;0.28547
10200790;0.16000;115.8125;125;73;0.28523
10200800;0.16000;115.8125;125;73;0.28523
10200810;0.20000;122.1250;125;73;0.28230
10200820;0.19500;123.4375;125;73;0.28156
10200830;0.16500;124.5000;125;73;0.28083
10200840;0.11000;125.6875;125;73;0.27961
10200850;0.05000;125.8750;125;73;0.27863
10200860;0.01000;125.9375;125;73;0.27790
10200870;-0.03500;125.6875;125;73;0.27717
10200880;-0.07000;125.3125;125;73;0.27717
10200890;-0.09500;123.9375;125;73;0.27741
10200900;-0.10000;122.8750;125;73;0.27741
10200910;-0.11000;121.6875;125;73;0.27741
10200920;-0.11500;118.6875;125;73;0.27741
10200930;-0.11500;116.8750;125;73;0.27766
10200940;-0.11500;114.8750;125;73;0.27790
10200950;-0.11000;112.6875;125;73;0.27888
10200960;-0.10500;110.3125;125;73;0.28132
10200970;-0.10500;105.2500;125;73;0.29328
10200980;-0.10000;102.8125;125;73;0.30232
10200990;-0.09500;100.6250;125;73;0.31380
10201000;-0.09000;98.8125;126;73;0.32991
10201010;-0.08500;96.1250;126;73;0.37338
10201020;-0.08500;95.1875;126;73;0.39951
10201030;-0.08000;94.5625;126;73;0.44469
10201040;-0.07500;94.0625;126;73;0.50134
10201050;-0.07000;93.4375;126;73;0.58584
10201060;-0.07000;93.2500;126;73;0.62002
10201070;-0.07000;93.0625;126;73;0.65006
10201080;-0.07000;92.7500;126;73;0.69060
10201090;-0.07000;92.5625;126;73;0.70842
10201100;-0.06500;92.2500;126;73;0.72454
10201110;-0.07000;91.9375;126;73;0.73871
10201120;-0.06500;91.5625;126;73;0.75043
10201130;-0.06500;90.7500;126;73;0.76899
10201140;-0.06000;90.3125;126;73;0.77338
10201150;-0.05000;89.8750;126;73;0.77631
10201160;-0.03500;89.0000;126;73;0.77729
10201170;-0.00500;88.5625;126;73;0.77338
10201180;0.01000;88.0625;126;73;0.76825
10201190;0.02000;87.6250;126;73;0.76117
10201200;0.04000;86.7500;126;73;0.74237
10201210;0.07000;86.2500;126;73;0.72991
10201220;0.09000;85.8125;126;73;0.71551
10201230;0.07000;85.3125;126;73;0.69963
10201240;0.03000;84.8750;126;73;0.68230
10201250;0.00000;84.0000;126;73;0.64493
10201260;-0.05000;83.5625;126;73;0.62589
10201270;-0.08500;83.1250;126;73;0.60733
10201280;-0.11500;82.6875;126;73;0.59096
10201290;-0.12500;81.9375;126;73;0.56239
10201300;-0.13500;81.6250;126;73;0.54921
10201310;-0.13500;81.2500;126;73;0.53700
10201320;-0.12500;80.9375;126;73;0.52625
10201330;-0.11500;80.4375;126;73;0.50867
10201340;-0.08000;80.1875;126;73;0.50159
10201350;0.25500;79.9375;126;73;0.49524
10201360;0.70000;79.7500;126;73;0.48938
10201370;0.99000;79.4375;126;73;0.47888
10201380;0.51500;79.3125;126;73;0.47473
10201390;-0.15000;79.1250;126;73;0.47082
10201400;-0.27000;78.8750;126;73;0.46618
10201410;-0.19500;78.7500;126;73;0.45641
10201420;-0.18500;78.5625;126;73;0.45128
10201430;-0.18500;78.4375;126;73;0.44615
10201440;-0.18000;78.0000;126;73;0.43590
10201450;-0.17000;77.8125;126;73;0.43053
10201460;-0.16000;77.5625;126;73;0.42515
10201470;-0.16000;77.3125;126;73;0.41954
10201480;-0.15500;77.0000;126;73;0.41514
10201490;-0.15000;76.4375;126;73;0.40635
10201500;-0.14500;76.1250;126;73;0.40147
10201510;-0.14500;75.8750;126;73;0.39634
10201520;-0.14000;75.2500;126;73;0.38559
10201530;-0.12500;74.9375;126;73;0.38046
10201540;-0.11500;74.6250;126;73;0.37534
10201550;-0.10500;74.3750;126;73;0.37021
10201560;-0.09000;74.1250;126;73;0.36532
10201570;-0.07500;73.8750;126;73;0.35653
10201580;-0.06500;74.0000;126;73;0.35336
10201590;-0.05000;74.5625;126;73;0.35067
10201600;-0.04500;75.7500;126;73;0.34725
10201610;-0.03000;80.3125;126;73;0.33993
10201620;-0.01000;83.6250;126;73;0.33626
10201630;0.00500;87.5625;126;73;0.33260
10201640;0.03500;91.8125;126;73;0.32967
10201650;0.06000;100.8750;126;73;0.32454
10201660;0.08000;105.3750;126;73;0.32259
10201670;0.10500;109.5625;126;73;0.32112
10201680;0.13500;113.4375;126;73;0.32063
10201690;0.16500;119.8125;126;73;0.32015
10201700;0.18500;122.2500;126;73;0.31941
10201710;0.19500;124.2500;126;73;0.31844
10201720;0.19000;127.1250;126;73;0.31746
10201730;0.16000;128.0625;126;73;0.31575
10201740;0.12500;128.7500;126;73;0.31502
10201750;0.05000;129.1875;126;73;0.31429
10201760;0.00000;129.3750;126;73;0.31355
10201770;-0.06000;129.1250;126;73;0.31258
10201780;-0.08500;128.7500;126;73;0.31282
10201790;-0.11500;128.1875;126;73;0.31355
10201800;-0.11500;128.1875;126;73;0.31355
10201810;-0.14500;125.3125;126;73;0.31429
10201820;-0.14500;123.9375;126;73;0.31380
10201830;-0.14500;122.3750;126;73;0.31355
10201840;-0.14500;118.5625;126;73;0.31429
10201850;-0.14000;116.3750;126;73;0.31624
10201860;-0.13500;114.0000;126;73;0.32039
10201870;-0.12500;111.4375;126;73;0.32796
10201880;-0.11500;106.4375;126;73;0.35092
10201890;-0.11000;104.2500;126;73;0.36947
10201900;-0.10500;102.3125;126;73;0.39316
10201910;-0.10000;100.7500;126;73;0.42173
10201920;-0.09500;99.5625;126;73;0.45421
10201930;-0.08500;97.8125;126;73;0.52601
10201940;-0.08500;97.2500;126;73;0.56264
10201950;-0.08000;96.9375;126;73;0.59853
10201960;-0.08000;96.4375;126;73;0.66374
10201970;-0.08000;96.2500;126;73;0.69206
10201980;-0.08000;96.0625;126;73;0.71404
10201990;-0.07500;95.8750;126;73;0.73138
10202000;-0.07500;95.3125;126;73;0.76532
10202010;-0.08000;94.9375;126;73;0.78022
10202020;-0.08000;94.5625;126;73;0.79267
10202030;-0.08000;94.1250;126;73;0.80293
10202040;-0.08500;93.6875;126;73;0.81099
10202050;-0.08000;92.8125;126;73;0.82076
10202060;-0.06500;92.3750;126;73;0.82247
10202070;-0.04000;91.8750;126;73;0.82247
10202080;-0.00500;90.9375;126;73;0.81538
10202090;0.01000;90.5000;126;73;0.80952
10202100;0.02000;90.0000;126;73;0.80195
10202110;0.04500;89.5625;126;73;0.79243
10202120;0.07500;88.6875;126;73;0.76801
10202130;0.07000;88.3125;126;73;0.75336
10202140;0.04000;87.8750;126;73;0.73700
10202150;0.00000;87.4375;126;73;0.71429
10202160;-0.04000;87.0000;126;73;0.69328
10202170;-0.09500;86.1875;126;73;0.66300
10202180;-0.12500;85.8125;126;73;0.64835
10202190;-0.14500;85.4375;126;73;0.63272
10202200;-0.14500;85.1250;126;73;0.61783
10202210;-0.14000;84.4375;126;73;0.59267
10202220;-0.13500;84.1250;126;73;0.58242
10202230;-0.12500;83.8125;126;73;0.57363
10202240;-0.12500;83.5000;126;73;0.56630
10202250;0.02500;83.0000;126;73;0.55409
10202260;0.61500;82.7500;126;73;0.54847
10202270;1.02500;82.5000;126;73;0.54335
10202280;0.84000;82.3125;126;73;0.53846
10202290;-0.06000;81.8750;126;73;0.52918
10202300;-0.27500;81.6875;126;73;0.52454
10202310;-0.23000;81.5000;126;73;0.51990
10202320;-0.20500;81.1250;126;73;0.51013
10202330;-0.20000;80.8750;126;73;0.50525
10202340;-0.19500;80.6875;126;73;0.50037
10202350;-0.19000;80.4375;126;73;0.49524
10202360;-0.18000;79.8125;126;73;0.48474
10202370;-0.17000;79.5625;126;73;0.48034
10202380;-0.16500;79.2500;126;73;0.47643
10202390;-0.16000;79.0000;126;73;0.47204
10202400;-0.15500;78.3750;126;73;0.46276
10202410;-0.15500;78.3750;126;73;0.46276
10202420;-0.12000;117.4375;126;73;0.39951
10202430;-0.12000;117.4375;126;73;0.39951
10202440;-0.12000;117.4375;126;73;0.39951
10202450;-0.12000;117.4375;126;73;0.39951
10202460;-0.12000;117.4375;126;73;0.39951
10202470;-0.12000;117.4375;126;73;0.39951
10202480;-0.12000;117.4375;126;73;0.39951
10202490;-0.12000;117.4375;126;73;0.39951
10202500;-0.09000;100.3125;126;73;0.71331
10202510;-0.09000;100.3125;126;73;0.71331
10202520;-0.09000;100.3125;126;73;0.71331
10202530;-0.09000;100.3125;126;73;0.71331
10202540;-0.09000;100.3125;126;73;0.71331
10202550;-0.09000;100.3125;126;73;0.71331
10202560;-0.09000;100.3125;126;73;0.71331
10202570;-0.09000;100.3125;126;73;0.71331
10202580;-0.09000;100.3125;126;73;0.71331
10202590;-0.09000;100.3125;126;73;0.71331
10202600;-0.09000;100.3125;126;73;0.71331
10202610;-0.09000;100.3125;126;73;0.71331
10202620;-0.09000;100.3125;126;73;0.71331
10202630;-0.09000;100.3125;126;73;0.71331
10202640;-0.09000;100.3125;126;73;0.71331
10202650;-0.09000;100.3125;126;73;0.71331
10202660;-0.09000;100.3125;126;73;0.71331
10202670;-0.09000;100.3125;126;73;0.71331
10202680;-0.09000;100.3125;126;73;0.71331
10202690;-0.09000;100.3125;126;73;0.71331
10202700;-0.09000;100.3125;126;73;0.71331
10202710;-0.09000;100.3125;126;73;0.71331
10202720;-0.09000;100.3125;126;73;0.71331
10202730;-0.09000;100.3125;126;73;0.71331
10202740;-0.09000;100.3125;126;73;0.71331
10202750;-0.09000;100.3125;126;73;0.71331
10202760;-0.09000;100.3125;126;73;0.71331
10202770;-0.09000;100.3125;126;73;0.71331
10202780;-0.09000;100.3125;126;73;0.71331
10202790;-0.09000;100.3125;126;73;0.71331
10202800;-0.09000;100.3125;126;73;0.71331
10202810;-0.09000;100.3125;126;73;0.71331
10202820;-0.09000;100.3125;126;73;0.71331
10202830;-0.09000;100.3125;126;73;0.71331
10202840;-0.09000;100.3125;126;73;0.71331
10202850;-0.09000;100.3125;126;73;0.71331
10202860;-0.09000;100.3125;126;73;0.71331
10202870;-0.08500;100.1250;126;73;0.74115
10202880;-0.08500;99.6875;126;73;0.76239
10202890;-0.08000;99.4375;126;73;0.79707
10202900;-0.08500;99.1875;126;73;0.81368
10202910;-0.08500;98.9375;126;73;0.82882
10202920;-0.09000;98.2500;126;73;0.85250
10202930;-0.09500;97.8125;126;73;0.86154
10202940;-0.09000;97.4375;126;73;0.86838
10202950;-0.08500;96.9375;126;73;0.87326
10202960;-0.07500;96.4375;126;73;0.87668
10202970;-0.04500;95.4375;126;73;0.87717
10202980;-0.02000;95.0000;126;73;0.87399
10202990;-0.00500;94.4375;126;73;0.86984
10203000;0.00000;93.9375;126;74;0.86422
10203010;0.03000;92.8750;126;74;0.84786
10203020;0.05500;92.3750;126;74;0.83663
10203030;0.06500;91.8750;126;74;0.82344
10203040;0.04000;91.4375;126;74;0.80830
10203050;0.00000;90.4375;126;74;0.77314
10203060;-0.03500;89.9375;126;74;0.75385
10203070;-0.08500;89.5000;126;74;0.73407
10203080;-0.13000;88.6250;126;74;0.63223
10203090;-0.14500;88.1875;126;74;0.59634
10203100;-0.14500;87.7500;126;74;0.57167
10203110;-0.14000;87.3750;126;74;0.55336
10203120;-0.12500;86.6250;126;74;0.52723
10203130;-0.12000;86.2500;126;74;0.51746
10203140;-0.12500;85.8750;126;74;0.50940
10203150;0.01000;85.5000;126;74;0.50232
10203160;0.36000;85.1250;126;74;0.49621
10203170;0.97500;84.4375;126;74;0.48400
10203180;1.02000;84.1250;126;74;0.47888
10203190;0.27000;83.8125;126;74;0.47497
10203200;-0.23500;83.5625;126;74;0.47057
10203210;-0.21000;83.0000;126;74;0.46154
10203220;-0.19000;82.6875;126;74;0.45690
10203230;-0.18500;82.3750;126;74;0.45201
10203240;-0.18000;81.7500;126;74;0.44225
10203250;-0.18000;81.3750;126;74;0.43736
10203260;-0.17000;81.0625;126;74;0.43223
10203270;-0.16500;80.6875;126;74;0.42711
10203280;-0.16000;80.3125;126;74;0.42247
10203290;-0.16000;79.6250;126;74;0.41368
10203300;-0.15500;79.2500;126;74;0.40879
10203310;-0.15000;78.8125;126;74;0.40366
10203320;-0.14500;78.4375;126;74;0.39878
10203330;-0.13500;77.6875;126;74;0.38950
10203340;-0.12500;77.3125;126;74;0.38486
10203350;-0.11500;77.0000;126;74;0.38046
10203360;-0.10500;76.6250;126;74;0.37607
10203370;-0.09000;76.1250;126;74;0.36825
10203380;-0.07500;76.0625;126;74;0.36532
10203390;-0.07000;76.5000;126;74;0.36215
10203400;-0.06000;77.4375;126;74;0.35897
10203410;-0.04000;81.7500;126;74;0.35238
10203420;-0.03000;85.0625;126;74;0.34945
10203430;-0.01500;88.9375;126;74;0.34652
10203440;0.00500;97.8750;126;74;0.34115
10203450;0.02000;102.5625;126;74;0.33846
10203460;0.04000;107.1875;126;74;0.33626
10203470;0.07000;111.6250;126;74;0.33407
10203480;0.09500;115.6250;126;74;0.33236
10203490;0.12500;122.3125;126;74;0.33016
10203500;0.15500;124.9375;126;74;0.32894
10203510;0.17500;127.0625;126;74;0.32772
10203520;0.18500;128.8125;126;74;0.32650
10203530;0.17500;131.2500;126;74;0.32357
10203540;0.14000;132.0625;126;74;0.32234
10203550;0.10000;132.5625;126;74;0.32112
10203560;0.04000;132.8750;126;74;0.31966
10203570;-0.01000;132.9375;126;74;0.31697
10203580;-0.04500;132.6875;126;74;0.31600
10203590;-0.08000;132.2500;126;74;0.31477
10203600;-0.09500;131.6875;126;74;0.31331
10203610;-0.10000;129.9375;126;74;0.30989
10203620;-0.10000;128.7500;126;74;0.30818
10203630;-0.10500;127.3750;126;74;0.30647
10203640;-0.10500;125.8125;126;74;0.30476
10203650;-0.10000;121.9375;126;74;0.30256
10203660;-0.09500;119.6875;126;74;0.30354
10203670;-0.09500;117.1875;126;74;0.30696
10203680;-0.09500;111.8125;126;74;0.32063
10203690;-0.09000;109.2500;126;74;0.33358
10203700;-0.09000;106.9375;126;74;0.35116
10203710;-0.09500;104.8750;126;74;0.37289
10203720;-0.09000;103.1250;126;74;0.39805
10203730;-0.08500;100.5000;126;74;0.45421
10203740;-0.08500;99.5625;126;74;0.48303
10203750;-0.08500;98.8750;126;74;0.51136
10203760;-0.08500;98.3750;126;74;0.53822
10203770;-0.08500;97.6875;126;74;0.58169
10203780;-0.08500;97.3750;126;74;0.59683
10203790;-0.08500;97.0625;126;74;0.61245
10203800;-0.08500;97.0625;126;74;0.61245
10203810;-0.08500;96.0000;126;74;0.65006
10203820;-0.08500;95.6250;126;74;0.65885
10203830;-0.07500;95.1875;126;74;0.66569
10203840;-0.07500;94.6875;126;74;0.67082
10203850;-0.06500;93.7500;126;74;0.67619
10203860;-0.04000;93.2500;126;74;0.67643
10203870;-0.01500;92.8125;126;74;0.67497
10203880;0.00500;92.3125;126;74;0.67179
10203890;0.01000;91.3125;126;74;0.66081
10203900;0.03000;90.7500;126;74;0.65324
10203910;0.06500;90.1875;126;74;0.64420
10203920;0.08000;89.6875;126;74;0.63321
10203930;0.05000;88.6250;126;74;0.60562
10203940;0.01000;88.1875;126;74;0.58974
10203950;-0.02500;87.6875;126;74;0.57241
10203960;-0.05500;87.1875;126;74;0.55409
10203970;-0.09500;86.2500;126;74;0.51868
10203980;-0.12500;85.8125;126;74;0.50305
10203990;-0.13000;85.4375;126;74;0.48694
10204000;-0.13000;85.0625;126;74;0.47106
10204010;-0.12500;84.2500;126;74;0.44225
10204020;-0.12500;83.8125;126;74;0.42955
10204030;-0.12500;83.4375;126;74;0.41807
10204040;-0.09000;83.1250;126;74;0.40781
10204050;0.22500;82.5000;126;74;0.39023
10204060;0.75500;82.2500;126;74;0.38266
10204070;0.97000;81.9375;126;74;0.37656
10204080;0.46500;81.4375;126;74;0.36557
10204090;-0.19000;81.1875;126;74;0.35971
10204100;-0.28500;80.9375;126;74;0.35360
10204110;-0.21000;80.6875;126;74;0.34725
10204120;-0.18500;80.1875;126;74;0.33504
10204130;-0.18000;79.9375;126;74;0.32894
10204140;-0.17500;79.6875;126;74;0.32308
10204150;-0.16000;79.4375;126;74;0.31697
10204160;-0.16000;79.1250;126;74;0.31062
10204170;-0.15500;78.5000;126;74;0.29963
10204180;-0.14500;78.1875;126;74;0.29524
10204190;-0.14500;77.8750;126;74;0.29035
10204200;-0.14000;77.5625;126;74;0.28400
10204210;-0.13500;76.8750;126;74;0.27399
10204220;-0.13000;76.5000;126;74;0.26935
10204230;-0.12000;76.1875;126;74;0.26422
10204240;-0.10500;75.5625;126;74;0.25397
10204250;-0.10000;75.2500;126;74;0.24884
10204260;-0.08500;75.0000;126;74;0.24396
10204270;-0.06500;74.7500;126;74;0.24054
10204280;-0.05500;74.6250;126;74;0.23785
10204290;-0.04500;75.1250;126;74;0.23053
10204300;-0.02500;76.1875;126;74;0.22662
10204310;-0.01500;77.8750;126;74;0.22271
10204320;0.00000;80.3125;126;74;0.21880
10204330;0.02000;87.0625;126;74;0.21172
10204340;0.04000;91.0625;126;74;0.20855
10204350;0.06000;95.2500;126;74;0.20562
10204360;0.08000;103.8750;126;74;0.20269
10204370;0.11500;107.8750;126;74;0.19902
10204380;0.14000;111.6250;126;74;0.19853
10204390;0.16500;114.8750;126;74;0.19756
10204400;0.19500;117.6875;126;74;0.19634
10204410;0.21500;121.8750;126;74;0.19414
10204420;0.21500;123.3750;126;74;0.19316
10204430;0.18500;124.5000;126;74;0.19243
10204440;0.14500;125.3125;126;74;0.19194
10204450;0.09000;126.1250;126;74;0.19072
10204460;0.03000;126.1250;126;74;0.19023
10204470;-0.02500;125.9375;126;74;0.19048
10204480;-0.05500;125.5625;126;74;0.19121
10204490;-0.08500;124.1875;126;74;0.19145
10204500;-0.10000;123.1875;126;74;0.19145
10204510;-0.11000;121.9375;126;74;0.19145
10204520;-0.11500;120.5000;126;74;0.19145
10204530;-0.12000;117.0000;126;74;0.19145
10204540;-0.12500;114.8750;126;74;0.19145
10204550;-0.12500;112.5625;126;74;0.19219
10204560;-0.12500;110.1250;126;74;0.19365
10204570;-0.12500;105.0000;126;74;0.20147
10204580;-0.12500;102.6875;126;74;0.20855
10204590;-0.11500;100.6250;126;74;0.21929
10204600;-0.11500;98.8750;126;74;0.23419
10204610;-0.10500;96.2500;126;74;0.27668
10204620;-0.10500;95.3750;126;74;0.30354
10204630;-0.10000;94.6875;126;74;0.33284
10204640;-0.09500;94.2500;126;74;0.36337
10204650;-0.09500;93.6250;126;74;0.42418
10204660;-0.09000;93.4375;126;74;0.45299
10204670;-0.09000;93.2500;126;74;0.47668
10204680;-0.09000;93.0625;126;74;0.49646
10204690;-0.09000;92.5625;126;74;0.53529
10204700;-0.09000;92.3125;126;74;0.55238
10204710;-0.09000;91.9375;126;74;0.56703
10204720;-0.09000;91.1875;126;74;0.58974
10204730;-0.08500;90.7500;126;74;0.59780
10204740;-0.08500;90.3125;126;74;0.60366
10204750;-0.07500;89.8750;126;74;0.60757
10204760;-0.06000;89.4375;126;74;0.60952
10204770;-0.02500;88.5000;126;74;0.60733
10204780;0.00000;88.0625;126;74;0.60342
10204790;0.01000;87.6250;126;74;0.59829
10204800;0.03500;86.7500;126;74;0.58291
10204810;0.06000;86.3125;126;74;0.57216
10204820;0.08500;85.8750;126;74;0.55971
10204830;0.06500;85.3750;126;74;0.54554
10204840;0.02000;84.9375;126;74;0.53040
10204850;-0.00500;84.1250;126;74;0.49744
10204860;-0.04500;83.7500;126;74;0.48059
10204870;-0.09000;83.3750;126;74;0.46618
10204880;-0.11500;83.0000;126;74;0.45348
10204890;-0.12500;82.2500;126;74;0.42784
10204900;-0.12500;81.9375;126;74;0.41636
10204910;-0.12500;81.5625;126;74;0.40610
10204920;-0.11500;81.2500;126;74;0.39683
10204930;-0.11000;80.6250;126;74;0.38169
10204940;-0.07500;80.3750;126;74;0.37534
10204950;0.17000;80.1250;126;74;0.36996
10204960;0.79000;79.6875;126;74;0.36068
10204970;0.95000;79.5000;126;74;0.35702
10204980;0.41000;79.2500;126;74;0.35385
10204990;-0.25000;79.0625;126;74;0.34994
10205000;-0.26500;78.6250;126;73;0.34115
10205010;-0.21000;78.4375;126;73;0.33700
10205020;-0.19000;78.2500;126;73;0.33260
10205030;-0.18000;78.0000;126;73;0.32821
10205040;-0.18000;77.6875;126;73;0.32381
10205050;-0.17000;77.1875;126;73;0.31453
10205060;-0.16000;76.9375;126;73;0.30989
10205070;-0.15500;76.6875;126;73;0.30647
10205080;-0.15500;76.3750;126;73;0.30354
10205090;-0.14500;75.6875;126;73;0.29621
10205100;-0.14000;75.3750;126;73;0.29255
10205110;-0.13500;75.0000;126;73;0.28889
10205120;-0.13500;74.6875;126;73;0.28498
10205130;-0.12500;74.0625;126;73;0.31648
10205140;-0.11500;73.8125;126;73;0.32405
10205150;-0.10500;73.5000;126;73;0.32576
10205160;-0.09500;73.0000;126;73;0.32479
10205170;-0.08000;72.8125;126;73;0.32088
10205180;-0.06500;72.8750;126;73;0.31941
10205190;-0.05500;73.2500;126;73;0.31673
10205200;-0.03500;75.8125;126;73;0.31136
10205210;-0.02000;78.1250;126;73;0.30842
10205220;0.00000;81.1875;126;73;0.30501
10205230;0.01000;84.7500;126;73;0.30232
10205240;0.03000;88.7500;126;73;0.30037
10205250;0.06000;97.3750;126;73;0.29621
10205260;0.08000;101.6875;126;73;0.29426
10205270;0.10500;105.8125;126;73;0.29328
10205280;0.14000;113.0625;126;73;0.29206
10205290;0.16500;116.0000;126;73;0.29109
10205300;0.18500;118.4375;126;73;0.29011
10205310;0.20500;120.4375;126;73;0.28938
10205320;0.21000;122.0625;126;73;0.28840
10205330;0.19500;124.1875;126;73;0.28571
10205340;0.14500;124.8125;126;73;0.28425
10205350;0.07000;125.1250;126;73;0.28303
10205360;0.02000;125.3125;126;73;0.28205
10205370;-0.03500;124.9375;126;73;0.28132
10205380;-0.06500;124.4375;126;73;0.28181
10205390;-0.09500;123.6875;126;73;0.28156
10205400;-0.11500;122.7500;126;73;0.28132
10205410;-0.13000;120.1875;126;73;0.28132
10205420;-0.13500;118.6250;126;73;0.28132
10205430;-0.13500;116.8125;126;73;0.28132
10205440;-0.13500;112.5625;126;73;0.28132
10205450;-0.13000;110.1875;126;73;0.28205
10205460;-0.12500;107.6875;126;73;0.28449
10205470;-0.11500;105.1875;126;73;0.28864
10205480;-0.11500;102.7500;126;73;0.29524
10205490;-0.10500;98.8125;126;73;0.31966
10205500;-0.10000;97.3125;126;73;0.33871
10205510;-0.09500;96.1250;126;73;0.36190
10205520;-0.08500;95.1875;126;73;0.38926
10205530;-0.08500;93.9375;126;73;0.45128
10205540;-0.07500;93.5625;126;73;0.48376
10205550;-0.07500;93.2500;126;73;0.51600
10205560;-0.07500;93.0625;126;73;0.54676
10205570;-0.07500;92.6875;126;73;0.59853
10205580;-0.07500;92.5000;126;73;0.61758
10205590;-0.07500;92.2500;126;73;0.63663
10205600;-0.08000;91.6250;126;73;0.67057
10205610;-0.08500;91.2500;126;73;0.68425
10205620;-0.08500;90.8750;126;73;0.69548
10205630;-0.08500;90.5000;126;73;0.70476
10205640;-0.08500;90.0625;126;73;0.71184
10205650;-0.08500;89.2500;126;73;0.71917
10205660;-0.06500;88.8125;126;73;0.71990
10205670;-0.04000;88.3125;126;73;0.71819
10205680;-0.01500;87.8125;126;73;0.71453
10205690;-0.00500;86.8750;126;73;0.70330
10205700;0.00500;86.3750;126;73;0.69158
10205710;0.03500;85.9375;126;73;0.67961
10205720;0.06000;85.0625;126;73;0.66984
10205730;0.03500;84.5625;126;73;0.64225
10205740;0.00000;84.1250;126;73;0.62589
10205750;-0.02500;83.6875;126;73;0.60855
10205760;-0.07500;82.8750;126;73;0.57558
10205770;-0.11000;82.5000;126;73;0.56166
10205780;-0.14000;82.0625;126;73;0.54750
10205790;-0.14500;81.6875;126;73;0.53407
10205800;-0.14500;81.6875;126;73;0.53407
10205810;-0.14500;80.7500;126;73;0.50110
10205820;-0.14000;80.4375;126;73;0.49231
10205830;-0.13500;80.1250;126;73;0.48303
10205840;-0.11000;79.8750;126;73;0.47546
10205850;0.09500;79.4375;126;73;0.46520
10205860;0.59000;79.2500;126;73;0.46032
10205870;0.96000;79.0625;126;73;0.45617
10205880;0.51500;78.6875;126;73;0.45250
10205890;-0.24000;78.5625;126;73;0.44396
10205900;-0.32000;78.3750;126;73;0.43932
10205910;-0.25500;78.1875;126;73;0.43468
10205920;-0.23000;78.0000;126;73;0.42979
10205930;-0.22500;77.5625;126;73;0.41954
10205940;-0.22000;77.3125;126;73;0.41465
10205950;-0.22000;77.0625;126;73;0.40952
10205960;-0.22000;76.8125;126;73;0.40391
10205970;-0.21000;76.1875;126;73;0.39560
10205980;-0.20000;75.8750;126;73;0.39145
10205990;-0.19000;75.5625;126;73;0.38706
10206000;-0.18000;75.1875;126;74;0.38266
10206010;-0.16000;74.5625;126;74;0.37411
10206020;-0.14500;74.1875;126;74;0.36996
10206030;-0.12500;73.8750;126;74;0.36581
10206040;-0.10000;73.3750;126;74;0.35751
10206050;-0.08500;73.0625;126;74;0.35360
10206060;-0.07000;72.8125;126;74;0.34969
10206070;-0.05500;72.6250;126;74;0.34676
10206080;-0.04000;72.6250;126;74;0.34432
10206090;-0.01500;73.5625;126;74;0.33651
10206100;0.00000;74.8750;126;74;0.33358
10206110;0.01500;76.9375;126;74;0.33040
10206120;0.03000;79.6875;126;74;0.32747
10206130;0.06000;87.0000;126;74;0.32161
10206140;0.07500;91.2500;126;74;0.31868
10206150;0.10000;95.6875;126;74;0.31600
10206160;0.13500;104.4375;126;74;0.31233
10206170;0.15500;108.4375;126;74;0.31184
10206180;0.18000;112.1250;126;74;0.31038
10206190;0.21500;115.3125;126;74;0.30867
10206200;0.24000;120.2500;126;74;0.30598
10206210;0.25500;122.0000;126;74;0.30403
10206220;0.25500;123.4375;126;74;0.30256
10206230;0.22500;124.5000;126;74;0.30134
10206240;0.18500;125.3125;126;74;0.30012
10206250;0.13000;126.0625;126;74;0.29841
10206260;0.06500;126.1250;126;74;0.29768
10206270;0.00500;125.9375;126;74;0.29768
10206280;-0.02500;125.5625;126;74;0.29792
10206290;-0.05500;124.1875;126;74;0.29695
10206300;-0.07500;123.2500;126;74;0.29621
10206310;-0.09500;122.0625;126;74;0.29573
10206320;-0.09500;120.6875;126;74;0.29548
10206330;-0.09500;117.2500;126;74;0.29548
10206340;-0.10000;115.2500;126;74;0.29621
10206350;-0.10000;113.0625;126;74;0.29719
10206360;-0.10000;110.6875;126;74;0.29866
10206370;-0.09000;105.5625;126;74;0.31160
10206380;-0.08500;103.0625;126;74;0.31868
10206390;-0.08000;100.7500;126;74;0.33065
10206400;-0.07500;97.2500;126;74;0.38828
10206410;-0.07500;96.0000;126;74;0.42125
10206420;-0.07000;95.0000;126;74;0.45495
10206430;-0.07000;94.2500;126;74;0.48889
10206440;-0.06500;93.7500;126;74;0.52259
10206450;-0.06500;93.0625;126;74;0.58559
10206460;-0.06000;92.9375;126;74;0.61001
10206470;-0.06000;92.7500;126;74;0.63028
10206480;-0.05500;92.4375;126;74;0.66618
10206490;-0.05500;92.1875;126;74;0.68132
10206500;-0.05500;91.9375;126;74;0.69915
10206510;-0.05500;91.6250;126;74;0.71331
10206520;-0.05500;91.2500;126;74;0.72454
10206530;-0.05500;90.5000;126;74;0.74042
10206540;-0.05500;90.0625;126;74;0.74505
10206550;-0.05500;89.6250;126;74;0.74774
10206560;-0.04000;88.6875;126;74;0.74750
10206570;-0.00500;88.1875;126;74;0.74188
10206580;0.01000;87.6875;126;74;0.73700
10206590;0.03000;87.2500;126;74;0.73016
10206600;0.04000;86.7500;126;74;0.72161
10206610;0.07000;85.8125;126;74;0.69890
10206620;0.10000;85.3750;126;74;0.68449
10206630;0.10000;84.9375;126;74;0.66838
10206640;0.07000;84.5000;126;74;0.65079
10206650;0.03500;83.6875;126;74;0.61392
10206660;0.00500;83.3125;126;74;0.59756
10206670;-0.03500;82.9375;126;74;0.58242
10206680;-0.07500;82.5625;126;74;0.56703
10206690;-0.09500;81.7500;126;74;0.53871
10206700;-0.09500;81.4375;126;74;0.52650
10206710;-0.09500;81.1250;126;74;0.51600
10206720;-0.08500;80.8125;126;74;0.50696
10206730;-0.07500;80.2500;126;74;0.49206
10206740;-0.06500;80.0000;126;74;0.48596
10206750;0.06000;79.7500;126;74;0.48010
10206760;0.60000;79.3750;126;74;0.47033
10206770;1.00000;79.1250;126;74;0.46520
10206780;0.83500;78.9375;126;74;0.46007
10206790;0.00500;78.7500;126;74;0.45495
10206800;0.00500;78.7500;126;74;0.45495
10206810;-0.18000;78.1875;126;74;0.43980
10206820;-0.14000;78.0000;126;74;0.43468
10206830;-0.12500;77.8125;126;74;0.42955
10206840;-0.12500;77.4375;126;74;0.41905
10206850;-0.12500;77.1875;126;74;0.41416
10206860;-0.11500;77.0000;126;74;0.41001
10206870;-0.11000;76.6875;126;74;0.40635
10206880;-0.10500;76.4375;126;74;0.40195
10206890;-0.10000;75.8125;126;74;0.39267
10206900;-0.09500;75.5000;126;74;0.38779
10206910;-0.08500;75.2500;126;74;0.38291
10206920;-0.08000;74.9375;126;74;0.37802
10206930;-0.07500;74.3125;126;74;0.36923
10206940;-0.06500;74.0625;126;74;0.36532
10206950;-0.06000;73.8125;126;74;0.36142
10206960;-0.04500;73.5625;126;74;0.35849
10206970;-0.02500;73.1875;126;74;0.35287
10206980;-0.01500;73.2500;126;74;0.34945
10206990;-0.00500;73.6250;126;74;0.34579
10207000;0.00500;76.1250;127;74;0.33895
10207010;0.02000;78.5000;127;74;0.33553
10207020;0.03500;81.5000;127;74;0.33236
10207030;0.05500;85.1875;127;74;0.32967
10207040;0.07000;89.2500;127;74;0.32723
10207050;0.08500;98.0625;127;74;0.32308
10207060;0.10000;102.5000;127;74;0.32186
10207070;0.12000;106.7500;127;74;0.32112
10207080;0.14500;114.2500;127;74;0.31819
10207090;0.17000;117.3750;127;74;0.31648
10207100;0.19500;119.9375;127;74;0.31477
10207110;0.22500;122.1250;127;74;0.31331
10207120;0.23000;125.1875;127;74;0.31160
10207130;0.21500;126.1875;127;74;0.31136
10207140;0.16500;126.9375;127;74;0.31111
10207150;0.12000;127.4375;127;74;0.31111
10207160;0.05500;127.7500;127;74;0.31160
10207170;-0.01000;127.7500;127;74;0.29426
10207180;-0.05000;127.4375;127;74;0.28864
10207190;-0.08000;126.8750;127;74;0.28547
10207200;-0.10500;126.1875;127;74;0.28400
10207210;-0.12500;124.1250;127;74;0.28254
10207220;-0.13000;122.8125;127;74;0.28205
10207230;-0.13500;121.2500;127;74;0.28205
10207240;-0.13500;117.5000;127;74;0.28327
10207250;-0.13500;115.3750;127;74;0.28596
10207260;-0.14500;113.0625;127;74;0.29060
10207270;-0.14500;110.6250;127;74;0.29768
10207280;-0.14500;108.1250;127;74;0.30867
10207290;-0.14000;103.6250;127;74;0.34481
10207300;-0.13500;101.7500;127;74;0.36996
10207310;-0.13500;100.1875;127;74;0.39927
10207320;-0.13500;98.9375;127;74;0.43175
10207330;-0.12500;97.1875;127;74;0.50256
10207340;-0.12500;96.5625;127;74;0.53797
10207350;-0.12500;96.1250;127;74;0.57216
10207360;-0.12500;95.8125;127;74;0.60000
10207370;-0.13000;95.3750;127;74;0.64811
10207380;-0.13000;95.1250;127;74;0.67131
10207390;-0.13000;94.8750;127;74;0.69280
10207400;-0.12500;94.2500;127;74;0.72869
10207410;-0.12500;93.8750;127;74;0.74310
10207420;-0.12500;93.5000;127;74;0.75507
10207430;-0.12500;93.0625;127;74;0.76508
10207440;-0.12500;92.1875;127;74;0.77924
10207450;-0.12500;91.8125;127;74;0.78315
10207460;-0.12000;91.3125;127;74;0.78364
10207470;-0.09500;90.8750;127;74;0.78168
10207480;-0.07500;90.4375;127;74;0.77875
10207490;-0.04500;89.5000;127;74;0.76801
10207500;-0.04000;89.0625;127;74;0.75971
10207510;-0.03500;88.5625;127;74;0.74896
10207520;0.00000;88.1250;127;74;0.73651
10207530;0.04000;87.3125;127;74;0.70598
10207540;0.03500;86.8750;127;74;0.68840
10207550;0.00500;86.5000;127;74;0.67033
10207560;-0.03500;85.6875;127;74;0.63736
10207570;-0.06500;85.2500;127;74;0.62100
10207580;-0.11000;84.8750;127;74;0.60513
10207590;-0.14000;84.5000;127;74;0.58999
10207600;-0.15000;84.1875;127;74;0.57607
10207610;-0.15000;83.5000;127;74;0.55263
10207620;-0.14500;83.1875;127;74;0.54310
10207630;-0.14500;82.8750;127;74;0.53480
10207640;-0.14000;82.6250;127;74;0.52747
10207650;-0.11500;82.1250;127;74;0.51477
10207660;0.04000;81.8750;127;74;0.50940
10207670;0.55000;81.6875;127;74;0.50403
10207680;1.10500;81.2500;127;74;0.49304
10207690;0.78500;81.0625;127;74;0.48767
10207700;-0.10500;80.8750;127;74;0.48205
10207710;-0.27000;80.6875;127;74;0.47643
10207720;-0.21000;80.3125;127;74;0.46520
10207730;-0.20000;80.1250;127;74;0.45983
10207740;-0.20000;79.9375;127;74;0.45470
10207750;-0.20000;79.7500;127;74;0.44957
10207760;-0.19500;79.5625;127;74;0.44518
10207770;-0.19000;79.0625;127;74;0.43736
10207780;-0.18500;78.8125;127;74;0.43272
10207790;-0.18000;78.5000;127;74;0.42759
10207800;-0.18000;78.5000;127;74;0.42759
10207810;-0.17000;77.6875;127;74;0.41245
10207820;-0.16500;77.3750;127;74;0.40781
10207830;-0.16000;77.1250;127;74;0.40317
10207840;-0.15000;76.5625;127;74;0.39438
10207850;-0.14500;76.2500;127;74;0.39096
10207860;-0.13500;76.0000;127;74;0.38803
10207870;-0.12000;75.8125;127;74;0.38437
10207880;-0.11500;75.6250;127;74;0.38046
10207890;-0.10500;76.1250;127;74;0.37314
10207900;-0.10000;77.1875;127;74;0.36972
10207910;-0.09500;79.0000;127;74;0.36654
10207920;-0.08500;81.6250;127;74;0.36386
10207930;-0.06500;89.0000;127;74;0.35922
10207940;-0.04500;93.3125;127;74;0.35726
10207950;-0.03000;97.9375;127;74;0.35580
10207960;0.00000;107.3125;127;74;0.35482
10207970;0.02500;111.7500;127;74;0.35409
10207980;0.06000;115.8125;127;74;0.35360
10207990;0.10000;119.3750;127;74;0.35336
10208000;0.13000;122.4375;128;74;0.35311
10208010;0.15500;127.1250;128;74;0.35311
10208020;0.17000;128.8750;128;74;0.35287
10208030;0.16500;130.3125;128;74;0.35238
10208040;0.14500;131.3750;128;74;0.35165
10208050;0.09000;132.6875;128;74;0.35092
10208060;0.04000;133.0625;128;74;0.35092
10208070;-0.01500;133.1875;128;74;0.35043
10208080;-0.07500;133.0000;128;74;0.34994
10208090;-0.10500;132.6250;128;74;0.34969
10208100;-0.12500;132.0625;128;74;0.34921
10208110;-0.14500;131.3750;128;74;0.34847
10208120;-0.15500;130.4375;128;74;0.34774
10208130;-0.15500;128.0625;128;74;0.34652
10208140;-0.15500;126.5000;128;74;0.34628
10208150;-0.15500;124.7500;128;74;0.34701
10208160;-0.15500;122.7500;128;74;0.34896
10208170;-0.15500;118.1250;128;74;0.36020
10208180;-0.15500;115.5625;128;74;0.37167
10208190;-0.15000;113.0000;128;74;0.38779
10208200;-0.15000;108.1875;128;74;0.40904
10208210;-0.14500;106.1875;128;74;0.46520
10208220;-0.14500;104.4375;128;74;0.49841
10208230;-0.13500;103.0625;128;74;0.53333
10208240;-0.13000;101.9375;128;74;0.56874
10208250;-0.12500;100.4375;128;74;0.63199
10208260;-0.12000;99.9375;128;74;0.65665
10208270;-0.11500;99.5625;128;74;0.68278
10208280;-0.10500;99.2500;128;74;0.70842
10208290;-0.10000;98.7500;128;74;0.75409
10208300;-0.09500;98.5000;128;74;0.77338
10208310;-0.08500;98.1875;128;74;0.79048
10208320;-0.08500;97.5000;128;74;0.81783
10208330;-0.08500;97.1250;128;74;0.82808
10208340;-0.08000;96.7500;128;74;0.83639
10208350;-0.07500;96.3125;128;74;0.84298
10208360;-0.07000;95.8750;128;74;0.84567
10208370;-0.07000;94.8750;128;74;0.84518
10208380;-0.04500;94.3750;128;74;0.84322
10208390;-0.02500;93.8750;128;74;0.83980
10208400;0.00500;93.3125;128;74;0.83443
10208410;0.02000;92.3125;128;74;0.81783
10208420;0.04000;91.8125;128;74;0.80684
10208430;0.06000;91.3125;128;74;0.79390
10208440;0.09000;90.8125;128;74;0.77949
10208450;0.08500;89.9375;128;74;0.74774
10208460;0.05000;89.5000;128;74;0.73162
10208470;0.02000;89.0625;128;74;0.71429
10208480;-0.02000;88.1875;128;74;0.69646
10208490;-0.08500;87.8125;128;74;0.66129
10208500;-0.11000;87.4375;128;74;0.64469
10208510;-0.12500;87.0625;128;74;0.62930
10208520;-0.12500;86.3125;128;74;0.60342
10208530;-0.12500;86.0000;128;74;0.59243
10208540;-0.12000;85.6875;128;74;0.58266
10208550;-0.12500;85.3750;128;74;0.57411
10208560;-0.12000;85.0625;128;74;0.56703
10208570;0.11500;84.5000;128;74;0.55409
10208580;0.55500;84.1875;128;74;0.54774
10208590;1.16000;83.8750;128;74;0.54139
10208600;0.71000;83.2500;128;74;0.52894
10208610;0.08000;83.0000;128;74;0.52259
10208620;-0.24000;82.6875;128;74;0.51624
10208630;-0.18000;82.3750;128;74;0.51013
10208640;-0.17000;82.1250;128;74;0.50427
10208650;-0.17500;81.5625;128;74;0.49255
10208660;-0.17500;81.1875;128;74;0.48742
10208670;-0.17000;80.8125;128;74;0.48181
10208680;-0.16500;80.0000;128;74;0.47619
10208690;-0.15500;79.6250;128;74;0.46520
10208700;-0.14000;79.1875;128;74;0.45983
10208710;-0.13500;78.8125;128;74;0.45470
10208720;-0.13000;77.9375;128;74;0.44469
10208730;-0.12500;77.5625;128;74;0.43980
10208740;-0.11500;77.1250;128;74;0.43516
10208750;-0.10500;76.7500;128;74;0.43077
10208760;-0.09000;76.0625;128;74;0.42393
10208770;-0.07500;75.6875;128;74;0.42027
10208780;-0.06500;75.4375;128;74;0.41636
10208790;-0.05500;75.3125;128;74;0.41245
10208800;-0.05500;75.3125;128;74;0.41245
10208810;-0.04000;77.2500;128;74;0.40171
10208820;-0.03000;79.3750;128;74;0.39853
10208830;-0.02500;82.3125;128;74;0.39536
10208840;-0.01500;85.9375;128;74;0.39267
10208850;0.00000;94.6250;128;74;0.38828
10208860;0.02000;99.3125;128;74;0.38681
10208870;0.04000;104.0000;128;74;0.38510
10208880;0.06500;108.5000;128;74;0.38315
10208890;0.10000;116.6250;128;74;0.37949
10208900;0.12500;119.9375;128;74;0.37778
10208910;0.15500;122.8125;128;74;0.37607
10208920;0.18500;127.0000;128;74;0.37314
10208930;0.20000;128.5000;128;74;0.37167
10208940;0.20500;129.6875;128;74;0.36972
10208950;0.18000;130.6250;128;74;0.36777
10208960;0.13500;131.7500;128;74;0.36484
10208970;0.10000;132.0000;128;74;0.36313
10208980;0.05000;132.1250;128;74;0.36166
10208990;-0.01500;132.0000;128;74;0.35995
10209000;-0.05000;131.6875;127;74;0.35824
10209010;-0.08500;130.5625;127;74;0.35482
10209020;-0.09500;129.7500;127;74;0.35287
10209030;-0.10500;128.7500;127;74;0.35092
10209040;-0.11000;126.0625;127;74;0.34652
10209050;-0.11500;124.3750;127;74;0.34554
10209060;-0.12000;122.5000;127;74;0.34554
10209070;-0.13000;120.3125;127;74;0.34652
10209080;-0.13500;117.9375;127;74;0.34945
10209090;-0.13500;112.6875;127;74;0.36703
10209100;-0.13000;110.0000;127;74;0.38339
10209110;-0.12500;107.3750;127;74;0.40464
10209120;-0.12500;105.0625;127;74;0.43028
10209130;-0.12500;101.4375;127;74;0.49182
10209140;-0.11500;100.1250;127;74;0.52503
10209150;-0.11500;99.0625;127;74;0.55824
10209160;-0.11500;97.6250;127;74;0.60952
10209170;-0.11500;97.1250;127;74;0.63443
10209180;-0.11500;96.8125;127;74;0.65836
10209190;-0.11500;96.5625;127;74;0.68010
10209200;-0.11000;96.0625;127;74;0.71600
10209210;-0.10500;95.7500;127;74;0.70818
10209220;-0.10000;95.4375;127;74;0.68669
10209230;-0.10000;95.0625;127;74;0.67937
10209240;-0.10500;94.1875;127;74;0.68010
10209250;-0.10500;93.7500;127;74;0.68059
10209260;-0.10000;93.3125;127;74;0.68010
10209270;-0.09000;92.8125;127;74;0.67961
10209280;-0.06500;91.7500;127;74;0.67595
10209290;-0.04500;91.2500;127;74;0.67204
10209300;-0.01500;90.6875;127;74;0.66667
10209310;-0.00500;90.1250;127;74;0.65958
10209320;0.01000;89.6250;127;74;0.65104
10209330;0.05000;88.6250;127;74;0.62833
10209340;0.07000;88.1250;127;74;0.61441
10209350;0.05000;87.6250;127;74;0.59853
10209360;0.01000;86.7500;127;74;0.56752
10209370;-0.01500;86.2500;127;74;0.55018
10209380;-0.05000;85.8125;127;74;0.53211
10209390;-0.10500;85.3750;127;74;0.51404
10209400;-0.12000;84.9375;127;74;0.49646
10209410;-0.12500;84.1875;127;74;0.46398
10209420;-0.13000;83.7500;127;74;0.44957
10209430;-0.13000;83.3750;127;74;0.43639
10209440;-0.12500;82.6875;127;74;0.42442
10209450;-0.12000;82.3750;127;74;0.40513
10209460;-0.08500;82.0625;127;74;0.39829
10209470;0.27500;81.7500;127;74;0.39145
10209480;0.72000;81.5000;127;74;0.38486
10209490;0.93000;80.9375;127;74;0.37241
10209500;0.21500;80.7500;127;74;0.36630
10209510;-0.23000;80.5000;127;74;0.36044
10209520;-0.29000;80.2500;127;74;0.35458
10209530;-0.20500;79.7500;127;74;0.34261
10209540;-0.19500;79.5000;127;74;0.33651
10209550;-0.19500;79.2500;127;74;0.33114
10209560;-0.19500;78.6875;127;74;0.32088
10209570;-0.19000;78.3750;127;74;0.31526
10209580;-0.18000;78.0625;127;74;0.30965
10209590;-0.17500;77.7500;127;74;0.30427
10209600;-0.17000;77.3750;127;74;0.29890
10209610;-0.16000;76.6875;127;74;0.28816
10209620;-0.15500;76.3125;127;74;0.28278
10209630;-0.15000;76.0000;127;74;0.27766
10209640;-0.14000;75.3125;127;74;0.26740
10209650;-0.13500;75.0000;127;74;0.26349
10209660;-0.12500;74.6875;127;74;0.26007
10209670;-0.11500;74.3750;127;74;0.25617
10209680;-0.10500;74.1250;127;74;0.25177
10209690;-0.09500;73.6875;127;74;0.24322
10209700;-0.07500;73.7500;127;74;0.23932
10209710;-0.06500;74.1250;127;74;0.23541
10209720;-0.05000;75.0625;127;74;0.23175
10209730;-0.02500;79.1250;127;74;0.22491
10209740;-0.01000;82.1250;127;74;0.22173
10209750;0.00500;85.6875;127;74;0.21978
10209760;0.02500;93.8125;127;74;0.21832
10209770;0.05000;98.1250;127;74;0.21368
10209780;0.07000;102.3750;127;74;0.21148
10209790;0.10000;106.5000;127;74;0.20952
10209800;0.10000;106.5000;127;74;0.20952
10209810;0.14500;113.5000;127;74;0.20635
10209820;0.18500;118.6250;127;74;0.20317
10209830;0.20000;120.5000;127;74;0.20195
10209840;0.20000;123.1250;127;74;0.20000
10209850;0.17500;123.9375;127;74;0.20000
10209860;0.13500;124.4375;127;74;0.20049
10209870;0.07500;124.6875;127;74;0.20024
10209880;0.01000;124.5625;127;74;0.19976
10209890;-0.05000;124.1875;127;74;0.19805
10209900;-0.08000;123.5625;127;74;0.19731
10209910;-0.11000;122.7500;127;74;0.19658
10209920;-0.13000;120.5625;127;74;0.19560
10209930;-0.13500;119.1250;127;74;0.19560
10209940;-0.13500;117.5000;127;74;0.19560
10209950;-0.14000;115.6875;127;74;0.19634
10209960;-0.14000;113.6250;127;74;0.19756
10209970;-0.13500;109.0000;127;74;0.20049
10209980;-0.13000;106.5000;127;74;0.20415
10209990;-0.12500;104.0625;127;74;0.21026
10210000;-0.12000;99.8750;127;74;0.23297
10210010;-0.11500;98.2500;127;74;0.25031
10210020;-0.10500;96.8750;127;74;0.27179
10210030;-0.10000;95.7500;127;74;0.29670
10210040;-0.09500;94.1875;127;74;0.35385
10210050;-0.09000;93.6875;127;74;0.37998
10210060;-0.09000;93.3125;127;74;0.40415
10210070;-0.09000;93.0625;127;74;0.43053
10210080;-0.09000;92.8750;127;74;0.45690
10210090;-0.09500;92.4375;127;74;0.50403
10210100;-0.09500;92.1875;127;74;0.52405
10210110;-0.09500;91.8750;127;74;0.54115
10210120;-0.09500;91.2500;127;74;0.55580
10210130;-0.09500;90.8750;127;74;0.57802
10210140;-0.09000;90.5000;127;74;0.58608
10210150;-0.08500;90.0625;127;74;0.59121
10210160;-0.08000;89.1250;127;74;0.59658
10210170;-0.07500;88.6875;127;74;0.59731
10210180;-0.06000;88.2500;127;74;0.59634
10210190;-0.02500;87.8125;127;74;0.59389
10210200;-0.00500;87.3125;127;74;0.58974
10210210;0.01000;86.3750;127;74;0.57509
10210220;0.02000;85.8750;127;74;0.56508
10210230;0.05000;85.4375;127;74;0.55311
10210240;0.07000;85.0000;127;74;0.53968
10210250;0.06500;84.1875;127;74;0.51111
10210260;0.03000;83.7500;127;74;0.49768
10210270;-0.00500;83.3125;127;74;0.48303
10210280;-0.04000;82.5625;127;74;0.46813
10210290;-0.08500;82.1250;127;74;0.43932
10210300;-0.12000;81.7500;127;74;0.42637
10210310;-0.13500;81.4375;127;74;0.41490
10210320;-0.14000;80.7500;127;74;0.39560
10210330;-0.13500;80.5000;127;74;0.38755
10210340;-0.13000;80.1875;127;74;0.38046
10210350;-0.12000;79.8750;127;74;0.37485
10210360;-0.09500;79.3750;127;74;0.36532
10210370;0.05500;79.1875;127;74;0.36044
10210380;0.49500;78.9375;127;74;0.35580
10210390;0.97000;78.7500;127;74;0.35140
10210400;0.67000;78.5000;127;74;0.34701
10210410;-0.03500;78.0625;127;74;0.33846
10210420;-0.30000;77.8750;127;74;0.33431
10210430;-0.23500;77.6875;127;74;0.33016
10210440;-0.19000;77.5000;127;74;0.32552
10210450;-0.18000;76.9375;127;74;0.31697
10210460;-0.17500;76.6875;127;74;0.31355
10210470;-0.17500;76.4375;127;74;0.30916
10210480;-0.17000;75.9375;127;74;0.30037
10210490;-0.16000;75.6250;127;74;0.29597
10210500;-0.15500;75.3125;127;74;0.29206
10210510;-0.15500;75.0000;127;74;0.28816
10210520;-0.15000;74.6875;127;74;0.28449
10210530;-0.15000;74.0625;127;74;0.27741
10210540;-0.14500;73.7500;127;74;0.27375
10210550;-0.14500;73.4375;127;74;0.27082
10210560;-0.13500;73.1250;127;74;0.26838
10210570;-0.11500;72.5625;127;74;0.26203
10210580;-0.10500;72.3125;127;74;0.25836
10210590;-0.08500;72.1250;127;74;0.25470
10210600;-0.06500;72.0625;127;74;0.24811
10210610;-0.05500;72.5625;127;74;0.24493
10210620;-0.03500;73.6250;127;74;0.24176
10210630;-0.03000;75.4375;127;74;0.23883
10210640;-0.02000;77.9375;127;74;0.23614
10210650;0.00000;84.6875;127;74;0.23248
10210660;0.01500;88.7500;127;74;0.23175
10210670;0.04000;93.0000;127;74;0.23053
10210680;0.06000;97.3125;127;74;0.22906
10210690;0.08500;105.5000;127;74;0.22564
10210700;0.11500;109.1875;127;74;0.22418
10210710;0.14000;112.4375;127;74;0.22271
10210720;0.17500;117.5000;127;74;0.22149
10210730;0.20500;119.3750;127;74;0.21929
10210740;0.21000;120.8125;127;74;0.21832
10210750;0.19500;121.9375;127;74;0.21832
10210760;0.16000;122.7500;127;74;0.21880
10210770;0.11000;123.5000;127;74;0.21832
10210780;0.04000;123.5000;127;74;0.21807
10210790;-0.00500;123.2500;127;74;0.21758
10210800;-0.00500;123.2500;127;74;0.21758
10210810;-0.07000;121.4375;127;74;0.21685
10210820;-0.08000;120.4375;127;74;0.21661
10210830;-0.07500;119.1875;127;74;0.21612
10210840;-0.07500;117.7500;127;74;0.21587
10210850;-0.07500;114.2500;127;74;0.21612
10210860;-0.08500;112.2500;127;74;0.21734
10210870;-0.08500;110.0000;127;74;0.21856
10210880;-0.08500;105.1875;127;74;0.22076
10210890;-0.08500;102.7500;127;74;0.23101
10210900;-0.08500;100.5000;127;74;0.24078
10210910;-0.09000;98.5625;127;74;0.25470
10210920;-0.08500;95.6250;127;74;0.29524
10210930;-0.08500;94.5625;127;74;0.32112
10210940;-0.07500;93.8125;127;74;0.34945
10210950;-0.07000;93.1875;127;74;0.37558
10210960;-0.06500;92.8125;127;74;0.40024
10210970;-0.07000;92.3750;127;74;0.45495
10210980;-0.07000;92.2500;127;74;0.48156
10210990;-0.07000;92.0625;127;74;0.50623
10211000;-0.06500;91.6875;127;74;0.54823
10211010;-0.06500;91.4375;127;74;0.56532
10211020;-0.06500;91.1250;127;74;0.57998
10211030;-0.07500;90.8125;127;74;0.59219
10211040;-0.07000;90.4375;127;74;0.60220
10211050;-0.06500;89.6250;127;74;0.61490
10211060;-0.06500;89.1250;127;74;0.61734
10211070;-0.06000;88.6875;127;74;0.61929
10211080;-0.05500;88.1875;127;74;0.62002
10211090;-0.04000;87.1250;127;74;0.61685
10211100;-0.01000;86.6250;127;74;0.61245
10211110;0.01000;86.1250;127;74;0.60635
10211120;0.02000;85.6250;127;74;0.59829
10211130;0.01500;84.6875;127;74;0.57631
10211140;0.03500;84.1875;127;74;0.56288
10211150;0.05500;83.7500;127;74;0.54994
10211160;0.05000;82.9375;127;74;0.52234
10211170;0.02000;82.5625;127;74;0.50769
10211180;-0.03500;82.2500;127;74;0.49328
10211190;-0.08500;81.8750;127;74;0.47912
10211200;-0.12500;81.3125;127;74;0.45299
10211210;-0.14000;81.0000;127;74;0.44127
10211220;-0.14500;80.6875;127;74;0.43053
10211230;-0.14500;80.4375;127;74;0.42100
10211240;-0.15000;80.1250;127;74;0.41270
10211250;-0.14500;79.6250;127;74;0.40024
10211260;-0.14000;79.3750;127;74;0.40952
10211270;-0.13500;79.1250;127;74;0.42662
10211280;0.11000;78.6250;127;74;0.43321
10211290;0.51500;78.3750;127;74;0.43126
10211300;0.97000;78.1250;127;74;0.42808
10211310;0.51500;77.9375;127;74;0.42442
10211320;-0.08000;77.6875;127;74;0.42051
10211330;-0.35000;77.3750;127;74;0.41245
10211340;-0.31000;77.1250;127;74;0.40830
10211350;-0.30500;76.8750;127;74;0.40464
10211360;-0.32500;76.6250;127;74;0.40122
10211370;-0.33000;76.1250;127;74;0.39219
10211380;-0.31500;75.8750;127;74;0.38706
10211390;-0.27500;75.5625;127;74;0.38217
10211400;-0.21000;75.0000;127;74;0.37265
10211410;-0.18000;74.6875;127;74;0.36825
10211420;-0.15500;74.3750;127;74;0.36410
10211430;-0.15000;74.0625;127;74;0.36020
10211440;-0.15500;73.7500;127;74;0.35629
10211450;-0.16000;73.1875;127;74;0.35067
10211460;-0.14500;72.9375;127;74;0.34750
10211470;-0.12500;72.6875;127;74;0.34408
10211480;-0.10000;72.1875;127;74;0.33700
10211490;-0.09000;72.0000;127;74;0.33333
10211500;-0.06500;71.8125;127;74;0.32991
10211510;-0.03500;71.8125;127;74;0.32650
10211520;0.02000;73.0625;127;74;0.32039
10211530;0.04500;74.6250;127;74;0.31770
10211540;0.07000;76.9375;127;74;0.31477
10211550;0.08000;79.8750;127;74;0.31306
10211560;0.11500;83.4375;127;74;0.31160
10211570;0.19000;91.6875;127;74;0.30745
10211580;0.27500;96.0625;127;74;0.30525
10211590;0.28500;100.4375;127;74;0.30305
10211600;0.25000;108.5000;127;74;0.29866
10211610;0.23500;112.0000;127;74;0.29646
10211620;0.24500;115.0000;127;74;0.29499
10211630;0.26000;117.5625;127;74;0.29377
10211640;0.25500;119.6875;127;74;0.29280
10211650;0.19500;122.6875;127;74;0.29328
10211660;0.11000;123.6875;127;74;0.29304
10211670;0.00000;124.3750;127;74;0.29255
10211680;-0.03500;124.8750;127;74;0.29206
10211690;-0.06000;125.0000;127;74;0.29109
10211700;-0.08500;124.7500;127;74;0.29084
10211710;-0.09000;124.3125;127;74;0.29084
10211720;-0.08500;123.6875;127;74;0.29084
10211730;-0.06500;121.8125;127;74;0.29084
10211740;-0.04500;120.5625;127;74;0.29109
10211750;-0.04500;119.1250;127;74;0.29158
10211760;-0.07000;115.5625;127;74;0.29328
10211770;-0.09000;113.5000;127;74;0.29426
10211780;-0.10000;111.2500;127;74;0.29597
10211790;-0.10000;108.8750;127;74;0.29963
10211800;-0.10000;108.8750;127;74;0.29963
10211810;-0.09000;101.5000;127;74;0.32796
10211820;-0.09000;101.5000;127;74;0.32796
10211830;-0.08500;97.5625;127;74;0.36606
10211840;-0.07500;95.0000;127;74;0.41514
10211850;-0.07000;94.1250;127;74;0.43956
10211860;-0.07000;93.5000;127;74;0.46789
10211870;-0.07500;93.0625;127;74;0.49817
10211880;-0.08500;92.4375;127;74;0.55873
10211890;-0.08500;92.2500;127;74;0.58681
10211900;-0.08500;92.1250;127;74;0.61245
10211910;-0.09000;91.9375;127;74;0.63541
10211920;-0.09000;91.5000;127;74;0.67326
10211930;-0.08500;91.2500;127;74;0.68816
10211940;-0.06500;90.9375;127;74;0.70037
10211950;-0.03500;90.5625;127;74;0.70867
10211960;0.01500;90.1875;127;74;0.71404
10211970;0.16500;89.3125;127;74;0.72283
10211980;0.30500;88.8125;127;74;0.72527
10211990;0.36000;88.3125;127;74;0.72552
10212000;0.27000;87.3750;128;74;0.72039
10212010;0.16500;86.8750;128;74;0.71526
10212020;0.06000;86.5000;128;74;0.70818
10212030;-0.01500;86.1250;128;74;0.69915
10212040;-0.02500;85.7500;128;74;0.68840
10212050;0.00000;85.0000;128;74;0.66471
10212060;0.05000;84.5625;128;74;0.65006
10212070;0.05500;84.0625;128;74;0.63394
10212080;0.02500;83.6250;128;74;0.61661
10212090;-0.00500;82.8125;128;74;0.58120
10212100;-0.03000;82.4375;128;74;0.56435
10212110;-0.09500;82.0000;128;74;0.54847
10212120;-0.14000;81.2500;128;74;0.52186
10212130;-0.14500;80.8125;128;74;0.51087
10212140;-0.13000;80.4375;128;74;0.50183
10212150;-0.11500;80.1250;128;74;0.49451
10212160;-0.10500;79.7500;128;74;0.48840
10212170;-0.10000;79.1875;128;74;0.47692
10212180;-0.08000;78.9375;128;74;0.47155
10212190;0.06000;78.6875;128;74;0.46667
10212200;0.50500;78.3125;128;74;0.46178
10212210;0.94000;78.1250;128;74;0.45250
10212220;0.68000;77.8750;128;74;0.44786
10212230;-0.14500;77.7500;128;74;0.44298
10212240;-0.29000;77.5625;128;74;0.43810
10212250;-0.21000;77.2500;128;74;0.43053
10212260;-0.16000;77.0625;128;74;0.42662
10212270;-0.15500;76.9375;128;74;0.42271
10212280;-0.15000;76.5625;128;74;0.41880
10212290;-0.15500;76.3750;128;74;0.41148
10212300;-0.16000;76.1875;128;74;0.40781
10212310;-0.17000;75.9375;128;74;0.40391
10212320;-0.17500;75.4375;128;74;0.39536
10212330;-0.17500;75.1875;128;74;0.39072
10212340;-0.16000;74.8750;128;74;0.38584
10212350;-0.14500;74.5625;128;74;0.38193
10212360;-0.11500;74.2500;128;74;0.37851
10212370;-0.08500;73.6250;128;74;0.36972
10212380;-0.06000;73.3125;128;74;0.36484
10212390;-0.04500;73.0000;128;74;0.36020
10212400;-0.02500;72.5625;128;74;0.35531
10212410;-0.01500;72.5000;128;74;0.34628
10212420;-0.00500;72.6875;128;74;0.34212
10212430;0.00000;73.3125;128;74;0.33846
10212440;0.01000;74.5000;128;74;0.33504
10212450;0.02000;79.1875;128;74;0.33089
10212460;0.03000;82.5000;128;74;0.32894
10212470;0.05000;86.3750;128;74;0.32674
10212480;0.06000;90.6250;128;74;0.32454
10212490;0.07000;99.5000;128;74;0.32039
10212500;0.08000;103.9375;128;74;0.31819
10212510;0.09000;108.0625;128;74;0.31624
10212520;0.12000;115.2500;128;74;0.31258
10212530;0.15500;118.1250;128;74;0.31062
10212540;0.17500;120.4375;128;74;0.30891
10212550;0.19500;122.3750;128;74;0.30818
10212560;0.20500;125.1250;128;74;0.30745
10212570;0.20000;126.0625;128;74;0.30696
10212580;0.16500;126.7500;128;74;0.30696
10212590;0.11000;127.1250;128;74;0.30720
10212600;0.06000;127.3750;128;74;0.30794
10212610;0.00000;127.1875;128;74;0.30940
10212620;-0.05500;126.8125;128;74;0.31038
10212630;-0.08500;126.1875;128;74;0.31111
10212640;-0.11500;125.3750;128;74;0.31160
10212650;-0.14000;123.1250;128;74;0.31306
10212660;-0.15000;121.7500;128;74;0.31282
10212670;-0.15500;120.0625;128;74;0.31233
10212680;-0.15500;118.2500;128;74;0.31160
10212690;-0.15000;114.0000;128;74;0.31331
10212700;-0.15000;111.5625;128;74;0.31770
10212710;-0.15500;109.0625;128;74;0.32527
10212720;-0.15500;106.5625;128;74;0.33675
10212730;-0.14500;102.1875;128;74;0.37314
10212740;-0.14000;100.3750;128;74;0.39780
10212750;-0.13500;98.9375;128;74;0.42173
10212760;-0.14500;97.7500;128;74;0.44591
10212770;-0.16000;96.1250;128;74;0.50549
10212780;-0.16000;95.6250;128;74;0.53700
10212790;-0.16000;95.3125;128;74;0.56752
10212800;-0.16000;95.3125;128;74;0.56752
10212810;-0.14500;94.6250;128;74;0.64713
10212820;-0.13500;94.4375;128;74;0.66838
10212830;-0.12500;94.1875;128;74;0.68718
10212840;-0.12500;93.6250;128;74;0.71526
10212850;-0.13500;93.2500;128;74;0.72381
10212860;-0.15500;92.8750;128;74;0.73260
10212870;-0.17500;92.5000;128;74;0.74066
10212880;-0.19000;91.6875;128;74;0.74750
10212890;-0.20500;91.1875;128;74;0.75629
10212900;-0.21000;90.7500;128;74;0.75800
10212910;-0.19500;90.3125;128;74;0.75775
10212920;-0.16500;89.8125;128;74;0.75556
10212930;-0.13000;88.8750;128;74;0.74530
10212940;-0.12500;88.3750;128;74;0.73724
10212950;-0.12500;87.9375;128;74;0.72772
10212960;-0.11500;87.4375;128;74;0.71697
10212970;-0.10500;86.5625;128;74;0.69011
10212980;-0.13000;86.1250;128;74;0.67448
10212990;-0.19000;85.6875;128;74;0.65812
10213000;-0.26000;84.8125;128;75;0.62564
10213010;-0.31500;84.3750;128;75;0.61001
10213020;-0.37000;83.9375;128;75;0.59536
10213030;-0.39500;83.5625;128;75;0.58193
10213040;-0.37500;83.1875;128;75;0.56972
10213050;-0.32500;82.4375;128;75;0.55092
10213060;-0.27000;82.1250;128;75;0.54286
10213070;-0.23500;81.8750;128;75;0.53553
10213080;-0.20500;81.5625;128;75;0.52918
10213090;-0.17000;81.0000;128;75;0.51844
10213100;0.04500;80.7500;128;75;0.51355
10213110;0.59000;80.5000;128;75;0.50867
10213120;1.11500;80.0625;128;75;0.49890
10213130;0.75000;79.8750;128;75;0.49377
10213140;0.00000;79.7500;128;75;0.48913
10213150;-0.24000;79.6250;128;75;0.48498
10213160;-0.17000;79.2500;128;75;0.47546
10213170;-0.16000;79.0625;128;75;0.47057
10213180;-0.15500;78.8750;128;75;0.46569
10213190;-0.12000;78.6250;128;75;0.46056
10213200;-0.07500;78.1250;128;75;0.45055
10213210;-0.05000;77.8750;128;75;0.44542
10213220;-0.04500;77.6250;128;75;0.44054
10213230;-0.08000;77.3125;128;75;0.43565
10213240;-0.10000;77.0625;128;75;0.43077
10213250;-0.09500;76.5000;128;75;0.42344
10213260;-0.06500;76.2500;128;75;0.41954
10213270;-0.04000;75.9375;128;75;0.41563
10213280;-0.00500;75.6250;128;75;0.41172
10213290;0.04000;75.1250;128;75;0.40391
10213300;0.08000;74.9375;128;75;0.39976
10213310;0.13000;74.7500;128;75;0.38730
10213320;0.18500;74.9375;128;75;0.36068
10213330;0.21500;75.6875;128;75;0.35385
10213340;0.25500;77.0625;128;75;0.34945
10213350;0.29000;79.2500;128;75;0.34652
10213360;0.34000;85.9375;128;75;0.34066
10213370;0.35500;90.1250;128;75;0.33797
10213380;0.33000;94.6250;128;75;0.33504
10213390;0.32500;99.2500;128;75;0.33211
10213400;0.34000;103.8750;128;75;0.32967
10213410;0.37000;112.5625;128;75;0.32527
10213420;0.39000;116.2500;128;75;0.32357
10213430;0.38500;119.5625;128;75;0.32186
10213440;0.36500;122.3750;128;75;0.32039
10213450;0.34500;126.6875;128;75;0.31893
10213460;0.33500;128.2500;128;75;0.31844
10213470;0.33000;129.4375;128;75;0.31795
10213480;0.32000;130.3750;128;75;0.31746
10213490;0.29000;131.5000;128;75;0.31648
10213500;0.19500;131.7500;128;75;0.31575
10213510;0.12500;131.8125;128;75;0.31502
10213520;0.04500;131.6875;128;75;0.31429
10213530;-0.03500;131.0000;128;75;0.31282
10213540;-0.08500;130.3125;128;75;0.31282
10213550;-0.13000;129.4375;128;75;0.31306
10213560;-0.16000;128.3750;128;75;0.31306
10213570;-0.18000;125.6875;128;75;0.31282
10213580;-0.20000;124.0625;128;75;0.31306
10213590;-0.21000;122.2500;128;75;0.31404
10213600;-0.20500;117.9375;128;75;0.32210
10213610;-0.19000;115.4375;128;75;0.33089
10213620;-0.17500;112.8750;128;75;0.34383
10213630;-0.15500;110.3750;128;75;0.36166
10213640;-0.15500;105.8750;128;75;0.38388
10213650;-0.15500;104.0000;128;75;0.42930
10213660;-0.16500;102.5000;128;75;0.45836
10213670;-0.17500;101.3125;128;75;0.49084
10213680;-0.17000;99.6875;128;75;0.55751
10213690;-0.15500;99.1875;128;75;0.58974
10213700;-0.16000;98.7500;128;75;0.61978
10213710;-0.19000;98.5000;128;75;0.64737
10213720;-0.20000;98.2500;128;75;0.67228
10213730;-0.20000;97.7500;128;75;0.71380
10213740;-0.19000;97.4375;128;75;0.72796
10213750;-0.19500;97.1250;128;75;0.73871
10213760;-0.19500;96.3125;128;75;0.74994
10213770;-0.19500;95.8750;128;75;0.76899
10213780;-0.20000;95.4375;128;75;0.77607
10213790;-0.21000;94.9375;128;75;0.78144
10213800;-0.21000;94.9375;128;75;0.78144
10213810;-0.20500;93.4375;128;75;0.78584
10213820;-0.15500;92.9375;128;75;0.78339
10213830;-0.12500;92.4375;128;75;0.77924
10213840;-0.09000;91.9375;128;75;0.77289
10213850;-0.06500;91.0000;128;75;0.75507
10213860;-0.06000;90.5000;128;75;0.74383
10213870;-0.04000;90.0000;128;75;0.73089
10213880;-0.02000;89.5625;128;75;0.71624
10213890;-0.04000;88.6875;128;75;0.68327
10213900;-0.07500;88.1875;128;75;0.66569
10213910;-0.11000;87.7500;128;75;0.64762
10213920;-0.14500;86.9375;128;75;0.62979
10213930;-0.17500;86.5625;128;75;0.59609
10213940;-0.18000;86.1875;128;75;0.58193
10213950;-0.17000;85.8125;128;75;0.56972
10213960;-0.16500;85.5000;128;75;0.55775
10213970;-0.16000;84.7500;128;75;0.53675
10213980;-0.14500;84.4375;128;75;0.52796
10213990;-0.14000;84.1250;128;75;0.52015
10214000;-0.13500;83.8750;128;75;0.51306
10214010;0.08000;83.3750;128;75;0.49988
10214020;0.47500;83.1250;128;75;0.49377
10214030;0.94500;82.8750;128;75;0.48767
10214040;0.54500;82.6250;128;75;0.48181
10214050;-0.31500;82.1875;128;75;0.47204
10214060;-0.58000;81.9375;128;75;0.46716
10214070;-0.46500;81.7500;128;75;0.46227
10214080;-0.36000;81.2500;128;75;0.45201
10214090;-0.33000;81.0000;128;75;0.44664
10214100;-0.31500;80.7500;128;75;0.44127
10214110;-0.29500;80.4375;128;75;0.43614
10214120;-0.26000;80.1250;128;75;0.43101
10214130;-0.24000;79.3125;128;75;0.42076
10214140;-0.24000;78.9375;128;75;0.41612
10214150;-0.24000;78.5625;128;75;0.41197
10214160;-0.24000;77.7500;128;75;0.40244
10214170;-0.23000;77.3125;128;75;0.39756
10214180;-0.20000;76.9375;128;75;0.39292
10214190;-0.17500;76.5625;128;75;0.38877
10214200;-0.13000;75.8750;128;75;0.38095
10214210;-0.10500;75.5000;128;75;0.37680
10214220;-0.07500;75.2500;128;75;0.37289
10214230;-0.02500;75.1875;128;75;0.36899
10214240;-0.01000;75.3750;128;75;0.36508
10214250;0.01000;77.6875;128;75;0.35922
10214260;0.04500;80.1250;128;75;0.35604
10214270;0.07000;83.3125;128;75;0.35287
10214280;0.10000;87.1250;128;75;0.34969
10214290;0.13000;96.0625;128;75;0.34457
10214300;0.14500;100.7500;128;75;0.34286
10214310;0.16000;105.3750;128;75;0.34139
10214320;0.16500;113.9375;128;75;0.33993
10214330;0.17500;117.5625;128;75;0.33968
10214340;0.19500;120.6875;128;75;0.33993
10214350;0.21500;123.3125;128;75;0.34042
10214360;0.23000;127.1250;128;75;0.34017
10214370;0.23500;128.5000;128;75;0.33968
10214380;0.22500;129.5625;128;75;0.33895
10214390;0.20500;130.3125;128;75;0.33797
10214400;0.18500;130.9375;128;75;0.33700
10214410;0.16500;131.5625;128;75;0.33407
10214420;0.14500;131.5625;128;75;0.33260
10214430;0.14000;131.4375;128;75;0.33114
10214440;0.15000;131.1875;128;75;0.32991
10214450;0.16500;130.3125;128;75;0.32869
10214460;0.17500;129.5625;128;75;0.32796
10214470;0.18000;128.6250;128;75;0.32674
10214480;0.17000;127.5000;128;75;0.32552
10214490;0.14500;124.5000;128;75;0.32283
10214500;0.10000;122.6250;128;75;0.32259
10214510;0.06000;120.5000;128;75;0.32381
10214520;0.03000;118.1250;128;75;0.32772
10214530;0.03000;112.8125;128;75;0.34725
10214540;0.02500;110.1250;128;75;0.36117
10214550;0.01500;107.6250;128;75;0.37753
10214560;0.02000;105.3750;128;75;0.39927
10214570;0.03000;101.8125;128;75;0.45421
10214580;0.02500;100.4375;128;75;0.48474
10214590;0.01500;99.3750;128;75;0.51575
10214600;-0.01500;98.5625;128;75;0.54603
10214610;-0.05500;97.3750;128;75;0.60000
10214620;-0.07500;96.9375;128;75;0.62320
10214630;-0.09000;96.6250;128;75;0.64396
10214640;-0.10000;96.3125;128;75;0.66203
10214650;-0.10000;95.6875;128;75;0.68523
10214660;-0.09500;95.3125;128;75;0.69524
10214670;-0.09500;95.0000;128;75;0.70427
10214680;-0.11000;94.2500;128;75;0.71819
10214690;-0.12500;93.8125;128;75;0.72259
10214700;-0.13000;93.3750;128;75;0.72552
10214710;-0.13500;92.9375;128;75;0.72674
10214720;-0.17000;91.9375;128;75;0.72430
10214730;-0.19500;91.4375;128;75;0.72063
10214740;-0.17500;90.8750;128;75;0.71526
10214750;-0.10000;90.3750;128;75;0.70794
10214760;-0.03500;89.8750;128;75;0.69939
10214770;0.07000;88.8125;128;75;0.67766
10214780;0.13500;88.2500;128;75;0.66447
10214790;0.15500;87.7500;128;75;0.64933
10214800;0.10000;86.6875;128;75;0.61441
10214810;0.03500;86.1875;128;75;0.59512
10214820;-0.01000;85.6875;128;75;0.57534
10214830;-0.06500;85.2500;128;75;0.55531
10214840;-0.09000;84.8125;128;75;0.53602
10214850;-0.08500;83.9375;128;75;0.50427
10214860;-0.09000;83.5625;128;75;0.48913
10214870;-0.11000;83.2500;128;75;0.47448
10214880;-0.17500;82.6250;128;75;0.44884
10214890;-0.23000;82.3125;128;75;0.43810
10214900;-0.26500;82.0000;128;75;0.42833
10214910;-0.10500;81.7500;128;75;0.41978
10214920;0.52500;81.3125;128;75;0.40464
10214930;0.92000;81.1250;128;75;0.39756
10214940;0.68500;80.8750;128;75;0.39194
10214950;-0.08000;80.6875;128;75;0.38681
10214960;-0.23000;80.5000;128;75;0.38120
10214970;-0.18000;79.9375;128;75;0.36923
10214980;-0.16500;79.6875;128;75;0.36288
10214990;-0.17000;79.3750;128;75;0.35653
10215000;-0.18000;78.7500;127;74;0.34359
10215010;-0.18000;78.4375;127;74;0.33700
10215020;-0.18000;78.1250;127;74;0.33065
10215030;-0.17000;77.7500;127;74;0.32430
10215040;-0.16000;77.3750;127;74;0.31917
10215050;-0.16000;76.5625;127;74;0.30916
10215060;-0.16000;76.1250;127;74;0.30330
10215070;-0.16500;75.6875;127;74;0.29768
10215080;-0.17000;74.8750;127;74;0.28694
10215090;-0.17000;74.5000;127;74;0.28181
10215100;-0.16500;74.1875;127;74;0.27692
10215110;-0.15500;73.8750;127;74;0.27204
10215120;-0.15500;73.5625;127;74;0.26740
10215130;-0.13500;73.1250;127;74;0.25910
10215140;-0.12000;73.0625;127;74;0.25641
10215150;-0.09500;73.3125;127;74;0.25421
10215160;-0.08500;75.6250;127;74;0.24762
10215170;-0.10500;77.8750;127;74;0.24396
10215180;-0.13500;80.8750;127;74;0.24054
10215190;-0.16000;84.3750;127;74;0.23736
10215200;-0.16000;88.3750;127;74;0.23394
10215210;-0.14500;96.9375;127;74;0.22735
10215220;-0.09500;101.3125;127;74;0.22442
10215230;-0.05500;105.4375;127;74;0.22173
10215240;-0.02500;109.3750;127;74;0.22051
10215250;0.02000;115.8125;127;74;0.21905
10215260;0.08000;118.3125;127;74;0.21783
10215270;0.11500;120.3125;127;74;0.21685
10215280;0.14500;123.1250;127;74;0.21490
10215290;0.14500;124.0000;127;74;0.21392
10215300;0.12000;124.5000;127;74;0.21294
10215310;0.07000;124.7500;127;74;0.21172
10215320;0.05000;124.7500;127;74;0.21050
10215330;0.03000;124.1250;127;74;0.20781
10215340;0.01500;123.5000;127;74;0.20781
10215350;-0.00500;122.6875;127;74;0.20806
10215360;0.00000;121.6875;127;74;0.21856
10215370;0.02500;119.0000;127;74;0.24127
10215380;0.06000;117.3750;127;74;0.24420
10215390;0.07000;115.5625;127;74;0.24542
10215400;0.06500;113.5625;127;74;0.24567
10215410;0.07000;109.0000;127;74;0.24689
10215420;0.10000;106.5000;127;74;0.24933
10215430;0.14500;104.0625;127;74;0.25421
10215440;0.16000;101.6875;127;74;0.26129
10215450;0.21500;97.8125;127;74;0.28547
10215460;0.31500;96.3750;127;74;0.30354
10215470;0.33000;95.1875;127;74;0.32527
10215480;0.29000;93.6875;127;74;0.35018
10215490;0.22500;93.1875;127;74;0.40537
10215500;0.19500;92.8750;127;74;0.43370
10215510;0.16000;92.6875;127;74;0.46129
10215520;0.12000;92.2500;127;74;0.51062
10215530;0.09500;92.0000;127;74;0.53187
10215540;0.09000;91.8750;127;74;0.54823
10215550;0.07500;91.6250;127;74;0.56093
10215560;0.05500;91.3750;127;74;0.57363
10215570;0.03000;90.6875;127;74;0.59463
10215580;0.00500;90.3750;127;74;0.60269
10215590;-0.00500;90.0625;127;74;0.60879
10215600;-0.03000;89.6875;127;74;0.61294
10215610;-0.09500;88.8750;127;74;0.61587
10215620;-0.18500;88.4375;127;74;0.61490
10215630;-0.23000;88.0000;127;74;0.61221
10215640;-0.24500;87.5625;127;74;0.60806
10215650;-0.24000;86.6875;127;74;0.59585
10215660;-0.24000;86.2500;127;74;0.58730
10215670;-0.23500;85.8125;127;74;0.57705
10215680;-0.22000;84.8750;127;74;0.55214
10215690;-0.24000;84.3750;127;74;0.53773
10215700;-0.29000;83.9375;127;74;0.52259
10215710;-0.35000;83.4375;127;74;0.50745
10215720;-0.37500;83.0000;127;74;0.49255
10215730;-0.39500;82.1250;127;74;0.46520
10215740;-0.42000;81.7500;127;74;0.45446
10215750;-0.42500;81.3750;127;74;0.44518
10215760;-0.42500;81.0000;127;74;0.43590
10215770;-0.43000;80.3750;127;74;0.41978
10215780;-0.43500;80.0625;127;74;0.41319
10215790;-0.43500;79.7500;127;74;0.40733
10215800;-0.43500;79.7500;127;74;0.40733
10215810;-0.40500;79.1250;127;74;0.39390
10215820;-0.10000;78.9375;127;74;0.38999
10215830;0.44500;78.6875;127;74;0.38608
10215840;0.55500;78.3125;127;74;0.38022
10215850;-0.07000;78.1250;127;74;0.37705
10215860;-0.41500;77.8750;127;74;0.37363
10215870;-0.36500;77.6875;127;74;0.36996
10215880;-0.22000;77.2500;127;74;0.36337
10215890;-0.18500;77.0000;127;74;0.36044
10215900;-0.19000;76.8125;127;74;0.35775
10215910;-0.21000;76.5625;127;74;0.35531
10215920;-0.23000;76.3125;127;74;0.35263
10215930;-0.24000;75.7500;127;74;0.34652
10215940;-0.24500;75.5000;127;74;0.34408
10215950;-0.25000;75.1875;127;74;0.34188
10215960;-0.27000;74.8750;127;74;0.33895
10215970;-0.29000;74.2500;127;74;0.33138
10215980;-0.30500;73.9375;127;74;0.32723
10215990;-0.30500;73.5625;127;74;0.32283
10216000;-0.30000;73.0000;127;74;0.31453
10216010;-0.27500;72.6875;127;74;0.31087
10216020;-0.21500;72.3750;127;74;0.30745
10216030;-0.12500;72.0625;127;74;0.30427
10216040;-0.07500;71.8750;127;74;0.30232
10216050;-0.00500;72.1250;127;74;0.29963
10216060;0.06500;72.9375;127;74;0.29768
10216070;0.11500;74.3750;127;74;0.29573
10216080;0.17500;76.5000;127;74;0.29377
10216090;0.21000;82.7500;127;74;0.28987
10216100;0.23000;86.6250;127;74;0.28816
10216110;0.23000;90.6875;127;74;0.28645
10216120;0.22000;99.1250;127;74;0.28474
10216130;0.22000;103.1875;127;74;0.28083
10216140;0.22500;107.0000;127;74;0.27985
10216150;0.22500;110.4375;127;74;0.27937
10216160;0.22500;113.4375;127;74;0.27814
10216170;0.23000;118.0625;127;74;0.27619
10216180;0.26000;119.6875;127;74;0.27546
10216190;0.29000;120.9375;127;74;0.27497
10216200;0.29000;121.8750;127;74;0.27473
10216210;0.26500;122.8750;127;74;0.27497
10216220;0.24000;123.0625;127;74;0.27546
10216230;0.22500;123.0000;127;74;0.27570
10216240;0.17000;122.1875;127;74;0.27790
10216250;0.12000;121.4375;127;74;0.27814
10216260;0.04500;120.5000;127;74;0.27790
10216270;-0.02000;119.3125;127;74;0.27741
10216280;-0.06500;117.9375;127;74;0.27668
10216290;-0.12500;114.5000;127;74;0.27546
10216300;-0.16000;112.5000;127;74;0.27473
10216310;-0.21000;110.3125;127;74;0.27448
10216320;-0.24000;105.5625;127;74;0.27692
10216330;-0.26000;103.1875;127;74;0.28107
10216340;-0.26000;100.9375;127;74;0.28718
10216350;-0.25000;98.9375;127;74;0.29597
10216360;-0.24000;97.2500;127;74;0.30842
10216370;-0.21000;94.6875;127;74;0.34481
10216380;-0.17500;93.8125;127;74;0.36801
10216390;-0.11500;93.0625;127;74;0.39341
10216400;-0.06500;92.2500;127;74;0.42027
10216410;-0.05500;92.0000;127;74;0.47448
10216420;-0.06500;91.8125;127;74;0.50012
10216430;-0.08500;91.6250;127;74;0.52405
10216440;-0.12500;91.1875;127;74;0.55897
10216450;-0.15500;90.9375;127;74;0.57509
10216460;-0.16000;90.6875;127;74;0.58999
10216470;-0.11500;90.3750;127;74;0.60342
10216480;-0.07500;90.0000;127;74;0.61514
10216490;-0.01500;89.2500;127;74;0.63223
10216500;0.01000;88.8750;127;74;0.63761
10216510;0.02500;88.4375;127;74;0.64103
10216520;0.04500;87.6250;127;74;0.64200
10216530;0.06000;87.1875;127;74;0.63956
10216540;0.10000;86.7500;127;74;0.63565
10216550;0.13000;86.3125;127;74;0.63028
10216560;0.13500;85.8750;127;74;0.62369
10216570;0.10500;85.0625;127;74;0.60635
10216580;0.10500;84.6875;127;74;0.59536
10216590;0.14000;84.3125;127;74;0.58291
10216600;0.13000;83.5625;127;74;0.55482
10216610;0.10000;83.1875;127;74;0.53993
10216620;0.07000;82.8125;127;74;0.52503
10216630;0.06000;82.3750;127;74;0.51087
10216640;0.02000;82.0000;127;74;0.49890
10216650;0.00000;81.1875;127;74;0.47839
10216660;0.01000;80.8125;127;74;0.46911
10216670;0.01500;80.5000;127;74;0.46105
10216680;0.01500;79.8750;127;74;0.44811
10216690;0.01000;79.6250;127;74;0.44249
10216700;0.01000;79.3750;127;74;0.43687
10216710;0.03000;79.1250;127;74;0.43150
10216720;0.21500;78.6875;127;74;0.42100
10216730;0.57000;78.4375;127;74;0.41661
10216740;1.08000;78.1875;127;74;0.41270
10216750;0.85500;77.9375;127;74;0.40855
10216760;0.27500;77.6875;127;74;0.40464
10216770;-0.12500;77.2500;127;74;0.39707
10216780;-0.07500;77.0000;127;74;0.39341
10216790;-0.05500;76.7500;127;74;0.38974
10216800;-0.05500;76.7500;127;74;0.38974
10216810;-0.07500;76.0625;127;74;0.37924
10216820;-0.09000;75.8125;127;74;0.37582
10216830;-0.08000;75.5625;127;74;0.37265
10216840;-0.06500;75.0625;127;74;0.36825
10216850;-0.07500;74.7500;127;74;0.36606
10216860;-0.08500;74.4375;127;74;0.36337
10216870;-0.09500;74.1875;127;74;0.36044
10216880;-0.09000;73.5625;127;74;0.35458
10216890;-0.08500;73.3125;127;74;0.35140
10216900;-0.07500;73.0000;127;74;0.34799
10216910;-0.04500;72.7500;127;74;0.34432
10216920;-0.02000;72.5000;127;74;0.34042
10216930;-0.01500;71.9375;127;74;0.33358
10216940;-0.04000;71.7500;127;74;0.33138
10216950;-0.07500;71.6875;127;74;0.32869
10216960;-0.08500;72.6250;127;74;0.32308
10216970;-0.06500;74.0625;127;74;0.32063
10216980;-0.03000;76.1250;127;74;0.31844
10216990;0.01000;78.9375;127;74;0.31648
10217000;0.03000;82.3125;128;74;0.31453
10217010;0.06500;90.4375;128;74;0.31111
10217020;0.09500;94.7500;128;74;0.30940
10217030;0.13000;99.0625;128;74;0.30794
10217040;0.15500;107.1875;128;74;0.30696
10217050;0.18000;110.7500;128;74;0.30598
10217060;0.20000;113.8750;128;74;0.30501
10217070;0.23000;116.5625;128;74;0.30403
10217080;0.26500;120.5000;128;74;0.30232
10217090;0.27500;121.9375;128;74;0.30183
10217100;0.26500;123.0000;128;74;0.30134
10217110;0.22000;123.7500;128;74;0.30085
10217120;0.14500;124.5000;128;74;0.30012
10217130;0.08500;124.5625;128;74;0.30037
10217140;0.02000;124.3125;128;74;0.30085
10217150;-0.03500;123.9375;128;74;0.30085
10217160;-0.07000;123.2500;128;74;0.30061
10217170;-0.08000;121.3750;128;74;0.30012
10217180;-0.09000;120.1250;128;74;0.29988
10217190;-0.09000;118.6875;128;74;0.29963
10217200;-0.08500;117.0000;128;74;0.29915
10217210;-0.08500;113.0625;128;74;0.29866
10217220;-0.09000;110.8125;128;74;0.29939
10217230;-0.09500;108.4375;128;74;0.30134
10217240;-0.09500;106.0000;128;74;0.30476
10217250;-0.09500;101.3125;128;74;0.31844
10217260;-0.10000;99.3125;128;74;0.33040
10217270;-0.10000;97.6875;128;74;0.34603
10217280;-0.09500;96.3125;128;74;0.36532
10217290;-0.08000;94.4375;128;74;0.41319
10217300;-0.06000;93.8125;128;74;0.44005
10217310;-0.05000;93.3750;128;74;0.46740
10217320;-0.04083;93.0625;128;74;0.49503
10217330;-0.03500;92.8125;128;74;0.52063
10217340;-0.03500;92.5625;128;74;0.54188
10217350;-0.03500;92.3750;128;74;0.55995
10217360;-0.03000;91.8750;128;74;0.59609
10217370;-0.03500;91.6250;128;74;0.61197
10217380;-0.04500;91.3125;128;74;0.62613
10217390;-0.04500;90.9375;128;74;0.63834
10217400;-0.03500;90.6250;128;74;0.64835
10217410;-0.03500;89.8125;128;74;0.68352
10217420;-0.04500;89.3750;128;74;0.71941
10217430;-0.04500;88.9375;128;74;0.73797
10217440;-0.04500;88.0625;128;74;0.74896
10217450;-0.02500;87.6250;128;74;0.74750
10217460;-0.00500;87.1250;128;74;0.74383
10217470;0.00000;86.6875;128;74;0.73797
10217480;0.00500;85.7500;128;74;0.71966
10217490;0.03000;85.3125;128;74;0.70720
10217500;0.06000;84.8750;128;74;0.69304
10217510;0.04000;84.4375;128;74;0.67741
10217520;0.01500;84.0000;128;74;0.66081
10217530;-0.00500;83.1875;128;74;0.62564
10217540;-0.02500;82.7500;128;74;0.61001
10217550;-0.08000;82.3750;128;74;0.59585
10217560;-0.11500;81.9375;128;74;0.58144
10217570;-0.13500;81.1875;128;74;0.55458
10217580;-0.13500;80.8750;128;74;0.54286
10217590;-0.13500;80.5625;128;74;0.53236
10217600;-0.13000;80.2500;128;74;0.52283
10217610;-0.12500;79.6875;128;74;0.50647
10217620;-0.10500;79.3750;128;74;0.49939
10217630;0.09000;79.1250;128;74;0.49280
10217640;0.68000;78.6875;128;74;0.48156
10217650;0.97500;78.5000;128;74;0.47717
10217660;0.64000;78.3125;128;74;0.47253
10217670;-0.19000;78.1875;128;74;0.46813
10217680;-0.31500;78.0000;128;74;0.46349
10217690;-0.25000;77.6250;128;74;0.45470
10217700;-0.22000;77.5000;128;74;0.45006
10217710;-0.22500;77.2500;128;74;0.44542
10217720;-0.22500;77.0625;128;74;0.44078
10217730;-0.21500;76.5625;128;74;0.43053
10217740;-0.21000;76.3750;128;74;0.42637
10217750;-0.22000;76.1250;128;74;0.42271
10217760;-0.22000;75.5625;128;74;0.41832
10217770;-0.21500;75.3125;128;74;0.40952
10217780;-0.20500;75.0000;128;74;0.40537
10217790;-0.19500;74.6875;128;74;0.40147
10217800;-0.19500;74.6875;128;74;0.40147
10217810;-0.19000;73.8125;128;74;0.38974
10217820;-0.18000;73.5625;128;74;0.38559
10217830;-0.16000;73.2500;128;74;0.38144
10217840;-0.14500;72.7500;128;74;0.37387
10217850;-0.13500;72.6250;128;74;0.37118
10217860;-0.12000;72.6250;128;74;0.36801
10217870;-0.09500;72.8750;128;74;0.36459
10217880;-0.07500;73.6875;128;74;0.36117
10217890;-0.06500;77.3750;128;74;0.35409
10217900;-0.05000;80.3125;128;74;0.35067
10217910;-0.03500;83.8125;128;74;0.34774
10217920;0.00000;92.1250;128;74;0.34237
10217930;0.03000;96.5625;128;74;0.34017
10217940;0.06500;101.0000;128;74;0.33895
10217950;0.10500;105.2500;128;74;0.33822
10217960;0.15500;109.1875;128;74;0.33675
10217970;0.20000;115.8750;128;74;0.33407
10217980;0.23000;118.4375;128;74;0.33284
10217990;0.23000;120.6250;128;74;0.33162
10218000;0.21000;122.3750;128;74;0.33065
10218010;0.17000;124.7500;128;74;0.32894
10218020;0.12500;125.5625;128;74;0.32845
10218030;0.08000;126.1250;128;74;0.32796
10218040;0.02000;126.4375;128;74;0.32747
10218050;-0.01500;126.3125;128;74;0.32796
10218060;-0.02500;125.9375;128;74;0.32796
10218070;0.06000;125.3750;128;74;0.32796
10218080;0.16500;124.5625;128;74;0.32796
10218090;0.11000;122.4375;128;74;0.32772
10218100;0.01000;121.1250;128;74;0.32747
10218110;-0.12500;119.5625;128;74;0.32698
10218120;-0.21500;115.8125;128;74;0.32674
10218130;-0.23000;113.6250;128;74;0.32747
10218140;-0.23000;111.2500;128;74;0.32967
10218150;-0.21500;108.7500;128;74;0.33382
10218160;-0.22000;106.1875;128;74;0.34042
10218170;-0.24000;101.4375;128;74;0.36606
10218180;-0.23000;99.5625;128;74;0.38608
10218190;-0.21000;98.0000;128;74;0.41074
10218200;-0.15500;96.8125;128;74;0.43907
10218210;-0.08000;95.1250;128;74;0.50354
10218220;-0.04500;94.6250;128;74;0.53748
10218230;-0.04000;94.2500;128;74;0.57118
10218240;-0.07500;94.0000;128;74;0.60317
10218250;-0.13500;93.6250;128;74;0.65031
10218260;-0.15500;93.4375;128;74;0.67228
10218270;-0.17000;93.3125;128;74;0.69304
10218280;-0.18000;93.0625;128;74;0.71209
10218290;-0.20000;92.5625;128;74;0.74359
10218300;-0.18000;92.2500;128;74;0.75580
10218310;-0.16000;91.9375;128;74;0.76581
10218320;-0.14000;91.5625;128;74;0.77387
10218330;-0.12500;90.7500;128;74;0.78462
10218340;-0.11500;90.3125;128;74;0.78584
10218350;-0.10500;89.8750;128;74;0.78486
10218360;-0.08500;89.4375;128;74;0.78315
10218370;-0.06500;88.5625;128;74;0.77460
10218380;-0.05500;88.1250;128;74;0.76752
10218390;-0.04500;87.7500;128;74;0.75849
10218400;-0.02500;87.3125;128;74;0.74750
10218410;0.02000;86.3750;128;74;0.72088
10218420;0.03500;85.8750;128;74;0.70525
10218430;0.02000;85.4375;128;74;0.68840
10218440;-0.01000;84.5625;128;74;0.65690
10218450;-0.04500;84.1875;128;74;0.64029
10218460;-0.08500;83.7500;128;74;0.62369
10218470;-0.11500;83.3750;128;74;0.60757
10218480;-0.13500;82.7500;128;74;0.57973
10218490;-0.14500;82.3750;128;74;0.56777
10218500;-0.14500;82.0625;128;74;0.55751
10218510;-0.14500;81.7500;128;74;0.54847
10218520;-0.14500;81.4375;128;74;0.54090
10218530;-0.13500;80.8750;128;74;0.52918
10218540;0.00500;80.6250;128;74;0.52479
10218550;0.47500;80.4375;128;74;0.52088
10218560;1.03500;80.1875;128;74;0.51673
10218570;0.73500;79.8125;128;74;0.50842
10218580;0.10000;79.6250;128;74;0.50452
10218590;-0.25000;79.4375;128;74;0.50061
10218600;-0.21500;79.0625;128;74;0.49304
10218610;-0.19500;78.8125;128;74;0.48889
10218620;-0.19000;78.6250;128;74;0.48474
10218630;-0.18500;78.4375;128;74;0.48010
10218640;-0.18000;78.1875;128;74;0.47619
10218650;-0.17000;77.6875;128;74;0.46813
10218660;-0.16500;77.4375;128;74;0.46349
10218670;-0.15500;77.1875;128;74;0.45885
10218680;-0.14000;76.8750;128;74;0.45446
10218690;-0.12500;76.3125;128;74;0.44591
10218700;-0.12000;76.0625;128;74;0.44200
10218710;-0.11000;75.8125;128;74;0.43834
10218720;-0.09500;75.3125;128;74;0.43077
10218730;-0.08500;75.0625;128;74;0.42686
10218740;-0.07000;74.8125;128;74;0.42369
10218750;-0.05500;74.6250;128;74;0.42100
10218760;-0.04500;74.5000;128;74;0.41758
10218770;-0.03000;74.8125;128;74;0.41026
10218780;-0.01000;75.6250;128;74;0.40635
10218790;0.00500;77.1250;128;74;0.40244
10218800;0.00500;77.1250;128;74;0.40244
10218810;0.04000;86.3750;128;74;0.39243
10218820;0.06000;90.5625;128;74;0.38950
10218830;0.08000;95.1250;128;74;0.38681
10218840;0.10500;99.8125;128;74;0.38510
10218850;0.14000;108.9375;128;74;0.38291
10218860;0.15500;113.1250;128;74;0.38193
10218870;0.19000;116.9375;128;74;0.38095
10218880;0.21000;120.1875;128;74;0.37998
10218890;0.23500;125.2500;128;74;0.37875
10218900;0.26000;127.1875;128;74;0.37802
10218910;0.26500;128.6875;128;74;0.37705
10218920;0.25500;129.8750;128;74;0.37631
10218930;0.21000;131.3750;128;74;0.37534
10218940;0.16500;131.8125;128;74;0.37534
10218950;0.10000;132.0625;128;74;0.37607
10218960;0.03000;131.8750;128;74;0.37705
10218970;-0.00500;131.5625;128;74;0.37753
10218980;-0.03500;131.0000;128;74;0.37802
10218990;-0.06500;130.3125;128;74;0.37851
10219000;-0.08500;129.3750;128;74;0.37875
10219010;-0.09500;127.0000;128;74;0.37875
10219020;-0.10000;125.5625;128;74;0.37875
10219030;-0.09500;123.9375;128;74;0.37900
10219040;-0.09000;120.0000;128;74;0.38193
10219050;-0.09000;117.6250;128;74;0.38608
10219060;-0.08500;115.1250;128;74;0.39341
10219070;-0.09000;112.4375;128;74;0.40464
10219080;-0.09500;109.6875;128;74;0.42051
10219090;-0.09500;104.6875;128;74;0.46593
10219100;-0.09500;102.7500;128;74;0.49475
10219110;-0.09500;101.3125;128;74;0.52650
10219120;-0.09500;100.1250;128;74;0.55995
10219130;-0.08500;98.5000;128;74;0.62784
10219140;-0.07500;98.0000;128;74;0.65568
10219150;-0.06500;97.6875;128;74;0.67985
10219160;-0.05500;97.3750;128;74;0.72967
10219170;-0.05500;97.2500;128;74;0.75189
10219180;-0.06500;97.1250;128;74;0.77167
10219190;-0.07000;97.0000;128;74;0.78901
10219200;-0.07000;96.7500;128;74;0.80391
10219210;-0.06500;96.0625;128;74;0.82759
10219220;-0.06500;95.6875;128;74;0.83614
10219230;-0.06500;95.2500;128;74;0.84322
10219240;-0.06500;94.8125;128;74;0.84664
10219250;-0.05500;93.8750;128;74;0.84835
10219260;-0.04000;93.4375;128;74;0.84786
10219270;-0.01500;92.9375;128;74;0.84615
10219280;0.01000;91.9375;128;74;0.84274
10219290;0.01500;91.4375;128;74;0.83126
10219300;0.02500;90.9375;128;74;0.82295
10219310;0.05000;90.4375;128;74;0.81270
10219320;0.07500;89.9375;128;74;0.80073
10219330;0.06000;88.9375;128;74;0.77143
10219340;0.02000;88.4375;128;74;0.75556
10219350;-0.02500;88.0000;128;74;0.73944
10219360;-0.06500;87.5625;128;74;0.72210
10219370;-0.11500;86.8125;128;74;0.68620
10219380;-0.14000;86.3750;128;74;0.66911
10219390;-0.15500;86.0000;128;74;0.65348
10219400;-0.16000;85.6250;128;74;0.63932
10219410;-0.14500;84.9375;128;74;0.61490
10219420;-0.12500;84.6250;128;74;0.60440
10219430;-0.11500;84.3125;128;74;0.59512
10219440;-0.08500;83.8125;128;74;0.58755
10219450;0.26500;83.5625;128;74;0.57411
10219460;0.77500;83.3750;128;74;0.54579
10219470;1.18000;83.1875;128;74;0.50720
10219480;0.53000;82.7500;128;74;0.47253
10219490;-0.04500;82.5000;128;74;0.46374
10219500;-0.23000;82.3125;128;74;0.45714
10219510;-0.17000;82.0625;128;74;0.45153
10219520;-0.15500;81.6250;128;74;0.44151
10219530;-0.14500;81.3750;128;74;0.43663
10219540;-0.13500;81.0625;128;74;0.43223
10219550;-0.13500;80.7500;128;74;0.42808
10219560;-0.13500;80.3750;128;74;0.42344
10219570;-0.13500;79.6875;128;74;0.41343
10219580;-0.13000;79.3125;128;74;0.40830
10219590;-0.13500;78.9375;128;74;0.40342
10219600;-0.13500;78.1250;128;74;0.39390
10219610;-0.13500;77.6875;128;74;0.38950
10219620;-0.13500;77.3125;128;74;0.38510
10219630;-0.13500;76.8750;128;74;0.38071
10219640;-0.13000;76.5000;128;74;0.37680
10219650;-0.12000;75.7500;128;74;0.37021
10219660;-0.10500;75.3750;128;74;0.36654
10219670;-0.09000;75.1250;128;74;0.36313
10219680;-0.07500;75.1250;128;74;0.35995
10219690;-0.07000;76.7500;128;74;0.35409
10219700;-0.06000;78.6875;128;74;0.35116
10219710;-0.04000;81.5000;128;74;0.34823
10219720;-0.02500;85.0000;128;74;0.34530
10219730;-0.01000;93.4375;128;74;0.34090
10219740;0.00000;98.0625;128;74;0.33944
10219750;0.02000;102.8125;128;74;0.33822
10219760;0.04000;107.3750;128;74;0.33675
10219770;0.07500;115.7500;128;74;0.33358
10219780;0.10000;119.2500;128;74;0.33162
10219790;0.13500;122.2500;128;74;0.32991
10219800;0.13500;122.2500;128;74;0.32991
10219810;0.17000;128.3750;128;74;0.32625
10219820;0.17000;128.3750;128;74;0.32625
10219830;0.14000;130.6875;128;74;0.32405
10219840;0.08000;131.9375;128;74;0.32259
10219850;0.03500;132.2500;128;74;0.32161
10219860;-0.02000;132.3750;128;74;0.32039
10219870;-0.07000;132.2500;128;74;0.31893
10219880;-0.10000;131.5625;128;74;0.31502
10219890;-0.11500;130.8750;128;74;0.31331
10219900;-0.12500;130.0000;128;74;0.31136
10219910;-0.13000;128.9375;128;74;0.30916
10219920;-0.13500;126.2500;128;74;0.30476
10219930;-0.13500;124.5625;128;74;0.30256
10219940;-0.13000;122.6875;128;74;0.30134
10219950;-0.12000;120.5625;128;74;0.30110
10219960;-0.10500;118.3125;128;74;0.30232
10219970;-0.06500;113.1250;128;74;0.31331
10219980;-0.01000;110.4375;128;74;0.32454
10219990;0.03000;107.9375;128;74;0.34042
10220000;0.03000;105.6875;127;74;0.36093
10220010;-0.00500;102.1250;127;74;0.41416
10220020;-0.03500;100.7500;127;74;0.44444
10220030;-0.07500;99.6875;127;74;0.47521
10220040;-0.10500;98.1875;127;74;0.52503
10220050;-0.10500;97.6875;127;74;0.55043
10220060;-0.10500;97.3125;127;74;0.57509
10220070;-0.11000;97.0000;127;74;0.59829
10220080;-0.11000;96.7500;127;74;0.61954
10220090;-0.10500;96.1250;127;74;0.65519
10220100;-0.10000;95.8125;127;74;0.66960
10220110;-0.10500;95.4375;127;74;0.68156
10220120;-0.11500;95.0625;127;74;0.69133
10220130;-0.12500;94.1875;127;74;0.70501
10220140;-0.13500;93.7500;127;74;0.70769
10220150;-0.13500;93.3125;127;74;0.70842
10220160;-0.12000;92.8125;127;74;0.70891
10220170;-0.08500;91.8125;127;74;0.70574
10220180;-0.06500;91.2500;127;74;0.70134
10220190;-0.04500;90.7500;127;74;0.69524
10220200;-0.01500;89.6250;127;74;0.67741
10220210;0.01000;89.1250;127;74;0.66569
10220220;0.04500;88.5625;127;74;0.65201
10220230;0.03500;88.0625;127;74;0.63663
10220240;0.00000;87.0625;127;74;0.60537
10220250;-0.02000;86.5625;127;74;0.58755
10220260;-0.06500;86.0625;127;74;0.56874
10220270;-0.09500;85.5625;127;74;0.54945
10220280;-0.12000;85.1250;127;74;0.53065
10220290;-0.12500;84.2500;127;74;0.49695
10220300;-0.12500;83.8750;127;74;0.48205
10220310;-0.12500;83.5000;127;74;0.46862
10220320;-0.11500;82.8750;127;74;0.44542
10220330;-0.11500;82.5625;127;74;0.43639
10220340;-0.08500;82.3125;127;74;0.42833
10220350;0.24500;82.0625;127;74;0.42027
10220360;0.68000;81.8125;127;74;0.41221
10220370;0.95500;81.3125;127;74;0.39634
10220380;0.46000;81.0625;127;74;0.38877
10220390;-0.16500;80.8125;127;74;0.38120
10220400;-0.26000;80.5625;127;74;0.37387
10220410;-0.18000;80.0625;127;74;0.36020
10220420;-0.15500;79.8750;127;74;0.35385
10220430;-0.15000;79.6250;127;74;0.34774
10220440;-0.14500;79.3125;127;74;0.34286
10220450;-0.14500;78.6250;127;74;0.33358
10220460;-0.13500;78.2500;127;74;0.32845
10220470;-0.12500;77.9375;127;74;0.32332
10220480;-0.11500;77.5625;127;74;0.31770
10220490;-0.10500;76.8125;127;74;0.30672
10220500;-0.10000;76.4375;127;74;0.30134
10220510;-0.10500;76.1250;127;74;0.29573
10220520;-0.10000;75.3750;127;74;0.28498
10220530;-0.09500;75.0625;127;74;0.28107
10220540;-0.08500;74.7500;127;74;0.27741
10220550;-0.07000;74.5000;127;74;0.27302
10220560;-0.06000;74.1875;127;74;0.26838
10220570;-0.04000;73.7500;127;74;0.25861
10220580;-0.03000;73.6875;127;74;0.25421
10220590;-0.02500;73.8750;127;74;0.24982
10220600;-0.01000;75.8125;127;74;0.24078
10220610;-0.00500;77.8125;127;74;0.23663
10220620;0.00000;80.5000;127;74;0.23297
10220630;0.01000;83.8125;127;74;0.22955
10220640;0.02500;91.7500;127;74;0.22637
10220650;0.03500;96.0625;127;74;0.22466
10220660;0.06000;100.3125;127;74;0.22295
10220670;0.09000;104.5000;127;74;0.22100
10220680;0.11000;108.3750;127;74;0.21929
10220690;0.13500;115.0000;127;74;0.21538
10220700;0.15500;117.5625;127;74;0.21368
10220710;0.17000;119.6875;127;74;0.21221
10220720;0.18000;121.3750;127;74;0.21074
10220730;0.16000;123.6250;127;74;0.20806
10220740;0.13000;124.3125;127;74;0.20781
10220750;0.07000;124.7500;127;74;0.20708
10220760;0.00500;124.8750;127;74;0.20586
10220770;-0.04500;124.5000;127;74;0.20391
10220780;-0.07500;124.0625;127;74;0.20317
10220790;-0.10000;123.3750;127;74;0.20244
10220800;-0.10000;123.3750;127;74;0.20244
10220810;-0.11000;120.1250;127;74;0.19927
10220820;-0.11500;118.6250;127;74;0.19829
10220830;-0.12000;117.0000;127;74;0.19756
10220840;-0.12000;113.0000;127;74;0.19902
10220850;-0.11500;110.6875;127;74;0.19976
10220860;-0.11000;108.1875;127;74;0.20122
10220870;-0.10500;105.6875;127;74;0.20415
10220880;-0.09500;100.8750;127;74;0.21880
10220890;-0.08500;98.8750;127;74;0.23175
10220900;-0.07500;97.1875;127;74;0.24884
10220910;-0.07500;95.8750;127;74;0.27009
10220920;-0.06500;94.0625;127;74;0.29475
10220930;-0.05500;93.5000;127;74;0.34774
10220940;-0.05000;93.1250;127;74;0.37241
10220950;-0.04500;92.8125;127;74;0.40000
10220960;-0.04500;92.4375;127;74;0.45617
10220970;-0.04500;92.3125;127;74;0.48230
10220980;-0.03500;92.1250;127;74;0.50623
10220990;-0.03000;91.8750;127;74;0.52772
10221000;-0.03500;91.6250;127;74;0.54676
10221010;-0.05500;91.0000;127;74;0.57680
10221020;-0.06500;90.6250;127;74;0.58779
10221030;-0.08000;90.2500;127;74;0.59634
10221040;-0.09000;89.8125;127;74;0.60147
10221050;-0.09500;88.8750;127;74;0.60611
10221060;-0.09500;88.4375;127;74;0.60659
10221070;-0.08000;87.9375;127;74;0.60586
10221080;-0.07500;87.4375;127;74;0.60342
10221090;-0.06500;86.4375;127;74;0.59341
10221100;-0.05500;85.9375;127;74;0.58584
10221110;-0.02500;85.4375;127;74;0.57656
10221120;0.00000;84.5000;127;74;0.56557
10221130;-0.01000;84.0625;127;74;0.53944
10221140;-0.04500;83.6250;127;74;0.52601
10221150;-0.07500;83.1875;127;74;0.51062
10221160;-0.10500;82.8125;127;74;0.49426
10221170;-0.14500;82.0625;127;74;0.46105
10221180;-0.16500;81.6875;127;74;0.44567
10221190;-0.17000;81.3125;127;74;0.43150
10221200;-0.16000;81.0000;127;74;0.41905
10221210;-0.15500;80.3750;127;74;0.39829
10221220;-0.14000;80.1250;127;74;0.38974
10221230;-0.12500;79.8750;127;74;0.38242
10221240;-0.09000;79.6875;127;74;0.37680
10221250;0.16500;79.2500;127;74;0.36679
10221260;0.78000;79.0625;127;74;0.36142
10221270;0.94500;78.8750;127;74;0.35629
10221280;0.43000;78.7500;127;74;0.35116
10221290;-0.26000;78.4375;127;74;0.34066
10221300;-0.28000;78.3125;127;74;0.33529
10221310;-0.21000;78.0625;127;74;0.32991
10221320;-0.18500;77.6875;127;74;0.31844
10221330;-0.18000;77.4375;127;74;0.31404
10221340;-0.17500;77.1875;127;74;0.31013
10221350;-0.17000;76.9375;127;74;0.30549
10221360;-0.16000;76.6875;127;74;0.30085
10221370;-0.15500;76.0625;127;74;0.29182
10221380;-0.14500;75.7500;127;74;0.28767
10221390;-0.13500;75.3750;127;74;0.28376
10221400;-0.12500;74.6875;127;74;0.27985
10221410;-0.11000;74.3750;127;74;0.27253
10221420;-0.10500;74.0000;127;74;0.26911
10221430;-0.08500;73.6875;127;74;0.26569
10221440;-0.07000;73.0625;127;74;0.26154
10221450;-0.06500;72.8125;127;74;0.25910
10221460;-0.05500;72.5625;127;74;0.25641
10221470;-0.04500;72.3125;127;74;0.25372
10221480;-0.04000;72.1875;127;74;0.25079
10221490;-0.03000;72.6875;127;74;0.24518
10221500;-0.01500;73.7500;127;74;0.24225
10221510;-0.00500;75.5000;127;74;0.25226
10221520;0.01000;77.9375;127;74;0.26911
10221530;0.02500;84.6875;127;74;0.27985
10221540;0.04000;88.6875;127;74;0.28181
10221550;0.06000;92.8750;127;74;0.28205
10221560;0.07000;97.1875;127;74;0.28156
10221570;0.09000;105.4375;127;74;0.27937
10221580;0.12000;109.1250;127;74;0.27839
10221590;0.14000;112.3750;127;74;0.27741
10221600;0.16000;115.1875;127;74;0.27643
10221610;0.17500;119.3125;127;74;0.27473
10221620;0.17500;120.8125;127;74;0.27399
10221630;0.14000;121.9375;127;74;0.27350
10221640;0.10000;122.7500;127;74;0.27375
10221650;0.03000;123.5625;127;74;0.27521
10221660;-0.02500;123.6250;127;74;0.27546
10221670;-0.08000;123.5000;127;74;0.27521
10221680;-0.11000;122.5000;127;74;0.27399
10221690;-0.13500;121.6875;127;74;0.27302
10221700;-0.15000;120.6875;127;74;0.27204
10221710;-0.15500;119.5000;127;74;0.27082
10221720;-0.16000;118.0625;127;74;0.26935
10221730;-0.16000;114.6250;127;74;0.26740
10221740;-0.16000;112.6250;127;74;0.26764
10221750;-0.15500;110.4375;127;74;0.26740
10221760;-0.15500;108.0625;127;74;0.26789
10221770;-0.14500;103.1250;127;74;0.27424
10221780;-0.14000;100.8125;127;74;0.28181
10221790;-0.13000;98.8125;127;74;0.29304
10221800;-0.12000;97.0625;127;74;0.30867
10221810;-0.11000;94.6250;127;74;0.35238
10221820;-0.10000;93.8125;127;74;0.37949
10221830;-0.09500;93.1875;127;74;0.40879
10221840;-0.09000;92.8125;127;74;0.43541
10221850;-0.08500;92.3125;127;74;0.48767
10221860;-0.08000;92.1875;127;74;0.51502
10221870;-0.08000;92.0625;127;74;0.54115
10221880;-0.08000;91.9375;127;74;0.56508
10221890;-0.07500;91.5000;127;74;0.60562
10221900;-0.07500;91.1875;127;74;0.62198
10221910;-0.07500;90.8750;127;74;0.63590
10221920;-0.07500;90.5000;127;74;0.64786
10221930;-0.07000;89.6250;127;74;0.66398
10221940;-0.06500;89.1875;127;74;0.66789
10221950;-0.06500;88.7500;127;74;0.67155
10221960;-0.05500;87.8125;127;74;0.67497
10221970;-0.03500;87.3125;127;74;0.67424
10221980;-0.01000;86.8125;127;74;0.67179
10221990;0.01000;86.3125;127;74;0.66740
10222000;0.01500;85.7500;127;74;0.66105
10222010;0.03500;84.7500;127;74;0.64200
10222020;0.07500;84.3125;127;74;0.62955
10222030;0.08000;83.8125;127;74;0.61538
10222040;0.04000;82.9375;127;74;0.58779
10222050;0.01000;82.5625;127;74;0.57265
10222060;-0.02500;82.1250;127;74;0.55727
10222070;-0.07000;81.7500;127;74;0.54212
10222080;-0.11500;80.9375;127;74;0.51477
10222090;-0.12500;80.6250;127;74;0.50281
10222100;-0.12500;80.3125;127;74;0.49206
10222110;-0.12500;80.0000;127;74;0.48254
10222120;-0.12000;79.7500;127;74;0.47399
10222130;-0.11000;79.2500;127;74;0.46007
10222140;-0.10500;79.0000;127;74;0.45470
10222150;-0.01000;78.8125;127;74;0.44957
10222160;0.36000;78.4375;127;74;0.44469
10222170;0.94000;78.2500;127;74;0.43541
10222180;0.86500;78.0625;127;74;0.43053
10222190;0.18500;77.8750;127;74;0.42564
10222200;-0.25500;77.6875;127;74;0.42100
10222210;-0.24500;77.3125;127;74;0.41172
10222220;-0.19000;77.1250;127;74;0.40684
10222230;-0.19000;76.9375;127;74;0.40269
10222240;-0.19000;76.7500;127;74;0.39878
10222250;-0.19000;76.2500;127;74;0.38877
10222260;-0.18500;76.0000;127;74;0.38364
10222270;-0.16000;75.6875;127;74;0.37851
10222280;-0.09500;75.3750;127;74;0.37338
10222290;-0.08000;74.7500;127;74;0.36361
10222300;-0.14500;74.4375;127;74;0.35897
10222310;-0.20000;74.0625;127;74;0.35409
10222320;-0.19500;73.7500;127;74;0.34945
10222330;-0.16500;73.1250;127;74;0.34139
10222340;-0.14500;72.8125;127;74;0.33846
10222350;-0.12000;72.5000;127;74;0.33529
10222360;-0.09500;71.9375;127;74;0.32821
10222370;-0.08500;71.6875;127;74;0.32503
10222380;-0.06500;71.6250;127;74;0.32210
10222390;-0.04500;71.8125;127;74;0.31966
10222400;-0.04500;72.3750;127;74;0.31722
10222410;-0.04000;75.5625;127;74;0.31258
10222420;-0.02500;78.2500;127;74;0.31013
10222430;-0.00500;81.6250;127;74;0.30867
10222440;0.02500;89.6875;127;74;0.30598
10222450;0.04500;94.0625;127;74;0.30427
10222460;0.07000;98.5625;127;74;0.30256
10222470;0.10000;102.8750;127;74;0.30061
10222480;0.12000;107.0000;127;74;0.29866
10222490;0.15500;114.0625;127;74;0.29499
10222500;0.19500;116.8750;127;74;0.29328
10222510;0.21500;119.1875;127;74;0.29158
10222520;0.22500;121.0625;127;74;0.29011
10222530;0.20500;123.5625;127;74;0.28816
10222540;0.18000;124.4375;127;74;0.28791
10222550;0.13000;125.0000;127;74;0.28718
10222560;0.05000;125.3750;127;74;0.28474
10222570;0.00000;125.1875;127;74;0.28376
10222580;-0.05000;124.8125;127;74;0.28303
10222590;-0.07500;124.2500;127;74;0.28230
10222600;-0.09500;123.4375;127;74;0.28181
10222610;-0.11000;121.1875;127;74;0.28083
10222620;-0.11000;119.8125;127;74;0.28034
10222630;-0.11500;118.1875;127;74;0.28059
10222640;-0.12000;114.4375;127;74;0.28132
10222650;-0.12500;112.3125;127;74;0.28132
10222660;-0.12000;110.0000;127;74;0.28205
10222670;-0.11500;107.6250;127;74;0.28474
10222680;-0.11500;105.1875;127;74;0.28987
10222690;-0.10500;100.7500;127;74;0.31062
10222700;-0.10000;98.9375;127;74;0.32747
10222710;-0.09500;97.4375;127;74;0.34872
10222720;-0.09500;96.1875;127;74;0.37387
10222730;-0.09500;94.5000;127;74;0.42857
10222740;-0.09500;93.9375;127;74;0.45397
10222750;-0.09000;93.5625;127;74;0.48278
10222760;-0.08500;93.0000;127;74;0.51258
10222770;-0.08000;92.8125;127;74;0.56899
10222780;-0.07500;92.6250;127;74;0.59414
10222790;-0.07000;92.3750;127;74;0.61636
10222800;-0.06500;91.8125;127;74;0.65324
10222810;-0.07000;91.4375;127;74;0.66789
10222820;-0.07500;91.0625;127;74;0.68034
10222830;-0.07500;90.6875;127;74;0.68889
10222840;-0.07500;89.8125;127;74;0.69451
10222850;-0.07000;89.4375;127;74;0.70354
10222860;-0.06500;88.9375;127;74;0.70598
10222870;-0.04500;88.5000;127;74;0.70647
10222880;-0.01000;87.5000;127;74;0.70183
10222890;0.01000;87.0625;127;74;0.69670
10222900;0.02500;86.5625;127;74;0.68962
10222910;0.04500;86.0625;127;74;0.68083
10222920;0.07000;85.6250;127;74;0.67033
10222930;0.10500;84.8125;127;74;0.64567
10222940;0.09000;84.3125;127;74;0.63272
10222950;0.06000;83.8750;127;74;0.61807
10222960;0.03000;83.4375;127;74;0.60195
10222970;0.00500;82.6875;127;74;0.56923
10222980;-0.01500;82.3750;127;74;0.55336
10222990;-0.04500;82.0000;127;74;0.53822
10223000;-0.08500;81.6875;127;74;0.52405
10223010;-0.11000;81.0625;127;74;0.49939
10223020;-0.11000;80.8125;127;74;0.48913
10223030;-0.10000;80.5000;127;74;0.48083
10223040;-0.09000;79.9375;127;74;0.46667
10223050;-0.07500;79.6875;127;74;0.46007
10223060;0.12000;79.4375;127;74;0.45397
10223070;0.72500;79.2500;127;74;0.44811
10223080;1.01500;79.0000;127;74;0.44249
10223090;0.64000;78.5625;127;74;0.43223
10223100;-0.07000;78.3750;127;74;0.42711
10223110;-0.28000;78.1250;127;74;0.42247
10223120;-0.19000;77.6875;127;74;0.41294
10223130;-0.17000;77.4375;127;74;0.40904
10223140;-0.16500;77.1875;127;74;0.40537
10223150;-0.16500;76.9375;127;74;0.40098
10223160;-0.16500;76.6875;127;74;0.39658
10223170;-0.16000;76.1250;127;74;0.38730
10223180;-0.15500;75.8750;127;74;0.38291
10223190;-0.14500;75.5625;127;74;0.37851
10223200;-0.13500;74.9375;127;74;0.36996
10223210;-0.12500;74.6250;127;74;0.36581
10223220;-0.11500;74.3125;127;74;0.36190
10223230;-0.11000;74.0000;127;74;0.35897
10223240;-0.10500;73.6875;127;74;0.35604
10223250;-0.10000;73.1250;127;74;0.34921
10223260;-0.09000;72.8750;127;74;0.34603
10223270;-0.07500;72.6875;127;74;0.34286
10223280;-0.06500;72.5000;127;74;0.33968
10223290;-0.05500;72.6875;127;74;0.33382
10223300;-0.03500;73.3125;127;74;0.33114
10223310;-0.02000;74.6250;127;74;0.32821
10223320;-0.00500;76.6250;127;74;0.32527
10223330;0.01500;82.8750;127;74;0.32063
10223340;0.03000;86.8125;127;74;0.31917
10223350;0.05000;91.0625;127;74;0.31722
10223360;0.08000;100.0625;127;74;0.31233
10223370;0.09500;104.5000;127;74;0.30965
10223380;0.13000;108.6875;127;74;0.30720
10223390;0.14500;112.5000;127;74;0.30525
10223400;0.17000;115.8125;127;74;0.30330
10223410;0.20500;121.0000;127;74;0.30037
10223420;0.23500;122.8125;127;74;0.29915
10223430;0.23500;124.3125;127;74;0.29890
10223440;0.21500;125.4375;127;74;0.29890
10223450;0.16500;126.9375;127;74;0.29744
10223460;0.12000;127.2500;127;74;0.29646
10223470;0.06000;127.3750;127;74;0.29548
10223480;-0.00500;127.0625;127;74;0.29328
10223490;-0.04000;126.5625;127;74;0.29231
10223500;-0.07500;125.8750;127;74;0.29158
10223510;-0.09000;125.0000;127;74;0.29109
10223520;-0.09500;122.6250;127;74;0.29011
10223530;-0.10000;121.1875;127;74;0.29060
10223540;-0.10500;119.5000;127;74;0.29133
10223550;-0.10500;117.6875;127;74;0.29182
10223560;-0.10500;115.6250;127;74;0.28938
10223570;-0.10000;111.0000;127;74;0.28718
10223580;-0.10000;108.4375;127;74;0.29231
10223590;-0.09500;106.0000;127;74;0.30159
10223600;-0.09500;101.6875;127;74;0.31575
10223610;-0.08500;100.0625;127;74;0.35946
10223620;-0.08000;98.6875;127;74;0.38877
10223630;-0.07500;97.5625;127;74;0.41709
10223640;-0.07500;96.1250;127;74;0.47888
10223650;-0.07500;95.6250;127;74;0.51477
10223660;-0.07000;95.3125;127;74;0.55067
10223670;-0.06500;95.0625;127;74;0.58510
10223680;-0.06500;94.8750;127;74;0.61758
10223690;-0.07000;94.5000;127;74;0.67448
10223700;-0.07000;94.3125;127;74;0.69866
10223710;-0.06500;94.0000;127;74;0.71941
10223720;-0.07500;93.3125;127;74;0.75238
10223730;-0.08500;92.9375;127;74;0.76288
10223740;-0.09500;92.6250;127;74;0.76996
10223750;-0.11500;92.1875;127;74;0.77729
10223760;-0.12500;91.7500;127;74;0.78339
10223770;-0.11000;90.8125;127;74;0.79072
10223780;-0.07500;90.3750;127;74;0.79145
10223790;-0.07500;90.3750;127;74;0.79145
10223800;-0.07500;90.3750;127;74;0.79145
10223810;0.05000;88.4375;127;74;0.77167
10223820;0.09000;88.0000;127;74;0.76093
10223830;0.12500;87.6250;127;74;0.74896
10223840;0.14000;87.1250;127;74;0.73578
10223850;0.11000;86.2500;127;74;0.70403
10223860;0.08000;85.9375;127;74;0.68645
10223870;0.04000;85.5625;127;74;0.66813
10223880;-0.02000;85.1875;127;74;0.64982
10223890;-0.09000;84.4375;127;74;0.61392
10223900;-0.11500;84.0625;127;74;0.59756
10223910;-0.13000;83.6875;127;74;0.58266
10223920;-0.13500;82.9375;127;74;0.55751
10223930;-0.13000;82.5625;127;74;0.54774
10223940;-0.12500;82.2500;127;74;0.53944
10223950;-0.12500;81.9375;127;74;0.53162
10223960;-0.07500;81.6875;127;74;0.52454
10223970;0.23500;81.1875;127;74;0.51160
10223980;0.94500;80.9375;127;74;0.50549
10223990;1.06500;80.7500;127;74;0.49988
10224000;0.42000;80.5625;128;74;0.49451
10224010;-0.26500;80.0625;128;74;0.48425
10224020;-0.29500;79.8750;128;74;0.47912
10224030;-0.24500;79.6875;128;74;0.47473
10224040;-0.23500;79.3750;128;74;0.47082
10224050;-0.22500;79.1875;128;74;0.46129
10224060;-0.21000;79.0000;128;74;0.45617
10224070;-0.20000;78.7500;128;74;0.45104
10224080;-0.19000;78.5625;128;74;0.44640
10224090;-0.18500;78.0000;128;74;0.43687
10224100;-0.18000;77.7500;128;74;0.43175
10224110;-0.17000;77.4375;128;74;0.42662
10224120;-0.16500;77.1250;128;74;0.42125
10224130;-0.15000;76.5000;128;74;0.41270
10224140;-0.14000;76.1875;128;74;0.40830
10224150;-0.12500;75.9375;128;74;0.40415
10224160;-0.11500;75.6875;128;74;0.40024
10224170;-0.10500;75.1875;128;74;0.39341
10224180;-0.09500;75.0000;128;74;0.39048
10224190;-0.08000;75.0000;128;74;0.38755
10224200;-0.06500;76.2500;128;74;0.38095
10224210;-0.05000;77.8750;128;74;0.37753
10224220;-0.02500;80.3750;128;74;0.37387
10224230;0.00000;83.6250;128;74;0.37118
10224240;0.01000;87.4375;128;74;0.36874
10224250;0.04000;96.3125;128;74;0.36239
10224260;0.06000;101.0000;128;74;0.35946
10224270;0.08500;105.6250;128;74;0.35678
10224280;0.11000;110.0625;128;74;0.35458
10224290;0.14000;117.8750;128;74;0.35140
10224300;0.16500;121.0000;128;74;0.35018
10224310;0.19000;123.6875;128;74;0.34945
10224320;0.21500;127.6875;128;74;0.34945
10224330;0.23000;129.1250;128;74;0.34994
10224340;0.22500;130.2500;128;74;0.35018
10224350;0.18500;131.1250;128;74;0.35018
10224360;0.14500;131.7500;128;74;0.34969
10224370;0.09000;132.3125;128;74;0.34823
10224380;0.01000;132.3125;128;74;0.34725
10224390;-0.03000;132.1250;128;74;0.34628
10224400;-0.07500;131.8125;128;74;0.34530
10224410;-0.11500;130.5625;128;74;0.34408
10224420;-0.12500;129.6250;128;74;0.34359
10224430;-0.13500;128.5625;128;74;0.34359
10224440;-0.13500;125.8125;128;74;0.34383
10224450;-0.13500;124.1250;128;74;0.34408
10224460;-0.13500;122.1875;128;74;0.34457
10224470;-0.12500;120.0625;128;74;0.34628
10224480;-0.12500;115.1875;128;74;0.35775
10224490;-0.12000;112.6250;128;74;0.36923
10224500;-0.11500;110.1875;128;74;0.38535
10224510;-0.11500;107.8750;128;74;0.40659
10224520;-0.11000;105.9375;128;74;0.43248
10224530;-0.10000;102.9375;128;74;0.48376
10224540;-0.09000;101.8125;128;74;0.51526
10224550;-0.08500;101.0000;128;74;0.54969
10224560;-0.08000;100.3125;128;74;0.58486
10224570;-0.07500;99.5000;128;74;0.65250
10224580;-0.07500;99.2500;128;74;0.68327
10224590;-0.07500;99.0000;128;74;0.71136
10224600;-0.07000;98.5000;128;74;0.75873
10224610;-0.07000;98.1875;128;74;0.77802
10224620;-0.06500;97.8125;128;74;0.79463
10224630;-0.06500;97.3750;128;74;0.80635
10224640;-0.06500;96.5000;128;74;0.82295
10224650;-0.07000;96.0000;128;74;0.83053
10224660;-0.08000;95.5625;128;74;0.83639
10224670;-0.08000;95.0625;128;74;0.84054
10224680;-0.06500;94.0000;128;74;0.84274
10224690;-0.03000;93.5000;128;74;0.84200
10224700;-0.00500;93.0000;128;74;0.83883
10224710;0.01000;92.4375;128;74;0.83370
10224720;0.02500;91.3125;128;74;0.81734
10224730;0.07000;90.8125;128;74;0.80659
10224740;0.13000;90.3750;128;74;0.79414
10224750;0.12500;89.9375;128;74;0.77998
10224760;0.08000;89.5000;128;74;0.76435
10224770;0.01000;88.6250;128;74;0.72869
10224780;-0.08000;88.1875;128;74;0.70989
10224790;-0.14500;87.8125;128;74;0.69109
10224800;-0.14500;87.8125;128;74;0.69109
10224810;-0.17000;86.6875;128;74;0.63834
10224820;-0.16000;86.3750;128;74;0.62320
10224830;-0.15500;86.0000;128;74;0.61026
10224840;-0.14500;85.6875;128;74;0.59902
10224850;-0.13500;85.1250;128;74;0.57875
10224860;-0.12500;84.8125;128;74;0.56996
10224870;0.05000;84.5625;128;74;0.56239
10224880;0.71500;84.0625;128;74;0.54847
10224890;1.14500;83.8125;128;74;0.54164
10224900;0.87500;83.6250;128;74;0.53480
10224910;0.07500;83.3750;128;74;0.52821
10224920;-0.25000;83.1875;128;74;0.52161
10224930;-0.21500;82.7500;128;74;0.50965
10224940;-0.20000;82.5625;128;74;0.50330
10224950;-0.18000;82.3750;128;74;0.49695
10224960;-0.12500;81.8750;128;74;0.49084
10224970;-0.07500;81.6250;128;74;0.47888
10224980;-0.08500;81.3750;128;74;0.47302
10224990;-0.11500;81.0625;128;74;0.46740
10225000;-0.14000;80.3125;127;74;0.45641
10225010;-0.15000;79.9375;127;74;0.45104
10225020;-0.15500;79.5625;127;74;0.44615
10225030;-0.14500;79.1875;127;74;0.44249
10225040;-0.13500;78.8125;127;74;0.43932
10225050;-0.12500;78.0000;127;74;0.43175
10225060;-0.11500;77.6250;127;74;0.42759
10225070;-0.10500;77.2500;127;74;0.42320
10225080;-0.09000;76.6875;127;74;0.41856
10225090;-0.07000;76.6250;127;74;0.40952
10225100;-0.05000;76.8125;127;74;0.40537
10225110;-0.02500;77.6250;127;74;0.40147
10225120;-0.00500;81.6250;127;74;0.39487
10225130;0.00000;84.7500;127;74;0.39267
10225140;0.02000;88.6250;127;74;0.38999
10225150;0.04000;92.9375;127;74;0.38706
10225160;0.05500;97.5625;127;74;0.38413
10225170;0.07500;107.0000;127;74;0.37924
10225180;0.10500;111.5000;127;74;0.37729
10225190;0.12500;115.6250;127;74;0.37582
10225200;0.15500;119.3125;127;74;0.37485
10225210;0.19500;125.1250;127;74;0.37363
10225220;0.21500;127.3125;127;74;0.37314
10225230;0.23000;129.0625;127;74;0.37289
10225240;0.22500;131.5000;127;74;0.37314
10225250;0.19500;132.3125;127;74;0.37289
10225260;0.16500;132.8750;127;74;0.37241
10225270;0.11000;133.2500;127;74;0.37167
10225280;0.04000;133.3750;127;74;0.37021
10225290;0.00000;133.1875;127;74;0.36899
10225300;-0.04000;132.8125;127;74;0.36752
10225310;-0.07000;132.2500;127;74;0.36630
10225320;-0.09500;130.6875;127;74;0.36508
10225330;-0.11000;129.6250;127;74;0.36313
10225340;-0.11500;128.3125;127;74;0.36166
10225350;-0.13500;126.8125;127;74;0.35995
10225360;-0.18500;125.1250;127;74;0.35824
10225370;-0.23000;121.0000;127;74;0.35702
10225380;-0.21000;118.6250;127;74;0.35897
10225390;-0.13000;116.0625;127;74;0.36410
10225400;-0.03000;113.3750;127;74;0.37338
10225410;0.02500;108.3125;127;74;0.40684
10225420;0.04000;106.1875;127;74;0.43101
10225430;0.04500;104.3125;127;74;0.45519
10225440;0.04000;102.7500;127;74;0.48034
10225450;0.03000;100.6875;127;74;0.54432
10225460;0.01000;100.0000;127;74;0.57851
10225470;-0.00500;99.5000;127;74;0.61245
10225480;-0.01000;99.2500;127;74;0.64444
10225490;-0.01500;98.9375;127;74;0.70012
10225500;-0.03000;98.8125;127;74;0.72381
10225510;-0.04500;98.6875;127;74;0.74457
10225520;-0.06500;98.5000;127;74;0.76215
10225530;-0.10500;98.0000;127;74;0.78266
10225540;-0.13500;97.6875;127;74;0.79072
10225550;-0.17000;97.3125;127;74;0.79756
10225560;-0.20000;96.3750;127;74;0.80659
10225570;-0.21500;95.8750;127;74;0.80855
10225580;-0.20500;95.3125;127;74;0.80855
10225590;-0.16500;94.7500;127;74;0.80708
10225600;-0.13500;94.1250;127;74;0.80391
10225610;-0.09000;92.7500;127;74;0.73700
10225620;-0.03500;92.0625;127;74;0.71233
10225630;0.00000;91.3125;127;74;0.69475
10225640;0.00000;89.9375;127;74;0.68034
10225650;-0.04000;89.2500;127;74;0.65104
10225660;-0.08500;88.5625;127;74;0.63468
10225670;-0.12500;87.9375;127;74;0.61709
10225680;-0.15500;87.3125;127;74;0.59853
10225690;-0.17000;86.1250;127;74;0.56044
10225700;-0.16000;85.5000;127;74;0.54212
10225710;-0.15500;84.9375;127;74;0.52503
10225720;-0.14500;84.4375;127;74;0.50965
10225730;-0.14000;83.3125;127;74;0.48694
10225740;-0.13500;82.8125;127;74;0.47790
10225750;-0.13500;82.3125;127;74;0.47033
10225760;-0.02500;81.3750;127;74;0.45958
10225770;0.27500;81.0000;127;74;0.45592
10225780;0.80500;80.6875;127;74;0.45275
10225790;0.74000;80.3750;127;74;0.44908
10225800;0.74000;80.3750;127;74;0.44908
10225810;-0.29000;79.6250;127;74;0.43175
10225820;-0.25000;79.3750;127;74;0.42442
10225830;-0.19000;79.1875;127;74;0.41661
10225840;-0.18000;79.0000;127;74;0.40733
10225850;-0.17500;78.6875;127;74;0.38681
10225860;-0.17000;78.5000;127;74;0.37729
10225870;-0.16500;78.3750;127;74;0.36874
10225880;-0.15500;77.9375;127;74;0.35556
10225890;-0.15000;77.7500;127;74;0.35140
10225900;-0.14500;77.6250;127;74;0.34847
10225910;-0.14500;77.3750;127;74;0.34628
10225920;-0.15000;77.1875;127;74;0.34432
10225930;-0.15500;76.8125;127;74;0.34090
10225940;-0.15000;76.5625;127;74;0.33748
10225950;-0.14000;76.3125;127;74;0.33211
10225960;-0.13000;75.8125;127;74;0.31600
10225970;-0.12500;75.5000;127;74;0.30623
10225980;-0.12500;75.1875;127;74;0.29573
10225990;-0.10500;74.9375;127;74;0.28474
10226000;-0.09500;74.8750;127;74;0.27424
10226010;-0.08000;75.7500;127;74;0.25568
10226020;-0.06500;77.0625;127;74;0.24982
10226030;-0.05000;79.0000;127;74;0.24567
10226040;-0.03500;81.6875;127;74;0.24176
10226050;-0.01000;88.6250;127;74;0.23639
10226060;0.00000;92.6250;127;74;0.23492
10226070;0.02000;96.8125;127;74;0.23370
10226080;0.04000;105.1250;127;74;0.23272
10226090;0.06000;108.8750;127;74;0.23004
10226100;0.08000;112.3125;127;74;0.22833
10226110;0.11000;115.3125;127;74;0.22613
10226120;0.14500;119.8125;127;74;0.22295
10226130;0.15500;121.4375;127;74;0.22247
10226140;0.14500;122.7500;127;74;0.22149
10226150;0.11000;123.6875;127;74;0.22051
10226160;0.07000;124.3750;127;74;0.22002
10226170;0.01500;125.0000;127;74;0.22027
10226180;-0.03500;125.0000;127;74;0.22051
10226190;-0.06500;124.7500;127;74;0.22076
10226200;-0.08500;124.3750;127;74;0.22100
10226210;-0.10000;122.8750;127;74;0.22100
10226220;-0.11000;121.8125;127;74;0.22125
10226230;-0.11500;120.5625;127;74;0.22149
10226240;-0.11500;119.1250;127;74;0.22076
10226250;-0.11500;115.5000;127;74;0.21734
10226260;-0.11000;113.3750;127;74;0.21514
10226270;-0.10500;111.0625;127;74;0.21319
10226280;-0.10500;108.6250;127;74;0.21221
10226290;-0.09500;103.6875;127;74;0.21636
10226300;-0.09000;101.5000;127;74;0.22295
10226310;-0.08000;99.6875;127;74;0.23346
10226320;-0.07000;96.8750;127;74;0.24835
10226330;-0.06000;95.8750;127;74;0.28303
10226340;-0.05500;95.0625;127;74;0.30647
10226350;-0.05000;94.4375;127;74;0.33309
10226360;-0.04500;94.0000;127;74;0.36166
10226370;-0.04000;93.3750;127;74;0.41929
10226380;-0.03500;93.1250;127;74;0.44664
10226390;-0.03500;92.8750;127;74;0.47228
10226400;-0.03000;92.6250;127;74;0.49548
10226410;-0.03500;92.1250;127;74;0.53455
10226420;-0.04000;91.7500;127;74;0.54823
10226430;-0.04500;91.3750;127;74;0.55897
10226440;-0.04500;90.5625;127;74;0.57875
10226450;-0.04000;90.1250;127;74;0.58632
10226460;-0.03500;89.6875;127;74;0.59219
10226470;-0.02000;89.2500;127;74;0.59634
10226480;0.00000;88.7500;127;74;0.59853
10226490;0.04000;87.8750;127;74;0.59756
10226500;0.07500;87.3750;127;74;0.59414
10226510;0.08500;86.9375;127;74;0.58852
10226520;0.09500;85.9375;127;74;0.58095
10226530;0.13000;85.5000;127;74;0.56239
10226540;0.15500;85.0625;127;74;0.55043
10226550;0.16500;84.6250;127;74;0.53675
10226560;0.14000;84.2500;127;74;0.52186
10226570;0.10500;83.4375;127;74;0.48913
10226580;0.07500;83.0625;127;74;0.47253
10226590;0.02000;82.6875;127;74;0.45641
10226600;-0.00500;82.2500;127;74;0.44103
10226610;-0.03000;81.5625;127;74;0.41343
10226620;-0.05000;81.2500;127;74;0.40317
10226630;-0.05500;80.9375;127;74;0.39463
10226640;-0.05500;80.2500;127;74;0.37802
10226650;-0.06000;80.0000;127;74;0.37070
10226660;-0.06000;79.7500;127;74;0.36410
10226670;0.12000;79.5000;127;74;0.35824
10226680;0.48500;79.2500;127;74;0.35287
10226690;0.98000;78.7500;127;74;0.34310
10226700;0.72000;78.5000;127;74;0.33822
10226710;0.00500;78.3125;127;74;0.33382
10226720;-0.30000;78.0625;127;74;0.32943
10226730;-0.24000;77.6250;127;74;0.32332
10226740;-0.20000;77.4375;127;74;0.32015
10226750;-0.19500;77.1875;127;74;0.31648
10226760;-0.19000;76.8750;127;74;0.31258
10226770;-0.19000;76.3125;127;74;0.30452
10226780;-0.18500;76.0625;127;74;0.30037
10226790;-0.17500;75.7500;127;74;0.29646
10226800;-0.17500;75.7500;127;74;0.29646
10226810;-0.15500;74.8750;127;74;0.28523
10226820;-0.14500;74.5625;127;74;0.28254
10226830;-0.14500;74.2500;127;74;0.28010
10226840;-0.13500;73.9375;127;74;0.27668
10226850;-0.13000;73.3750;127;74;0.26911
10226860;-0.12000;73.0625;127;74;0.26520
10226870;-0.11500;72.8125;127;74;0.26129
10226880;-0.10500;72.3125;127;74;0.25763
10226890;-0.09500;72.1250;127;74;0.25055
10226900;-0.08500;72.1250;127;74;0.24737
10226910;-0.06000;72.4375;127;74;0.24420
10226920;-0.04500;73.1875;127;74;0.24103
10226930;-0.03500;76.8125;127;74;0.23712
10226940;-0.02000;79.6250;127;74;0.23492
10226950;0.00000;83.0625;127;74;0.23248
10226960;0.02000;86.8750;127;74;0.22979
10226970;0.04000;95.3125;127;74;0.22442
10226980;0.06000;99.6250;127;74;0.22198
10226990;0.07000;103.8125;127;74;0.21954
10227000;0.10000;107.6875;127;74;0.21734
10227010;0.13000;114.0625;127;74;0.21416
10227020;0.17000;116.5625;127;74;0.21343
10227030;0.19000;118.6250;127;74;0.21343
10227040;0.20000;120.2500;127;74;0.21319
10227050;0.18000;122.3750;127;74;0.21221
10227060;0.14500;123.0000;127;74;0.21172
10227070;0.09000;123.3750;127;74;0.21123
10227080;0.01000;123.4375;127;74;0.21026
10227090;-0.03500;123.1250;127;74;0.20977
10227100;-0.07500;122.6250;127;74;0.20904
10227110;-0.10500;121.9375;127;74;0.20855
10227120;-0.11500;121.0000;127;74;0.20806
10227130;-0.13500;118.5625;127;74;0.20904
10227140;-0.14500;117.0625;127;74;0.20928
10227150;-0.15500;115.3750;127;74;0.20904
10227160;-0.15500;113.5000;127;74;0.20879
10227170;-0.15500;109.1250;127;74;0.20928
10227180;-0.15000;106.6875;127;74;0.21099
10227190;-0.14500;104.1875;127;74;0.21465
10227200;-0.14000;99.6250;127;74;0.23053
10227210;-0.13500;97.7500;127;74;0.24396
10227220;-0.13000;96.1875;127;74;0.25885
10227230;-0.12500;95.0000;127;74;0.27619
10227240;-0.11500;93.3125;127;74;0.29890
10227250;-0.10500;92.8125;127;74;0.35507
10227260;-0.10500;92.4375;127;74;0.38608
10227270;-0.10500;92.1250;127;74;0.41758
10227280;-0.10000;91.9375;127;74;0.44835
10227290;-0.09500;91.6250;127;74;0.50501
10227300;-0.09500;91.3750;127;74;0.52991
10227310;-0.09000;91.1875;127;74;0.55214
10227320;-0.09000;90.8750;127;74;0.57192
10227330;-0.09000;90.2500;127;74;0.59780
10227340;-0.09000;89.8750;127;74;0.60879
10227350;-0.09500;89.4375;127;74;0.61807
10227360;-0.09000;88.5625;127;74;0.63126
10227370;-0.09000;88.1250;127;74;0.63492
10227380;-0.07500;87.6875;127;74;0.63687
10227390;-0.06000;87.2500;127;74;0.63687
10227400;-0.03000;86.8125;127;74;0.63492
10227410;-0.01000;85.8750;127;74;0.62564
10227420;0.00000;85.4375;127;74;0.61856
10227430;0.01000;84.9375;127;74;0.61001
10227440;0.05000;84.5000;127;74;0.59976
10227450;0.07500;83.6875;127;74;0.57387
10227460;0.06000;83.2500;127;74;0.55849
10227470;0.02000;82.8125;127;74;0.54212
10227480;-0.01500;82.0625;127;74;0.50745
10227490;-0.05000;81.6875;127;74;0.49060
10227500;-0.09500;81.3125;127;74;0.47473
10227510;-0.12500;80.9375;127;74;0.46032
10227520;-0.13500;80.5625;127;74;0.44737
10227530;-0.13500;79.8750;127;74;0.42808
10227540;-0.13000;79.5625;127;74;0.41978
10227550;-0.12500;79.2500;127;74;0.41221
10227560;-0.11500;78.7500;127;74;0.40537
10227570;-0.06500;78.5625;127;74;0.39414
10227580;0.13000;78.3125;127;74;0.38877
10227590;0.64000;78.1250;127;74;0.38364
10227600;0.95000;77.6875;127;74;0.37338
10227610;0.51500;77.4375;127;74;0.36850
10227620;-0.16000;77.2500;127;74;0.36459
10227630;-0.27000;77.0625;127;74;0.36117
10227640;-0.21000;76.8750;127;74;0.35702
10227650;-0.18500;76.4375;127;74;0.35897
10227660;-0.18000;76.2500;127;74;0.37094
10227670;-0.18000;76.0000;127;74;0.37460
10227680;-0.18000;75.5000;127;74;0.37216
10227690;-0.17500;75.1875;127;74;0.36899
10227700;-0.16500;74.8750;127;74;0.36532
10227710;-0.16000;74.5625;127;74;0.36117
10227720;-0.15000;74.2500;127;74;0.35775
10227730;-0.14500;73.6250;127;74;0.35092
10227740;-0.13500;73.3125;127;74;0.34701
10227750;-0.13500;73.0000;127;74;0.34310
10227760;-0.12500;72.7500;127;74;0.33919
10227770;-0.12000;72.1875;127;74;0.33138
10227780;-0.10500;71.9375;127;74;0.32723
10227790;-0.09500;71.6875;127;74;0.32308
10227800;-0.09500;71.6875;127;74;0.32308
10227810;-0.07000;71.6875;127;74;0.31184
10227820;-0.07000;71.6875;127;74;0.31184
10227830;-0.04000;73.8125;127;74;0.30696
10227840;-0.02500;75.8750;127;74;0.30427
10227850;-0.01000;82.1250;127;74;0.29792
10227860;0.00500;86.0000;127;74;0.29499
10227870;0.02000;90.1875;127;74;0.29255
10227880;0.04500;98.8750;127;74;0.29011
10227890;0.07500;103.1250;127;74;0.28547
10227900;0.09500;107.0625;127;74;0.28352
10227910;0.12000;110.6250;127;74;0.28181
10227920;0.15000;113.7500;127;74;0.28083
10227930;0.17500;118.5000;127;74;0.27937
10227940;0.20000;120.1875;127;74;0.27839
10227950;0.20500;121.5000;127;74;0.27741
10227960;0.19000;122.5625;127;74;0.27643
10227970;0.14000;123.8125;127;74;0.27521
10227980;0.09500;124.0625;127;74;0.27448
10227990;0.02000;124.1250;127;74;0.27399
10228000;-0.02000;123.9375;127;74;0.27350
10228010;-0.06000;123.0625;127;74;0.27253
10228020;-0.09000;122.3125;127;74;0.27277
10228030;-0.10000;121.3750;127;74;0.27350
10228040;-0.11000;120.2500;127;74;0.27375
10228050;-0.12000;117.3125;127;74;0.27375
10228060;-0.12500;115.5625;127;74;0.27375
10228070;-0.12500;113.5625;127;74;0.27375
10228080;-0.12500;111.4375;127;74;0.27399
10228090;-0.12500;106.6875;127;74;0.27790
10228100;-0.12000;104.1875;127;74;0.28303
10228110;-0.11500;101.7500;127;74;0.29133
10228120;-0.11000;99.6250;127;74;0.30183
10228130;-0.10500;96.3125;127;74;0.33382
10228140;-0.10000;95.1250;127;74;0.35702
10228150;-0.09500;94.1875;127;74;0.38437
10228160;-0.09500;93.5000;127;74;0.41490
10228170;-0.09500;92.6250;127;74;0.47961
10228180;-0.09500;92.3125;127;74;0.51184
10228190;-0.09000;92.1250;127;74;0.54286
10228200;-0.08500;91.9375;127;74;0.57167
10228210;-0.09000;91.5625;127;74;0.62173
10228220;-0.08500;91.3125;127;74;0.63956
10228230;-0.08500;91.0000;127;74;0.65372
10228240;-0.07500;90.3125;127;74;0.68083
10228250;-0.08000;89.9375;127;74;0.69206
10228260;-0.08000;89.5000;127;74;0.70134
10228270;-0.07500;89.0625;127;74;0.70842
10228280;-0.06500;88.6250;127;74;0.71404
10228290;-0.05500;87.6875;127;74;0.71868
10228300;-0.02500;87.2500;127;74;0.71795
10228310;-0.00500;86.7500;127;74;0.71526
10228320;0.02000;85.8125;127;74;0.70452
10228330;0.02500;85.3125;127;74;0.69695
10228340;0.04000;84.8750;127;74;0.68767
10228350;0.08500;84.4375;127;74;0.67668
10228360;0.11000;84.0625;127;74;0.66374
10228370;0.09000;83.1875;127;74;0.63297
10228380;0.04000;82.8125;127;74;0.61587
10228390;0.01000;82.4375;127;74;0.59829
10228400;-0.03500;82.1250;127;74;0.58046
10228410;-0.09000;81.3750;127;74;0.54676
10228420;-0.11000;81.0625;127;74;0.53309
10228430;-0.11500;80.6875;127;74;0.52112
10228440;-0.10500;80.1250;127;74;0.50965
10228450;-0.10500;79.8750;127;74;0.48962
10228460;-0.10000;79.6250;127;74;0.48107
10228470;-0.10000;79.4375;127;74;0.47350
10228480;-0.08500;79.1875;127;74;0.46667
10228490;0.13000;78.7500;127;74;0.45421
10228500;0.73500;78.5625;127;74;0.44835
10228510;0.99500;78.3750;127;74;0.44298
10228520;0.59000;78.1875;127;74;0.43834
10228530;-0.19000;77.7500;127;74;0.42955
10228540;-0.26000;77.5625;127;74;0.42466
10228550;-0.20500;77.3125;127;74;0.41978
10228560;-0.17000;77.0625;127;74;0.41465
10228570;-0.16000;76.5625;127;74;0.40440
10228580;-0.15500;76.2500;127;74;0.39951
10228590;-0.15000;76.0000;127;74;0.39463
10228600;-0.14500;75.4375;127;74;0.38535
10228610;-0.14500;75.1250;127;74;0.38095
10228620;-0.14500;74.8125;127;74;0.37778
10228630;-0.14000;74.5625;127;74;0.37509
10228640;-0.13500;74.3125;127;74;0.37192
10228650;-0.13000;73.7500;127;74;0.36508
10228660;-0.12500;73.5000;127;74;0.36142
10228670;-0.12500;73.3125;127;74;0.35775
10228680;-0.11500;73.0625;127;74;0.35385
10228690;-0.11000;72.6875;127;74;0.34530
10228700;-0.10500;72.5000;127;74;0.34090
10228710;-0.09500;72.3750;127;74;0.33675
10228720;-0.07500;73.0000;127;74;0.33138
10228730;-0.06500;74.0000;127;74;0.32845
10228740;-0.05000;75.7500;127;74;0.32527
10228750;-0.03500;78.3125;127;74;0.32234
10228760;-0.02500;81.5000;127;74;0.31990
10228770;-0.00500;89.3750;127;74;0.31502
10228780;0.01000;93.7500;127;74;0.31258
10228790;0.04000;98.1875;127;74;0.31038
10228800;0.04000;98.1875;127;74;0.31038
10228810;0.08000;110.6250;127;74;0.30427
10228820;0.11000;114.0000;127;74;0.30305
10228830;0.14500;116.9375;127;74;0.30208
10228840;0.18500;119.4375;127;74;0.30085
10228850;0.21000;123.0625;127;74;0.29744
10228860;0.22000;124.3750;127;74;0.29597
10228870;0.20000;125.3750;127;74;0.29475
10228880;0.16000;126.0625;127;74;0.29353
10228890;0.09000;126.8750;127;74;0.29255
10228900;0.00000;127.0000;127;74;0.29231
10228910;-0.05500;126.9375;127;74;0.29231
10228920;-0.10500;126.6250;127;74;0.29280
10228930;-0.14500;125.5000;127;74;0.29402
10228940;-0.17000;124.6250;127;74;0.29402
10228950;-0.18500;123.5000;127;74;0.29353
10228960;-0.19000;122.1875;127;74;0.29280
10228970;-0.19000;118.9375;127;74;0.29158
10228980;-0.19000;116.9375;127;74;0.29109
10228990;-0.19500;114.6875;127;74;0.29133
10229000;-0.19500;109.5625;128;74;0.29255
10229010;-0.19500;106.8750;128;74;0.30305
10229020;-0.19500;104.3125;128;74;0.31209
10229030;-0.19500;102.0000;128;74;0.32430
10229040;-0.19000;98.4375;128;74;0.36435
10229050;-0.18500;97.1250;128;74;0.39121
10229060;-0.18000;96.1250;128;74;0.42173
10229070;-0.17000;95.3750;128;74;0.45446
10229080;-0.16500;94.8125;128;74;0.48840
10229090;-0.16000;94.1875;128;74;0.55556
10229100;-0.15000;94.0625;128;74;0.58681
10229110;-0.14500;93.9375;128;74;0.61563
10229120;-0.14000;93.7500;128;74;0.63834
10229130;-0.13500;93.3750;128;74;0.67619
10229140;-0.13500;93.1250;128;74;0.69451
10229150;-0.14000;92.8750;128;74;0.71160
10229160;-0.14500;92.1875;128;74;0.73993
10229170;-0.14500;91.8125;128;74;0.75116
10229180;-0.14000;91.3750;128;74;0.76044
10229190;-0.13500;91.0000;128;74;0.76777
10229200;-0.12500;90.5625;128;74;0.77314
10229210;-0.09500;89.6250;128;74;0.77753
10229220;-0.07500;89.1875;128;74;0.77534
10229230;-0.05000;88.7500;128;74;0.77094
10229240;-0.03500;87.7500;128;74;0.75702
10229250;-0.01000;87.3125;128;74;0.74701
