RelativeTimeMilliseconds;ECG;ART;ART (Sys);ART (Dia);PPG
1200000;-0.00500;114.1250;179;113;0.33114
1200010;-0.00500;118.0000;179;113;0.32625
1200020;-0.00500;119.9063;179;113;0.32466
1200030;-0.00500;123.0625;179;113;0.32381
1200040;-0.00500;130.6875;179;113;0.32112
1200050;-0.00500;150.3750;179;113;0.31600
1200060;-0.00500;159.5625;179;113;0.31380
1200070;-0.00500;166.6875;179;113;0.31160
1200080;-0.00500;174.6250;179;113;0.31013
1200090;-0.00500;176.3125;179;113;0.30720
1200100;-0.00500;177.1875;179;113;0.30549
1200110;-0.00500;177.6250;179;113;0.30379
1200120;-0.00500;177.9375;179;113;0.30183
1200130;-0.00500;178.8750;179;113;0.29719
1200140;-0.00500;179.7500;179;113;0.29451
1200150;-0.00500;180.6875;179;113;0.29182
1200160;-0.00500;181.6250;179;113;0.28913
1200170;-0.00500;183.0000;179;113;0.28547
1200180;-0.00500;183.3750;179;113;0.28498
1200190;-0.00500;183.5625;179;113;0.28376
1200200;-0.00500;183.4375;179;113;0.28205
1200210;-0.00500;181.9375;179;113;0.27888
1200220;-0.00500;180.3125;179;113;0.27717
1200230;-0.00500;177.9375;179;113;0.27546
1200240;-0.00500;170.7500;179;113;0.27204
1200250;-0.00500;166.0000;179;113;0.27082
1200260;-0.00500;160.7500;179;113;0.27082
1200270;-0.00500;155.1875;179;113;0.27277
1200280;-0.00500;145.8125;179;113;0.28449
1200290;-0.00500;143.4375;179;113;0.29719
1200300;-0.00500;143.0625;179;113;0.31575
1200310;-0.00500;144.1250;179;113;0.34017
1200320;-0.00500;147.4375;179;113;0.40269
1200330;-0.00500;148.5000;179;113;0.43858
1200340;-0.00500;148.8125;179;113;0.47570
1200350;-0.00500;148.6250;179;113;0.51184
1200360;-0.00500;147.9375;179;113;0.54603
1200370;-0.00500;145.8125;179;113;0.60220
1200380;-0.00500;144.5625;179;113;0.62222
1200390;-0.00500;143.3750;179;113;0.64249
1200400;-0.00500;141.3125;179;113;0.67863
1200410;-0.00500;140.4375;179;113;0.69377
1200420;-0.00500;139.5625;179;113;0.70745
1200430;-0.00500;138.7500;179;113;0.71941
1200440;-0.00500;137.1875;179;113;0.73773
1200450;-0.00500;136.3750;179;113;0.74359
1200460;-0.00500;135.4375;179;113;0.74750
1200470;-0.00500;134.4375;179;113;0.74799
1200480;-0.00500;133.4375;179;113;0.74603
1200490;-0.00500;131.8125;179;113;0.71477
1200500;-0.00500;131.3125;179;113;0.69963
1200510;-0.00500;131.1250;179;113;0.68474
1200520;-0.00500;131.0000;179;113;0.66838
1200530;-0.00500;130.1875;179;113;0.62930
1200540;-0.00500;129.3750;179;113;0.60781
1200550;-0.00500;128.4375;179;113;0.58584
1200560;-0.00500;127.5000;179;113;0.56435
1200570;-0.00500;125.9375;179;113;0.52845
1200580;-0.00500;125.4375;179;113;0.51502
1200590;-0.00500;125.1875;179;113;0.50281
1200600;-0.00500;125.5000;179;113;0.49182
1200610;-0.00500;125.7500;179;113;0.47448
1200620;-0.00500;125.8125;179;113;0.46716
1200630;-0.00500;125.6875;179;113;0.45983
1200640;-0.00500;124.8750;179;113;0.44518
1200650;-0.00500;124.2500;179;113;0.43736
1200660;-0.00500;123.5625;179;113;0.42906
1200670;-0.00500;122.8750;179;113;0.42173
1200680;-0.00500;122.2500;179;113;0.41490
1200690;-0.00500;121.8750;179;113;0.39902
1200700;-0.00500;122.0625;179;113;0.39023
1200710;-0.00500;122.3750;179;113;0.38120
1200720;-0.00500;122.6250;179;113;0.37216
1200730;-0.00500;122.6250;179;113;0.35604
1200740;-0.00500;122.2500;179;113;0.34847
1200750;-0.00500;121.6250;179;113;0.34139
1200760;-0.00500;120.2500;179;113;0.33455
1200770;-0.00500;119.4375;179;113;0.32283
1200780;-0.00500;118.5625;179;113;0.31819
1200790;-0.00500;117.6875;179;113;0.31306
1200800;-0.00500;116.7500;179;113;0.30842
1200810;-0.00500;116.7500;179;113;0.30842
1200820;-0.00500;114.0625;179;113;0.29719
1200830;-0.00500;113.2500;179;113;0.29402
1200840;-0.00500;112.0625;179;113;0.28791
1200850;-0.00500;111.7500;179;113;0.28571
1200860;-0.00500;111.5625;179;113;0.28352
1200870;-0.00500;111.6250;179;113;0.28205
1200880;-0.00500;111.8750;179;113;0.28132
1200890;-0.00500;112.5625;179;113;0.27814
1200900;-0.00500;112.8750;179;113;0.27619
1200910;-0.00500;112.9375;179;113;0.27448
1200920;-0.00500;112.8750;179;113;0.27228
1200930;-0.00500;112.5625;179;113;0.26886
1200940;-0.00500;112.7500;179;113;0.26789
1200950;-0.00500;113.7500;179;113;0.26691
1200960;-0.00500;121.2500;179;113;0.26593
1200970;-0.00500;128.7500;179;113;0.26618
1200980;-0.00500;138.1875;179;113;0.26691
1200990;-0.00500;148.1250;179;113;0.26691
1201000;-0.00500;163.8750;179;113;0.26520
1201010;-0.00500;168.4375;179;113;0.26325
1201020;-0.00500;171.1250;179;113;0.26056
1201030;-0.00500;172.4375;179;113;0.25739
1201040;-0.00500;172.9375;179;113;0.25421
1201050;-0.00500;172.8750;179;113;0.24786
1201060;-0.00500;172.8750;179;113;0.24542
1201070;-0.00500;173.1250;179;113;0.24420
1201080;-0.00500;173.5000;179;113;0.24371
1201090;-0.00500;174.4375;179;113;0.24029
1201100;-0.00500;174.6875;179;113;0.23785
1201110;-0.00500;174.7500;179;113;0.23516
1201120;-0.00500;174.6875;179;113;0.23248
1201130;-0.00500;174.3750;179;113;0.22735
1201140;-0.00500;173.7500;179;113;0.22466
1201150;-0.00500;172.5000;179;113;0.22222
1201160;-0.00500;167.3750;179;113;0.21856
1201170;-0.00500;163.3750;179;113;0.21856
1201180;-0.00500;158.5000;179;113;0.21954
1201190;-0.00500;153.1250;179;113;0.22076
1201200;-0.00500;143.2500;179;113;0.22735
1201210;-0.00500;140.1250;179;113;0.23443
1201220;-0.00500;138.8125;179;113;0.24493
1201230;-0.00500;139.1875;179;113;0.25983
1201240;-0.00500;140.6250;179;113;0.27985
1201250;-0.00500;144.1875;179;113;0.33407
1201260;-0.00500;145.4375;179;113;0.36654
1201270;-0.00500;146.0625;179;113;0.39609
1201280;-0.00500;145.8750;179;113;0.42418
1201290;-0.00500;143.0625;179;113;0.48547
1201300;-0.00500;140.9375;179;113;0.51477
1201310;-0.00500;138.8125;179;113;0.54164
1201320;-0.00500;136.9375;179;113;0.56581
1201330;-0.00500;134.3750;179;113;0.60586
1201340;-0.00500;133.7500;179;113;0.62222
1201350;-0.00500;133.4375;179;113;0.63639
1201360;-0.00500;133.7500;179;113;0.64835
1201370;-0.00500;134.0625;179;113;0.66545
1201380;-0.00500;134.0625;179;113;0.66984
1201390;-0.00500;133.6250;179;113;0.67399
1201400;-0.00500;132.0000;179;113;0.67766
1201410;-0.00500;131.0625;179;113;0.67595
1201420;-0.00500;130.1875;179;113;0.67082
1201430;-0.00500;129.3125;179;113;0.66203
1201440;-0.00500;127.6875;179;113;0.63443
1201450;-0.00500;127.0625;179;113;0.61636
1201460;-0.00500;126.6875;179;113;0.59609
1201470;-0.00500;126.5000;179;113;0.57705
1201480;-0.00500;126.5000;179;113;0.53968
1201490;-0.00500;126.3125;179;113;0.52186
1201500;-0.00500;125.8750;179;113;0.50598
1201510;-0.00500;125.2500;179;113;0.49255
1201520;-0.00500;124.0625;179;113;0.47131
1201530;-0.00500;123.5625;179;113;0.46276
1201540;-0.00500;123.1250;179;113;0.45470
1201550;-0.00500;122.6875;179;113;0.44737
1201560;-0.00500;122.0625;179;113;0.44005
1201570;-0.00500;120.2500;179;113;0.42637
1201580;-0.00500;119.3750;179;113;0.42076
1201590;-0.00500;118.8750;179;113;0.41441
1201600;-0.00500;118.8750;179;113;0.40781
1201610;-0.00500;119.9375;179;113;0.39438
1201620;-0.00500;120.5000;179;113;0.38779
1201630;-0.00500;120.6875;179;113;0.38071
1201640;-0.00500;119.6250;179;113;0.36654
1201650;-0.00500;118.7500;179;113;0.35971
1201660;-0.00500;117.8125;179;113;0.35311
1201670;-0.00500;116.9375;179;113;0.34774
1201680;-0.00500;116.3125;179;113;0.34359
1201690;-0.00500;116.4375;179;113;0.33529
1201700;-0.00500;117.0000;179;113;0.33138
1201710;-0.00500;117.4375;179;113;0.32821
1201720;-0.00500;116.7500;179;113;0.32503
1201730;-0.00500;115.7500;179;113;0.31770
1201740;-0.00500;114.6875;179;113;0.31331
1201750;-0.00500;113.8750;179;113;0.30867
1201760;-0.00500;112.3125;179;113;0.29866
1201770;-0.00500;111.1250;179;113;0.29475
1201780;-0.00500;110.0000;179;113;0.29109
1201790;-0.00500;109.6250;179;113;0.28694
1201800;-0.00500;112.8750;179;113;0.27912
1201810;-0.00500;112.8750;179;113;0.27912
1201820;-0.00500;116.9375;179;113;0.27302
1201830;-0.00500;117.2500;179;113;0.27057
1201840;-0.00500;116.6250;179;113;0.26862
1201850;-0.00500;116.1875;179;113;0.26764
1201860;-0.00500;118.4375;179;113;0.26813
1201870;-0.00500;122.8750;179;113;0.26886
1201880;-0.00500;129.1250;179;113;0.26960
1201890;-0.00500;144.6250;179;113;0.26716
1201900;-0.00500;152.6250;179;113;0.26374
1201910;-0.00500;160.0000;179;113;0.25934
1201920;-0.00500;166.0000;179;113;0.25470
1201930;-0.00500;172.8125;179;113;0.24640
1201940;-0.00500;173.8125;179;113;0.24371
1201950;-0.00500;173.8125;179;113;0.24225
1201960;-0.00500;173.1250;179;113;0.24176
1201970;-0.00500;173.3125;179;113;0.24493
1201980;-0.00500;174.1875;179;113;0.24811
1201990;-0.00500;175.3750;179;113;0.25177
1202000;-0.00500;176.5625;179;113;0.25568
1202010;-0.00500;176.9375;179;113;0.26374
1202020;-0.00500;175.8750;179;113;0.26667
1202030;-0.00500;174.1250;179;113;0.26838
1202040;-0.00500;171.9375;179;113;0.26813
1202050;-0.00500;166.3750;179;113;0.26129
1202060;-0.00500;162.8750;179;113;0.25519
1202070;-0.00500;158.7500;179;113;0.24957
1202080;-0.00500;149.6250;179;113;0.23907
1202090;-0.00500;145.1875;179;113;0.23443
1202100;-0.00500;141.5000;179;113;0.23199
1202110;-0.00500;139.1250;179;113;0.23297
1202120;-0.00500;138.3125;179;113;0.23858
1202130;-0.00500;140.5625;179;113;0.26862
1202140;-0.00500;142.5625;179;113;0.29280
1202150;-0.00500;144.2500;179;113;0.32234
1202160;-0.00500;145.2500;179;113;0.39121
1202170;-0.00500;144.3125;179;113;0.42295
1202180;-0.00500;142.5000;179;113;0.45226
1202190;-0.00500;140.3750;179;113;0.48425
1202200;-0.00500;138.3750;179;113;0.51526
1202210;-0.00500;136.6250;179;113;0.56947
1202220;-0.00500;136.5625;179;113;0.59170
1202230;-0.00500;136.3125;179;113;0.61123
1202240;-0.00500;134.3750;179;113;0.64420
1202250;-0.00500;133.5625;179;113;0.65861
1202260;-0.00500;133.0625;179;113;0.67179
1202270;-0.00500;132.5000;179;113;0.68132
1202280;-0.00500;131.0625;179;113;0.68767
1202290;-0.00500;126.5000;179;113;0.69719
1202300;-0.00500;125.2500;179;113;0.69817
1202310;-0.00500;125.7500;179;113;0.69573
1202320;-0.00500;129.8750;179;113;0.68913
1202330;-0.00500;131.3125;179;113;0.66349
1202340;-0.00500;131.2500;179;113;0.64542
1202350;-0.00500;130.0000;179;113;0.62515
1202360;-0.00500;126.5000;179;113;0.58462
1202370;-0.00500;125.1875;179;113;0.56752
1202380;-0.00500;124.0625;179;113;0.55116
1202390;-0.00500;123.0625;179;113;0.53700
1202400;-0.00500;121.3125;179;113;0.51624
1202410;-0.00500;121.1250;179;113;0.50867
1202420;-0.00500;121.7500;179;113;0.50183
1202430;-0.00500;122.9375;179;113;0.49524
1202440;-0.00500;124.6875;179;113;0.47961
1202450;-0.00500;124.2500;179;113;0.46960
1202460;-0.00500;123.1250;179;113;0.45836
1202470;-0.00500;121.6250;179;113;0.44811
1202480;-0.00500;119.1250;179;113;0.42857
1202490;-0.00500;118.7500;179;113;0.41856
1202500;-0.00500;119.0000;179;113;0.40904
1202510;-0.00500;119.6875;179;113;0.40073
1202520;-0.00500;120.4375;179;113;0.39365
1202530;-0.00500;121.0000;179;113;0.39121
1202540;-0.00500;120.1250;179;113;0.40000
1202550;-0.00500;118.3750;179;113;0.40171
1202560;-0.00500;115.8750;179;113;0.40000
1202570;-0.00500;110.3750;179;113;0.39438
1202580;-0.00500;108.9375;179;113;0.39023
1202590;-0.00500;109.1250;179;113;0.38510
1202600;-0.00500;113.1875;179;113;0.37338
1202610;-0.00500;115.3125;179;113;0.36654
1202620;-0.00500;116.3750;179;113;0.35897
1202630;-0.00500;116.5000;179;113;0.35092
1202640;-0.00500;116.4375;179;113;0.33700
1202650;-0.00500;116.5625;179;113;0.33260
1202660;-0.00500;116.2500;179;113;0.33040
1202670;-0.00500;115.3125;179;113;0.33040
1202680;-0.00500;112.4375;179;113;0.33626
1202690;-0.00500;111.1250;179;113;0.34042
1202700;-0.00500;110.1875;179;113;0.34359
1202710;-0.00500;109.4375;179;113;0.34457
1202720;-0.00500;108.5625;179;113;0.33846
1202730;-0.00500;108.3125;179;113;0.33211
1202740;-0.00500;108.6250;179;113;0.32479
1202750;-0.00500;110.0625;179;113;0.31722
1202760;-0.00500;113.5625;179;113;0.30989
1202770;-0.00500;128.7500;179;113;0.30110
1202780;-0.00500;139.4375;179;113;0.29768
1202790;-0.00500;150.1875;179;113;0.29524
1202800;-0.00500;159.4375;179;113;0.29402
1202810;-0.00500;170.3125;179;113;0.29377
1202820;-0.00500;172.5000;179;113;0.29328
1202830;-0.00500;173.0625;179;113;0.29280
1202840;-0.00500;171.5000;179;113;0.29084
1202850;-0.00500;170.4375;179;113;0.28938
1202860;-0.00500;169.9375;179;113;0.28767
1202870;-0.00500;170.3125;179;113;0.28694
1202880;-0.00500;172.5625;179;113;0.28669
1202890;-0.00500;173.3750;179;113;0.28571
1202900;-0.00500;173.5625;179;113;0.28498
1202910;-0.00500;173.5625;179;113;0.28400
1202920;-0.00500;173.6875;179;113;0.28303
1202930;-0.00500;174.4375;179;113;0.28034
1202940;-0.00500;174.8125;179;113;0.27888
1202950;-0.00500;174.6875;179;113;0.27717
1202960;-0.00500;171.1875;179;113;0.27448
1202970;-0.00500;166.9375;179;113;0.27326
1202980;-0.00500;161.1250;179;113;0.27082
1202990;-0.00500;154.3750;179;113;0.26838
1203000;-0.00500;147.3750;180;113;0.26667
1203010;-0.00500;136.4375;180;113;0.26984
1203020;-0.00500;134.1250;180;113;0.27741
1203030;-0.00500;134.3125;180;113;0.29084
1203040;-0.00500;136.5000;180;113;0.31087
1203050;-0.00500;142.2500;180;113;0.36703
1203060;-0.00500;143.5000;180;113;0.40122
1203070;-0.00500;143.1875;180;113;0.43272
1203080;-0.00500;141.1250;180;113;0.49768
1203090;-0.00500;141.2500;180;113;0.53431
1203100;-0.00500;142.1875;180;113;0.57094
1203110;-0.00500;143.2500;180;113;0.60635
1203120;-0.00500;143.7500;180;113;0.63956
1203130;-0.00500;142.3125;180;113;0.69768
1203140;-0.00500;140.3750;180;113;0.72186
1203150;-0.00500;137.8125;180;113;0.74286
1203160;-0.00500;134.8750;180;113;0.76093
1203170;-0.00500;129.0000;180;113;0.78242
1203180;-0.00500;126.7500;180;113;0.79170
1203190;-0.00500;125.4375;180;113;0.80000
1203200;-0.00500;125.8125;180;113;0.80757
1203210;-0.00500;126.6250;180;113;0.80440
1203220;-0.00500;127.0000;180;113;0.79609
1203230;-0.00500;126.6875;180;113;0.78242
1203240;-0.00500;124.8750;180;113;0.74017
1203250;-0.00500;125.0000;180;113;0.71477
1203260;-0.00500;126.1875;180;113;0.68864
1203270;-0.00500;127.8750;180;113;0.66569
1203280;-0.00500;129.2500;180;113;0.64615
1203290;-0.00500;130.1875;180;113;0.61221
1203300;-0.00500;129.9375;180;113;0.59927
1203310;-0.00500;129.1250;180;113;0.58877
1203320;-0.00500;127.5625;180;113;0.58022
1203330;-0.00500;121.5625;180;113;0.56679
1203340;-0.00500;118.0000;180;113;0.56093
1203350;-0.00500;115.3125;180;113;0.55458
1203360;-0.00500;115.3125;180;113;0.54750
1203370;-0.00500;117.3750;180;113;0.53187
1203380;-0.00500;119.1875;180;113;0.52088
1203390;-0.00500;119.8750;180;113;0.50769
1203400;-0.00500;120.0000;180;113;0.47863
1203410;-0.00500;120.6250;180;113;0.46422
1203420;-0.00500;121.1875;180;113;0.45104
1203430;-0.00500;120.7500;180;113;0.44005
1203440;-0.00500;119.3125;180;113;0.43199
1203450;-0.00500;116.5000;180;113;0.42344
1203460;-0.00500;116.1875;180;113;0.42222
1203470;-0.00500;116.1250;180;113;0.42198
1203480;-0.00500;114.8750;180;113;0.42173
1203490;-0.00500;113.9375;180;113;0.41978
1203500;-0.00500;113.5625;180;113;0.41563
1203510;-0.00500;114.0625;180;113;0.40977
1203520;-0.00500;114.8750;180;113;0.40269
1203530;-0.00500;114.9375;180;113;0.38657
1203540;-0.00500;113.6875;180;113;0.37851
1203550;-0.00500;112.2500;180;113;0.37045
1203560;-0.00500;111.5000;180;113;0.36288
1203570;-0.00500;112.1875;180;113;0.35311
1203580;-0.00500;113.1250;180;113;0.34945
1203590;-0.00500;113.7500;180;113;0.34701
1203600;-0.00500;113.7500;180;113;0.34579
1203610;-0.00500;112.3125;180;113;0.34481
1203620;-0.00500;111.3750;180;113;0.34432
1203630;-0.00500;110.3125;180;113;0.34359
1203640;-0.00500;109.0000;180;113;0.34188
1203650;-0.00500;106.2500;180;113;0.33602
1203660;-0.00500;107.5625;180;113;0.33260
1203670;-0.00500;112.9375;180;113;0.33016
1203680;-0.00500;136.0625;180;113;0.32796
1203690;-0.00500;149.7500;180;113;0.32210
1203700;-0.00500;161.4375;180;113;0.31941
1203710;-0.00500;169.6250;180;113;0.31673
1203720;-0.00500;175.5625;180;113;0.31233
1203730;-0.00500;174.4375;180;113;0.31160
1203740;-0.00500;171.7500;180;113;0.31233
1203750;-0.00500;169.0000;180;113;0.31404
1203760;-0.00500;168.1250;180;113;0.31770
1203770;-0.00500;170.6250;180;113;0.31868
1203780;-0.00500;174.1250;180;113;0.31795
1203790;-0.00500;178.6250;180;113;0.31502
1203800;-0.00500;178.6250;180;113;0.31013
1203810;-0.00500;178.6250;180;113;0.31013
1203820;-0.00500;174.0000;180;113;0.28938
1203830;-0.00500;173.0625;180;113;0.28278
1203840;-0.00500;173.0625;180;113;0.27766
1203850;-0.00500;172.7500;180;113;0.27375
1203860;-0.00500;170.8750;180;113;0.27570
1203870;-0.00500;167.5625;180;113;0.27985
1203880;-0.00500;163.1250;180;113;0.28498
1203890;-0.00500;153.6250;180;113;0.29621
1203900;-0.00500;149.3750;180;113;0.30061
1203910;-0.00500;145.7500;180;113;0.30427
1203920;-0.00500;142.1875;180;113;0.31282
1203930;-0.00500;142.5000;180;113;0.32161
1203940;-0.00500;143.7500;180;113;0.33578
1203950;-0.00500;144.9375;180;113;0.35604
1203960;-0.00500;145.3750;180;113;0.38266
1203970;-0.00500;144.0000;180;113;0.43761
1203980;-0.00500;143.1250;180;113;0.47106
1203990;-0.00500;142.6250;180;113;0.50720
1204000;-0.00500;142.5000;180;113;0.54359
1204010;-0.00500;141.6250;180;113;0.61197
1204020;-0.00500;140.1875;180;113;0.64274
1204030;-0.00500;138.1875;180;113;0.67033
1204040;-0.00500;134.2500;180;113;0.69426
1204050;-0.00500;132.8750;180;113;0.73089
1204060;-0.00500;131.8750;180;113;0.74310
1204070;-0.00500;131.1875;180;113;0.75018
1204080;-0.00500;131.2500;180;113;0.75556
1204090;-0.00500;131.9375;180;113;0.75604
1204100;-0.00500;132.5625;180;113;0.75531
1204110;-0.00500;132.7500;180;113;0.75360
1204120;-0.00500;131.6250;180;113;0.74701
1204130;-0.00500;130.6875;180;113;0.74164
1204140;-0.00500;129.6875;180;113;0.73455
1204150;-0.00500;128.7500;180;113;0.72527
1204160;-0.00500;127.9375;180;113;0.71404
1204170;-0.00500;126.8750;180;113;0.68816
1204180;-0.00500;126.7500;180;113;0.67179
1204190;-0.00500;126.6875;180;113;0.65299
1204200;-0.00500;126.6250;180;113;0.63297
1204210;-0.00500;126.1875;180;113;0.59170
1204220;-0.00500;125.6250;180;113;0.57241
1204230;-0.00500;124.8750;180;113;0.55531
1204240;-0.00500;122.8750;180;113;0.52869
1204250;-0.00500;121.8125;180;113;0.51917
1204260;-0.00500;120.8125;180;113;0.51233
1204270;-0.00500;119.9375;180;113;0.50745
1204280;-0.00500;119.2500;180;113;0.50305
1204290;-0.00500;118.1875;180;113;0.49548
1204300;-0.00500;117.9375;180;113;0.49109
1204310;-0.00500;118.0000;180;113;0.48547
1204320;-0.00500;118.1875;180;113;0.47814
1204330;-0.00500;118.8750;180;113;0.45958
1204340;-0.00500;119.1875;180;113;0.44860
1204350;-0.00500;119.4375;180;113;0.43785
1204360;-0.00500;119.6875;180;113;0.42759
1204370;-0.00500;119.8125;180;113;0.41221
1204380;-0.00500;119.8125;180;113;0.40562
1204390;-0.00500;119.7500;180;113;0.40024
1204400;-0.00500;119.1875;180;113;0.39219
1204410;-0.00500;118.8125;180;113;0.38950
1204420;-0.00500;118.5000;180;113;0.38730
1204430;-0.00500;118.0000;180;113;0.38510
1204440;-0.00500;116.2500;180;113;0.37924
1204450;-0.00500;115.2500;180;113;0.37582
1204460;-0.00500;114.6250;180;113;0.37265
1204470;-0.00500;114.4375;180;113;0.36923
1204480;-0.00500;114.2500;180;113;0.36459
1204490;-0.00500;112.2500;180;113;0.35189
1204500;-0.00500;110.4375;180;113;0.34481
1204510;-0.00500;108.8125;180;113;0.33748
1204520;-0.00500;107.7500;180;113;0.33065
1204530;-0.00500;108.6875;180;113;0.32039
1204540;-0.00500;110.4375;180;113;0.31770
1204550;-0.00500;112.2500;180;113;0.31600
1204560;-0.00500;114.1250;180;113;0.31600
1204570;-0.00500;115.0625;180;113;0.31722
1204580;-0.00500;117.7500;180;113;0.31331
1204590;-0.00500;123.3750;180;113;0.30672
1204600;-0.00500;132.0000;180;113;0.30330
1204610;-0.00500;152.5000;180;113;0.30085
1204620;-0.00500;161.0625;180;113;0.30085
1204630;-0.00500;167.3125;180;113;0.30159
1204640;-0.00500;173.6250;180;113;0.30330
1204650;-0.00500;174.5625;180;113;0.30379
1204660;-0.00500;174.7500;180;113;0.30403
1204670;-0.00500;174.8750;180;113;0.30403
1204680;-0.00500;175.3125;180;113;0.30330
1204690;-0.00500;176.8125;180;113;0.30085
1204700;-0.00500;177.6875;180;113;0.29939
1204710;-0.00500;178.7500;180;113;0.29744
1204720;-0.00500;180.1875;180;113;0.29499
1204730;-0.00500;183.0625;180;113;0.28864
1204740;-0.00500;183.7500;180;113;0.28474
1204750;-0.00500;183.6875;180;113;0.28083
1204760;-0.00500;183.2500;180;113;0.27741
1204770;-0.00500;182.1250;180;113;0.27448
1204780;-0.00500;180.8750;180;113;0.27302
1204790;-0.00500;178.3750;180;113;0.27155
1204800;-0.00500;169.3125;180;113;0.26886
1204810;-0.00500;164.0625;180;113;0.26838
1204820;-0.00500;159.0625;180;113;0.26935
1204830;-0.00500;154.4375;180;113;0.27277
1204840;-0.00500;150.4375;180;113;0.27937
1204850;-0.00500;145.7500;180;113;0.30525
1204860;-0.00500;145.0625;180;113;0.32259
1204870;-0.00500;144.7500;180;113;0.34286
1204880;-0.00500;144.6250;180;113;0.36947
1204890;-0.00500;145.1250;180;113;0.43541
1204900;-0.00500;145.7500;180;113;0.47106
1204910;-0.00500;146.0000;180;113;0.50672
1204920;-0.00500;145.5000;180;113;0.54139
1204930;-0.00500;143.0625;180;113;0.60366
1204940;-0.00500;141.8125;180;113;0.63053
1204950;-0.00500;140.8750;180;113;0.65397
1204960;-0.00500;140.2500;180;113;0.67424
1204970;-0.00500;140.0625;180;113;0.69915
1204980;-0.00500;140.3125;180;113;0.70989
1204990;-0.00500;140.5000;180;113;0.71990
1205000;-0.00500;139.9375;180;113;0.72918
1205010;-0.00500;139.1250;180;113;0.74505
1205020;-0.00500;138.1250;180;113;0.75116
1205030;-0.00500;137.0625;180;113;0.75580
1205040;-0.00500;136.1875;180;113;0.75775
1205050;-0.00500;135.0000;180;113;0.75336
1205060;-0.00500;134.3125;180;113;0.74676
1205070;-0.00500;133.3125;180;113;0.73748
1205080;-0.00500;132.1250;180;113;0.72503
1205090;-0.00500;130.0625;180;113;0.69035
1205100;-0.00500;129.0625;180;113;0.66935
1205110;-0.00500;128.0000;180;113;0.64737
1205120;-0.00500;126.7500;180;113;0.62540
1205130;-0.00500;124.7500;180;113;0.58559
1205140;-0.00500;124.5000;180;113;0.56850
1205150;-0.00500;124.8125;180;113;0.55360
1205160;-0.00500;125.5625;180;113;0.54115
1205170;-0.00500;126.5625;180;113;0.52332
1205180;-0.00500;126.2500;180;113;0.51648
1205190;-0.00500;125.5000;180;113;0.51087
1205200;-0.00500;125.0000;180;113;0.50598
1205210;-0.00500;125.1875;180;113;0.49744
1205220;-0.00500;125.1250;180;113;0.49328
1205230;-0.00500;124.6875;180;113;0.48913
1205240;-0.00500;124.0625;180;113;0.47985
1205250;-0.00500;124.5000;180;113;0.47473
1205260;-0.00500;125.1875;180;113;0.46984
1205270;-0.00500;125.5000;180;113;0.46471
1205280;-0.00500;124.3750;180;113;0.45128
1205290;-0.00500;123.4375;180;113;0.44298
1205300;-0.00500;122.3750;180;113;0.43394
1205310;-0.00500;121.1875;180;113;0.42491
1205320;-0.00500;119.8750;180;113;0.41636
1205330;-0.00500;118.0625;180;113;0.40024
1205340;-0.00500;117.9375;180;113;0.39292
1205350;-0.00500;117.8750;180;113;0.38608
1205360;-0.00500;116.3125;180;113;0.37436
1205370;-0.00500;115.1875;180;113;0.36996
1205380;-0.00500;114.3750;180;113;0.36484
1205390;-0.00500;114.1250;180;113;0.35946
1205400;-0.00500;114.1250;180;113;0.34945
1205410;-0.00500;114.0000;180;113;0.34554
1205420;-0.00500;114.0000;180;113;0.34261
1205430;-0.00500;114.3750;180;113;0.34042
1205440;-0.00500;115.9375;180;113;0.33797
1205450;-0.00500;116.3750;180;113;0.33724
1205460;-0.00500;116.3125;180;113;0.33700
1205470;-0.00500;116.1250;180;113;0.33675
1205480;-0.00500;117.0625;180;113;0.33602
1205490;-0.00500;126.5000;180;113;0.33236
1205500;-0.00500;135.0625;180;113;0.33016
1205510;-0.00500;144.6875;180;113;0.32796
1205520;-0.00500;160.8125;180;113;0.32650
1205530;-0.00500;165.9375;180;113;0.32527
1205540;-0.00500;169.3750;180;113;0.32430
1205550;-0.00500;171.3750;180;113;0.32308
1205560;-0.00500;172.7500;180;113;0.31990
1205570;-0.00500;172.9375;180;113;0.31844
1205580;-0.00500;173.4375;180;113;0.31600
1205590;-0.00500;174.5625;180;113;0.31331
1205600;-0.00500;178.8125;180;113;0.30720
1205610;-0.00500;181.3125;180;113;0.30427
1205620;-0.00500;183.8125;180;113;0.30159
1205630;-0.00500;186.0625;180;113;0.29890
1205640;-0.00500;188.0625;180;113;0.29646
1205650;-0.00500;190.5625;180;113;0.29206
1205660;-0.00500;190.7500;180;113;0.29109
1205670;-0.00500;190.0000;180;113;0.29084
1205680;-0.00500;186.0000;180;113;0.28987
1205690;-0.00500;183.0000;180;113;0.28987
1205700;-0.00500;179.6250;180;113;0.29035
1205710;-0.00500;175.8125;180;113;0.29084
1205720;-0.00500;171.1250;180;113;0.29158
1205730;-0.00500;158.5625;180;113;0.29524
1205740;-0.00500;151.7500;180;113;0.29988
1205750;-0.00500;146.1250;180;113;0.30794
1205760;-0.00500;141.5625;180;113;0.31990
1205770;-0.00500;142.3125;180;113;0.34994
1205780;-0.00500;143.9375;180;113;0.37192
1205790;-0.00500;145.7500;180;113;0.39878
1205800;-0.00500;148.7500;180;113;0.46081
1205810;-0.00500;149.3125;180;113;0.49353
1205820;-0.00500;149.0000;180;113;0.52601
1205830;-0.00500;148.0625;180;113;0.55702
1205840;-0.00500;146.8125;180;113;0.58559
1205850;-0.00500;144.8750;180;113;0.63541
1205860;-0.00500;144.2500;180;113;0.65397
1205870;-0.00500;143.7500;180;113;0.66911
1205880;-0.00500;143.2500;180;113;0.68474
1205890;-0.00500;142.0625;180;113;0.71306
1205900;-0.00500;141.3750;180;113;0.72479
1205910;-0.00500;140.5000;180;113;0.73455
1205920;-0.00500;139.5625;180;113;0.74212
1205930;-0.00500;137.5000;180;113;0.75311
1205940;-0.00500;136.5000;180;113;0.75653
1205950;-0.00500;135.4375;180;113;0.75775
1205960;-0.00500;133.5000;180;113;0.75604
1205970;-0.00500;132.5625;180;113;0.74359
1205980;-0.00500;131.7500;180;113;0.73236
1205990;-0.00500;130.9375;180;113;0.71746
1206000;-0.00500;129.5000;179;113;0.67790
1206010;-0.00500;128.8750;179;113;0.65519
1206020;-0.00500;128.2500;179;113;0.63248
1206030;-0.00500;127.7500;179;113;0.61050
1206040;-0.00500;127.3750;179;113;0.59023
1206050;-0.00500;126.8125;179;113;0.55775
1206060;-0.00500;126.6250;179;113;0.54579
1206070;-0.00500;126.5000;179;113;0.53675
1206080;-0.00500;126.3125;179;113;0.52991
1206090;-0.00500;125.8750;179;113;0.52039
1206100;-0.00500;125.5625;179;113;0.51600
1206110;-0.00500;125.2500;179;113;0.51136
1206120;-0.00500;124.6250;179;113;0.50085
1206130;-0.00500;124.3125;179;113;0.49499
1206140;-0.00500;123.9375;179;113;0.48840
1206150;-0.00500;123.5625;179;113;0.48181
1206160;-0.00500;122.7500;179;113;0.46935
1206170;-0.00500;122.3125;179;113;0.46203
1206180;-0.00500;121.8125;179;113;0.45446
1206190;-0.00500;121.2500;179;113;0.44640
1206200;-0.00500;120.6250;179;113;0.43785
1206210;-0.00500;119.3750;179;113;0.42125
1206220;-0.00500;118.8125;179;113;0.41343
1206230;-0.00500;118.2500;179;113;0.40586
1206240;-0.00500;117.2500;179;113;0.39878
1206250;-0.00500;116.8125;179;113;0.38462
1206260;-0.00500;116.3750;179;113;0.37900
1206270;-0.00500;116.0000;179;113;0.37387
1206280;-0.00500;115.2500;179;113;0.36190
1206290;-0.00500;115.0000;179;113;0.35604
1206300;-0.00500;114.7500;179;113;0.35092
1206310;-0.00500;114.5625;179;113;0.34628
1206320;-0.00500;114.3750;179;113;0.34188
1206330;-0.00500;113.9375;179;113;0.33382
1206340;-0.00500;113.7500;179;113;0.33040
1206350;-0.00500;113.5625;179;113;0.32772
1206360;-0.00500;113.2500;179;113;0.32479
1206370;-0.00500;112.9375;179;113;0.32332
1206380;-0.00500;112.6250;179;113;0.32137
1206390;-0.00500;112.5000;179;113;0.31893
1206400;-0.00500;114.5000;179;113;0.31380
1206410;-0.00500;118.0000;179;113;0.31087
1206420;-0.00500;124.0000;179;113;0.30794
1206430;-0.00500;132.4375;179;113;0.30476
1206440;-0.00500;142.2500;179;113;0.30208
1206450;-0.00500;159.8750;179;113;0.29841
1206460;-0.00500;165.5625;179;113;0.29744
1206470;-0.00500;169.1875;179;113;0.29695
1206480;-0.00500;171.1250;179;113;0.29597
1206490;-0.00500;172.3750;179;113;0.29304
1206500;-0.00500;172.4375;179;113;0.29133
1206510;-0.00500;172.5000;179;113;0.28962
1206520;-0.00500;173.3125;179;113;0.28547
1206530;-0.00500;174.0625;179;113;0.28327
1206540;-0.00500;174.8750;179;113;0.28107
1206550;-0.00500;175.5625;179;113;0.27863
1206560;-0.00500;176.0625;179;113;0.27692
1206570;-0.00500;176.4375;179;113;0.27473
1206580;-0.00500;176.2500;179;113;0.27399
1206590;-0.00500;175.6875;179;113;0.27375
1206600;-0.00500;172.9375;179;113;0.27326
1206610;-0.00500;170.3750;179;113;0.27302
1206620;-0.00500;167.0000;179;113;0.27228
1206630;-0.00500;162.8750;179;113;0.26667
1206640;-0.00500;158.0000;179;113;0.25885
1206650;-0.00500;147.5000;179;113;0.25324
1206660;-0.00500;143.0000;179;113;0.25421
1206670;-0.00500;140.0000;179;113;0.25763
1206680;-0.00500;138.9375;179;113;0.26496
1206690;-0.00500;141.0000;179;113;0.29426
1206700;-0.00500;142.6875;179;113;0.31673
1206710;-0.00500;144.0000;179;113;0.34310
1206720;-0.00500;144.9375;179;113;0.40415
1206730;-0.00500;144.6250;179;113;0.43639
1206740;-0.00500;143.8125;179;113;0.46764
1206750;-0.00500;142.6250;179;113;0.49670
1206760;-0.00500;141.3125;179;113;0.52015
1206770;-0.00500;138.8125;179;113;0.55873
1206780;-0.00500;137.7500;179;113;0.57656
1206790;-0.00500;136.8125;179;113;0.59267
1206800;-0.00500;135.8125;179;113;0.60708
1206810;-0.00500;135.8125;179;113;0.60708
1206820;-0.00500;132.6250;179;113;0.63980
1206830;-0.00500;131.6875;179;113;0.64737
1206840;-0.00500;130.1250;179;113;0.65763
1206850;-0.00500;129.4375;179;113;0.65958
1206860;-0.00500;128.8125;179;113;0.65910
1206870;-0.00500;128.3750;179;113;0.65592
1206880;-0.00500;128.0000;179;113;0.65055
1206890;-0.00500;127.4375;179;113;0.63223
1206900;-0.00500;127.0625;179;113;0.61856
1206910;-0.00500;126.7500;179;113;0.60220
1206920;-0.00500;126.3750;179;113;0.58413
1206930;-0.00500;125.6875;179;113;0.54579
1206940;-0.00500;125.4375;179;113;0.52723
1206950;-0.00500;125.1875;179;113;0.50989
1206960;-0.00500;124.6875;179;113;0.48352
1206970;-0.00500;124.4375;179;113;0.47204
1206980;-0.00500;124.1875;179;113;0.46178
1206990;-0.00500;124.0625;179;113;0.45226
1207000;-0.00500;123.8750;179;113;0.44371
1207010;-0.00500;123.3125;179;113;0.42808
1207020;-0.00500;122.8750;179;113;0.42027
1207030;-0.00500;122.3750;179;113;0.41221
1207040;-0.00500;121.8125;179;113;0.40366
1207050;-0.00500;120.5625;179;113;0.38681
1207060;-0.00500;119.9375;179;113;0.37949
1207070;-0.00500;119.3750;179;113;0.37289
1207080;-0.00500;118.8125;179;113;0.36581
1207090;-0.00500;117.8750;179;113;0.35018
1207100;-0.00500;117.5000;179;113;0.34237
1207110;-0.00500;117.1875;179;113;0.33480
1207120;-0.00500;116.8125;179;113;0.32772
1207130;-0.00500;116.0000;179;113;0.31551
1207140;-0.00500;115.5625;179;113;0.31013
1207150;-0.00500;115.1250;179;113;0.30501
1207160;-0.00500;114.2500;179;113;0.29841
1207170;-0.00500;113.9375;179;113;0.29548
1207180;-0.00500;113.6250;179;113;0.29231
1207190;-0.00500;113.3750;179;113;0.28913
1207200;-0.00500;112.9375;179;113;0.28425
1207210;-0.00500;112.7500;179;113;0.28303
1207220;-0.00500;112.5000;179;113;0.28230
1207230;-0.00500;112.3125;179;113;0.28156
1207240;-0.00500;112.1250;179;113;0.28132
1207250;-0.00500;111.6875;179;113;0.28034
1207260;-0.00500;111.4375;179;113;0.28010
1207270;-0.00500;111.1875;179;113;0.28034
1207280;-0.00500;110.8125;179;113;0.27863
1207290;-0.00500;110.6875;179;113;0.27668
1207300;-0.00500;110.7500;179;113;0.27448
1207310;-0.00500;111.3750;179;113;0.27228
1207320;-0.00500;116.7500;179;113;0.26691
1207330;-0.00500;122.7500;179;113;0.26422
1207340;-0.00500;130.9375;179;113;0.26178
1207350;-0.00500;140.4375;179;113;0.25958
1207360;-0.00500;149.6250;179;113;0.25812
1207370;-0.00500;162.6875;179;113;0.25592
1207380;-0.00500;166.0625;179;113;0.25446
1207390;-0.00500;168.0000;179;113;0.25299
1207400;-0.00500;169.0000;179;113;0.25128
1207410;-0.00500;169.5000;179;113;0.24811
1207420;-0.00500;169.6250;179;113;0.24640
1207430;-0.00500;169.9375;179;113;0.24493
1207440;-0.00500;170.5625;179;113;0.24322
1207450;-0.00500;172.1250;179;113;0.24005
1207460;-0.00500;172.8125;179;113;0.23980
1207470;-0.00500;172.8125;179;113;0.23980
1207480;-0.00500;172.8125;179;113;0.23980
1207490;-0.00500;173.0625;179;113;0.24200
1207500;-0.00500;172.2500;179;113;0.24225
1207510;-0.00500;170.8125;179;113;0.24249
1207520;-0.00500;168.6875;179;113;0.24249
1207530;-0.00500;162.0000;179;113;0.24249
1207540;-0.00500;157.4375;179;113;0.24225
1207550;-0.00500;152.3125;179;113;0.24200
1207560;-0.00500;146.8125;179;113;0.24249
1207570;-0.00500;137.6875;179;113;0.24591
1207580;-0.00500;135.5625;179;113;0.25031
1207590;-0.00500;135.4375;179;113;0.25812
1207600;-0.00500;136.9375;179;113;0.27082
1207610;-0.00500;141.1250;179;113;0.31184
1207620;-0.00500;142.5000;179;113;0.33968
1207630;-0.00500;143.0625;179;113;0.37118
1207640;-0.00500;142.4375;179;113;0.40488
1207650;-0.00500;141.5625;179;113;0.46886
1207660;-0.00500;140.5000;179;113;0.49499
1207670;-0.00500;139.2500;179;113;0.52210
1207680;-0.00500;136.8125;179;113;0.57118
1207690;-0.00500;135.8125;179;113;0.59170
1207700;-0.00500;134.8125;179;113;0.60952
1207710;-0.00500;133.8750;179;113;0.62466
1207720;-0.00500;132.9375;179;113;0.63785
1207730;-0.00500;131.2500;179;113;0.65836
1207740;-0.00500;130.5000;179;113;0.66593
1207750;-0.00500;129.7500;179;113;0.67155
1207760;-0.00500;128.4375;179;113;0.67399
1207770;-0.00500;127.8125;179;113;0.67277
1207780;-0.00500;127.3125;179;113;0.66935
1207790;-0.00500;126.7500;179;113;0.66349
1207800;-0.00500;126.2500;179;113;0.65446
1207810;-0.00500;126.2500;179;113;0.65446
1207820;-0.00500;124.6250;179;113;0.61026
1207830;-0.00500;124.1250;179;113;0.59145
1207840;-0.00500;123.6875;179;113;0.57167
1207850;-0.00500;123.0000;179;113;0.53480
1207860;-0.00500;122.6875;179;113;0.51966
1207870;-0.00500;122.3750;179;113;0.50525
1207880;-0.00500;122.0625;179;113;0.49255
1207890;-0.00500;121.3750;179;113;0.47228
1207900;-0.00500;121.0625;179;113;0.46496
1207910;-0.00500;120.6875;179;113;0.45861
1207920;-0.00500;120.3750;179;113;0.45250
1207930;-0.00500;119.6875;179;113;0.44029
1207940;-0.00500;119.3750;179;113;0.43394
1207950;-0.00500;119.1250;179;113;0.42686
1207960;-0.00500;118.9375;179;113;0.42002
1207970;-0.00500;118.6250;179;113;0.40513
1207980;-0.00500;118.4375;179;113;0.39683
1207990;-0.00500;118.1875;179;113;0.38852
1208000;-0.00500;117.8125;179;112;0.38046
1208010;-0.00500;116.8750;179;112;0.36532
1208020;-0.00500;116.3750;179;112;0.35824
1208030;-0.00500;116.0000;179;112;0.35140
1208040;-0.00500;115.0625;179;112;0.33846
1208050;-0.00500;114.5000;179;112;0.33333
1208060;-0.00500;113.9375;179;112;0.32894
1208070;-0.00500;113.3125;179;112;0.32430
1208080;-0.00500;112.6875;179;112;0.31966
1208090;-0.00500;111.8125;179;112;0.31013
1208100;-0.00500;111.6250;179;112;0.30574
1208110;-0.00500;111.4375;179;112;0.30183
1208120;-0.00500;111.3750;179;112;0.29792
1208130;-0.00500;111.2500;179;112;0.29035
1208140;-0.00500;111.1875;179;112;0.28718
1208150;-0.00500;111.0625;179;112;0.28449
1208160;-0.00500;110.9375;179;112;0.28303
1208170;-0.00500;110.3750;179;112;0.28132
1208180;-0.00500;110.0000;179;112;0.28010
1208190;-0.00500;109.6875;179;112;0.27863
1208200;-0.00500;109.4375;179;112;0.27717
1208210;-0.00500;109.8125;179;112;0.27399
1208220;-0.00500;111.4375;179;112;0.27253
1208230;-0.00500;114.8750;179;112;0.27106
1208240;-0.00500;120.8750;179;112;0.26935
1208250;-0.00500;139.2500;179;112;0.26716
1208260;-0.00500;149.0000;179;112;0.26691
1208270;-0.00500;157.2500;179;112;0.26642
1208280;-0.00500;166.8125;179;112;0.26569
1208290;-0.00500;168.7500;179;112;0.26349
1208300;-0.00500;169.5625;179;112;0.26178
1208310;-0.00500;169.6875;179;112;0.25983
1208320;-0.00500;169.5000;179;112;0.25641
1208330;-0.00500;169.5625;179;112;0.25470
1208340;-0.00500;170.0000;179;112;0.25299
1208350;-0.00500;170.7500;179;112;0.25177
1208360;-0.00500;172.5000;179;112;0.25201
1208370;-0.00500;173.1875;179;112;0.25226
1208380;-0.00500;173.6250;179;112;0.25226
1208390;-0.00500;173.8125;179;112;0.25226
1208400;-0.00500;173.6875;179;112;0.25226
1208410;-0.00500;172.0625;179;112;0.25226
1208420;-0.00500;170.2500;179;112;0.25226
1208430;-0.00500;167.7500;179;112;0.25177
1208440;-0.00500;164.3750;179;112;0.25128
1208450;-0.00500;155.1875;179;112;0.25104
1208460;-0.00500;149.6875;179;112;0.25177
1208470;-0.00500;144.2500;179;112;0.25275
1208480;-0.00500;139.4375;179;112;0.25495
1208490;-0.00500;135.0000;179;112;0.26789
1208500;-0.00500;135.8125;179;112;0.28083
1208510;-0.00500;137.7500;179;112;0.29939
1208520;-0.00500;139.8750;179;112;0.32308
1208530;-0.00500;142.5000;179;112;0.38315
1208540;-0.00500;142.7500;179;112;0.41734
1208550;-0.00500;142.4375;179;112;0.45201
1208560;-0.00500;140.9375;179;112;0.50794
1208570;-0.00500;139.8125;179;112;0.53504
1208580;-0.00500;138.6250;179;112;0.56117
1208590;-0.00500;137.3750;179;112;0.58510
1208600;-0.00500;136.0625;179;112;0.60635
1208610;-0.00500;133.6250;179;112;0.64200
1208620;-0.00500;132.7500;179;112;0.65592
1208630;-0.00500;132.0625;179;112;0.66813
1208640;-0.00500;131.5000;179;112;0.67839
1208650;-0.00500;130.2500;179;112;0.69182
1208660;-0.00500;129.5000;179;112;0.69402
1208670;-0.00500;128.7500;179;112;0.69548
1208680;-0.00500;127.6875;179;112;0.72527
1208690;-0.00500;127.3125;179;112;0.72943
1208700;-0.00500;126.9375;179;112;0.72527
1208710;-0.00500;126.5000;179;112;0.71526
1208720;-0.00500;126.0625;179;112;0.70085
1208730;-0.00500;125.1875;179;112;0.66276
1208740;-0.00500;124.6875;179;112;0.64005
1208750;-0.00500;124.2500;179;112;0.61709
1208760;-0.00500;123.7500;179;112;0.59707
1208770;-0.00500;122.9375;179;112;0.56190
1208780;-0.00500;122.4375;179;112;0.54628
1208790;-0.00500;122.0000;179;112;0.53309
1208800;-0.00500;121.5000;179;112;0.52161
1208810;-0.00500;120.6250;179;112;0.50305
1208820;-0.00500;120.2500;179;112;0.49524
1208830;-0.00500;120.0000;179;112;0.48816
1208840;-0.00500;119.6875;179;112;0.48107
1208850;-0.00500;119.2500;179;112;0.46740
1208860;-0.00500;119.0625;179;112;0.46105
1208870;-0.00500;118.8125;179;112;0.45372
1208880;-0.00500;118.3125;179;112;0.43687
1208890;-0.00500;118.0000;179;112;0.42784
1208900;-0.00500;117.6875;179;112;0.41880
1208910;-0.00500;117.3125;179;112;0.41026
1208920;-0.00500;116.5625;179;112;0.39365
1208930;-0.00500;116.1250;179;112;0.38608
1208940;-0.00500;115.6250;179;112;0.37949
1208950;-0.00500;115.1250;179;112;0.37338
1208960;-0.00500;114.5625;179;112;0.36850
1208970;-0.00500;113.6875;179;112;0.35995
1208980;-0.00500;113.3125;179;112;0.35531
1208990;-0.00500;113.0000;179;112;0.35092
1209000;-0.00500;112.4375;179;112;0.34212
1209010;-0.00500;112.2500;179;112;0.33748
1209020;-0.00500;112.0625;179;112;0.33284
1209030;-0.00500;111.8125;179;112;0.32796
1209040;-0.00500;111.5625;179;112;0.32308
1209050;-0.00500;111.0000;179;112;0.31502
1209060;-0.00500;110.6875;179;112;0.31209
1209070;-0.00500;110.4375;179;112;0.30867
1209080;-0.00500;110.1875;179;112;0.30501
1209090;-0.00500;109.8125;179;112;0.29866
1209100;-0.00500;109.7500;179;112;0.29621
1209110;-0.00500;109.8750;179;112;0.29451
1209120;-0.00500;112.8125;179;112;0.29328
1209130;-0.00500;117.1875;179;112;0.29133
1209140;-0.00500;124.1875;179;112;0.29011
1209150;-0.00500;133.5000;179;112;0.28889
1209160;-0.00500;153.1250;179;112;0.28816
1209170;-0.00500;160.4375;179;112;0.28742
1209180;-0.00500;165.3750;179;112;0.28620
1209190;-0.00500;168.2500;179;112;0.28449
1209200;-0.00500;169.7500;179;112;0.28278
1209210;-0.00500;170.2500;179;112;0.27863
1209220;-0.00500;170.0000;179;112;0.27692
1209230;-0.00500;169.8125;179;112;0.27546
1209240;-0.00500;170.5625;179;112;0.27253
1209250;-0.00500;171.4375;179;112;0.27179
1209260;-0.00500;172.3750;179;112;0.27155
1209270;-0.00500;173.2500;179;112;0.27057
1209280;-0.00500;173.9375;179;112;0.26935
1209290;-0.00500;174.3750;179;112;0.26764
1209300;-0.00500;174.0000;179;112;0.26716
1209310;-0.00500;173.1250;179;112;0.26691
1209320;-0.00500;169.5625;179;112;0.26691
1209330;-0.00500;166.8125;179;112;0.26642
1209340;-0.00500;163.3750;179;112;0.26520
1209350;-0.00500;159.1875;179;112;0.26374
1209360;-0.00500;154.3750;179;112;0.26325
1209370;-0.00500;144.1250;179;112;0.26447
1209380;-0.00500;140.1875;179;112;0.26716
1209390;-0.00500;137.8750;179;112;0.27302
1209400;-0.00500;137.3750;179;112;0.28327
1209410;-0.00500;139.6875;179;112;0.32186
1209420;-0.00500;141.1875;179;112;0.35018
1209430;-0.00500;142.3750;179;112;0.38339
1209440;-0.00500;143.1250;179;112;0.45958
1209450;-0.00500;142.8125;179;112;0.49402
1209460;-0.00500;142.1875;179;112;0.52503
1209470;-0.00500;141.3750;179;112;0.55824
1209480;-0.00500;140.3750;179;112;0.58999
1209490;-0.00500;138.0625;179;112;0.64420
1209500;-0.00500;136.9375;179;112;0.66642
1209510;-0.00500;135.8125;179;112;0.68547
1209520;-0.00500;134.7500;179;112;0.70134
1209530;-0.00500;132.6875;179;112;0.72625
1209540;-0.00500;131.6250;179;112;0.73553
1209550;-0.00500;130.6875;179;112;0.74115
1209560;-0.00500;129.4375;179;112;0.74774
1209570;-0.00500;129.0000;179;112;0.75018
1209580;-0.00500;128.5000;179;112;0.75067
1209590;-0.00500;127.9375;179;112;0.74872
1209600;-0.00500;127.4375;179;112;0.74335
1209610;-0.00500;126.8125;179;112;0.72186
1209620;-0.00500;126.5000;179;112;0.70574
1209630;-0.00500;126.2500;179;112;0.68669
1209640;-0.00500;125.6875;179;112;0.66545
1209650;-0.00500;125.5000;179;112;0.62320
1209660;-0.00500;125.3125;179;112;0.60488
1209670;-0.00500;125.0625;179;112;0.58608
1209680;-0.00500;124.2500;179;112;0.55360
1209690;-0.00500;123.8125;179;112;0.54066
1209700;-0.00500;123.3125;179;112;0.53016
1209710;-0.00500;122.8125;179;112;0.52186
1209720;-0.00500;122.2500;179;112;0.51404
1209730;-0.00500;121.1250;179;112;0.49841
1209740;-0.00500;120.6250;179;112;0.49084
1209750;-0.00500;120.1250;179;112;0.48376
1209760;-0.00500;119.6250;179;112;0.47668
1209770;-0.00500;118.9375;179;112;0.45983
1209780;-0.00500;118.6250;179;112;0.45055
1209790;-0.00500;118.3750;179;112;0.44127
1209800;-0.00500;118.3750;179;112;0.44127
1209810;-0.00500;117.7500;179;112;0.41441
1209820;-0.00500;117.5625;179;112;0.40586
1209830;-0.00500;117.3750;179;112;0.39756
1209840;-0.00500;116.8125;179;112;0.38193
1209850;-0.00500;116.5000;179;112;0.37582
1209860;-0.00500;116.1250;179;112;0.37021
1209870;-0.00500;115.8125;179;112;0.36410
1209880;-0.00500;115.5625;179;112;0.35849
1209890;-0.00500;115.2500;179;112;0.34847
1209900;-0.00500;115.0000;179;112;0.34408
1209910;-0.00500;114.6250;179;112;0.34017
1209920;-0.00500;114.2500;179;112;0.33626
1209930;-0.00500;113.4375;179;112;0.32991
1209940;-0.00500;113.0625;179;112;0.32723
1209950;-0.00500;112.6875;179;112;0.32576
1209960;-0.00500;111.9375;179;112;0.32308
1209970;-0.00500;111.6250;179;112;0.32088
1209980;-0.00500;111.4375;179;112;0.31819
1209990;-0.00500;111.4375;179;112;0.31526
1210000;-0.00500;111.6250;180;112;0.30842
1210010;-0.00500;111.9375;180;112;0.30501
1210020;-0.00500;112.7500;180;112;0.30159
1210030;-0.00500;114.8750;180;112;0.29866
1210040;-0.00500;119.0625;180;112;0.29573
1210050;-0.00500;135.2500;180;112;0.29133
1210060;-0.00500;145.8125;180;112;0.29035
1210070;-0.00500;155.6875;180;112;0.28938
1210080;-0.00500;169.0000;180;112;0.28864
1210090;-0.00500;172.1250;180;112;0.28669
1210100;-0.00500;173.6250;180;112;0.28596
1210110;-0.00500;174.2500;180;112;0.28498
1210120;-0.00500;174.3750;180;112;0.28400
1210130;-0.00500;174.5625;180;112;0.28181
1210140;-0.00500;174.9375;180;112;0.28083
1210150;-0.00500;175.6250;180;112;0.28034
1210160;-0.00500;177.1875;180;112;0.28010
1210170;-0.00500;177.8125;180;112;0.27961
1210180;-0.00500;178.3125;180;112;0.27912
1210190;-0.00500;178.5625;180;112;0.27839
1210200;-0.00500;178.5625;180;112;0.27766
1210210;-0.00500;177.6250;180;112;0.27619
1210220;-0.00500;176.5000;180;112;0.27521
1210230;-0.00500;174.6875;180;112;0.27399
1210240;-0.00500;172.1875;180;112;0.27253
1210250;-0.00500;164.8125;180;112;0.27033
1210260;-0.00500;160.0625;180;112;0.27009
1210270;-0.00500;154.8125;180;112;0.26984
1210280;-0.00500;144.6250;180;112;0.27228
1210290;-0.00500;140.9375;180;112;0.27863
1210300;-0.00500;139.0000;180;112;0.29011
1210310;-0.00500;138.8125;180;112;0.30720
1210320;-0.00500;139.9375;180;112;0.33016
1210330;-0.00500;143.3125;180;112;0.39341
1210340;-0.00500;144.3750;180;112;0.43126
1210350;-0.00500;144.8750;180;112;0.46618
1210360;-0.00500;144.3125;180;112;0.49890
1210370;-0.00500;143.5000;180;112;0.57167
1210380;-0.00500;142.5625;180;112;0.60635
1210390;-0.00500;141.5000;180;112;0.63810
1210400;-0.00500;139.5000;180;112;0.69035
1210410;-0.00500;138.5625;180;112;0.71111
1210420;-0.00500;137.6250;180;112;0.72918
1210430;-0.00500;136.7500;180;112;0.74481
1210440;-0.00500;136.0000;180;112;0.75824
1210450;-0.00500;134.5625;180;112;0.77705
1210460;-0.00500;133.8750;180;112;0.78193
1210470;-0.00500;133.2500;180;112;0.78681
1210480;-0.00500;132.1875;180;112;0.79170
1210490;-0.00500;131.8125;180;112;0.79072
1210500;-0.00500;131.5000;180;112;0.78632
1210510;-0.00500;131.3125;180;112;0.77802
1210520;-0.00500;131.1250;180;112;0.76581
1210530;-0.00500;130.3750;180;112;0.73065
1210540;-0.00500;129.6875;180;112;0.70940
1210550;-0.00500;128.8125;180;112;0.68840
1210560;-0.00500;127.5000;180;112;0.66740
1210570;-0.00500;127.4375;180;112;0.62271
1210580;-0.00500;127.5625;180;112;0.60244
1210590;-0.00500;127.7500;180;112;0.58437
1210600;-0.00500;127.6875;180;112;0.55678
1210610;-0.00500;127.3125;180;112;0.54676
1210620;-0.00500;126.8750;180;112;0.53846
1210630;-0.00500;126.3125;180;112;0.53114
1210640;-0.00500;124.8125;180;112;0.51697
1210650;-0.00500;123.9375;180;112;0.51013
1210660;-0.00500;123.2500;180;112;0.50330
1210670;-0.00500;122.8750;180;112;0.49573
1210680;-0.00500;122.9375;180;112;0.48742
1210690;-0.00500;124.1875;180;112;0.47009
1210700;-0.00500;124.8125;180;112;0.46105
1210710;-0.00500;125.0625;180;112;0.45201
1210720;-0.00500;124.9375;180;112;0.44371
1210730;-0.00500;124.0000;180;112;0.41636
1210740;-0.00500;123.5625;180;112;0.40659
1210750;-0.00500;123.0000;180;112;0.39976
1210760;-0.00500;121.8125;180;112;0.38999
1210770;-0.00500;121.4375;180;112;0.38559
1210780;-0.00500;121.3125;180;112;0.38144
1210790;-0.00500;121.1875;180;112;0.37729
1210800;-0.00500;120.3125;180;112;0.36874
1210810;-0.00500;119.5000;180;112;0.36410
1210820;-0.00500;118.7500;180;112;0.35922
1210830;-0.00500;118.1875;180;112;0.35433
1210840;-0.00500;117.4375;180;112;0.34432
1210850;-0.00500;117.1250;180;112;0.34066
1210860;-0.00500;116.8750;180;112;0.33822
1210870;-0.00500;116.7500;180;112;0.33553
1210880;-0.00500;116.5625;180;112;0.33309
1210890;-0.00500;116.1250;180;112;0.32821
1210900;-0.00500;115.7500;180;112;0.32552
1210910;-0.00500;115.3125;180;112;0.32308
1210920;-0.00500;115.0625;180;112;0.32063
1210930;-0.00500;117.5000;180;112;0.31624
1210940;-0.00500;121.7500;180;112;0.31453
1210950;-0.00500;128.8750;180;112;0.31380
1210960;-0.00500;138.3750;180;112;0.31331
1210970;-0.00500;158.5625;180;112;0.31209
1210980;-0.00500;165.9375;180;112;0.31160
1210990;-0.00500;170.6875;180;112;0.31184
1211000;-0.00500;173.3750;179;112;0.31233
1211010;-0.00500;175.4375;179;112;0.31184
1211020;-0.00500;175.7500;179;112;0.31111
1211030;-0.00500;175.9375;179;112;0.31038
1211040;-0.00500;176.9375;179;112;0.30794
1211050;-0.00500;177.9375;179;112;0.30720
1211060;-0.00500;179.1250;179;112;0.30647
1211070;-0.00500;180.3750;179;112;0.30525
1211080;-0.00500;181.5625;179;112;0.30379
1211090;-0.00500;183.5000;179;112;0.30085
1211100;-0.00500;184.0625;179;112;0.29939
1211110;-0.00500;184.2500;179;112;0.29841
1211120;-0.00500;184.0000;179;112;0.29744
1211130;-0.00500;181.6250;179;112;0.29475
1211140;-0.00500;179.3125;179;112;0.29328
1211150;-0.00500;176.1875;179;112;0.29206
1211160;-0.00500;167.6250;179;112;0.28816
1211170;-0.00500;162.3750;179;112;0.28596
1211180;-0.00500;156.8750;179;112;0.28498
1211190;-0.00500;151.6875;179;112;0.28571
1211200;-0.00500;147.5000;179;112;0.28962
1211210;-0.00500;144.3750;179;112;0.31184
1211220;-0.00500;145.3125;179;112;0.33211
1211230;-0.00500;146.9375;179;112;0.35775
1211240;-0.00500;149.5000;179;112;0.42173
1211250;-0.00500;149.9375;179;112;0.45226
1211260;-0.00500;149.9375;179;112;0.48059
1211270;-0.00500;149.5625;179;112;0.51184
1211280;-0.00500;147.8750;179;112;0.57289
1211290;-0.00500;146.7500;179;112;0.59976
1211300;-0.00500;145.6250;179;112;0.62369
1211310;-0.00500;144.4375;179;112;0.64469
1211320;-0.00500;143.5000;179;112;0.66325
1211330;-0.00500;141.8750;179;112;0.69451
1211340;-0.00500;141.0625;179;112;0.70769
1211350;-0.00500;140.0625;179;112;0.71722
1211360;-0.00500;139.0625;179;112;0.72405
1211370;-0.00500;137.2500;179;112;0.73944
1211380;-0.00500;136.5625;179;112;0.74530
1211390;-0.00500;135.9375;179;112;0.74896
1211400;-0.00500;135.2500;179;112;0.75043
1211410;-0.00500;134.0000;179;112;0.74383
1211420;-0.00500;133.4375;179;112;0.73578
1211430;-0.00500;133.0000;179;112;0.72454
1211440;-0.00500;132.3125;179;112;0.70989
1211450;-0.00500;132.0000;179;112;0.67741
1211460;-0.00500;131.6875;179;112;0.65812
1211470;-0.00500;131.3125;179;112;0.63810
1211480;-0.00500;130.9375;179;112;0.61832
1211490;-0.00500;130.1875;179;112;0.58413
1211500;-0.00500;129.8125;179;112;0.57045
1211510;-0.00500;129.3125;179;112;0.55922
1211520;-0.00500;128.8750;179;112;0.54945
1211530;-0.00500;127.9375;179;112;0.53407
1211540;-0.00500;127.5000;179;112;0.52723
1211550;-0.00500;127.0625;179;112;0.52088
1211560;-0.00500;126.4375;179;112;0.50842
1211570;-0.00500;126.2500;179;112;0.50159
1211580;-0.00500;126.0000;179;112;0.49451
1211590;-0.00500;125.7500;179;112;0.48694
1211600;-0.00500;125.1250;179;112;0.47009
1211610;-0.00500;124.7500;179;112;0.46129
1211620;-0.00500;124.3125;179;112;0.45250
1211630;-0.00500;123.9375;179;112;0.44396
1211640;-0.00500;123.5625;179;112;0.43590
1211650;-0.00500;122.8125;179;112;0.42295
1211660;-0.00500;122.3125;179;112;0.41636
1211670;-0.00500;121.8125;179;112;0.40977
1211680;-0.00500;121.2500;179;112;0.40317
1211690;-0.00500;120.1250;179;112;0.39096
1211700;-0.00500;119.6875;179;112;0.38559
1211710;-0.00500;119.3125;179;112;0.38046
1211720;-0.00500;118.5625;179;112;0.37070
1211730;-0.00500;118.2500;179;112;0.36630
1211740;-0.00500;118.0000;179;112;0.36215
1211750;-0.00500;117.7500;179;112;0.35897
1211760;-0.00500;117.3750;179;112;0.35263
1211770;-0.00500;117.1250;179;112;0.34896
1211780;-0.00500;116.8750;179;112;0.34505
1211790;-0.00500;116.5000;179;112;0.34139
1211800;-0.00500;116.0625;179;112;0.33797
1211810;-0.00500;116.0625;179;112;0.33797
1211820;-0.00500;115.1250;179;112;0.32918
1211830;-0.00500;115.3750;179;112;0.32650
1211840;-0.00500;120.1250;179;112;0.32210
1211850;-0.00500;126.1250;179;112;0.32039
1211860;-0.00500;134.8125;179;112;0.31844
1211870;-0.00500;145.1250;179;112;0.31624
1211880;-0.00500;155.3125;179;112;0.31380
1211890;-0.00500;170.0625;179;112;0.30965
1211900;-0.00500;174.0000;179;112;0.30769
1211910;-0.00500;176.2500;179;112;0.30598
1211920;-0.00500;177.4375;179;112;0.30427
1211930;-0.00500;178.1875;179;112;0.30061
1211940;-0.00500;178.3750;179;112;0.29841
1211950;-0.00500;178.6875;179;112;0.29670
1211960;-0.00500;180.0625;179;112;0.29328
1211970;-0.00500;181.0000;179;112;0.29084
1211980;-0.00500;181.9375;179;112;0.28840
1211990;-0.00500;182.8750;179;112;0.28620
1212000;-0.00500;183.5625;178;112;0.28449
1212010;-0.00500;184.5000;178;112;0.28230
1212020;-0.00500;184.6250;178;112;0.28132
1212030;-0.00500;184.3125;178;112;0.28034
1212040;-0.00500;183.3750;178;112;0.27912
1212050;-0.00500;179.4375;178;112;0.27814
1212060;-0.00500;176.2500;178;112;0.27692
1212070;-0.00500;172.2500;178;112;0.27570
1212080;-0.00500;162.3125;178;112;0.27497
1212090;-0.00500;157.0000;178;112;0.27668
1212100;-0.00500;152.1250;178;112;0.28107
1212110;-0.00500;148.4375;178;112;0.28938
1212120;-0.00500;146.4375;178;112;0.30232
1212130;-0.00500;146.6875;178;112;0.34335
1212140;-0.00500;147.8125;178;112;0.37143
1212150;-0.00500;148.8125;178;112;0.39853
1212160;-0.00500;149.3750;178;112;0.42589
1212170;-0.00500;149.0625;178;112;0.49182
1212180;-0.00500;148.2500;178;112;0.52503
1212190;-0.00500;147.2500;178;112;0.55629
1212200;-0.00500;145.0000;178;112;0.58510
1212210;-0.00500;143.8750;178;112;0.63370
1212220;-0.00500;142.8750;178;112;0.65348
1212230;-0.00500;142.0000;178;112;0.67106
1212240;-0.00500;141.1875;178;112;0.68645
1212250;-0.00500;139.6250;178;112;0.70574
1212260;-0.00500;138.8125;178;112;0.71453
1212270;-0.00500;138.0000;178;112;0.72259
1212280;-0.00500;136.3750;178;112;0.73553
1212290;-0.00500;135.6875;178;112;0.73944
1212300;-0.00500;135.0000;178;112;0.74139
1212310;-0.00500;134.3125;178;112;0.74066
1212320;-0.00500;133.6875;178;112;0.73700
1212330;-0.00500;132.5000;178;112;0.71966
1212340;-0.00500;132.0000;178;112;0.70598
1212350;-0.00500;131.5000;178;112;0.69109
1212360;-0.00500;131.0000;178;112;0.67448
1212370;-0.00500;129.8125;178;112;0.63419
1212380;-0.00500;129.2500;178;112;0.61294
1212390;-0.00500;128.6875;178;112;0.59219
1212400;-0.00500;128.1875;178;112;0.57265
1212410;-0.00500;127.3750;178;112;0.53895
1212420;-0.00500;127.0000;178;112;0.52503
1212430;-0.00500;126.6875;178;112;0.51258
1212440;-0.00500;126.0625;178;112;0.49231
1212450;-0.00500;125.6250;178;112;0.48376
1212460;-0.00500;125.1250;178;112;0.47473
1212470;-0.00500;124.7500;178;112;0.46520
1212480;-0.00500;124.2500;178;112;0.44591
1212490;-0.00500;123.9375;178;112;0.43663
1212500;-0.00500;123.6250;178;112;0.42735
1212510;-0.00500;123.4375;178;112;0.41832
1212520;-0.00500;123.2500;178;112;0.40952
1212530;-0.00500;122.5625;178;112;0.39292
1212540;-0.00500;122.1250;178;112;0.38510
1212550;-0.00500;121.6875;178;112;0.37851
1212560;-0.00500;121.1875;178;112;0.37241
1212570;-0.00500;120.1250;178;112;0.35922
1212580;-0.00500;119.4375;178;112;0.35263
1212590;-0.00500;118.8125;178;112;0.34603
1212600;-0.00500;117.6250;178;112;0.33407
1212610;-0.00500;117.0625;178;112;0.32869
1212620;-0.00500;116.5625;178;112;0.32332
1212630;-0.00500;116.1250;178;112;0.31795
1212640;-0.00500;115.6250;178;112;0.30867
1212650;-0.00500;115.4375;178;112;0.30549
1212660;-0.00500;115.2500;178;112;0.30183
1212670;-0.00500;115.0000;178;112;0.29792
1212680;-0.00500;114.7500;178;112;0.29451
1212690;-0.00500;114.4375;178;112;0.28791
1212700;-0.00500;114.3125;178;112;0.28498
1212710;-0.00500;114.1875;178;112;0.28230
1212720;-0.00500;114.0000;178;112;0.27961
1212730;-0.00500;113.7500;178;112;0.27473
1212740;-0.00500;114.1250;178;112;0.27228
1212750;-0.00500;115.5000;178;112;0.27057
1212760;-0.00500;118.4375;178;112;0.26935
1212770;-0.00500;131.3125;178;112;0.26276
1212780;-0.00500;140.5625;178;112;0.25568
1212790;-0.00500;149.8750;178;112;0.25177
1212800;-0.00500;163.7500;178;112;0.24689
1212810;-0.00500;163.7500;178;112;0.24689
1212820;-0.00500;169.6250;178;112;0.24347
1212830;-0.00500;170.6875;178;112;0.24225
1212840;-0.00500;171.0625;178;112;0.24103
1212850;-0.00500;171.0000;178;112;0.24151
1212860;-0.00500;171.1875;178;112;0.24127
1212870;-0.00500;171.5625;178;112;0.24078
1212880;-0.00500;172.1250;178;112;0.24005
1212890;-0.00500;173.3125;178;112;0.23761
1212900;-0.00500;173.6250;178;112;0.23663
1212910;-0.00500;173.6875;178;112;0.23565
1212920;-0.00500;172.9375;178;112;0.23321
1212930;-0.00500;171.8750;178;112;0.23248
1212940;-0.00500;170.2500;178;112;0.23150
1212950;-0.00500;168.0000;178;112;0.23150
1212960;-0.00500;164.8750;178;112;0.23199
1212970;-0.00500;156.3125;178;112;0.23150
1212980;-0.00500;151.0625;178;112;0.23053
1212990;-0.00500;145.6250;178;112;0.22955
1213000;-0.00500;137.3750;178;112;0.23028
1213010;-0.00500;136.0000;178;112;0.23346
1213020;-0.00500;136.6250;178;112;0.24005
1213030;-0.00500;138.5625;178;112;0.25104
1213040;-0.00500;142.7500;178;112;0.28498
1213050;-0.00500;143.9375;178;112;0.30574
1213060;-0.00500;144.4375;178;112;0.33260
1213070;-0.00500;144.2500;178;112;0.36361
1213080;-0.00500;143.6250;178;112;0.39658
1213090;-0.00500;141.5000;178;112;0.46227
1213100;-0.00500;140.2500;178;112;0.49231
1213110;-0.00500;139.0000;178;112;0.51990
1213120;-0.00500;137.8750;178;112;0.54432
1213130;-0.00500;135.9375;178;112;0.58437
1213140;-0.00500;135.1250;178;112;0.60024
1213150;-0.00500;134.3125;178;112;0.61172
1213160;-0.00500;133.5000;178;112;0.62027
1213170;-0.00500;131.8125;178;112;0.63565
1213180;-0.00500;131.0000;178;112;0.64151
1213190;-0.00500;130.1875;178;112;0.64542
1213200;-0.00500;128.7500;178;112;0.64640
1213210;-0.00500;128.1250;178;112;0.64298
1213220;-0.00500;127.5625;178;112;0.63614
1213230;-0.00500;127.0000;178;112;0.62589
1213240;-0.00500;126.5625;178;112;0.61270
1213250;-0.00500;125.7500;178;112;0.58291
1213260;-0.00500;125.3750;178;112;0.56410
1213270;-0.00500;125.0000;178;112;0.54359
1213280;-0.00500;124.6250;178;112;0.52283
1213290;-0.00500;123.8125;178;112;0.48571
1213300;-0.00500;123.4375;178;112;0.47106
1213310;-0.00500;123.1250;178;112;0.45885
1213320;-0.00500;122.7500;178;112;0.44884
1213330;-0.00500;122.1250;178;112;0.43419
1213340;-0.00500;121.8125;178;112;0.42882
1213350;-0.00500;121.5625;178;112;0.42393
1213360;-0.00500;121.0625;178;112;0.41245
1213370;-0.00500;120.8125;178;112;0.40610
1213380;-0.00500;120.5625;178;112;0.39951
1213390;-0.00500;120.3125;178;112;0.39267
1213400;-0.00500;120.0625;178;112;0.38559
1213410;-0.00500;119.3125;178;112;0.37094
1213420;-0.00500;118.8125;178;112;0.36337
1213430;-0.00500;118.3125;178;112;0.35604
1213440;-0.00500;117.7500;178;112;0.34896
1213450;-0.00500;116.6875;178;112;0.33724
1213460;-0.00500;116.1250;178;112;0.33114
1213470;-0.00500;115.5625;178;112;0.32479
1213480;-0.00500;115.0625;178;112;0.31844
1213490;-0.00500;114.2500;178;112;0.30623
1213500;-0.00500;113.9375;178;112;0.30061
1213510;-0.00500;113.6875;178;112;0.29597
1213520;-0.00500;113.5000;178;112;0.29182
1213530;-0.00500;113.3125;178;112;0.28523
1213540;-0.00500;113.3125;178;112;0.28376
1213550;-0.00500;113.3750;178;112;0.28254
1213560;-0.00500;113.3750;178;112;0.27863
1213570;-0.00500;113.3125;178;112;0.27619
1213580;-0.00500;113.1875;178;112;0.27399
1213590;-0.00500;112.9375;178;112;0.27179
1213600;-0.00500;112.6250;178;112;0.27009
1213610;-0.00500;111.8750;178;112;0.26789
1213620;-0.00500;111.5000;178;112;0.26691
1213630;-0.00500;111.2500;178;112;0.26593
1213640;-0.00500;111.3750;178;112;0.26496
1213650;-0.00500;114.7500;178;112;0.26496
1213660;-0.00500;119.3750;178;112;0.26447
1213670;-0.00500;126.3750;178;112;0.26398
1213680;-0.00500;135.2500;178;112;0.26349
1213690;-0.00500;152.9375;178;112;0.26227
1213700;-0.00500;159.3125;178;112;0.26154
1213710;-0.00500;163.5625;178;112;0.26081
1213720;-0.00500;167.5625;178;112;0.25958
1213730;-0.00500;168.2500;178;112;0.25885
1213740;-0.00500;168.6250;178;112;0.25861
1213750;-0.00500;168.8125;178;112;0.25910
1213760;-0.00500;169.1250;178;112;0.25934
1213770;-0.00500;170.4375;178;112;0.26007
1213780;-0.00500;171.3750;178;112;0.26081
1213790;-0.00500;172.2500;178;112;0.26154
1213800;-0.00500;173.0000;178;112;0.26252
1213810;-0.00500;173.5625;178;112;0.26422
1213820;-0.00500;173.2500;178;112;0.26496
1213830;-0.00500;172.4375;178;112;0.26593
1213840;-0.00500;171.0625;178;112;0.26667
1213850;-0.00500;166.0625;178;112;0.26838
1213860;-0.00500;162.3750;178;112;0.26838
1213870;-0.00500;157.8125;178;112;0.26789
1213880;-0.00500;147.1250;178;112;0.26667
1213890;-0.00500;141.8125;178;112;0.26618
1213900;-0.00500;137.6250;178;112;0.26618
1213910;-0.00500;135.3125;178;112;0.26764
1213920;-0.00500;135.0625;178;112;0.27179
1213930;-0.00500;138.5000;178;112;0.29451
1213940;-0.00500;140.3750;178;112;0.31111
1213950;-0.00500;141.6250;178;112;0.33040
1213960;-0.00500;142.1250;178;112;0.38681
1213970;-0.00500;141.6250;178;112;0.42002
1213980;-0.00500;140.8125;178;112;0.45446
1213990;-0.00500;139.6875;178;112;0.48791
1214000;-0.00500;137.3750;178;112;0.54774
1214010;-0.00500;136.3750;178;112;0.57314
1214020;-0.00500;135.5625;178;112;0.59585
1214030;-0.00500;134.8750;178;112;0.61538
1214040;-0.00500;133.6250;178;112;0.63248
1214050;-0.00500;132.9375;178;112;0.65421
1214060;-0.00500;132.2500;178;112;0.66374
1214070;-0.00500;131.5000;178;112;0.67277
1214080;-0.00500;130.0625;178;112;0.68669
1214090;-0.00500;129.3750;178;112;0.69060
1214100;-0.00500;128.6875;178;112;0.69206
1214110;-0.00500;128.0625;178;112;0.69011
1214120;-0.00500;127.5000;178;112;0.68474
1214130;-0.00500;126.4375;178;112;0.66252
1214140;-0.00500;126.0000;178;112;0.64786
1214150;-0.00500;125.6250;178;112;0.63150
1214160;-0.00500;125.3750;178;112;0.61221
1214170;-0.00500;124.9375;178;112;0.56947
1214180;-0.00500;124.6250;178;112;0.54823
1214190;-0.00500;124.3750;178;112;0.52821
1214200;-0.00500;124.0000;178;112;0.51038
1214210;-0.00500;123.1250;178;112;0.48156
1214220;-0.00500;122.6250;178;112;0.47009
1214230;-0.00500;122.1250;178;112;0.46056
1214240;-0.00500;121.2500;178;112;0.44567
1214250;-0.00500;120.8750;178;112;0.43932
1214260;-0.00500;120.5000;178;112;0.43297
1214270;-0.00500;120.1250;178;112;0.42686
1214280;-0.00500;119.5625;178;112;0.41319
1214290;-0.00500;119.3750;178;112;0.40610
1214300;-0.00500;119.2500;178;112;0.39902
1214310;-0.00500;119.1250;178;112;0.39194
1214320;-0.00500;119.0625;178;112;0.38486
1214330;-0.00500;118.8125;178;112;0.37094
1214340;-0.00500;118.6250;178;112;0.36484
1214350;-0.00500;118.3750;178;112;0.35897
1214360;-0.00500;117.5000;178;112;0.34579
1214370;-0.00500;117.0000;178;112;0.33895
1214380;-0.00500;116.4375;178;112;0.33211
1214390;-0.00500;115.8750;178;112;0.32552
1214400;-0.00500;114.8750;178;112;0.31453
1214410;-0.00500;114.3750;178;112;0.30989
1214420;-0.00500;113.9375;178;112;0.30549
1214430;-0.00500;113.5625;178;112;0.30134
1214440;-0.00500;113.0625;178;112;0.29499
1214450;-0.00500;112.8125;178;112;0.29353
1214460;-0.00500;112.6250;178;112;0.29182
1214470;-0.00500;112.3750;178;112;0.29011
1214480;-0.00500;112.1250;178;112;0.28840
1214490;-0.00500;112.0625;178;112;0.28498
1214500;-0.00500;112.0000;178;112;0.28303
1214510;-0.00500;111.8750;178;112;0.28034
1214520;-0.00500;111.6875;178;112;0.27717
1214530;-0.00500;110.9375;178;112;0.27204
1214540;-0.00500;110.8750;178;112;0.27057
1214550;-0.00500;111.5625;178;112;0.26984
1214560;-0.00500;113.6250;178;112;0.26911
1214570;-0.00500;124.3750;178;112;0.26764
1214580;-0.00500;133.1875;178;112;0.26691
1214590;-0.00500;143.0000;178;112;0.26691
1214600;-0.00500;159.3750;178;112;0.26789
1214610;-0.00500;164.2500;178;112;0.26838
1214620;-0.00500;167.1875;178;112;0.26838
1214630;-0.00500;168.7500;178;112;0.26838
1214640;-0.00500;169.5000;178;112;0.26838
1214650;-0.00500;169.9375;178;112;0.26838
1214660;-0.00500;170.1250;178;112;0.26789
1214670;-0.00500;170.6250;178;112;0.26740
1214680;-0.00500;171.4375;178;112;0.26667
1214690;-0.00500;173.5000;178;112;0.26496
1214700;-0.00500;174.4375;178;112;0.26447
1214710;-0.00500;175.1875;178;112;0.26422
1214720;-0.00500;175.8750;178;112;0.26422
1214730;-0.00500;175.6875;178;112;0.26374
1214740;-0.00500;174.8750;178;112;0.26374
1214750;-0.00500;173.5000;178;112;0.26398
1214760;-0.00500;168.4375;178;112;0.26300
1214770;-0.00500;164.6250;178;112;0.26227
1214780;-0.00500;160.0625;178;112;0.26154
1214790;-0.00500;154.8750;178;112;0.26081
1214800;-0.00500;144.1875;178;112;0.26081
1214810;-0.00500;144.1875;178;112;0.26081
1214820;-0.00500;137.6250;178;112;0.27350
1214830;-0.00500;137.2500;178;112;0.29158
1214840;-0.00500;140.4375;178;112;0.32918
1214850;-0.00500;142.3750;178;112;0.35043
1214860;-0.00500;143.7500;178;112;0.37827
1214870;-0.00500;144.3750;178;112;0.41148
1214880;-0.00500;143.8750;178;112;0.48547
1214890;-0.00500;143.0000;178;112;0.52259
1214900;-0.00500;141.8125;178;112;0.55775
1214910;-0.00500;140.5000;178;112;0.58999
1214920;-0.00500;139.1250;178;112;0.61905
1214930;-0.00500;136.8125;178;112;0.66813
1214940;-0.00500;135.8125;178;112;0.68498
1214950;-0.00500;134.8750;178;112;0.69841
1214960;-0.00500;134.0625;178;112;0.71184
1214970;-0.00500;132.5625;178;112;0.73553
1214980;-0.00500;131.9375;178;112;0.74530
1214990;-0.00500;131.3750;178;112;0.75311
1215000;-0.00500;130.3750;179;112;0.76239
1215010;-0.00500;129.9375;179;112;0.76264
1215020;-0.00500;129.5000;179;112;0.75971
1215030;-0.00500;129.1250;179;112;0.75336
1215040;-0.00500;128.1875;179;112;0.73187
1215050;-0.00500;127.7500;179;112;0.71648
1215060;-0.00500;127.2500;179;112;0.69768
1215070;-0.00500;126.7500;179;112;0.67619
1215080;-0.00500;126.2500;179;112;0.65299
1215090;-0.00500;125.2500;179;112;0.60635
1215100;-0.00500;124.7500;179;112;0.58486
1215110;-0.00500;124.1875;179;112;0.56557
1215120;-0.00500;123.1875;179;112;0.54872
1215130;-0.00500;122.6875;179;112;0.52234
1215140;-0.00500;122.2500;179;112;0.51258
1215150;-0.00500;121.8125;179;112;0.50427
1215160;-0.00500;121.0625;179;112;0.48864
1215170;-0.00500;120.6250;179;112;0.48083
1215180;-0.00500;120.2500;179;112;0.47277
1215190;-0.00500;119.9375;179;112;0.46471
1215200;-0.00500;119.6250;179;112;0.45641
1215210;-0.00500;119.5625;179;112;0.43932
1215220;-0.00500;119.5000;179;112;0.43028
1215230;-0.00500;119.4375;179;112;0.42125
1215240;-0.00500;119.0625;179;112;0.40659
1215250;-0.00500;118.8750;179;112;0.39902
1215260;-0.00500;118.5625;179;112;0.39121
1215270;-0.00500;118.1875;179;112;0.38339
1215280;-0.00500;117.6875;179;112;0.37582
1215290;-0.00500;116.4375;179;112;0.36142
1215300;-0.00500;115.8125;179;112;0.35531
1215310;-0.00500;115.1250;179;112;0.34994
1215320;-0.00500;114.0000;179;112;0.34505
1215330;-0.00500;113.5625;179;112;0.33578
1215340;-0.00500;113.1875;179;112;0.33211
1215350;-0.00500;112.8750;179;112;0.32894
1215360;-0.00500;112.6875;179;112;0.32552
1215370;-0.00500;112.4375;179;112;0.31844
1215380;-0.00500;112.3750;179;112;0.31477
1215390;-0.00500;112.3125;179;112;0.31136
1215400;-0.00500;112.0625;179;112;0.30574
1215410;-0.00500;111.8750;179;112;0.30354
1215420;-0.00500;111.6250;179;112;0.30159
1215430;-0.00500;111.3750;179;112;0.29963
1215440;-0.00500;111.2500;179;112;0.29841
1215450;-0.00500;112.6250;179;112;0.29621
1215460;-0.00500;115.5000;179;112;0.29475
1215470;-0.00500;120.7500;179;112;0.29377
1215480;-0.00500;138.0000;179;112;0.29182
1215490;-0.00500;147.8125;179;112;0.29109
1215500;-0.00500;156.3750;179;112;0.29060
1215510;-0.00500;162.6875;179;112;0.29035
1215520;-0.00500;166.7500;179;112;0.29011
1215530;-0.00500;170.1875;179;112;0.28938
1215540;-0.00500;170.6250;179;112;0.28938
1215550;-0.00500;170.7500;179;112;0.28987
1215560;-0.00500;171.0000;179;112;0.28987
1215570;-0.00500;171.3125;179;112;0.28938
1215580;-0.00500;171.9375;179;112;0.28864
1215590;-0.00500;172.6875;179;112;0.28816
1215600;-0.00500;173.4375;179;112;0.28767
1215610;-0.00500;174.3750;179;112;0.28669
1215620;-0.00500;174.4375;179;112;0.28596
1215630;-0.00500;174.1875;179;112;0.28523
1215640;-0.00500;173.5625;179;112;0.28498
1215650;-0.00500;170.7500;179;112;0.28474
1215660;-0.00500;168.2500;179;112;0.28400
1215670;-0.00500;165.0000;179;112;0.28327
1215680;-0.00500;156.1875;179;112;0.28230
1215690;-0.00500;150.8125;179;112;0.28083
1215700;-0.00500;145.4375;179;112;0.28083
1215710;-0.00500;140.6250;179;112;0.28181
1215720;-0.00500;136.1875;179;112;0.29255
1215730;-0.00500;136.9375;179;112;0.30403
1215740;-0.00500;138.8125;179;112;0.31795
1215750;-0.00500;141.0000;179;112;0.33578
1215760;-0.00500;142.6875;179;112;0.36044
1215770;-0.00500;143.8125;179;112;0.42442
1215780;-0.00500;143.5000;179;112;0.46105
1215790;-0.00500;142.8125;179;112;0.49841
1215800;-0.00500;141.8750;179;112;0.53480
1215810;-0.00500;139.5625;179;112;0.60024
1215820;-0.00500;138.4375;179;112;0.62808
1215830;-0.00500;137.4375;179;112;0.65250
1215840;-0.00500;135.6875;179;112;0.68474
1215850;-0.00500;134.8750;179;112;0.69890
1215860;-0.00500;134.0625;179;112;0.71160
1215870;-0.00500;133.2500;179;112;0.72259
1215880;-0.00500;132.4375;179;112;0.73211
1215890;-0.00500;131.0000;179;112;0.74457
1215900;-0.00500;130.3125;179;112;0.74750
1215910;-0.00500;129.7500;179;112;0.74774
1215920;-0.00500;129.1875;179;112;0.74554
1215930;-0.00500;128.1875;179;112;0.73138
1215940;-0.00500;127.6875;179;112;0.72039
1215950;-0.00500;127.1875;179;112;0.70696
1215960;-0.00500;126.2500;179;112;0.67057
1215970;-0.00500;125.8125;179;112;0.64835
1215980;-0.00500;125.3750;179;112;0.62515
1215990;-0.00500;125.0000;179;112;0.60220
1216000;-0.00500;124.2500;179;113;0.56044
1216010;-0.00500;123.8125;179;113;0.54310
1216020;-0.00500;123.4375;179;113;0.52845
1216030;-0.00500;123.0625;179;113;0.51624
1216040;-0.00500;122.3125;179;113;0.49817
1216050;-0.00500;122.0000;179;113;0.49035
1216060;-0.00500;121.7500;179;113;0.48278
1216070;-0.00500;121.5625;179;113;0.47546
1216080;-0.00500;121.3750;179;113;0.46813
1216090;-0.00500;121.0625;179;113;0.45250
1216100;-0.00500;120.9375;179;113;0.44444
1216110;-0.00500;120.8125;179;113;0.43614
1216120;-0.00500;120.6250;179;113;0.42735
1216130;-0.00500;120.1875;179;113;0.41026
1216140;-0.00500;119.8750;179;113;0.40293
1216150;-0.00500;119.5000;179;113;0.39634
1216160;-0.00500;118.5625;179;113;0.38193
1216170;-0.00500;118.0000;179;113;0.37485
1216180;-0.00500;117.4375;179;113;0.36801
1216190;-0.00500;116.8750;179;113;0.36093
1216200;-0.00500;116.2500;179;113;0.35458
1216210;-0.00500;115.1875;179;113;0.34237
1216220;-0.00500;114.6875;179;113;0.33724
1216230;-0.00500;114.3125;179;113;0.33236
1216240;-0.00500;114.0000;179;113;0.32845
1216250;-0.00500;113.5625;179;113;0.32308
1216260;-0.00500;113.4375;179;113;0.32063
1216270;-0.00500;113.3125;179;113;0.31795
1216280;-0.00500;112.9375;179;113;0.31551
1216290;-0.00500;112.6875;179;113;0.31087
1216300;-0.00500;112.4375;179;113;0.30891
1216310;-0.00500;112.2500;179;113;0.30696
1216320;-0.00500;112.0625;179;113;0.30501
1216330;-0.00500;112.4375;179;113;0.30134
1216340;-0.00500;113.8750;179;113;0.30012
1216350;-0.00500;117.1250;179;113;0.29939
1216360;-0.00500;122.9375;179;113;0.29792
1216370;-0.00500;141.4375;179;113;0.29499
1216380;-0.00500;151.6875;179;113;0.29377
1216390;-0.00500;160.4375;179;113;0.29304
1216400;-0.00500;166.8125;179;113;0.29255
1216410;-0.00500;172.8125;179;113;0.29255
1216420;-0.00500;173.6250;179;113;0.29255
1216430;-0.00500;173.8125;179;113;0.29231
1216440;-0.00500;173.6875;179;113;0.29255
1216450;-0.00500;173.6250;179;113;0.29206
1216460;-0.00500;173.9375;179;113;0.29133
1216470;-0.00500;174.6250;179;113;0.29035
1216480;-0.00500;176.5000;179;113;0.28816
1216490;-0.00500;177.3750;179;113;0.28718
1216500;-0.00500;178.1250;179;113;0.28620
1216510;-0.00500;178.6250;179;113;0.28523
1216520;-0.00500;178.8750;179;113;0.28425
1216530;-0.00500;178.1875;179;113;0.28230
1216540;-0.00500;176.9375;179;113;0.28205
1216550;-0.00500;174.9375;179;113;0.28230
1216560;-0.00500;172.1250;179;113;0.28181
1216570;-0.00500;164.0625;179;113;0.28059
1216580;-0.00500;159.0000;179;113;0.27961
1216590;-0.00500;153.5000;179;113;0.27912
1216600;-0.00500;143.9375;179;113;0.28034
1216610;-0.00500;141.4375;179;113;0.29255
1216620;-0.00500;140.8750;179;113;0.30549
1216630;-0.00500;141.8750;179;113;0.32405
1216640;-0.00500;143.6250;179;113;0.34481
1216650;-0.00500;146.6875;179;113;0.40000
1216660;-0.00500;147.2500;179;113;0.43639
1216670;-0.00500;147.2500;179;113;0.47546
1216680;-0.00500;145.9375;179;113;0.51551
1216690;-0.00500;144.8750;179;113;0.59023
1216700;-0.00500;143.6250;179;113;0.62320
1216710;-0.00500;142.4375;179;113;0.65250
1216720;-0.00500;141.3125;179;113;0.67839
1216730;-0.00500;139.4375;179;113;0.72039
1216740;-0.00500;138.6250;179;113;0.73431
1216750;-0.00500;137.8125;179;113;0.74481
1216760;-0.00500;136.2500;179;113;0.76654
1216770;-0.00500;135.5625;179;113;0.77534
1216780;-0.00500;134.8750;179;113;0.78242
1216790;-0.00500;134.2500;179;113;0.78779
1216800;-0.00500;133.0000;179;113;0.79194
1216810;-0.00500;133.0000;179;113;0.79194
1216820;-0.00500;131.8125;179;113;0.78413
1216830;-0.00500;131.2500;179;113;0.77534
1216840;-0.00500;130.3125;179;113;0.75067
1216850;-0.00500;129.8750;179;113;0.73333
1216860;-0.00500;129.4375;179;113;0.71306
1216870;-0.00500;128.8750;179;113;0.68083
1216880;-0.00500;128.3125;179;113;0.64322
1216890;-0.00500;127.0000;179;113;0.58852
1216900;-0.00500;126.3750;179;113;0.56752
1216910;-0.00500;125.8125;179;113;0.54969
1216920;-0.00500;125.0000;179;113;0.53431
1216930;-0.00500;124.8750;179;113;0.51111
1216940;-0.00500;124.8750;179;113;0.50208
1216950;-0.00500;124.9375;179;113;0.49328
1216960;-0.00500;125.0000;179;113;0.47692
1216970;-0.00500;125.0625;179;113;0.46886
1216980;-0.00500;125.1875;179;113;0.46056
1216990;-0.00500;125.3750;179;113;0.45201
1217000;-0.00500;125.5000;178;113;0.44298
1217010;-0.00500;125.3750;178;113;0.42466
1217020;-0.00500;125.1250;178;113;0.41563
1217030;-0.00500;124.6875;178;113;0.40684
1217040;-0.00500;124.1250;178;113;0.39927
1217050;-0.00500;122.5000;178;113;0.38510
1217060;-0.00500;121.5625;178;113;0.37778
1217070;-0.00500;120.6250;178;113;0.37021
1217080;-0.00500;118.8750;178;113;0.36288
1217090;-0.00500;118.1875;178;113;0.35018
1217100;-0.00500;117.5625;178;113;0.34457
1217110;-0.00500;116.9375;178;113;0.33895
1217120;-0.00500;116.3125;178;113;0.33358
1217130;-0.00500;115.6250;178;113;0.32405
1217140;-0.00500;115.5625;178;113;0.32063
1217150;-0.00500;115.4375;178;113;0.31673
1217160;-0.00500;115.0000;178;113;0.30891
1217170;-0.00500;114.8125;178;113;0.30574
1217180;-0.00500;114.6875;178;113;0.30281
1217190;-0.00500;114.5625;178;113;0.29988
1217200;-0.00500;114.4375;178;113;0.29670
1217210;-0.00500;114.5000;178;113;0.29133
1217220;-0.00500;115.0000;178;113;0.28938
1217230;-0.00500;116.3750;178;113;0.28791
1217240;-0.00500;119.4375;178;113;0.28767
1217250;-0.00500;133.0625;178;113;0.28913
1217260;-0.00500;143.0625;178;113;0.29035
1217270;-0.00500;153.3750;178;113;0.29158
1217280;-0.00500;169.1875;178;113;0.29328
1217290;-0.00500;173.5000;178;113;0.29280
1217300;-0.00500;176.0625;178;113;0.29182
1217310;-0.00500;177.3750;178;113;0.28987
1217320;-0.00500;178.0000;178;113;0.28694
1217330;-0.00500;178.3125;178;113;0.28010
1217340;-0.00500;178.5625;178;113;0.27741
1217350;-0.00500;179.0000;178;113;0.27399
1217360;-0.00500;179.7500;178;113;0.26984
1217370;-0.00500;181.6250;178;113;0.26203
1217380;-0.00500;182.4375;178;113;0.25885
1217390;-0.00500;183.1250;178;113;0.25592
1217400;-0.00500;183.9375;178;113;0.25324
1217410;-0.00500;183.9375;178;113;0.24786
1217420;-0.00500;183.5625;178;113;0.24518
1217430;-0.00500;182.6875;178;113;0.24274
1217440;-0.00500;178.8750;178;113;0.24005
1217450;-0.00500;175.8125;178;113;0.23858
1217460;-0.00500;172.0000;178;113;0.23761
1217470;-0.00500;167.4375;178;113;0.23712
1217480;-0.00500;156.8125;178;113;0.23687
1217490;-0.00500;151.6250;178;113;0.24078
1217500;-0.00500;147.6250;178;113;0.24811
1217510;-0.00500;145.4375;178;113;0.26032
1217520;-0.00500;146.6250;178;113;0.30256
1217530;-0.00500;148.6875;178;113;0.32747
1217540;-0.00500;150.5625;178;113;0.35458
1217550;-0.00500;151.6875;178;113;0.38828
1217560;-0.00500;151.6875;178;113;0.42589
1217570;-0.00500;150.9375;178;113;0.50330
1217580;-0.00500;149.8750;178;113;0.53993
1217590;-0.00500;148.6875;178;113;0.57387
1217600;-0.00500;147.5000;178;113;0.60415
1217610;-0.00500;145.1250;178;113;0.65372
1217620;-0.00500;144.0625;178;113;0.67399
1217630;-0.00500;143.0625;178;113;0.69182
1217640;-0.00500;142.0625;178;113;0.70476
1217650;-0.00500;140.1250;178;113;0.72552
1217660;-0.00500;139.1875;178;113;0.73578
1217670;-0.00500;138.3125;178;113;0.74505
1217680;-0.00500;137.4375;178;113;0.75263
1217690;-0.00500;135.8750;178;113;0.76068
1217700;-0.00500;135.2500;178;113;0.76093
1217710;-0.00500;134.6250;178;113;0.75849
1217720;-0.00500;133.6875;178;113;0.74408
1217730;-0.00500;133.2500;178;113;0.73284
1217740;-0.00500;132.8750;178;113;0.71966
1217750;-0.00500;132.5000;178;113;0.70379
1217760;-0.00500;132.0625;178;113;0.68547
1217770;-0.00500;131.1875;178;113;0.64444
1217780;-0.00500;130.6875;178;113;0.62418
1217790;-0.00500;130.2500;178;113;0.60513
1217800;-0.00500;129.7500;178;113;0.58779
1217810;-0.00500;128.8125;178;113;0.55946
1217820;-0.00500;128.3125;178;113;0.54799
1217830;-0.00500;127.8125;178;113;0.53797
1217840;-0.00500;127.1250;178;113;0.52186
1217850;-0.00500;126.8125;178;113;0.51404
1217860;-0.00500;126.3125;178;113;0.50574
1217870;-0.00500;125.6875;178;113;0.49719
1217880;-0.00500;124.3750;178;113;0.48010
1217890;-0.00500;123.8125;178;113;0.47082
1217900;-0.00500;123.3125;178;113;0.46154
1217910;-0.00500;122.9375;178;113;0.45250
1217920;-0.00500;122.3750;178;113;0.43468
1217930;-0.00500;122.0625;178;113;0.42735
1217940;-0.00500;121.8125;178;113;0.42051
1217950;-0.00500;121.7396;178;113;0.41807
1217960;-0.00500;121.5000;178;113;0.41294
1217970;-0.00500;120.7500;178;113;0.39805
1217980;-0.00500;120.4375;178;113;0.39096
1217990;-0.00500;120.1250;178;113;0.38413
1218000;-0.00500;119.8750;178;113;0.37753
1218010;-0.00500;119.5000;178;113;0.36508
1218020;-0.00500;119.3750;178;113;0.35873
1218030;-0.00500;119.1875;178;113;0.35287
1218040;-0.00500;118.6875;178;113;0.34261
1218050;-0.00500;118.3125;178;113;0.33846
1218060;-0.00500;117.9375;178;113;0.33407
1218070;-0.00500;117.5625;178;113;0.32967
1218080;-0.00500;117.0625;178;113;0.32527
1218090;-0.00500;116.0000;178;113;0.31746
1218100;-0.00500;115.4375;178;113;0.31331
1218110;-0.00500;114.8750;178;113;0.30891
1218120;-0.00500;114.4375;178;113;0.30501
1218130;-0.00500;114.0000;178;113;0.29744
1218140;-0.00500;114.6875;178;113;0.29451
1218150;-0.00500;116.8125;178;113;0.29255
1218160;-0.00500;128.0625;178;113;0.28742
1218170;-0.00500;137.1875;178;113;0.28425
1218180;-0.00500;147.1875;178;113;0.28107
1218190;-0.00500;156.5000;178;113;0.27814
1218200;-0.00500;163.9375;178;113;0.27546
1218210;-0.00500;172.1875;178;113;0.27009
1218220;-0.00500;173.9375;178;113;0.26764
1218230;-0.00500;174.8750;178;113;0.26545
1218240;-0.00500;175.3750;178;113;0.26374
1218250;-0.00500;176.1250;178;113;0.26300
1218260;-0.00500;176.8125;178;113;0.26252
1218270;-0.00500;177.8125;178;113;0.26178
1218280;-0.00500;179.9375;178;113;0.26007
1218290;-0.00500;180.8750;178;113;0.25934
1218300;-0.00500;181.6250;178;113;0.25836
1218310;-0.00500;182.0625;178;113;0.25763
1218320;-0.00500;182.0000;178;113;0.25641
1218330;-0.00500;181.2500;178;113;0.25568
1218340;-0.00500;179.8750;178;113;0.25543
1218350;-0.00500;177.8750;178;113;0.25568
1218360;-0.00500;175.1875;178;113;0.25519
1218370;-0.00500;167.5625;178;113;0.25201
1218380;-0.00500;162.6875;178;113;0.24908
1218390;-0.00500;157.2500;178;113;0.24567
1218400;-0.00500;146.8125;178;113;0.24151
1218410;-0.00500;143.1875;178;113;0.24274
1218420;-0.00500;141.5625;178;113;0.24835
1218430;-0.00500;141.8750;178;113;0.25934
1218440;-0.00500;143.4375;178;113;0.27643
1218450;-0.00500;146.9375;178;113;0.31770
1218460;-0.00500;147.8125;178;113;0.34628
1218470;-0.00500;148.0000;178;113;0.37875
1218480;-0.00500;146.8750;178;113;0.44908
1218490;-0.00500;145.6875;178;113;0.48352
1218500;-0.00500;144.1875;178;113;0.51551
1218510;-0.00500;142.5625;178;113;0.54481
1218520;-0.00500;141.0625;178;113;0.57070
1218530;-0.00500;138.8125;178;113;0.61197
1218540;-0.00500;138.0000;178;113;0.62589
1218550;-0.00500;137.2500;178;113;0.63663
1218560;-0.00500;136.5625;178;113;0.64786
1218570;-0.00500;135.4375;178;113;0.66813
1218580;-0.00500;135.0000;178;113;0.67595
1218590;-0.00500;134.6250;178;113;0.68181
1218600;-0.00500;134.0625;178;113;0.68571
1218610;-0.00500;133.7500;178;113;0.68620
1218620;-0.00500;133.4375;178;113;0.68230
1218630;-0.00500;133.0625;178;113;0.67497
1218640;-0.00500;132.5625;178;113;0.66398
1218650;-0.00500;131.4375;178;113;0.63614
1218660;-0.00500;130.8125;178;113;0.61783
1218670;-0.00500;130.1250;178;113;0.59731
1218680;-0.00500;129.3750;178;113;0.57509
1218690;-0.00500;127.8125;178;113;0.52918
1218700;-0.00500;127.1250;178;113;0.50794
1218710;-0.00500;126.5000;178;113;0.48889
1218720;-0.00500;125.4375;178;113;0.45836
1218730;-0.00500;124.8750;178;113;0.44615
1218740;-0.00500;124.3125;178;113;0.43663
1218750;-0.00500;123.8125;178;113;0.42857
1218760;-0.00500;123.3125;178;113;0.42051
1218770;-0.00500;122.5000;178;113;0.40513
1218780;-0.00500;122.0625;178;113;0.39707
1218790;-0.00500;121.7500;178;113;0.38852
1218800;-0.00500;121.1875;178;113;0.37973
1218810;-0.00500;120.9375;178;113;0.36190
1218820;-0.00500;120.8125;178;113;0.35311
1218830;-0.00500;120.6875;178;113;0.34481
1218840;-0.00500;120.6250;178;113;0.33162
1218850;-0.00500;120.6250;178;113;0.32479
1218860;-0.00500;120.6250;178;113;0.31819
1218870;-0.00500;120.6875;178;113;0.31184
1218880;-0.00500;120.8125;178;113;0.29939
1218890;-0.00500;120.6875;178;113;0.29426
1218900;-0.00500;120.3750;178;113;0.28987
1218910;-0.00500;119.8125;178;113;0.28596
1218920;-0.00500;119.1250;178;113;0.28181
1218930;-0.00500;117.8125;178;113;0.28059
1218940;-0.00500;117.1875;178;113;0.27937
1218950;-0.00500;116.5000;178;113;0.27741
1218960;-0.00500;115.7500;178;113;0.27448
1218970;-0.00500;114.5625;178;113;0.26691
1218980;-0.00500;114.1875;178;113;0.26276
1218990;-0.00500;113.9375;178;113;0.25861
1219000;-0.00500;113.5000;177;113;0.25055
1219010;-0.00500;113.2500;177;113;0.24689
1219020;-0.00500;112.9375;177;113;0.24347
1219030;-0.00500;112.6250;177;113;0.24005
1219040;-0.00500;112.0625;177;113;0.23712
1219050;-0.00500;111.9375;177;113;0.23590
1219060;-0.00500;112.2500;177;113;0.23468
1219070;-0.00500;113.5000;177;113;0.23394
1219080;-0.00500;121.5000;177;113;0.23272
1219090;-0.00500;129.1250;177;113;0.23248
1219100;-0.00500;138.6250;177;113;0.23248
1219110;-0.00500;148.4375;177;113;0.23248
1219120;-0.00500;157.0625;177;113;0.23248
1219130;-0.00500;167.7500;177;113;0.23321
1219140;-0.00500;170.1875;177;113;0.23419
1219150;-0.00500;171.4375;177;113;0.23565
1219160;-0.00500;171.9375;177;113;0.23687
1219170;-0.00500;172.0000;177;113;0.23907
1219180;-0.00500;172.1250;177;113;0.24005
1219190;-0.00500;172.3750;177;113;0.24078
1219200;-0.00500;173.5000;177;113;0.24151
1219210;-0.00500;174.1250;177;113;0.24103
1219220;-0.00500;174.6250;177;113;0.24005
1219230;-0.00500;174.9375;177;113;0.23858
1219240;-0.00500;174.5625;177;113;0.23736
1219250;-0.00500;173.6875;177;113;0.23614
1219260;-0.00500;172.2500;177;113;0.23468
1219270;-0.00500;170.0625;177;113;0.23272
1219280;-0.00500;167.0000;177;113;0.23028
1219290;-0.00500;158.5625;177;113;0.22637
1219300;-0.00500;153.3750;177;113;0.22491
1219310;-0.00500;147.8125;177;113;0.22369
1219320;-0.00500;138.3125;177;113;0.22369
1219330;-0.00500;136.0000;177;113;0.22637
1219340;-0.00500;135.8750;177;113;0.23175
1219350;-0.00500;137.3750;177;113;0.24054
1219360;-0.00500;139.7500;177;113;0.25397
1219370;-0.00500;143.5625;177;113;0.29768
1219380;-0.00500;144.4375;177;113;0.32698
1219390;-0.00500;144.6250;177;113;0.35995
1219400;-0.00500;143.6250;177;113;0.43101
1219410;-0.00500;142.6875;177;113;0.46593
1219420;-0.00500;141.5625;177;113;0.49890
1219430;-0.00500;140.3750;177;113;0.52918
1219440;-0.00500;139.2500;177;113;0.55287
1219450;-0.00500;137.1875;177;113;0.58974
1219460;-0.00500;136.1875;177;113;0.60635
1219470;-0.00500;135.2500;177;113;0.62125
1219480;-0.00500;134.3125;177;113;0.63419
1219490;-0.00500;132.4375;177;113;0.65446
1219500;-0.00500;131.5625;177;113;0.66178
1219510;-0.00500;130.7500;177;113;0.66716
1219520;-0.00500;129.3125;177;113;0.67155
1219530;-0.00500;128.7500;177;113;0.66935
1219540;-0.00500;128.1875;177;113;0.66422
1219550;-0.00500;127.6875;177;113;0.65617
1219560;-0.00500;127.2500;177;113;0.64542
1219570;-0.00500;126.3750;177;113;0.61416
1219580;-0.00500;125.9375;177;113;0.59438
1219590;-0.00500;125.5625;177;113;0.57265
1219600;-0.00500;124.6875;177;113;0.52894
1219610;-0.00500;124.3125;177;113;0.50940
1219620;-0.00500;123.9375;177;113;0.49231
1219630;-0.00500;123.5625;177;113;0.47790
1219640;-0.00500;123.2500;177;113;0.46691
1219650;-0.00500;122.6250;177;113;0.45128
1219660;-0.00500;122.3125;177;113;0.44518
1219670;-0.00500;122.0000;177;113;0.43980
1219680;-0.00500;121.4375;177;113;0.43004
1219690;-0.00500;121.1875;177;113;0.42466
1219700;-0.00500;120.9375;177;113;0.41856
1219710;-0.00500;120.6875;177;113;0.41197
1219720;-0.00500;120.4375;177;113;0.40488
1219730;-0.00500;119.9375;177;113;0.38852
1219740;-0.00500;119.6250;177;113;0.38095
1219750;-0.00500;119.3750;177;113;0.37387
1219760;-0.00500;119.0625;177;113;0.36581
1219770;-0.00500;118.3750;177;113;0.35043
1219780;-0.00500;118.0625;177;113;0.34286
1219790;-0.00500;117.7500;177;113;0.33578
1219800;-0.00500;116.9375;177;113;0.32259
1219810;-0.00500;116.4375;177;113;0.31648
1219820;-0.00500;115.9375;177;113;0.31062
1219830;-0.00500;115.4375;177;113;0.30501
1219840;-0.00500;114.9375;177;113;0.30085
1219850;-0.00500;114.0000;177;113;0.29304
1219860;-0.00500;113.6250;177;113;0.28889
1219870;-0.00500;113.2500;177;113;0.28498
1219880;-0.00500;112.6250;177;113;0.28132
1219890;-0.00500;112.4375;177;113;0.27521
1219900;-0.00500;112.3125;177;113;0.27253
1219910;-0.00500;112.1875;177;113;0.27009
1219920;-0.00500;112.0000;177;113;0.26789
1219930;-0.00500;111.5625;177;113;0.26422
1219940;-0.00500;111.3125;177;113;0.26325
1219950;-0.00500;111.0625;177;113;0.26276
1219960;-0.00500;110.8125;177;113;0.26129
1219970;-0.00500;110.6250;177;113;0.25812
1219980;-0.00500;111.1250;177;113;0.25617
1219990;-0.00500;112.6250;177;113;0.25421
1220000;-0.00500;121.5000;177;113;0.25128
1220010;-0.00500;129.5000;177;113;0.25055
1220020;-0.00500;139.0625;177;113;0.25031
1220030;-0.00500;148.7500;177;113;0.25006
1220040;-0.00500;157.0000;177;113;0.25031
1220050;-0.00500;166.8125;177;113;0.25055
1220060;-0.00500;168.8750;177;113;0.25031
1220070;-0.00500;169.8125;177;113;0.25006
1220080;-0.00500;170.0625;177;113;0.24957
1220090;-0.00500;170.0625;177;113;0.24811
1220100;-0.00500;170.1875;177;113;0.24689
1220110;-0.00500;170.6250;177;113;0.24542
1220120;-0.00500;172.0625;177;113;0.24347
1220130;-0.00500;172.8125;177;113;0.24200
1220140;-0.00500;173.3750;177;113;0.24127
1220150;-0.00500;173.7500;177;113;0.24103
1220160;-0.00500;173.6250;177;113;0.24005
1220170;-0.00500;173.0000;177;113;0.23956
1220180;-0.00500;171.8125;177;113;0.23932
1220190;-0.00500;169.9375;177;113;0.23907
1220200;-0.00500;163.8125;177;113;0.23907
1220210;-0.00500;159.5000;177;113;0.23858
1220220;-0.00500;154.5625;177;113;0.23810
1220230;-0.00500;149.1250;177;113;0.23761
1220240;-0.00500;139.7500;177;113;0.23956
1220250;-0.00500;137.3750;177;113;0.24249
1220260;-0.00500;136.8750;177;113;0.24786
1220270;-0.00500;138.0625;177;113;0.25739
1220280;-0.00500;142.0000;177;113;0.29280
1220290;-0.00500;143.4375;177;113;0.31868
1220300;-0.00500;144.1875;177;113;0.34896
1220310;-0.00500;144.3750;177;113;0.38291
1220320;-0.00500;144.0000;177;113;0.41880
1220330;-0.00500;142.1875;177;113;0.49060
1220340;-0.00500;140.9375;177;113;0.51990
1220350;-0.00500;139.6875;177;113;0.54432
1220360;-0.00500;138.4375;177;113;0.56899
1220370;-0.00500;136.3750;177;113;0.61245
1220380;-0.00500;135.4375;177;113;0.63004
1220390;-0.00500;134.5000;177;113;0.64518
1220400;-0.00500;132.7500;177;113;0.67009
1220410;-0.00500;131.9375;177;113;0.67985
1220420;-0.00500;131.1875;177;113;0.68791
1220430;-0.00500;130.6250;177;113;0.69377
1220440;-0.00500;129.8125;177;113;0.69621
1220450;-0.00500;129.5000;177;113;0.69524
1220460;-0.00500;129.1250;177;113;0.69182
1220470;-0.00500;128.6250;177;113;0.68498
1220480;-0.00500;128.0625;177;113;0.67497
1220490;-0.00500;126.6875;177;113;0.64615
1220500;-0.00500;126.0000;177;113;0.62735
1220510;-0.00500;125.3125;177;113;0.60659
1220520;-0.00500;124.1250;177;113;0.56410
1220530;-0.00500;123.6875;177;113;0.54603
1220540;-0.00500;123.3125;177;113;0.53016
1220550;-0.00500;123.0000;177;113;0.51526
1220560;-0.00500;122.8125;177;113;0.50232
1220570;-0.00500;122.3750;177;113;0.48278
1220580;-0.00500;122.3125;177;113;0.47546
1220590;-0.00500;122.3125;177;113;0.46862
1220600;-0.00500;122.3125;177;113;0.46178
1220610;-0.00500;122.3750;177;113;0.44811
1220620;-0.00500;122.1875;177;113;0.44078
1220630;-0.00500;121.8125;177;113;0.43321
1220640;-0.00500;121.2500;177;113;0.42613
1220650;-0.00500;120.0000;177;113;0.41099
1220660;-0.00500;119.3750;177;113;0.40269
1220670;-0.00500;118.7500;177;113;0.39414
1220680;-0.00500;117.8125;177;113;0.38535
1220690;-0.00500;117.5000;177;113;0.36825
1220700;-0.00500;117.1250;177;113;0.36044
1220710;-0.00500;116.8125;177;113;0.35311
1220720;-0.00500;116.5000;177;113;0.34628
1220730;-0.00500;116.0000;177;113;0.33553
1220740;-0.00500;115.8125;177;113;0.33162
1220750;-0.00500;115.6250;177;113;0.32747
1220760;-0.00500;115.4375;177;113;0.32332
1220770;-0.00500;114.9375;177;113;0.31404
1220780;-0.00500;114.6875;177;113;0.30940
1220790;-0.00500;114.3125;177;113;0.30476
1220800;-0.00500;113.5625;177;113;0.29573
1220810;-0.00500;113.1875;177;113;0.29133
1220820;-0.00500;112.6875;177;113;0.28742
1220830;-0.00500;112.1250;177;113;0.28376
1220840;-0.00500;111.5625;177;113;0.28107
1220850;-0.00500;110.7500;177;113;0.27741
1220860;-0.00500;110.5000;177;113;0.27643
1220870;-0.00500;110.4375;177;113;0.27570
1220880;-0.00500;111.8125;177;113;0.27497
1220890;-0.00500;114.3750;177;113;0.27375
1220900;-0.00500;119.0625;177;113;0.27302
1220910;-0.00500;126.2500;177;113;0.27228
1220920;-0.00500;135.4375;177;113;0.27131
1220930;-0.00500;154.4375;177;113;0.27033
1220940;-0.00500;161.3750;177;113;0.27009
1220950;-0.00500;165.8750;177;113;0.26862
1220960;-0.00500;168.3750;177;113;0.26667
1220970;-0.00500;169.8750;177;113;0.26935
1220980;-0.00500;169.8125;177;113;0.27839
1220990;-0.00500;169.6250;177;113;0.28205
1221000;-0.00500;169.6250;178;113;0.28303
1221010;-0.00500;170.3750;178;113;0.28254
1221020;-0.00500;171.0625;178;113;0.28156
1221030;-0.00500;171.8750;178;113;0.28034
1221040;-0.00500;173.1875;178;113;0.28010
1221050;-0.00500;173.4375;178;113;0.27912
1221060;-0.00500;173.4375;178;113;0.27863
1221070;-0.00500;173.0000;178;113;0.27814
1221080;-0.00500;170.3750;178;113;0.27643
1221090;-0.00500;168.0625;178;113;0.27497
1221100;-0.00500;164.8125;178;113;0.27326
1221110;-0.00500;160.8125;178;113;0.27155
1221120;-0.00500;156.0000;178;113;0.26984
1221130;-0.00500;145.3750;178;113;0.26813
1221140;-0.00500;140.7500;178;113;0.26886
1221150;-0.00500;137.6250;178;113;0.27057
1221160;-0.00500;136.4375;178;113;0.27448
1221170;-0.00500;138.8750;178;113;0.29499
1221180;-0.00500;140.9375;178;113;0.31355
1221190;-0.00500;142.5625;178;113;0.33797
1221200;-0.00500;143.5625;178;113;0.36777
1221210;-0.00500;143.5625;178;113;0.43858
1221220;-0.00500;142.8750;178;113;0.47692
1221230;-0.00500;141.8750;178;113;0.51477
1221240;-0.00500;139.3125;178;113;0.57265
1221250;-0.00500;138.0625;178;113;0.60000
1221260;-0.00500;136.9375;178;113;0.62515
1221270;-0.00500;135.8750;178;113;0.64762
1221280;-0.00500;134.9375;178;113;0.66716
1221290;-0.00500;133.3125;178;113;0.69841
1221300;-0.00500;132.5000;178;113;0.71062
1221310;-0.00500;131.7500;178;113;0.72088
1221320;-0.00500;131.0625;178;113;0.72943
1221330;-0.00500;129.7500;178;113;0.73944
1221340;-0.00500;129.1875;178;113;0.74042
1221350;-0.00500;128.6875;178;113;0.74066
1221360;-0.00500;128.1875;178;113;0.73895
1221370;-0.00500;127.2500;178;113;0.72601
1221380;-0.00500;126.8125;178;113;0.71404
1221390;-0.00500;126.3750;178;113;0.69841
1221400;-0.00500;125.5000;178;113;0.65910
1221410;-0.00500;125.0000;178;113;0.63663
1221420;-0.00500;124.5625;178;113;0.61368
1221430;-0.00500;124.1875;178;113;0.59170
1221440;-0.00500;123.7500;178;113;0.57314
1221450;-0.00500;123.0625;178;113;0.54335
1221460;-0.00500;122.6875;178;113;0.53138
1221470;-0.00500;122.3125;178;113;0.52137
1221480;-0.00500;122.0000;178;113;0.51306
1221490;-0.00500;121.3750;178;113;0.49963
1221500;-0.00500;121.1250;178;113;0.49280
1221510;-0.00500;120.8125;178;113;0.48571
1221520;-0.00500;120.2500;178;113;0.47033
1221530;-0.00500;120.0000;178;113;0.46349
1221540;-0.00500;119.7500;178;113;0.45641
1221550;-0.00500;119.5000;178;113;0.44835
1221560;-0.00500;118.9375;178;113;0.43126
1221570;-0.00500;118.5625;178;113;0.42222
1221580;-0.00500;118.1875;178;113;0.41343
1221590;-0.00500;117.8125;178;113;0.40488
1221600;-0.00500;117.4375;178;113;0.39683
1221610;-0.00500;116.5000;178;113;0.38193
1221620;-0.00500;116.0000;178;113;0.37534
1221630;-0.00500;115.5625;178;113;0.36923
1221640;-0.00500;115.1250;178;113;0.36459
1221650;-0.00500;114.3750;178;113;0.35629
1221660;-0.00500;114.0625;178;113;0.35165
1221670;-0.00500;113.7500;178;113;0.34701
1221680;-0.00500;113.3125;178;113;0.33724
1221690;-0.00500;113.1875;178;113;0.33284
1221700;-0.00500;113.0000;178;113;0.32845
1221710;-0.00500;112.8125;178;113;0.32430
1221720;-0.00500;112.5625;178;113;0.32039
1221730;-0.00500;111.9375;178;113;0.31404
1221740;-0.00500;111.5625;178;113;0.31184
1221750;-0.00500;111.3125;178;113;0.30916
1221760;-0.00500;110.9375;178;113;0.30403
1221770;-0.00500;111.0625;178;113;0.30232
1221780;-0.00500;111.8750;178;113;0.30061
1221790;-0.00500;114.0000;178;113;0.29915
1221800;-0.00500;118.1250;178;113;0.29792
1221810;-0.00500;133.6250;178;113;0.29573
1221820;-0.00500;143.5625;178;113;0.29451
1221830;-0.00500;152.9375;178;113;0.29353
1221840;-0.00500;165.5000;178;113;0.29255
1221850;-0.00500;168.5625;178;113;0.29133
1221860;-0.00500;170.0625;178;113;0.28987
1221870;-0.00500;170.6875;178;113;0.28840
1221880;-0.00500;170.8125;178;113;0.28645
1221890;-0.00500;170.7500;178;113;0.28303
1221900;-0.00500;171.0000;178;113;0.28132
1221910;-0.00500;171.6250;178;113;0.27961
1221920;-0.00500;172.3750;178;113;0.27839
1221930;-0.00500;174.0000;178;113;0.27668
1221940;-0.00500;174.5625;178;113;0.27668
1221950;-0.00500;174.8750;178;113;0.27619
1221960;-0.00500;174.7500;178;113;0.27497
1221970;-0.00500;174.0000;178;113;0.27473
1221980;-0.00500;172.7500;178;113;0.27448
1221990;-0.00500;170.6875;178;113;0.27399
1222000;-0.00500;167.9375;179;113;0.27326
1222010;-0.00500;159.8750;179;113;0.27082
1222020;-0.00500;154.7500;179;113;0.27009
1222030;-0.00500;149.3750;179;113;0.26960
1222040;-0.00500;144.1250;179;113;0.27033
1222050;-0.00500;137.6875;179;113;0.27668
1222060;-0.00500;137.4375;179;113;0.28425
1222070;-0.00500;138.8750;179;113;0.29597
1222080;-0.00500;141.0000;179;113;0.31331
1222090;-0.00500;144.3750;179;113;0.36532
1222100;-0.00500;145.0000;179;113;0.39878
1222110;-0.00500;144.9375;179;113;0.43565
1222120;-0.00500;143.5000;179;113;0.51282
1222130;-0.00500;142.3125;179;113;0.54530
1222140;-0.00500;141.0625;179;113;0.57314
1222150;-0.00500;139.8125;179;113;0.60195
1222160;-0.00500;138.6875;179;113;0.62906
1222170;-0.00500;136.7500;179;113;0.67497
1222180;-0.00500;135.8750;179;113;0.69353
1222190;-0.00500;135.0625;179;113;0.70916
1222200;-0.00500;133.5000;179;113;0.72234
1222210;-0.00500;132.7500;179;113;0.74261
1222220;-0.00500;132.0000;179;113;0.75018
1222230;-0.00500;131.3125;179;113;0.75580
1222240;-0.00500;130.7500;179;113;0.75824
1222250;-0.00500;129.6250;179;113;0.75678
1222260;-0.00500;129.1250;179;113;0.75311
1222270;-0.00500;128.6250;179;113;0.74628
1222280;-0.00500;127.7500;179;113;0.72186
1222290;-0.00500;127.3125;179;113;0.70427
1222300;-0.00500;126.8750;179;113;0.68400
1222310;-0.00500;126.5000;179;113;0.66203
1222320;-0.00500;126.1875;179;113;0.63980
1222330;-0.00500;125.5000;179;113;0.59927
1222340;-0.00500;125.1250;179;113;0.58315
1222350;-0.00500;124.8125;179;113;0.56825
1222360;-0.00500;124.4375;179;113;0.55556
1222370;-0.00500;123.7500;179;113;0.53529
1222380;-0.00500;123.3750;179;113;0.52747
1222390;-0.00500;123.0000;179;113;0.52063
1222400;-0.00500;122.3750;179;113;0.50647
1222410;-0.00500;122.0625;179;113;0.49915
1222420;-0.00500;121.7500;179;113;0.49133
1222430;-0.00500;121.5000;179;113;0.48376
1222440;-0.00500;121.1875;179;113;0.47668
1222450;-0.00500;120.7500;179;113;0.46056
1222460;-0.00500;120.5625;179;113;0.45177
1222470;-0.00500;120.2500;179;113;0.44298
1222480;-0.00500;119.6250;179;113;0.42564
1222490;-0.00500;119.3125;179;113;0.41783
1222500;-0.00500;118.9375;179;113;0.41026
1222510;-0.00500;118.5625;179;113;0.40317
1222520;-0.00500;118.1875;179;113;0.39683
1222530;-0.00500;117.1875;179;113;0.38510
1222540;-0.00500;116.6875;179;113;0.38071
1222550;-0.00500;116.2500;179;113;0.37582
1222560;-0.00500;115.5000;179;113;0.36606
1222570;-0.00500;115.2500;179;113;0.36142
1222580;-0.00500;115.0000;179;113;0.35678
1222590;-0.00500;114.7500;179;113;0.35238
1222600;-0.00500;114.5625;179;113;0.34823
1222610;-0.00500;114.1875;179;113;0.34090
1222620;-0.00500;114.0000;179;113;0.33748
1222630;-0.00500;113.8125;179;113;0.33553
1222640;-0.00500;113.5625;179;113;0.33358
1222650;-0.00500;112.9375;179;113;0.32894
1222660;-0.00500;112.6875;179;113;0.32674
1222670;-0.00500;112.5000;179;113;0.32479
1222680;-0.00500;113.0000;179;113;0.32283
1222690;-0.00500;114.5625;179;113;0.31941
1222700;-0.00500;118.0000;179;113;0.31746
1222710;-0.00500;123.9375;179;113;0.31551
1222720;-0.00500;132.4375;179;113;0.31306
1222730;-0.00500;152.8125;179;113;0.30842
1222740;-0.00500;161.3750;179;113;0.30720
1222750;-0.00500;167.5625;179;113;0.30598
1222760;-0.00500;173.4375;179;113;0.30403
1222770;-0.00500;174.3750;179;113;0.30305
1222780;-0.00500;174.6875;179;113;0.30208
1222790;-0.00500;174.8125;179;113;0.30134
1222800;-0.00500;174.9375;179;113;0.30037
1222810;-0.00500;174.9375;179;113;0.30037
1222820;-0.00500;176.8750;179;113;0.29621
1222830;-0.00500;177.9375;179;113;0.29524
1222840;-0.00500;179.9375;179;113;0.29377
1222850;-0.00500;180.7500;179;113;0.29255
1222860;-0.00500;181.3125;179;113;0.29109
1222870;-0.00500;181.6250;179;113;0.29011
1222880;-0.00500;181.5625;179;113;0.28913
1222890;-0.00500;179.9375;179;113;0.28718
1222900;-0.00500;178.1875;179;113;0.28596
1222910;-0.00500;175.5625;179;113;0.28449
1222920;-0.00500;168.0625;179;113;0.28205
1222930;-0.00500;163.3125;179;113;0.28181
1222940;-0.00500;158.1250;179;113;0.28181
1222950;-0.00500;152.9375;179;113;0.28205
1222960;-0.00500;148.5000;179;113;0.28425
1222970;-0.00500;144.0625;179;113;0.29963
1222980;-0.00500;144.3125;179;113;0.31551
1222990;-0.00500;145.6250;179;113;0.33773
1223000;-0.00500;147.1875;178;113;0.36581
1223010;-0.00500;149.0625;178;113;0.43639
1223020;-0.00500;149.1250;178;113;0.47253
1223030;-0.00500;148.6875;178;113;0.50183
1223040;-0.00500;146.6875;178;113;0.56313
1223050;-0.00500;145.5000;178;113;0.59609
1223060;-0.00500;144.3125;178;113;0.62686
1223070;-0.00500;143.1875;178;113;0.65446
1223080;-0.00500;142.1875;178;113;0.67863
1223090;-0.00500;140.4375;178;113;0.71770
1223100;-0.00500;139.6250;178;113;0.73358
1223110;-0.00500;138.8125;178;113;0.74750
1223120;-0.00500;138.0000;178;113;0.75946
1223130;-0.00500;136.4375;178;113;0.77607
1223140;-0.00500;135.7500;178;113;0.78022
1223150;-0.00500;135.1250;178;113;0.78437
1223160;-0.00500;134.0000;178;113;0.78877
1223170;-0.00500;133.5000;178;113;0.78730
1223180;-0.00500;133.0000;178;113;0.78315
1223190;-0.00500;132.5625;178;113;0.77534
1223200;-0.00500;132.0625;178;113;0.76313
1223210;-0.00500;131.1875;178;113;0.72869
1223220;-0.00500;130.7500;178;113;0.70794
1223230;-0.00500;130.3750;178;113;0.68767
1223240;-0.00500;129.9375;178;113;0.66813
1223250;-0.00500;129.0625;178;113;0.62906
1223260;-0.00500;128.6875;178;113;0.61148
1223270;-0.00500;128.3125;178;113;0.59609
1223280;-0.00500;127.5625;178;113;0.58291
1223290;-0.00500;127.1250;178;113;0.56239
1223300;-0.00500;126.7500;178;113;0.55360
1223310;-0.00500;126.4375;178;113;0.54530
1223320;-0.00500;126.1875;178;113;0.53724
1223330;-0.00500;125.6250;178;113;0.52088
1223340;-0.00500;125.3750;178;113;0.51306
1223350;-0.00500;125.1250;178;113;0.50452
1223360;-0.00500;124.8750;178;113;0.49573
1223370;-0.00500;124.3125;178;113;0.47863
1223380;-0.00500;124.0000;178;113;0.46984
1223390;-0.00500;123.6875;178;113;0.46129
1223400;-0.00500;123.0000;178;113;0.45299
1223410;-0.00500;122.6250;178;113;0.43712
1223420;-0.00500;122.1250;178;113;0.42955
1223430;-0.00500;121.6250;178;113;0.42320
1223440;-0.00500;121.1250;178;113;0.41734
1223450;-0.00500;120.1875;178;113;0.40440
1223460;-0.00500;119.8125;178;113;0.39805
1223470;-0.00500;119.4375;178;113;0.39194
1223480;-0.00500;118.9375;178;113;0.37998
1223490;-0.00500;118.6875;178;113;0.37485
1223500;-0.00500;118.4375;178;113;0.37045
1223510;-0.00500;118.1875;178;113;0.36630
1223520;-0.00500;117.5625;178;113;0.35873
1223530;-0.00500;117.2500;178;113;0.35531
1223540;-0.00500;116.8750;178;113;0.35238
1223550;-0.00500;116.5625;178;113;0.34872
1223560;-0.00500;116.1875;178;113;0.34481
1223570;-0.00500;115.7500;178;113;0.33748
1223580;-0.00500;116.0625;178;113;0.33407
1223590;-0.00500;117.1875;178;113;0.33065
1223600;-0.00500;119.9375;178;113;0.32772
1223610;-0.00500;132.7500;178;113;0.32210
1223620;-0.00500;142.3750;178;113;0.31966
1223630;-0.00500;152.6250;178;113;0.31819
1223640;-0.00500;168.5625;178;113;0.31648
1223650;-0.00500;173.0625;178;113;0.31551
1223660;-0.00500;175.6250;178;113;0.31453
1223670;-0.00500;176.9375;178;113;0.31355
1223680;-0.00500;177.5000;178;113;0.31258
1223690;-0.00500;177.9375;178;113;0.31087
1223700;-0.00500;178.1875;178;113;0.30965
1223710;-0.00500;178.7500;178;113;0.30818
1223720;-0.00500;180.5625;178;113;0.30476
1223730;-0.00500;181.6250;178;113;0.30354
1223740;-0.00500;182.6250;178;113;0.30232
1223750;-0.00500;183.5000;178;113;0.30061
1223760;-0.00500;184.1875;178;113;0.29866
1223770;-0.00500;184.5625;178;113;0.29499
1223780;-0.00500;184.0625;178;113;0.29328
1223790;-0.00500;183.0625;178;113;0.29182
1223800;-0.00500;178.9375;178;113;0.28938
1223810;-0.00500;175.6875;178;113;0.28816
1223820;-0.00500;171.7500;178;113;0.28669
1223830;-0.00500;167.0000;178;113;0.28596
1223840;-0.00500;161.7500;178;113;0.28596
1223850;-0.00500;151.0625;178;113;0.28767
1223860;-0.00500;147.1250;178;113;0.29182
1223870;-0.00500;144.9375;178;113;0.30012
1223880;-0.00500;144.7500;178;113;0.31380
1223890;-0.00500;147.8750;178;113;0.35824
1223900;-0.00500;149.5000;178;113;0.38852
1223910;-0.00500;150.4375;178;113;0.42295
1223920;-0.00500;150.2500;178;113;0.49963
1223930;-0.00500;149.4375;178;113;0.53309
1223940;-0.00500;148.3125;178;113;0.56239
1223950;-0.00500;147.0625;178;113;0.59316
1223960;-0.00500;145.6875;178;113;0.62271
1223970;-0.00500;143.1875;178;113;0.67350
1223980;-0.00500;142.1875;178;113;0.69402
1223990;-0.00500;141.1875;178;113;0.71184
1224000;-0.00500;139.4375;178;113;0.74090
1224010;-0.00500;138.5000;178;113;0.75311
1224020;-0.00500;137.6250;178;113;0.76386
1224030;-0.00500;136.8125;178;113;0.77094
1224040;-0.00500;135.1875;178;113;0.78022
1224050;-0.00500;134.5000;178;113;0.78339
1224060;-0.00500;133.9375;178;113;0.78437
1224070;-0.00500;133.3750;178;113;0.78315
1224080;-0.00500;132.9375;178;113;0.77924
1224090;-0.00500;132.2500;178;113;0.76093
1224100;-0.00500;131.9375;178;113;0.74676
1224110;-0.00500;131.5625;178;113;0.72967
1224120;-0.00500;130.8125;178;113;0.68987
1224130;-0.00500;130.3125;178;113;0.67033
1224140;-0.00500;129.7500;178;113;0.64933
1224150;-0.00500;129.1875;178;113;0.62882
1224160;-0.00500;128.0000;178;113;0.59170
1224170;-0.00500;127.4375;178;113;0.57631
1224180;-0.00500;126.8125;178;113;0.56313
1224190;-0.00500;126.2500;178;113;0.55189
1224200;-0.00500;125.6875;178;113;0.54237
1224210;-0.00500;124.6875;178;113;0.52479
1224220;-0.00500;124.2500;178;113;0.51624
1224230;-0.00500;123.8125;178;113;0.50842
1224240;-0.00500;123.2500;178;113;0.50061
1224250;-0.00500;123.0625;178;113;0.48278
1224260;-0.00500;122.8750;178;113;0.47277
1224270;-0.00500;122.7500;178;113;0.46276
1224280;-0.00500;122.5625;178;113;0.45299
1224290;-0.00500;122.1250;178;113;0.43370
1224300;-0.00500;121.8750;178;113;0.42418
1224310;-0.00500;121.5000;178;113;0.41490
1224320;-0.00500;121.1250;178;113;0.40586
1224330;-0.00500;120.1875;178;113;0.39145
1224340;-0.00500;119.5625;178;113;0.38413
1224350;-0.00500;119.0000;178;113;0.37680
1224360;-0.00500;117.8750;178;113;0.36386
1224370;-0.00500;117.3750;178;113;0.35824
1224380;-0.00500;117.0000;178;113;0.35287
1224390;-0.00500;116.6875;178;113;0.34774
1224400;-0.00500;116.3750;178;113;0.34261
1224410;-0.00500;115.9375;178;113;0.33236
1224420;-0.00500;115.6875;178;113;0.32772
1224430;-0.00500;115.4375;178;113;0.32405
1224440;-0.00500;114.8125;178;113;0.31648
1224450;-0.00500;114.4375;178;113;0.31209
1224460;-0.00500;114.0625;178;113;0.30745
1224470;-0.00500;113.6875;178;113;0.30281
1224480;-0.00500;113.4375;178;113;0.29817
1224490;-0.00500;112.9375;178;113;0.29084
1224500;-0.00500;112.8750;178;113;0.28791
1224510;-0.00500;113.2500;178;113;0.28498
1224520;-0.00500;117.8750;178;113;0.28230
1224530;-0.00500;123.4375;178;113;0.27839
1224540;-0.00500;131.3750;178;113;0.27595
1224550;-0.00500;140.8125;178;113;0.27350
1224560;-0.00500;150.3125;178;113;0.27155
1224570;-0.00500;164.2500;178;113;0.26911
1224580;-0.00500;168.0000;178;113;0.26813
1224590;-0.00500;170.0625;178;113;0.26716
1224600;-0.00500;171.0000;178;113;0.26569
1224610;-0.00500;171.4375;178;113;0.26227
1224620;-0.00500;171.3750;178;113;0.26105
1224630;-0.00500;171.5000;178;113;0.26081
1224640;-0.00500;172.2500;178;113;0.26105
1224650;-0.00500;172.8125;178;113;0.26056
1224660;-0.00500;173.3125;178;113;0.25958
1224670;-0.00500;173.7500;178;113;0.25885
1224680;-0.00500;173.9375;178;113;0.25788
1224690;-0.00500;173.4375;178;113;0.25617
1224700;-0.00500;172.5625;178;113;0.25543
1224710;-0.00500;171.1875;178;113;0.25470
1224720;-0.00500;169.1875;178;113;0.25372
1224730;-0.00500;162.8750;178;113;0.25348
1224740;-0.00500;158.5625;178;113;0.25250
1224750;-0.00500;153.5625;178;113;0.25104
1224760;-0.00500;148.1875;178;113;0.24908
1224770;-0.00500;138.9375;178;113;0.24615
1224780;-0.00500;136.7500;178;113;0.24689
1224790;-0.00500;136.7500;178;113;0.25104
1224800;-0.00500;140.8125;178;113;0.27399
1224810;-0.00500;142.9375;178;113;0.29353
1224820;-0.00500;144.3125;178;113;0.31868
1224830;-0.00500;144.8750;178;113;0.34432
1224840;-0.00500;144.6250;178;113;0.37118
1224850;-0.00500;142.8125;178;113;0.43785
1224860;-0.00500;141.5000;178;113;0.47253
1224870;-0.00500;140.1250;178;113;0.50574
1224880;-0.00500;137.5000;178;113;0.53626
1224890;-0.00500;136.4375;178;113;0.58681
1224900;-0.00500;135.4375;178;113;0.60708
1224910;-0.00500;134.5000;178;113;0.62393
1224920;-0.00500;132.8750;178;113;0.64786
1224930;-0.00500;132.1250;178;113;0.65470
1224940;-0.00500;131.3750;178;113;0.66203
1224950;-0.00500;130.6250;178;113;0.66862
1224960;-0.00500;129.8750;178;113;0.67350
1224970;-0.00500;128.6875;178;113;0.67766
1224980;-0.00500;128.1250;178;113;0.67619
1224990;-0.00500;127.6250;178;113;0.67179
1225000;-0.00500;127.1875;177;113;0.66422
1225010;-0.00500;126.3750;177;113;0.63858
1225020;-0.00500;126.0000;177;113;0.62100
1225030;-0.00500;125.6875;177;113;0.60342
1225040;-0.00500;125.3125;177;113;0.58535
1225050;-0.00500;124.6250;177;113;0.54359
1225060;-0.00500;124.2500;177;113;0.52308
1225070;-0.00500;123.8750;177;113;0.50110
1225080;-0.00500;123.1875;177;113;0.46471
1225090;-0.00500;122.8125;177;113;0.45324
1225100;-0.00500;122.4375;177;113;0.44444
1225110;-0.00500;122.0000;177;113;0.43712
1225120;-0.00500;121.6250;177;113;0.43053
1225130;-0.00500;120.8125;177;113;0.42002
1225140;-0.00500;120.5000;177;113;0.41416
1225150;-0.00500;120.1875;177;113;0.40781
1225160;-0.00500;119.9375;177;113;0.40098
1225170;-0.00500;119.3750;177;113;0.38559
1225180;-0.00500;119.0625;177;113;0.37729
1225190;-0.00500;118.7500;177;113;0.36899
1225200;-0.00500;118.4375;177;113;0.36093
1225210;-0.00500;117.8750;177;113;0.34603
1225220;-0.00500;117.5625;177;113;0.33919
1225230;-0.00500;117.1875;177;113;0.33382
1225240;-0.00500;116.8125;177;113;0.32943
1225250;-0.00500;116.0000;177;113;0.31917
1225260;-0.00500;115.6250;177;113;0.31404
1225270;-0.00500;115.2500;177;113;0.30916
1225280;-0.00500;114.8750;177;113;0.30452
1225290;-0.00500;114.2500;177;113;0.29621
1225300;-0.00500;113.9375;177;113;0.29280
1225310;-0.00500;113.6250;177;113;0.28962
1225320;-0.00500;113.3750;177;113;0.28645
1225330;-0.00500;112.9375;177;113;0.28278
1225340;-0.00500;112.6875;177;113;0.28083
1225350;-0.00500;112.4375;177;113;0.27863
1225360;-0.00500;112.0625;177;113;0.27619
1225370;-0.00500;111.3750;177;113;0.27131
1225380;-0.00500;111.0000;177;113;0.26911
1225390;-0.00500;110.7500;177;113;0.26716
1225400;-0.00500;110.5000;177;113;0.26545
1225410;1.49500;110.6875;177;113;0.26203
1225420;13.05000;111.9375;177;113;0.26056
1225430;32.36001;114.7500;177;113;0.26007
1225440;38.61001;127.2500;177;113;0.26007
1225450;37.96000;136.4375;177;113;0.25958
1225460;36.93500;145.9375;177;113;0.25885
1225470;35.89001;154.1250;177;113;0.25812
1225480;34.60500;164.1875;177;113;0.25665
1225490;33.80000;166.3125;177;113;0.25592
1225500;32.84500;167.3125;177;113;0.25543
1225510;31.72500;167.6250;177;113;0.25519
1225520;30.93000;167.5625;177;113;0.25495
1225530;29.01501;167.6250;177;113;0.25617
1225540;21.00500;167.9375;177;113;0.25641
1225550;13.89500;168.5000;177;113;0.25617
1225560;6.60500;169.7500;177;113;0.25592
1225570;0.44000;170.1875;177;113;0.25495
1225580;-2.42500;170.4375;177;113;0.25421
1225590;-5.07500;170.3125;177;113;0.25348
1225600;-6.90500;169.8125;177;113;0.25299
1225610;-8.20000;167.2500;177;113;0.25250
1225620;-8.99000;165.0000;177;113;0.25177
1225630;-9.56000;162.0000;177;113;0.25177
1225640;-0.00500;122.8750;177;113;0.55873
1225650;-0.00500;122.8750;177;113;0.55873
1225660;-0.00500;122.8750;177;113;0.55873
1225670;-0.00500;117.3750;177;113;0.38486
1225680;-0.00500;117.3750;177;113;0.38486
1225690;-0.00500;117.3750;177;113;0.38486
1225700;-0.00500;117.3750;177;113;0.38486
1225710;-0.00500;117.3750;177;113;0.38486
1225720;-0.00500;117.3750;177;113;0.38486
1225730;-0.00500;117.3750;177;113;0.38486
1225740;-0.00500;117.3750;177;113;0.38486
1225750;-0.00500;117.3750;177;113;0.38486
1225760;-0.00500;117.3750;177;113;0.38486
1225770;-0.00500;117.3750;177;113;0.38486
1225780;-0.00500;117.3750;177;113;0.38486
1225790;-0.00500;117.3750;177;113;0.38486
1225800;-0.00500;117.3750;177;113;0.38486
1225810;-0.00500;117.3750;177;113;0.38486
1225820;-0.00500;117.3750;177;113;0.38486
1225830;-0.00500;117.3750;177;113;0.38486
1225840;-0.00500;117.3750;177;113;0.38486
1225850;-0.00500;117.3750;177;113;0.38486
1225860;-0.00500;117.3750;177;113;0.38486
1225870;-0.00500;117.3750;177;113;0.38486
1225880;-0.00500;117.3750;177;113;0.38486
1225890;-0.00500;117.3750;177;113;0.38486
1225900;-0.00500;117.3750;177;113;0.38486
1225910;-0.00500;117.3750;177;113;0.38486
1225920;-0.00500;117.3750;177;113;0.38486
1225930;-0.00500;117.3750;177;113;0.38486
1225940;-0.00500;117.3750;177;113;0.38486
1225950;-0.00500;117.3750;177;113;0.38486
1225960;-0.00500;117.3750;177;113;0.38486
1225970;-0.00500;117.3750;177;113;0.38486
1225980;-0.00500;117.3750;177;113;0.38486
1225990;-0.00500;117.3750;177;113;0.38486
1226000;-0.00500;117.3750;177;113;0.38486
1226010;-0.00500;117.3750;177;113;0.38486
1226020;-0.00500;117.3750;177;113;0.38486
1226030;-0.00500;117.3750;177;113;0.38486
1226040;-0.00500;117.3750;177;113;0.38486
1226050;-0.00500;117.3750;177;113;0.38486
1226060;-0.00500;117.3750;177;113;0.38486
1226070;-0.00500;117.3750;177;113;0.38486
1226080;-0.00500;117.3750;177;113;0.38486
1226090;-0.00500;117.3750;177;113;0.38486
1226100;-0.00500;117.3750;177;113;0.38486
1226110;-0.00500;117.0000;177;113;0.37753
1226120;-0.00500;116.1250;177;113;0.36459
1226130;-0.00500;115.6250;177;113;0.35922
1226140;-0.00500;115.1250;177;113;0.35311
1226150;-0.00500;114.5625;177;113;0.34676
1226160;-0.00500;114.0625;177;113;0.34066
1226170;-0.00500;113.1875;177;113;0.32894
1226180;-0.00500;112.8125;177;113;0.32357
1226190;-0.00500;112.5625;177;113;0.31868
1226200;-0.00500;112.4375;177;113;0.31477
1226210;-0.00500;112.1250;177;113;0.30672
1226220;-0.00500;112.0000;177;113;0.30379
1226230;-0.00500;111.8750;177;113;0.30159
1226240;-0.00500;111.5000;177;113;0.29597
1226250;-0.00500;111.2500;177;113;0.29304
1226260;-0.00500;110.8750;177;113;0.29035
1226270;-0.00500;110.4375;177;113;0.28791
1226280;-0.00500;110.0000;177;113;0.28571
1226290;-0.00500;109.3125;177;113;0.28156
1226300;-0.00500;109.0625;177;113;0.27985
1226310;-0.00500;109.1250;177;113;0.27790
1226320;-0.00500;109.8750;177;113;0.27619
1226330;-0.00500;116.1250;177;113;0.27497
1226340;-0.00500;122.8750;177;113;0.27448
1226350;-0.00500;131.8125;177;113;0.27375
1226360;-0.00500;141.6875;177;113;0.27302
1226370;-0.00500;158.1250;177;113;0.27155
1226380;-0.00500;162.9375;177;113;0.27057
1226390;-0.00500;165.6875;177;113;0.26984
1226400;-0.00500;167.0625;177;113;0.26886
1226410;-0.00500;167.6250;177;113;0.26618
1226420;-0.00500;167.4375;177;113;0.26545
1226430;-0.00500;167.3750;177;113;0.26496
1226440;-0.00500;167.5000;177;113;0.26398
1226450;-0.00500;168.5000;177;113;0.26129
1226460;-0.00500;169.1875;177;113;0.25958
1226470;-0.00500;169.7500;177;113;0.25812
1226480;-0.00500;170.3750;177;113;0.25690
1226490;-0.00500;170.2500;177;113;0.25690
1226500;-0.00500;169.7500;177;113;0.25714
1226510;-0.00500;168.6875;177;113;0.25714
1226520;-0.00500;167.0000;177;113;0.25714
1226530;-0.00500;161.4375;177;113;0.25885
1226540;-0.00500;157.4375;177;113;0.25934
1226550;-0.00500;152.7500;177;113;0.25934
1226560;-0.00500;147.5625;177;113;0.25861
1226570;-0.00500;137.8750;177;113;0.25763
1226580;-0.00500;135.0000;177;113;0.25812
1226590;-0.00500;134.0625;177;113;0.26056
1226600;-0.00500;134.9375;177;113;0.26618
1226610;-0.00500;138.8750;177;113;0.29133
1226620;-0.00500;140.4375;177;113;0.30842
1226630;-0.00500;141.3750;177;113;0.32894
1226640;-0.00500;141.5625;177;113;0.35629
1226650;-0.00500;140.5625;177;113;0.42344
1226660;-0.00500;139.5000;177;113;0.45934
1226670;-0.00500;138.2500;177;113;0.49426
1226680;-0.00500;135.6250;177;113;0.55604
1226690;-0.00500;134.5000;177;113;0.58169
1226700;-0.00500;133.5000;177;113;0.60391
1226710;-0.00500;132.6250;177;113;0.62295
1226720;-0.00500;131.7500;177;113;0.63883
1226730;-0.00500;130.1875;177;113;0.65861
1226740;-0.00500;129.4375;177;113;0.66691
1226750;-0.00500;128.8125;177;113;0.67424
1226760;-0.00500;128.1875;177;113;0.68059
1226770;-0.00500;127.1875;177;113;0.68864
1226780;-0.00500;126.6875;177;113;0.68938
1226790;-0.00500;126.1875;177;113;0.68742
1226800;-0.00500;125.2500;177;113;0.67448
1226810;-0.00500;124.8125;177;113;0.66300
1226820;-0.00500;124.3750;177;113;0.64982
1226830;-0.00500;123.9375;177;113;0.63516
1226840;-0.00500;123.0625;177;113;0.59805
1226850;-0.00500;122.6875;177;113;0.57802
1226860;-0.00500;122.3125;177;113;0.55873
1226870;-0.00500;122.0000;177;113;0.54066
1226880;-0.00500;121.1875;177;113;0.51062
1226890;-0.39500;120.8125;177;113;0.49890
1226900;-0.54000;120.3750;177;113;0.48913
1226910;-0.44000;119.9375;177;113;0.48083
1226920;-0.15000;119.5625;177;113;0.47350
1226930;0.42000;118.7500;177;113;0.46178
1226940;1.05000;118.5000;177;113;0.45568
1226950;1.22000;118.2500;177;113;0.44933
1226960;0.81500;118.0000;177;113;0.44249
1226970;0.10500;117.6250;177;113;0.42784
1226980;-0.20000;117.4375;177;113;0.42002
1226990;-0.26000;117.1875;177;113;0.41221
1227000;-0.28500;116.6250;178;113;0.39609
1227010;-0.68500;116.2500;178;113;0.38803
1227020;-1.36000;115.8125;178;113;0.38095
1227030;-1.40500;115.4375;178;113;0.37485
1227040;-1.17500;114.5625;178;113;0.36239
1227050;-1.01500;114.1250;178;113;0.35604
1227060;-0.72000;113.6875;178;113;0.34969
1227070;-0.48500;113.3125;178;113;0.34408
1227080;-0.16000;112.9375;178;113;0.33895
1227090;0.13500;112.2500;178;113;0.32991
1227100;0.34000;111.8750;178;113;0.32576
1227110;0.37000;111.5625;178;113;0.32186
1227120;0.25500;110.9375;178;113;0.32137
1227130;0.15500;110.7500;178;113;0.32332
1227140;0.30500;110.5625;178;113;0.32161
1227150;0.67500;110.3750;178;113;0.31893
1227160;0.63500;110.2500;178;113;0.31575
1227170;0.08500;109.8750;178;113;0.30891
1227180;-0.81000;109.5000;178;113;0.30549
1227190;-1.29500;109.1250;178;113;0.30256
1227200;-1.70000;108.7500;178;113;0.29988
1227210;-1.88000;108.3750;178;113;0.29524
1227220;-1.78500;108.4375;178;113;0.29426
1227230;-1.30500;109.1250;178;113;0.29377
1227240;-0.92000;111.1250;178;113;0.29280
1227250;-0.59500;121.7500;178;113;0.28987
1227260;-0.47500;130.6250;178;113;0.28889
1227270;-0.42500;140.5625;178;113;0.28767
1227280;-0.22000;157.3750;178;113;0.28620
1227290;0.45500;162.4375;178;113;0.28400
1227300;1.03500;165.3750;178;113;0.28254
1227310;1.37500;166.8125;178;113;0.28083
1227320;0.42000;167.4375;178;113;0.27741
1227330;-0.68500;167.3125;178;113;0.27619
1227340;-1.43500;167.1875;178;113;0.27473
1227350;-1.57500;167.3750;178;113;0.27350
1227360;-1.61000;167.8125;178;113;0.27228
1227370;-1.45000;169.3750;178;113;0.27033
1227380;-1.12000;170.1875;178;113;0.26960
1227390;-0.89000;170.8125;178;113;0.26886
1227400;-0.65000;171.5625;178;113;0.26862
1227410;-0.54500;171.5000;178;113;0.26813
1227420;-0.59000;170.8125;178;113;0.26838
1227430;-0.66500;169.5000;178;113;0.26911
1227440;-0.78000;164.1875;178;113;0.26813
1227450;-0.88000;160.1875;178;113;0.26716
1227460;-0.99500;155.3750;178;113;0.26618
1227470;-1.03500;150.0625;178;113;0.26496
1227480;-0.91500;144.6250;178;113;0.26398
1227490;-0.64000;136.0000;178;113;0.26422
1227500;-0.31500;134.2500;178;113;0.26716
1227510;-0.13000;134.4375;178;113;0.27375
1227520;0.06500;136.0625;178;113;0.28547
1227530;0.21500;140.1875;178;113;0.31844
1227540;0.27000;141.4375;178;113;0.34432
1227550;0.31000;142.0000;178;113;0.37631
1227560;0.34000;141.9375;178;113;0.41319
1227570;0.37500;140.5625;178;113;0.49353
1227580;0.38000;139.5000;178;113;0.53333
1227590;0.39000;138.3750;178;113;0.57094
1227600;0.42000;136.0625;178;113;0.63468
1227610;0.46000;135.0000;178;113;0.66032
1227620;0.52500;133.9375;178;113;0.67888
1227630;0.56500;132.8750;178;113;0.69353
1227640;0.54000;130.8125;178;113;0.72210
1227650;0.47500;129.8750;178;113;0.73407
1227660;0.41500;129.0000;178;113;0.74457
1227670;0.54500;128.3125;178;113;0.75336
1227680;0.62000;127.7500;178;113;0.76044
1227690;0.51500;127.0000;178;113;0.76899
1227700;0.35500;126.7500;178;113;0.76899
1227710;0.24500;126.5625;178;113;0.76508
1227720;0.17000;126.1875;178;113;0.75702
1227730;0.11000;125.9375;178;113;0.73187
1227740;0.10000;125.6250;178;113;0.71355
1227750;0.11000;125.3125;178;113;0.69255
1227760;0.12000;124.5000;178;113;0.64591
1227770;0.17500;124.0625;178;113;0.62222
1227780;0.39000;123.5625;178;113;0.60000
1227790;0.59000;123.0000;178;113;0.58022
1227800;0.55500;122.4375;178;113;0.56337
1227810;0.55500;122.4375;178;113;0.56337
1227820;0.04000;120.7500;178;113;0.52943
1227830;-0.23000;120.2500;178;113;0.52259
1227840;-0.36000;119.8750;178;113;0.51624
1227850;-0.52000;119.2500;178;113;0.50379
1227860;-0.62000;119.0000;178;113;0.49744
1227870;-0.67000;118.8125;178;113;0.49035
1227880;-0.42500;118.4375;178;113;0.47448
1227890;0.00500;118.2500;178;113;0.46569
1227900;0.44500;118.0000;178;113;0.45641
1227910;0.20500;117.7500;178;113;0.44689
1227920;-0.12500;117.3125;178;113;0.43150
1227930;0.03000;117.0000;178;113;0.42320
1227940;0.26500;116.6875;178;113;0.41441
1227950;0.29000;116.3125;178;113;0.40586
1227960;0.23500;115.8750;178;113;0.39756
1227970;0.14500;114.9375;178;113;0.38291
1227980;0.07500;114.5000;178;113;0.37680
1227990;0.04000;114.1250;178;113;0.37094
1228000;0.01500;113.7500;178;113;0.36532
1228010;0.00000;113.1875;178;113;0.35556
1228020;0.00000;112.9375;178;113;0.35238
1228030;0.03000;112.7500;178;113;0.34969
1228040;0.07000;112.3750;178;113;0.34286
1228050;0.09000;112.1875;178;113;0.33919
1228060;0.10500;111.9375;178;113;0.33578
1228070;0.10500;111.6250;178;113;0.33236
1228080;0.10500;111.2500;178;113;0.32918
1228090;0.09500;110.5625;178;113;0.32234
1228100;0.08000;110.3125;178;113;0.31893
1228110;0.05500;110.1875;178;113;0.31526
1228120;0.04000;110.3125;178;113;0.31258
1228130;0.03500;113.1250;178;113;0.30891
1228140;0.04500;117.1875;178;113;0.30720
1228150;0.07500;123.7500;178;113;0.30525
1228160;0.13000;132.6250;178;113;0.30354
1228170;0.22000;151.9375;178;113;0.30061
1228180;0.29000;159.3750;178;113;0.29890
1228190;0.37000;164.4375;178;113;0.29719
1228200;0.43500;168.9375;178;113;0.29377
1228210;0.45500;169.5000;178;113;0.29255
1228220;0.43500;169.6250;178;113;0.29206
1228230;0.36500;169.5000;178;113;0.29206
1228240;0.24500;169.6250;178;113;0.29035
1228250;0.16000;170.1250;178;113;0.28938
1228260;0.06500;170.8750;178;113;0.28864
1228270;-0.02500;171.6875;178;113;0.28767
1228280;-0.06500;172.5000;178;113;0.28645
1228290;-0.10500;173.5625;178;113;0.28352
1228300;-0.13000;173.6875;178;113;0.28254
1228310;-0.14500;173.5000;178;113;0.28156
1228320;-0.16000;171.5625;178;113;0.28132
1228330;-0.16000;169.5625;178;113;0.28083
1228340;-0.15500;166.8125;178;113;0.28010
1228350;-0.13500;163.3125;178;113;0.27937
1228360;-0.13000;159.1250;178;113;0.27839
1228370;-0.14500;149.1250;178;113;0.27619
1228380;-0.17000;144.3125;178;113;0.27546
1228390;-0.18500;140.5625;178;113;0.27570
1228400;-0.19500;138.5625;178;113;0.27839
1228410;-0.20000;139.6250;178;113;0.29646
1228420;-0.19000;141.3125;178;113;0.31062
1228430;-0.19000;142.9375;178;113;0.32894
1228440;-0.19500;144.0000;178;113;0.35458
1228450;-0.22500;144.2500;178;113;0.42295
1228460;-0.25500;143.6250;178;113;0.46227
1228470;-0.27000;142.6250;178;113;0.50256
1228480;-0.29000;140.1875;178;113;0.57924
1228490;-0.30000;138.9375;178;113;0.61343
1228500;-0.27500;137.8125;178;113;0.64396
1228510;-0.17000;136.8125;178;113;0.67033
1228520;-0.11000;135.8750;178;113;0.68987
1228530;-0.05500;134.2500;178;113;0.72015
1228540;0.00000;133.5000;178;113;0.73431
1228550;0.02000;132.8125;178;113;0.74701
1228560;0.04000;132.1250;178;113;0.75849
1228570;0.06000;130.9375;178;113;0.77558
