RelativeTimeMilliseconds,ECG,ART,ART (Sys),ART (Dia),PPG
2134650,1.08000,69.1875,113,66,0.41709
2134660,0.93000,69.0000,113,66,0.41123
2134670,0.30000,68.8750,113,66,0.40537
2134680,-0.16000,68.7500,113,66,0.40024
2134690,-0.17500,68.4375,113,66,0.38999
2134700,-0.16000,68.2500,113,66,0.38462
2134710,-0.17000,68.0625,113,66,0.37900
2134720,-0.17500,67.6875,113,66,0.37363
2134730,-0.17000,67.5000,113,66,0.36264
2134740,-0.16000,67.3125,113,66,0.35726
2134750,-0.15500,67.0625,113,66,0.35189
2134760,-0.14500,66.8125,113,66,0.34676
2134770,-0.14000,66.4375,113,66,0.33675
2134780,-0.13500,66.2500,113,66,0.33309
2134790,-0.12500,66.0000,113,66,0.33016
2134800,-0.11500,65.5000,113,66,0.32259
2134810,-0.10500,65.3125,113,66,0.31868
2134820,-0.10000,65.0625,113,66,0.31453
2134830,-0.09000,64.9375,113,66,0.31038
2134840,-0.08500,64.8125,113,66,0.30647
2134850,-0.06500,64.8750,113,66,0.29988
2134860,-0.05500,65.2500,113,66,0.29670
2134870,-0.04500,66.3750,113,66,0.29353
2134880,-0.03000,71.7500,113,66,0.29158
2134890,-0.01500,76.1250,113,66,0.28791
2134900,0.00000,81.2500,113,66,0.28596
2134910,0.01500,86.5000,113,66,0.28376
2134920,0.04000,95.8750,113,66,0.27961
2134930,0.06000,99.6875,113,66,0.27790
2134940,0.09000,102.9375,113,66,0.27668
2134950,0.11500,105.8125,113,66,0.27570
2134960,0.14000,108.1250,113,66,0.27521
2134970,0.18000,111.1875,113,66,0.27424
2134980,0.20500,111.9375,113,66,0.27424
2134990,0.23500,112.3125,113,66,0.27473
2135000,0.26500,112.3750,113,66,0.27521
2135010,0.27500,112.3125,113,66,0.27546
2135020,0.26500,112.1250,113,66,0.27546
2135030,0.23500,111.8750,113,66,0.27546
2135040,0.17500,111.5625,113,66,0.27546
2135050,0.11000,110.7500,113,66,0.27546
2135060,0.04000,110.2500,113,66,0.27546
2135070,-0.03000,109.6250,113,66,0.27546
2135080,-0.06500,108.9375,113,66,0.27595
2135090,-0.09500,107.1250,113,66,0.27741
2135100,-0.12000,106.0000,113,66,0.27766
2135110,-0.13000,104.6875,113,66,0.27790
2135120,-0.13500,101.6875,113,66,0.27839
2135130,-0.14000,99.9375,113,66,0.28181
2135140,-0.14000,98.0000,113,66,0.28596
2135150,-0.13500,95.8750,113,66,0.29255
2135160,-0.14000,91.7500,113,66,0.31673
2135170,-0.14500,90.0000,113,66,0.33529
2135180,-0.14000,88.7500,113,66,0.35433
2135190,-0.13500,87.8750,113,66,0.37509
2135200,-0.13500,87.4375,113,66,0.40147
2135210,-0.13000,87.1875,113,66,0.46447
2135220,-0.13000,87.1250,113,66,0.49866
2135230,-0.12500,87.0625,113,66,0.53309
2135240,-0.12500,87.0625,113,66,0.59902
2135250,-0.12500,87.0625,113,66,0.62930
2135260,-0.12500,87.0625,113,66,0.65714
2135270,-0.11500,86.9375,113,66,0.68230
2135280,-0.11500,86.3750,113,66,0.71624
2135290,-0.11500,86.0000,113,66,0.73162
2135300,-0.11000,85.5625,113,66,0.74603
2135310,-0.10500,85.0625,113,66,0.75897
2135320,-0.10500,84.6250,113,66,0.76972
2135330,-0.10000,83.6875,113,66,0.78535
2135340,-0.09500,83.2500,113,66,0.79048
2135350,-0.09500,82.7500,113,66,0.79390
2135360,-0.09500,82.3125,113,66,0.79560
2135370,-0.09000,81.3750,113,66,0.79365
2135380,-0.08500,81.0000,113,66,0.78950
2135390,-0.08500,80.5625,113,66,0.78315
2135400,-0.08500,80.1875,113,66,0.77607
2135410,-0.08500,79.4375,113,66,0.75751
2135420,-0.08500,79.0625,113,66,0.74603
2135430,-0.08000,78.6875,113,66,0.73309
2135440,-0.08000,78.3750,113,66,0.71893
2135450,-0.07500,77.6875,113,66,0.68816
2135460,-0.06000,77.3750,113,66,0.67228
2135470,-0.03500,77.0000,113,66,0.65665
2135480,-0.01000,76.6875,113,66,0.64249
2135490,0.00500,76.1250,113,66,0.61661
2135500,0.01000,75.8125,113,66,0.60415
2135510,0.03000,75.5625,113,66,0.59243
2135520,0.04500,75.2500,113,66,0.58169
2135530,0.05000,74.7500,113,66,0.56215
2135540,0.02500,74.5000,113,66,0.55360
2135550,0.00000,74.2500,113,66,0.54554
2135560,-0.02500,73.7500,113,66,0.53797
2135570,-0.06000,73.5000,113,66,0.52381
2135580,-0.08000,73.3125,113,66,0.51746
2135590,-0.09500,73.1250,113,66,0.51136
2135600,-0.10000,72.9375,113,66,0.50476
2135610,-0.10000,72.5000,113,66,0.49133
2135620,-0.09500,72.3125,113,66,0.48425
2135630,-0.09500,72.0625,113,66,0.47741
2135640,-0.08500,71.9375,113,66,0.47082
2135650,-0.03500,71.5625,113,66,0.45763
2135660,0.43000,71.4375,113,66,0.45128
2135670,0.98000,71.3125,113,66,0.44469
2135680,1.33000,71.1875,113,66,0.43883
2135690,0.54000,70.8125,113,66,0.42759
2135700,-0.00500,70.6250,113,66,0.42173
2135710,-0.13500,70.4375,113,66,0.41587
2135720,-0.12500,70.1875,113,66,0.40415
2135730,-0.13500,70.0000,113,66,0.39829
2135740,-0.14000,69.8125,113,66,0.39243
2135750,-0.14000,69.6250,113,66,0.38657
2135760,-0.13500,69.3750,113,66,0.38071
2135770,-0.13500,68.8750,113,66,0.36972
2135780,-0.12500,68.6875,113,66,0.36508
2135790,-0.12000,68.4375,113,66,0.36117
2135800,-0.12000,68.4375,113,66,0.36117
2135810,-0.10500,67.7500,113,66,0.34750
2135820,-0.09500,67.5000,113,66,0.34310
2135830,-0.09000,67.3125,113,66,0.33871
2135840,-0.07500,66.8125,113,66,0.33114
2135850,-0.07000,66.6250,113,66,0.32747
2135860,-0.06000,66.5625,113,66,0.32357
2135870,-0.05000,66.6250,113,66,0.31990
2135880,-0.03500,67.0000,113,66,0.31746
2135890,-0.02000,69.6875,113,66,0.31258
2135900,-0.01000,72.6875,113,66,0.30989
2135910,0.01000,76.9375,113,66,0.30720
2135920,0.03000,87.5000,113,66,0.30232
2135930,0.04500,92.6250,113,66,0.30012
2135940,0.06500,97.2500,113,66,0.29817
2135950,0.09000,101.2500,113,66,0.29646
2135960,0.12000,107.7500,113,66,0.29402
2135970,0.14000,110.2500,113,66,0.29328
2135980,0.16500,112.3125,113,66,0.29328
2135990,0.20500,113.7500,113,66,0.29377
2136000,0.22500,114.6875,112,66,0.29402
2136010,0.25500,115.3750,112,66,0.29426
2136020,0.28500,115.4375,112,66,0.29451
2136030,0.29500,115.3750,112,66,0.29499
2136040,0.29500,115.3125,112,66,0.29548
2136050,0.27000,114.9375,112,66,0.29621
2136060,0.22500,114.6250,112,66,0.29670
2136070,0.15500,114.3125,112,66,0.29719
2136080,0.07000,113.3750,112,66,0.29915
2136090,0.02000,112.7500,112,66,0.30012
2136100,-0.02500,112.0000,112,66,0.30085
2136110,-0.06500,111.1875,112,66,0.30134
2136120,-0.09000,110.2500,112,66,0.30183
2136130,-0.11000,107.8125,112,66,0.30281
2136140,-0.12500,106.3125,112,66,0.30330
2136150,-0.13500,104.6250,112,66,0.30476
2136160,-0.13000,102.7500,112,66,0.30794
2136170,-0.13000,98.4375,112,66,0.32088
2136180,-0.13000,96.1250,112,66,0.33065
2136190,-0.13500,93.8750,112,66,0.34530
2136200,-0.13500,90.4375,112,66,0.36435
2136210,-0.13500,89.5000,112,66,0.41416
2136220,-0.13000,89.0000,112,66,0.44371
2136230,-0.12500,88.8750,112,66,0.47546
2136240,-0.12500,88.8125,112,66,0.50818
2136250,-0.12500,88.8125,112,66,0.57338
2136260,-0.12500,88.8750,112,66,0.60415
2136270,-0.12000,88.9375,112,66,0.63272
2136280,-0.11500,89.0000,112,66,0.65495
2136290,-0.11500,88.8750,112,66,0.69255
2136300,-0.11500,88.6250,112,66,0.71087
2136310,-0.11500,88.3125,112,66,0.72772
2136320,-0.11500,87.8750,112,66,0.74237
2136330,-0.11500,86.9375,112,66,0.76581
2136340,-0.11500,86.4375,112,66,0.77460
2136350,-0.11500,85.9375,112,66,0.78144
2136360,-0.11000,85.4375,112,66,0.78657
2136370,-0.10500,84.4375,112,66,0.79048
2136380,-0.10500,83.9375,112,66,0.77705
2136390,-0.10500,83.4375,112,66,0.75751
2136400,-0.10500,82.3125,112,66,0.73748
2136410,-0.10000,81.8125,112,66,0.72967
2136420,-0.09500,81.3125,112,66,0.72161
2136430,-0.09500,80.8125,112,66,0.71209
2136440,-0.09500,80.3750,112,66,0.70134
2136450,-0.09500,79.4375,112,66,0.67546
2136460,-0.09500,79.0625,112,66,0.66081
2136470,-0.09000,78.6250,112,66,0.64542
2136480,-0.08500,78.1875,112,66,0.63077
2136490,-0.08000,77.3750,112,66,0.60147
2136500,-0.06500,77.0000,112,66,0.58681
2136510,-0.03500,76.5625,112,66,0.57289
2136520,-0.00500,75.8750,112,66,0.54725
2136530,0.00500,75.5625,112,66,0.53602
2136540,0.01000,75.2500,112,66,0.52576
2136550,0.02000,74.9375,112,66,0.51624
2136560,0.04500,74.3750,112,66,0.49988
2136570,0.04000,74.0625,112,66,0.49280
2136580,0.02000,73.8125,112,66,0.48645
2136590,-0.01500,73.5000,112,66,0.47985
2136600,-0.04000,73.1875,112,66,0.47326
2136610,-0.07500,72.6250,112,66,0.46007
2136620,-0.09500,72.4375,112,66,0.45372
2136630,-0.10500,72.1875,112,66,0.44762
2136640,-0.11000,71.9375,112,66,0.44176
2136650,-0.11000,71.3750,112,66,0.43053
2136660,-0.10500,71.1875,112,66,0.42466
2136670,-0.10500,70.9375,112,66,0.41880
2136680,-0.08000,70.6250,112,66,0.40830
2136690,0.07500,70.4375,112,66,0.40244
2136700,0.58000,70.2500,112,66,0.39634
2136710,1.25500,70.0000,112,66,0.38999
2136720,1.04500,69.7500,112,66,0.38364
2136730,0.25000,69.3125,112,66,0.37143
2136740,-0.17000,69.1250,112,66,0.36557
2136750,-0.16000,68.9375,112,66,0.35946
2136760,-0.15500,68.8125,112,66,0.35336
2136770,-0.17500,68.4375,112,66,0.34188
2136780,-0.18000,68.1875,112,66,0.33700
2136790,-0.18000,67.8750,112,66,0.33138
2136800,-0.18000,67.8750,112,66,0.33138
2136810,-0.16500,67.0000,112,66,0.31380
2136820,-0.15500,66.6875,112,66,0.30794
2136830,-0.15000,66.4375,112,66,0.30232
2136840,-0.14000,66.1250,112,66,0.29695
2136850,-0.13500,65.6875,112,66,0.28596
2136860,-0.12500,65.4375,112,66,0.28059
2136870,-0.12000,65.2500,112,66,0.27521
2136880,-0.11000,65.0000,112,66,0.27106
2136890,-0.09500,64.5000,112,66,0.26325
2136900,-0.09000,64.3750,112,66,0.25861
2136910,-0.08000,64.4375,112,66,0.25397
2136920,-0.06500,65.4375,112,66,0.24493
2136930,-0.05500,67.0000,112,66,0.24078
2136940,-0.04000,69.6875,112,66,0.23687
2136950,-0.02500,73.5625,112,66,0.23346
2136960,-0.01500,78.3750,112,66,0.23053
2136970,0.00000,88.5000,112,66,0.22686
2136980,0.02000,93.0625,112,66,0.22613
2136990,0.04500,97.0625,112,66,0.22491
2137000,0.07500,103.2500,111,65,0.22125
2137010,0.10000,105.6875,111,65,0.21880
2137020,0.12500,107.6250,111,65,0.21563
2137030,0.16000,109.0625,111,65,0.21270
2137040,0.18500,110.0000,111,65,0.21074
2137050,0.21000,110.5625,111,65,0.20708
2137060,0.24000,110.4375,111,65,0.20537
2137070,0.24500,110.2500,111,65,0.20366
2137080,0.23000,110.0000,111,65,0.20317
2137090,0.18500,109.2500,111,65,0.20317
2137100,0.14000,108.8125,111,65,0.20220
2137110,0.06500,108.1875,111,65,0.20122
2137120,-0.01500,106.8750,111,65,0.19927
2137130,-0.06000,106.0000,111,65,0.19829
2137140,-0.10000,105.1250,111,65,0.19756
2137150,-0.13000,104.0625,111,65,0.19683
2137160,-0.15000,102.9375,111,65,0.19609
2137170,-0.16000,100.1875,111,65,0.19560
2137180,-0.16000,98.5000,111,65,0.19658
2137190,-0.16000,96.6875,111,65,0.19731
2137200,-0.16500,94.7500,111,65,0.19878
2137210,-0.16000,90.4375,111,65,0.20733
2137220,-0.16000,88.2500,111,65,0.21587
2137230,-0.16000,86.3750,111,65,0.22833
2137240,-0.16000,83.9375,111,65,0.26545
2137250,-0.16000,83.5000,111,65,0.28962
2137260,-0.15500,83.4375,111,65,0.31673
2137270,-0.15000,83.5625,111,65,0.34579
2137280,-0.15000,83.6250,111,65,0.37216
2137290,-0.14500,83.6875,111,65,0.42320
2137300,-0.14000,83.7500,111,65,0.45031
2137310,-0.14000,83.8125,111,65,0.47668
2137320,-0.13500,83.8125,111,65,0.50159
2137330,-0.13500,83.6250,111,65,0.54603
2137340,-0.13500,83.3750,111,65,0.56508
2137350,-0.13500,83.0000,111,65,0.58217
2137360,-0.13500,82.6250,111,65,0.59683
2137370,-0.14000,81.6875,111,65,0.61734
2137380,-0.14500,81.1875,111,65,0.62295
2137390,-0.14500,80.6875,111,65,0.62784
2137400,-0.14000,80.1875,111,65,0.63150
2137410,-0.13500,79.2500,111,65,0.63419
2137420,-0.13500,78.8125,111,65,0.63321
2137430,-0.13000,78.4375,111,65,0.63077
2137440,-0.13000,77.5625,111,65,0.62149
2137450,-0.12500,77.1875,111,65,0.61465
2137460,-0.12500,76.7500,111,65,0.60611
2137470,-0.12000,76.3750,111,65,0.59609
2137480,-0.11500,75.6875,111,65,0.58535
2137490,-0.11000,75.3125,111,65,0.56093
2137500,-0.11000,74.9375,111,65,0.54652
2137510,-0.09500,74.6250,111,65,0.53162
2137520,-0.06000,74.0000,111,65,0.50134
2137530,-0.03500,73.7500,111,65,0.48669
2137540,-0.02500,73.4375,111,65,0.47277
2137550,-0.02000,73.1250,111,65,0.45983
2137560,0.00000,72.8125,111,65,0.44811
2137570,0.02000,72.3125,111,65,0.42857
2137580,0.01500,72.0000,111,65,0.42125
2137590,-0.01500,71.7500,111,65,0.41416
2137600,-0.04500,71.3750,111,65,0.40098
2137610,-0.06500,71.1250,111,65,0.39512
2137620,-0.09500,70.8750,111,65,0.38974
2137630,-0.11500,70.6250,111,65,0.38437
2137640,-0.12500,70.3750,111,65,0.37900
2137650,-0.12500,69.9375,111,65,0.36850
2137660,-0.12500,69.7500,111,65,0.36313
2137670,-0.11500,69.5000,111,65,0.35775
2137680,-0.11000,69.1250,111,65,0.35311
2137690,-0.08500,68.9375,111,65,0.34432
2137700,0.05000,68.7500,111,65,0.33895
2137710,0.64000,68.5625,111,65,0.33358
2137720,1.07500,68.3750,111,65,0.32796
2137730,0.91500,68.1250,111,65,0.31722
2137740,0.18500,67.9375,111,65,0.31184
2137750,-0.19500,67.7500,111,65,0.30647
2137760,-0.16500,67.5625,111,65,0.30085
2137770,-0.14500,67.1875,111,65,0.29133
2137780,-0.15500,67.0000,111,65,0.28742
2137790,-0.15500,66.8125,111,65,0.28278
2137800,-0.15500,66.8125,111,65,0.28278
2137810,-0.14500,66.1875,111,65,0.26838
2137820,-0.14000,66.0000,111,65,0.26374
2137830,-0.13500,65.7500,111,65,0.25910
2137840,-0.12500,65.1875,111,65,0.25006
2137850,-0.12500,64.9375,111,65,0.24567
2137860,-0.12000,64.6875,111,65,0.24151
2137870,-0.11500,64.4375,111,65,0.23736
2137880,-0.10500,64.1875,111,65,0.23468
2137890,-0.09500,63.7500,111,65,0.22979
2137900,-0.08500,63.5625,111,65,0.22686
2137910,-0.07500,63.5000,111,65,0.22369
2137920,-0.06500,63.3750,111,65,0.22051
2137930,-0.05000,63.5000,111,65,0.21441
2137940,-0.03500,63.9375,111,65,0.21172
2137950,-0.02500,65.1875,111,65,0.20904
2137960,-0.01000,67.3750,111,65,0.20659
2137970,0.00500,74.7500,111,65,0.20317
2137980,0.02000,79.4375,111,65,0.20269
2137990,0.04000,84.1875,111,65,0.20171
2138000,0.06500,88.6250,111,65,0.20049
2138010,0.10000,95.8125,111,65,0.19805
2138020,0.12000,98.6875,111,65,0.19658
2138030,0.15500,101.0625,111,65,0.19536
2138040,0.19000,102.9375,111,65,0.19414
2138050,0.23000,105.2500,111,65,0.19219
2138060,0.25500,105.6875,111,65,0.19170
2138070,0.28000,105.7500,111,65,0.19219
2138080,0.28500,105.1875,111,65,0.19316
2138090,0.27500,104.6875,111,65,0.19292
2138100,0.23500,104.1875,111,65,0.19267
2138110,0.15500,103.5625,111,65,0.19243
2138120,0.09500,102.8125,111,65,0.19219
2138130,0.02000,101.2500,111,65,0.19170
2138140,-0.04500,100.3125,111,65,0.19194
2138150,-0.08000,99.3125,111,65,0.19194
2138160,-0.10500,98.2500,111,65,0.19194
2138170,-0.13000,95.8125,111,65,0.19267
2138180,-0.14000,94.4375,111,65,0.19365
2138190,-0.14500,92.9375,111,65,0.19438
2138200,-0.15500,89.3750,111,65,0.19585
2138210,-0.15500,87.4375,111,65,0.19805
2138220,-0.15500,85.4375,111,65,0.20171
2138230,-0.16000,83.5625,111,65,0.20781
2138240,-0.16000,80.8750,111,65,0.22955
2138250,-0.15500,80.3125,111,65,0.24615
2138260,-0.16000,80.1250,111,65,0.26642
2138270,-0.15500,80.1875,111,65,0.28694
2138280,-0.15000,80.3750,111,65,0.30842
2138290,-0.14000,80.6250,111,65,0.36288
2138300,-0.13500,80.6875,111,65,0.39267
2138310,-0.13500,80.7500,111,65,0.42247
2138320,-0.13000,80.8125,111,65,0.48034
2138330,-0.12500,80.8125,111,65,0.50672
2138340,-0.12500,80.6250,111,65,0.53065
2138350,-0.12500,80.3750,111,65,0.55214
2138360,-0.12500,80.0000,111,65,0.57118
2138370,-0.12000,79.1875,111,65,0.59976
2138380,-0.12000,78.6875,111,65,0.60855
2138390,-0.11500,78.2500,111,65,0.61709
2138400,-0.11500,77.8125,111,65,0.62442
2138410,-0.11000,77.0000,111,65,0.63370
2138420,-0.10500,76.6250,111,65,0.63565
2138430,-0.10500,76.1875,111,65,0.64078
2138440,-0.10500,75.5000,111,65,0.64786
2138450,-0.10500,75.1250,111,65,0.64542
2138460,-0.09500,74.8125,111,65,0.64029
2138470,-0.09500,74.5000,111,65,0.63370
2138480,-0.09500,73.8125,111,65,0.61709
2138490,-0.09500,73.4375,111,65,0.60659
2138500,-0.09000,73.1250,111,65,0.59536
2138510,-0.08500,72.8125,111,65,0.58315
2138520,-0.07500,72.5000,111,65,0.57070
2138530,-0.04500,71.9375,111,65,0.54530
2138540,-0.01500,71.6250,111,65,0.53309
2138550,-0.00500,71.3125,111,65,0.52161
2138560,-0.00500,71.0625,111,65,0.51136
2138570,0.01500,70.5000,111,65,0.49377
2138580,0.03500,70.3125,111,65,0.48694
2138590,0.03000,70.0625,111,65,0.48034
2138600,-0.00500,69.6250,111,65,0.46862
2138610,-0.03000,69.3750,111,65,0.46325
2138620,-0.05500,69.1875,111,65,0.45788
2138630,-0.07500,68.9375,111,65,0.45250
2138640,-0.09500,68.7500,111,65,0.44737
2138650,-0.10500,68.3125,111,65,0.43761
2138660,-0.10500,68.1250,111,65,0.43297
2138670,-0.10500,67.9375,111,65,0.42882
2138680,-0.09500,67.6250,111,65,0.42491
2138690,-0.08500,67.4375,111,65,0.41587
2138700,-0.07500,67.3125,111,65,0.41123
2138710,0.06000,67.1250,111,65,0.40635
2138720,0.61000,66.8125,111,65,0.39658
2138730,1.04000,66.6875,111,65,0.39170
2138740,0.99500,66.5000,111,65,0.38681
2138750,0.12500,66.3750,111,65,0.38193
2138760,-0.16500,66.2500,111,65,0.37705
2138770,-0.15500,65.9375,111,65,0.36825
2138780,-0.14000,65.7500,111,65,0.36484
2138790,-0.14500,65.5625,111,65,0.36093
2138800,-0.14500,65.1250,111,65,0.35214
2138810,-0.14500,64.9375,111,65,0.34774
2138820,-0.13500,64.7500,111,65,0.34335
2138830,-0.13000,64.5625,111,65,0.33895
2138840,-0.12500,64.1250,111,65,0.33089
2138850,-0.12000,63.9375,111,65,0.32723
2138860,-0.11500,63.6875,111,65,0.32357
2138870,-0.10500,63.4375,111,65,0.32063
2138880,-0.10000,63.1875,111,65,0.31844
2138890,-0.08500,62.7500,111,65,0.31209
2138900,-0.08000,62.5000,111,65,0.30891
2138910,-0.07000,62.3750,111,65,0.30574
2138920,-0.05500,62.1875,111,65,0.29963
2138930,-0.05000,62.1250,111,65,0.29670
2138940,-0.03500,62.2500,111,65,0.29402
2138950,-0.02500,62.7500,111,65,0.29158
2138960,-0.01000,63.8750,111,65,0.28913
2138970,0.00000,69.2500,111,65,0.28547
2138980,0.01500,73.4375,111,65,0.28449
2138990,0.03000,78.1250,111,65,0.28303
2139000,0.04500,82.8750,110,65,0.28132
2139010,0.07000,91.3125,110,65,0.27863
2139020,0.09500,94.8125,110,65,0.27741
2139030,0.12500,97.7500,110,65,0.27619
2139040,0.16000,102.2500,110,65,0.27399
2139050,0.18500,103.8125,110,65,0.27277
2139060,0.22000,104.8125,110,65,0.27179
2139070,0.25500,105.3125,110,65,0.27155
2139080,0.27500,105.4375,110,65,0.27179
2139090,0.29000,105.0625,110,65,0.27106
2139100,0.27500,104.6875,110,65,0.27057
2139110,0.24500,104.1875,110,65,0.27033
2139120,0.16500,102.9375,110,65,0.27009
2139130,0.11000,102.2500,110,65,0.27009
2139140,0.04000,101.5000,110,65,0.27009
2139150,-0.03500,100.6875,110,65,0.27033
2139160,-0.07000,98.8750,110,65,0.27033
2139170,-0.09000,97.8125,110,65,0.27106
2139180,-0.10500,96.5000,110,65,0.27204
2139190,-0.12000,95.0625,110,65,0.27228
2139200,-0.13000,93.5000,110,65,0.27228
2139210,-0.13500,90.1250,110,65,0.27326
2139220,-0.13500,88.1875,110,65,0.27497
2139230,-0.13500,86.2500,110,65,0.27814
2139240,-0.13500,82.5625,110,65,0.29133
2139250,-0.13500,81.2500,110,65,0.30281
2139260,-0.13500,80.5000,110,65,0.31770
2139270,-0.13500,80.1250,110,65,0.33333
2139280,-0.13000,80.1250,110,65,0.35067
2139290,-0.13000,80.3750,110,65,0.39731
2139300,-0.13000,80.4375,110,65,0.42442
2139310,-0.12500,80.5000,110,65,0.45250
2139320,-0.12500,80.6250,110,65,0.50891
2139330,-0.12000,80.6875,110,65,0.53602
2139340,-0.11500,80.6875,110,65,0.56166
2139350,-0.11500,80.5625,110,65,0.58584
2139360,-0.11500,80.1250,110,65,0.62759
2139370,-0.11500,79.7500,110,65,0.64249
2139380,-0.11000,79.3125,110,65,0.65372
2139390,-0.11000,78.8750,110,65,0.66471
2139400,-0.10500,78.4375,110,65,0.67424
2139410,-0.10000,77.4375,110,65,0.68767
2139420,-0.10000,77.0000,110,65,0.69158
2139430,-0.09500,76.5625,110,65,0.69353
2139440,-0.09500,76.1875,110,65,0.69402
2139450,-0.09500,75.5000,110,65,0.69060
2139460,-0.09500,75.1250,110,65,0.68669
2139470,-0.09500,74.8125,110,65,0.68132
2139480,-0.09000,74.5000,110,65,0.67473
2139490,-0.09000,73.8125,110,65,0.65788
2139500,-0.09000,73.5000,110,65,0.64737
2139510,-0.09000,73.1250,110,65,0.63590
2139520,-0.09000,72.8125,110,65,0.62344
2139530,-0.07500,72.2500,110,65,0.59829
2139540,-0.05500,71.9375,110,65,0.58608
2139550,-0.02500,71.6875,110,65,0.57436
2139560,-0.01500,71.3750,110,65,0.56313
2139570,-0.01500,70.8125,110,65,0.54359
2139580,-0.01500,70.8125,110,65,0.54359
2139590,-0.01500,70.8125,110,65,0.54359
2139600,0.02000,69.8125,110,65,0.51233
2139610,0.00500,69.5625,110,65,0.50574
2139620,-0.03000,69.3750,110,65,0.49939
2139630,-0.04500,69.1250,110,65,0.49328
2139640,-0.07000,68.8750,110,65,0.48767
2139650,-0.09500,68.4375,110,65,0.47668
2139660,-0.09500,68.1875,110,65,0.47106
2139670,-0.09500,68.0000,110,65,0.46593
2139680,-0.09500,67.8125,110,65,0.46129
2139690,-0.09500,67.4375,110,65,0.45128
2139700,-0.09000,67.2500,110,65,0.44615
2139710,-0.07500,67.1250,110,65,0.44103
2139720,0.01000,67.0000,110,65,0.43590
2139730,0.39000,66.7500,110,65,0.42515
2139740,1.06000,66.6250,110,65,0.41954
2139750,1.06000,66.5000,110,65,0.41368
2139760,0.40000,66.3750,110,65,0.40781
2139770,-0.12500,66.0625,110,65,0.39829
2139780,-0.16000,65.8750,110,65,0.39316
2139790,-0.14500,65.7500,110,65,0.38803
2139800,-0.14500,65.7500,110,65,0.38803
2139810,-0.14500,65.2500,110,65,0.37363
2139820,-0.14500,65.0000,110,65,0.36899
2139830,-0.13500,64.7500,110,65,0.36459
2139840,-0.12500,64.2500,110,65,0.35580
2139850,-0.11500,64.0625,110,65,0.35140
2139860,-0.11000,63.8750,110,65,0.34725
2139870,-0.10500,63.6875,110,65,0.34408
2139880,-0.10000,63.3125,110,65,0.33724
2139890,-0.09500,63.0000,110,65,0.33333
2139900,-0.08500,62.6875,110,65,0.32943
2139910,-0.07500,62.4375,110,65,0.32552
2139920,-0.06500,62.1875,110,65,0.32161
2139930,-0.05500,62.0000,110,65,0.31477
2139940,-0.04500,61.9375,110,65,0.31160
2139950,-0.04000,62.0000,110,65,0.30891
2139960,-0.02500,63.4375,110,65,0.30501
2139970,-0.01500,65.3750,110,65,0.30427
2139980,-0.00500,68.5000,110,65,0.30281
2139990,0.01500,72.6250,110,65,0.30134
2140000,0.03000,77.3750,111,65,0.29963
2140010,0.05500,87.0000,111,65,0.29597
2140020,0.07500,91.1250,111,65,0.29426
2140030,0.10500,94.7500,111,65,0.29280
2140040,0.13000,97.8125,111,65,0.29133
2140050,0.15500,102.5625,111,65,0.28889
2140060,0.19500,104.2500,111,65,0.28767
2140070,0.21500,105.3750,111,65,0.28718
2140080,0.26000,106.3125,111,65,0.28596
2140090,0.28000,106.3125,111,65,0.28474
2140100,0.29500,106.1250,111,65,0.28352
2140110,0.29000,105.8125,111,65,0.28278
2140120,0.26500,105.0000,111,65,0.28230
2140130,0.19500,104.5000,111,65,0.28205
2140140,0.13500,103.9375,111,65,0.28205
2140150,0.06000,103.2500,111,65,0.28205
2140160,-0.01500,101.6875,111,65,0.28254
2140170,-0.05500,100.7500,111,65,0.28327
2140180,-0.09000,99.6875,111,65,0.28303
2140190,-0.11500,98.5625,111,65,0.28254
2140200,-0.12500,97.3125,111,65,0.28181
2140210,-0.14000,94.4375,111,65,0.28059
2140220,-0.14750,92.7500,111,65,0.28034
2140230,-0.15000,90.9375,111,65,0.28107
2140240,-0.15000,88.9375,111,65,0.28327
2140250,-0.15000,84.8125,111,65,0.29499
2140260,-0.15000,83.0000,111,65,0.30598
2140270,-0.14500,81.6250,111,65,0.31868
2140280,-0.14500,80.5000,111,65,0.33333
2140290,-0.14500,80.5000,111,65,0.37607
2140300,-0.14500,80.6250,111,65,0.40195
2140310,-0.14000,80.8125,111,65,0.43736
2140320,-0.13500,81.0625,111,65,0.50427
2140330,-0.13500,81.1250,111,65,0.52454
2140340,-0.13000,81.2500,111,65,0.54774
2140350,-0.13000,81.3125,111,65,0.57118
2140360,-0.13000,81.3125,111,65,0.59365
2140370,-0.13000,80.9375,111,65,0.62613
2140380,-0.12500,80.6250,111,65,0.64151
2140390,-0.12500,80.1875,111,65,0.65592
2140400,-0.12000,79.2500,111,65,0.68034
2140410,-0.12000,78.7500,111,65,0.69011
2140420,-0.11500,78.3125,111,65,0.69792
2140430,-0.11500,77.8750,111,65,0.70379
2140440,-0.11000,77.5000,111,65,0.70769
2140450,-0.10500,76.6250,111,65,0.71062
2140460,-0.10500,76.2500,111,65,0.70965
2140470,-0.10000,75.8750,111,65,0.70647
2140480,-0.09500,75.5000,111,65,0.71013
2140490,-0.09500,74.7500,111,65,0.71551
2140500,-0.09500,74.3750,111,65,0.70891
2140510,-0.09500,74.0625,111,65,0.69915
2140520,-0.09000,73.4375,111,65,0.67350
2140530,-0.08500,73.1250,111,65,0.65910
2140540,-0.07500,72.8125,111,65,0.64396
2140550,-0.05500,72.5000,111,65,0.62857
2140560,-0.02500,72.1875,111,65,0.61343
2140570,-0.00500,71.6250,111,65,0.58730
2140580,-0.00500,71.3125,111,65,0.57460
2140590,0.01000,71.0625,111,65,0.56264
2140600,0.04000,70.8125,111,65,0.55116
2140610,0.05000,70.3125,111,65,0.53065
2140620,0.02000,70.0625,111,65,0.52161
2140630,-0.02000,69.8125,111,65,0.51306
2140640,-0.03500,69.5625,111,65,0.50525
2140650,-0.05500,69.1250,111,65,0.49182
2140660,-0.08500,68.8750,111,65,0.48571
2140670,-0.10000,68.6875,111,65,0.48059
2140680,-0.10500,68.2500,111,65,0.47033
2140690,-0.10500,68.0625,111,65,0.46471
2140700,-0.10000,67.8750,111,65,0.45910
2140710,-0.09000,67.7500,111,65,0.45324
2140720,-0.08500,67.4375,111,65,0.44078
2140730,-0.02000,67.3125,111,65,0.43443
2140740,0.41000,67.1250,111,65,0.42808
2140750,0.89000,67.0000,111,65,0.42173
2140760,1.12500,66.8125,111,65,0.41538
2140770,0.39500,66.5000,111,65,0.40488
2140780,-0.07000,66.3750,111,65,0.39902
2140790,-0.17000,66.1875,111,65,0.39316
2140800,-0.17000,66.1875,111,65,0.39316
2140810,-0.14500,65.6250,111,65,0.37558
2140820,-0.15000,65.3750,111,65,0.36972
2140830,-0.15000,65.1875,111,65,0.36410
2140840,-0.14500,65.0000,111,65,0.35873
2140850,-0.14000,64.6250,111,65,0.34823
2140860,-0.13500,64.4375,111,65,0.34310
2140870,-0.12500,64.2500,111,65,0.33895
2140880,-0.11500,63.8125,111,65,0.33138
2140890,-0.11000,63.6250,111,65,0.32723
2140900,-0.10500,63.3750,111,65,0.32308
2140910,-0.10000,63.1875,111,65,0.31893
2140920,-0.09500,63.0000,111,65,0.31502
2140930,-0.08000,62.7500,111,65,0.30696
2140940,-0.06500,62.6250,111,65,0.30281
2140950,-0.06000,62.5625,111,65,0.29866
2140960,-0.05000,63.0625,111,65,0.29499
2140970,-0.03500,64.1250,111,65,0.29060
2140980,-0.02500,66.0625,111,65,0.28816
2140990,-0.01000,69.1875,111,65,0.28547
2141000,0.00000,73.3125,111,65,0.28254
2141010,0.01500,83.0625,111,65,0.27717
2141020,0.03500,87.7500,111,65,0.27497
2141030,0.06000,92.0000,111,65,0.27302
2141040,0.08000,95.6875,111,65,0.27131
2141050,0.11000,101.6250,111,65,0.26813
2141060,0.13500,103.8750,111,65,0.26667
2141070,0.16500,105.6250,111,65,0.26618
2141080,0.19500,107.5625,111,65,0.26593
2141090,0.23500,107.9375,111,65,0.26422
2141100,0.26000,107.9375,111,65,0.26325
2141110,0.27500,107.8125,111,65,0.26252
2141120,0.27500,107.1875,111,65,0.26105
2141130,0.25500,106.8125,111,65,0.26056
2141140,0.20000,106.4375,111,65,0.26032
2141150,0.11500,105.9375,111,65,0.26007
2141160,0.06000,105.3125,111,65,0.26007
2141170,-0.00500,103.9375,111,65,0.26178
2141180,-0.05500,103.0625,111,65,0.26203
2141190,-0.08500,102.1250,111,65,0.26227
2141200,-0.11000,101.0625,111,65,0.26227
2141210,-0.12500,98.5000,111,65,0.26252
2141220,-0.13500,97.0000,111,65,0.26276
2141230,-0.14000,95.3125,111,65,0.26325
2141240,-0.14000,91.5625,111,65,0.26471
2141250,-0.13500,89.4375,111,65,0.27350
2141260,-0.14000,87.3125,111,65,0.28205
2141270,-0.14000,85.3125,111,65,0.29255
2141280,-0.14000,82.5625,111,65,0.32357
2141290,-0.13500,82.0000,111,65,0.34579
2141300,-0.13500,81.8750,111,65,0.37216
2141310,-0.13500,82.0000,111,65,0.40147
2141320,-0.13000,82.2500,111,65,0.43297
2141330,-0.12500,82.5625,111,65,0.49939
2141340,-0.12500,82.6250,111,65,0.53968
2141350,-0.12000,82.7500,111,65,0.57509
2141360,-0.11500,82.8750,111,65,0.62076
2141370,-0.11000,82.8125,111,65,0.63932
2141380,-0.10500,82.6250,111,65,0.65910
2141390,-0.10500,82.3125,111,65,0.67839
2141400,-0.10000,81.9375,111,65,0.69597
2141410,-0.09500,81.0000,111,65,0.72527
2141420,-0.09500,80.5625,111,65,0.73675
2141430,-0.09500,80.1250,111,65,0.74725
2141440,-0.09500,79.6875,111,65,0.75531
2141450,-0.09000,78.8750,111,65,0.76313
2141460,-0.08500,78.4375,111,65,0.76313
2141470,-0.08500,78.0000,111,65,0.76020
2141480,-0.08000,77.2500,111,65,0.75336
2141490,-0.08000,76.9375,111,65,0.74579
2141500,-0.08000,76.5625,111,65,0.73968
2141510,-0.07500,76.2500,111,65,0.73089
2141520,-0.07500,75.9375,111,65,0.72063
2141530,-0.07500,75.2500,111,65,0.69426
2141540,-0.07000,74.9375,111,65,0.67937
2141550,-0.06500,74.6875,111,65,0.65983
2141560,-0.05000,74.4375,111,65,0.64322
2141570,-0.02500,73.8750,111,65,0.61416
2141580,0.00000,73.6250,111,65,0.60049
2141590,0.01000,73.3750,111,65,0.58779
2141600,0.01000,73.0625,111,65,0.57607
2141610,0.03000,72.5625,111,65,0.55580
2141620,0.05000,72.3125,111,65,0.54701
2141630,0.06000,72.0625,111,65,0.53919
2141640,0.03500,71.6250,111,65,0.53187
2141650,-0.00500,71.4375,111,65,0.52137
2141660,-0.03000,71.2500,111,65,0.51477
2141670,-0.06500,71.0625,111,65,0.50867
2141680,-0.07500,70.8125,111,65,0.50281
2141690,-0.08500,70.4375,111,65,0.49109
2141700,-0.09500,70.2500,111,65,0.48523
2141710,-0.09500,70.0625,111,65,0.47937
2141720,-0.09500,69.8750,111,65,0.47350
2141730,-0.09000,69.5625,111,65,0.46105
2141740,-0.09000,69.3750,111,65,0.45446
2141750,-0.01000,69.2500,111,65,0.44811
2141760,0.39000,68.9375,111,65,0.44249
2141770,1.13500,68.7500,111,65,0.43199
2141780,1.20000,68.6250,111,65,0.42662
2141790,0.37000,68.5000,111,65,0.42149
2141800,0.37000,68.5000,111,65,0.42149
2141810,-0.15500,68.1250,111,65,0.40586
2141820,-0.15500,67.9375,111,65,0.40073
2141830,-0.17500,67.8125,111,65,0.39560
2141840,-0.18000,67.6250,111,65,0.39048
2141850,-0.18500,67.2500,111,65,0.38144
2141860,-0.17500,67.0625,111,65,0.37778
2141870,-0.16000,66.8750,111,65,0.37387
2141880,-0.15500,66.6250,111,65,0.36972
2141890,-0.14500,66.1875,111,65,0.36166
2141900,-0.14000,66.0000,111,65,0.35775
2141910,-0.13500,65.8125,111,65,0.35385
2141920,-0.13500,65.3750,111,65,0.34603
2141930,-0.12500,65.1250,111,65,0.34237
2141940,-0.11500,64.9375,111,65,0.33895
2141950,-0.09000,64.8125,111,65,0.33553
2141960,-0.07500,64.7500,111,65,0.33309
2141970,-0.06000,65.0000,111,65,0.32894
2141980,-0.04500,65.7500,111,65,0.32650
2141990,-0.03000,67.2500,111,65,0.32405
2142000,-0.01500,69.8125,111,65,0.32161
2142010,0.00000,78.3750,111,65,0.31673
2142020,0.03000,83.5625,111,65,0.31477
2142030,0.04500,88.6875,111,65,0.31306
2142040,0.07000,93.3750,111,65,0.31160
2142050,0.10000,101.0000,111,65,0.30940
2142060,0.12000,104.0000,111,65,0.30916
2142070,0.15000,106.6250,111,65,0.30818
2142080,0.17500,110.2500,111,65,0.30720
2142090,0.21500,111.3125,111,65,0.30525
2142100,0.24500,111.9375,111,65,0.30452
2142110,0.28000,112.2500,111,65,0.30427
2142120,0.31000,112.3125,111,65,0.30403
2142130,0.32000,112.1875,111,65,0.30403
2142140,0.31500,112.0000,111,65,0.30403
2142150,0.28500,111.8125,111,65,0.30403
2142160,0.22000,111.2500,111,65,0.30525
2142170,0.16500,110.8125,111,65,0.30574
2142180,0.09000,110.2500,111,65,0.30598
2142190,0.02000,109.6875,111,65,0.30598
2142200,-0.02000,108.9375,111,65,0.30598
2142210,-0.05500,107.1875,111,65,0.30525
2142220,-0.07500,106.1250,111,65,0.30476
2142230,-0.09500,104.8750,111,65,0.30427
2142240,-0.10000,103.3750,111,65,0.30452
2142250,-0.10500,99.9375,111,65,0.30891
2142260,-0.11500,97.9375,111,65,0.31404
2142270,-0.11500,95.7500,111,65,0.32259
2142280,-0.11500,93.5000,111,65,0.33504
2142290,-0.12000,89.0000,111,65,0.37289
2142300,-0.12000,87.2500,111,65,0.39780
2142310,-0.11500,86.0625,111,65,0.42589
2142320,-0.12000,85.4375,111,65,0.45641
2142330,-0.12500,85.3750,111,65,0.52137
2142340,-0.12500,85.5625,111,65,0.55385
2142350,-0.12500,85.6875,111,65,0.58535
2142360,-0.12500,85.8125,111,65,0.61123
2142370,-0.13000,86.1250,111,65,0.65714
2142380,-0.12500,86.2500,111,65,0.68010
2142390,-0.11500,86.3125,111,65,0.70159
2142400,-0.10500,86.2500,111,65,0.72088
2142410,-0.10000,85.6875,111,65,0.75311
2142420,-0.09500,85.3125,111,65,0.76630
2142430,-0.09500,84.8750,111,65,0.77729
2142440,-0.09500,84.3750,111,65,0.78632
2142450,-0.09500,83.4375,111,65,0.79707
2142460,-0.09500,83.0000,111,65,0.79805
2142470,-0.09500,82.5625,111,65,0.79927
2142480,-0.09500,81.6875,111,65,0.79951
2142490,-0.09500,81.2500,111,65,0.79731
2142500,-0.09000,80.8750,111,65,0.79316
2142510,-0.08500,80.5000,111,65,0.78755
2142520,-0.07500,80.1250,111,65,0.76777
2142530,-0.07500,79.4375,111,65,0.72039
2142540,-0.07500,79.0625,111,65,0.70403
2142550,-0.07500,78.6875,111,65,0.68840
2142560,-0.07500,78.3125,111,65,0.67375
2142570,-0.07500,77.6250,111,65,0.64493
2142580,-0.06500,77.3125,111,65,0.63004
2142590,-0.04500,77.0000,111,65,0.61563
2142600,-0.01000,76.3125,111,65,0.58852
2142610,0.01000,76.0625,111,65,0.57656
2142620,0.03500,75.7500,111,65,0.56557
2142630,0.05000,75.5000,111,65,0.55556
2142640,0.05000,75.2500,111,65,0.54628
2142650,0.06000,74.7500,111,65,0.53065
2142660,0.06000,74.5625,111,65,0.52430
2142670,0.04000,74.3750,111,65,0.51819
2142680,0.01000,74.2500,111,65,0.51233
2142690,-0.01500,73.9375,111,65,0.50159
2142700,-0.04000,73.6875,111,65,0.49646
2142710,-0.05500,73.3750,111,65,0.49133
2142720,-0.08500,72.8125,111,65,0.48034
2142730,-0.09000,72.5625,111,65,0.47473
2142740,-0.09500,72.3125,111,65,0.46886
2142750,-0.08500,72.1250,111,65,0.46325
2142760,-0.08500,71.8125,111,65,0.45348
2142770,-0.08500,71.6250,111,65,0.44835
2142780,-0.05000,71.5000,111,65,0.44322
2142790,0.36000,71.4375,111,65,0.43785
2142800,0.36000,71.4375,111,65,0.43785
2142810,1.40000,71.0000,111,65,0.42222
2142820,0.87500,70.8750,111,65,0.41685
2142830,0.08500,70.7500,111,65,0.41148
2142840,-0.11500,70.5000,111,65,0.40122
2142850,-0.10500,70.3750,111,65,0.39658
2142860,-0.12500,70.2500,111,65,0.39267
2142870,-0.14500,70.1250,111,65,0.38803
2142880,-0.15000,69.9375,111,65,0.38339
2142890,-0.15000,69.5625,111,65,0.37436
2142900,-0.15000,69.2500,111,65,0.36996
2142910,-0.14500,69.0000,111,65,0.36581
2142920,-0.14000,68.7500,111,65,0.36166
2142930,-0.15000,68.2500,111,65,0.35433
2142940,-0.17000,68.0000,111,65,0.35116
2142950,-0.17000,67.7500,111,65,0.34823
2142960,-0.16000,67.5000,111,65,0.34579
2142970,-0.14000,66.9375,111,65,0.34115
2142980,-0.12500,66.7500,111,65,0.33846
2142990,-0.09500,66.6875,111,65,0.33578
2143000,-0.05500,67.2500,110,65,0.33114
2143010,-0.03500,68.2500,110,65,0.32918
2143020,-0.01500,70.1250,110,65,0.32772
2143030,0.00000,73.2500,110,65,0.32698
2143040,0.02000,77.6875,110,65,0.32698
2143050,0.05000,88.9375,110,65,0.32845
2143060,0.09000,94.4375,110,65,0.32991
2143070,0.11500,99.2500,110,65,0.33138
2143080,0.13500,103.2500,110,65,0.33284
2143090,0.16000,109.2500,110,65,0.33675
2143100,0.18000,111.4375,110,65,0.33895
2143110,0.20500,113.0000,110,65,0.34115
2143120,0.22500,114.0000,110,65,0.34310
2143130,0.25500,114.5625,110,65,0.34774
2143140,0.26500,114.4375,110,65,0.35043
2143150,0.28500,114.1250,110,65,0.35311
2143160,0.29000,113.4375,110,65,0.35873
2143170,0.28500,113.0625,110,65,0.36166
2143180,0.25500,112.6875,110,65,0.36459
2143190,0.20500,112.2500,110,65,0.36752
2143200,0.16000,111.7500,110,65,0.37021
2143210,0.10000,110.5000,110,65,0.37509
2143220,0.02000,109.8125,110,65,0.37705
2143230,-0.02000,109.0625,110,65,0.37875
2143240,-0.06500,107.2500,110,65,0.38022
2143250,-0.09500,106.2500,110,65,0.38266
2143260,-0.11000,105.0000,110,65,0.38388
2143270,-0.12000,103.6250,110,65,0.38559
2143280,-0.12500,102.1250,110,65,0.38828
2143290,-0.15500,98.5625,110,65,0.39976
2143300,-0.20000,96.5625,110,65,0.41026
2143310,-0.22000,94.4375,110,65,0.42442
2143320,-0.23500,90.6250,110,65,0.44274
2143330,-0.22500,89.3125,110,65,0.49011
2143340,-0.21000,88.4375,110,65,0.51746
2143350,-0.18500,88.0000,110,65,0.54603
2143360,-0.12500,87.8125,110,65,0.59292
2143370,-0.08000,87.8750,110,65,0.61758
2143380,-0.04500,87.9375,110,65,0.64225
2143390,-0.03000,88.1250,110,65,0.66593
2143400,-0.02000,88.3750,110,65,0.68791
2143410,-0.00500,88.7500,110,65,0.72601
2143420,-0.01000,88.7500,110,65,0.74188
2143430,-0.03000,88.6250,110,65,0.75556
2143440,-0.05500,88.3125,110,65,0.76703
2143450,-0.08500,87.5000,110,65,0.78144
2143460,-0.09500,86.8750,110,65,0.78388
2143470,-0.10500,86.2500,110,65,0.78608
2143480,-0.12500,85.5000,110,65,0.78706
2143490,-0.13500,83.8750,110,65,0.78559
2143500,-0.15000,83.0625,110,65,0.78266
2143510,-0.15500,82.1875,110,65,0.77827
2143520,-0.16000,81.3750,110,65,0.77241
2143530,-0.16000,79.8750,110,65,0.75678
2143540,-0.15500,79.2500,110,65,0.74701
2143550,-0.15500,78.6250,110,65,0.73675
2143560,-0.16000,78.1250,110,65,0.72576
2143570,-0.16000,77.3125,110,65,0.70037
2143580,-0.15500,76.9375,110,65,0.68620
2143590,-0.14000,76.6250,110,65,0.67106
2143600,-0.12500,76.0000,110,65,0.63907
2143610,-0.11500,75.6875,110,65,0.62271
2143620,-0.09500,75.3750,110,65,0.60635
2143630,-0.05500,75.0000,110,65,0.59023
2143640,-0.02500,74.6875,110,65,0.57460
2143650,-0.00500,74.1250,110,65,0.54701
2143660,-0.00500,73.8750,110,65,0.53553
2143670,0.00000,73.6875,110,65,0.52454
2143680,0.02500,73.4375,110,65,0.51429
2143690,0.03000,73.0625,110,65,0.49719
2143700,0.01000,72.8750,110,65,0.49011
2143710,-0.02500,72.6875,110,65,0.48352
2143720,-0.05000,72.3125,110,65,0.47717
2143730,-0.08000,72.1250,110,65,0.46447
2143740,-0.09500,71.9375,110,65,0.45714
2143750,-0.10500,71.8125,110,65,0.45031
2143760,-0.11500,71.5000,110,65,0.43492
2143770,-0.11500,71.3125,110,65,0.42589
2143780,-0.11500,71.1250,110,65,0.41636
2143790,-0.10500,70.8750,110,65,0.40684
2143800,-0.09000,70.6875,110,65,0.39707
2143810,-0.01000,70.2500,110,65,0.37900
2143820,0.44500,70.0625,110,65,0.37070
2143830,0.98500,69.8125,110,65,0.36313
2143840,0.99500,69.6250,110,65,0.35604
2143850,0.21500,69.3750,110,65,0.34432
2143860,-0.14500,69.2500,110,65,0.33968
2143870,-0.16000,69.0000,110,65,0.33407
2143880,-0.12500,68.7500,110,65,0.32796
2143890,-0.09000,68.1875,110,65,0.31453
2143900,-0.07500,67.8750,110,65,0.30745
2143910,-0.07500,67.6875,110,65,0.30061
2143920,-0.07500,67.6250,110,65,0.29402
2143930,-0.09000,67.6250,110,65,0.28132
2143940,-0.10500,67.4375,110,65,0.27546
2143950,-0.11500,67.1875,110,65,0.27106
2143960,-0.13000,66.7500,110,65,0.26764
2143970,-0.13000,65.8750,110,65,0.26081
2143980,-0.12000,65.5000,110,65,0.25739
2143990,-0.11500,65.2500,110,65,0.25446
2144000,-0.10500,65.0625,110,65,0.25153
2144010,-0.10000,64.7500,110,65,0.24542
2144020,-0.10500,64.5625,110,65,0.24225
2144030,-0.10500,64.4375,110,65,0.23907
2144040,-0.10000,64.3750,110,65,0.23590
2144050,-0.08500,65.1875,110,65,0.23077
2144060,-0.07500,66.6875,110,65,0.22955
2144070,-0.06500,69.2500,110,65,0.22759
2144080,-0.04500,77.5000,110,65,0.22295
2144090,-0.03000,82.3750,110,65,0.22076
2144100,-0.01500,87.1875,110,65,0.21880
2144110,0.00000,91.5625,110,65,0.21709
2144120,0.01000,95.3750,110,65,0.21514
2144130,0.02000,101.2500,110,65,0.21123
2144140,0.03500,103.3750,110,65,0.20904
2144150,0.05500,105.0000,110,65,0.20781
2144160,0.09000,106.0625,110,65,0.20708
2144170,0.12500,106.6250,110,65,0.20415
2144180,0.16500,106.3125,110,65,0.20293
2144190,0.18500,105.7500,110,65,0.20171
2144200,0.19000,105.1250,110,65,0.20098
2144210,0.16500,103.6875,110,65,0.19976
2144220,0.12000,102.9375,110,65,0.19951
2144230,0.04500,102.1250,110,65,0.19951
2144240,-0.00500,101.3125,110,65,0.19976
2144250,-0.06500,99.6250,110,65,0.20122
2144260,-0.11000,98.6875,110,65,0.20244
2144270,-0.13500,97.6875,110,65,0.20293
2144280,-0.15500,95.4375,110,65,0.20293
2144290,-0.16000,94.0625,110,65,0.20244
2144300,-0.16000,92.6250,110,65,0.20244
2144310,-0.17000,91.0625,110,65,0.20293
2144320,-0.19000,89.3125,110,65,0.20440
2144330,-0.20000,85.6875,110,65,0.21319
2144340,-0.20000,84.0625,110,65,0.22173
2144350,-0.19500,82.8125,110,65,0.23199
2144360,-0.17000,81.7500,110,65,0.26081
2144370,-0.14000,81.7500,110,65,0.28083
2144380,-0.09000,81.8750,110,65,0.30403
2144390,-0.02000,82.0625,110,65,0.32918
2144400,0.05000,82.5625,110,65,0.35556
2144410,0.08000,82.8750,110,65,0.40879
2144420,0.08000,83.1250,110,65,0.43468
2144430,0.07000,83.1875,110,65,0.45885
2144440,0.05500,83.0625,110,65,0.48132
2144450,0.03000,82.2500,110,65,0.51673
2144460,-0.01000,81.6875,110,65,0.52894
2144470,-0.06000,81.0625,110,65,0.54066
2144480,-0.11500,80.5625,110,65,0.55092
2144490,-0.14500,79.5000,110,65,0.56679
2144500,-0.17500,78.8125,110,65,0.57192
2144510,-0.19000,78.1250,110,65,0.57558
2144520,-0.20500,76.7500,110,65,0.57802
2144530,-0.21000,76.1875,110,65,0.57705
2144540,-0.21000,75.6875,110,65,0.57460
2144550,-0.21000,75.2500,110,65,0.57070
2144560,-0.20000,74.8750,110,65,0.56581
2144570,-0.19000,74.5833,110,65,0.55910
2144580,-0.18000,74.3750,110,65,0.55140
2144590,-0.17000,74.2500,110,65,0.54359
2144600,-0.16000,74.0625,110,65,0.52650
2144610,-0.16000,74.0625,110,65,0.51722
2144620,-0.16500,74.0000,110,65,0.50769
2144630,-0.17500,73.9375,110,65,0.49768
2144640,-0.17000,73.8125,110,65,0.48742
2144650,-0.15000,73.3125,110,65,0.46740
2144660,-0.13500,73.0625,110,65,0.45885
2144670,-0.12000,72.7500,110,65,0.45128
2144680,-0.10500,72.4375,110,65,0.44347
2144690,-0.07000,71.7500,110,65,0.42906
2144700,-0.05500,71.4375,110,65,0.42271
2144710,-0.07500,71.1250,110,65,0.41685
2144720,-0.12000,70.3750,110,65,0.40733
2144730,-0.13000,70.0625,110,65,0.40342
2144740,-0.15000,69.7500,110,65,0.40000
2144750,-0.17000,69.5000,110,65,0.39658
2144760,-0.18000,69.2500,110,65,0.39390
2144770,-0.17500,68.6875,110,65,0.38828
2144780,-0.17500,68.4375,110,65,0.38486
2144790,-0.17000,68.1875,110,65,0.38095
2144800,-0.16500,67.7500,110,65,0.37241
2144810,-0.14500,67.5625,110,65,0.36777
2144820,-0.02000,67.3750,110,65,0.36313
2144830,0.26000,67.1875,110,65,0.35873
2144840,0.82000,67.0625,110,65,0.35482
2144850,1.02000,66.6250,110,65,0.34725
2144860,0.29000,66.3750,110,65,0.34457
2144870,-0.15000,66.1250,110,65,0.34237
2144880,-0.23000,65.8125,110,65,0.33993
2144890,-0.20000,65.6875,110,65,0.33504
2144900,-0.20000,65.5000,110,65,0.33260
2144910,-0.21000,65.3125,110,65,0.33040
2144920,-0.20000,65.1250,110,65,0.32869
2144930,-0.18500,64.7500,110,65,0.32503
2144940,-0.15500,64.5000,110,65,0.32283
2144950,-0.13500,64.2500,110,65,0.32063
2144960,-0.12500,63.8125,110,65,0.31893
2144970,-0.12000,63.6250,110,65,0.31453
2144980,-0.11500,63.3750,110,65,0.31136
2144990,-0.11500,63.1250,110,65,0.30794
2145000,-0.11500,62.6250,109,64,0.30159
2145010,-0.11500,62.3750,109,64,0.29890
2145020,-0.11500,62.1875,109,64,0.29621
2145030,-0.10500,62.0625,109,64,0.29377
2145040,-0.10500,61.9375,109,64,0.29133
2145050,-0.09500,61.8750,109,64,0.28669
2145060,-0.08500,61.9375,109,64,0.28523
2145070,-0.08000,62.3125,109,64,0.28449
2145080,-0.06500,65.1875,109,64,0.28303
2145090,-0.05500,68.1250,109,64,0.27888
2145100,-0.04000,72.0625,109,64,0.27643
2145110,-0.02500,76.5625,109,64,0.27424
2145120,0.00000,85.6875,109,64,0.26984
2145130,0.02000,89.6250,109,64,0.26789
2145140,0.05500,93.0000,109,64,0.26618
2145150,0.08000,95.8750,109,64,0.26471
2145160,0.12000,100.1875,109,64,0.26422
2145170,0.15000,101.6250,109,64,0.26422
2145180,0.19500,102.5000,109,64,0.26422
2145190,0.23500,102.8750,109,64,0.26422
2145200,0.25000,102.8750,109,64,0.26422
2145210,0.25500,102.0625,109,64,0.26422
2145220,0.23500,101.4375,109,64,0.26422
2145230,0.17500,100.7500,109,64,0.26398
2145240,0.10500,99.1875,109,64,0.26374
2145250,0.01500,98.3125,109,64,0.26398
2145260,-0.03500,97.3750,109,64,0.26471
2145270,-0.09500,96.4375,109,64,0.26496
2145280,-0.12000,95.4375,109,64,0.26520
2145290,-0.14500,93.3125,109,64,0.26520
2145300,-0.16000,92.1250,109,64,0.26520
2145310,-0.16500,90.8125,109,64,0.26520
2145320,-0.17000,89.3750,109,64,0.26545
2145330,-0.17500,86.2500,109,64,0.26642
2145340,-0.18000,84.5625,109,64,0.26838
2145350,-0.17000,82.8750,109,64,0.27204
2145360,-0.13500,81.3750,109,64,0.27717
2145370,-0.13000,79.5000,109,64,0.29402
2145380,-0.15000,79.1875,109,64,0.30696
2145390,-0.16000,79.1250,109,64,0.32283
2145400,-0.17000,79.1875,109,64,0.34139
2145410,-0.17000,79.3125,109,64,0.38535
2145420,-0.17000,79.3750,109,64,0.40904
2145430,-0.17000,79.4375,109,64,0.43297
2145440,-0.17000,79.5000,109,64,0.45690
2145450,-0.17000,79.4375,109,64,0.49866
2145460,-0.16500,79.3125,109,64,0.51453
2145470,-0.16500,79.1250,109,64,0.53089
2145480,-0.16000,78.5000,109,64,0.56068
2145490,-0.16000,78.1250,109,64,0.57314
2145500,-0.16000,77.6875,109,64,0.58364
2145510,-0.16000,77.2500,109,64,0.59219
2145520,-0.16000,76.8125,109,64,0.59878
2145530,-0.16000,76.0000,109,64,0.60733
2145540,-0.15500,75.5625,109,64,0.60928
2145550,-0.15000,75.1875,109,64,0.60952
2145560,-0.15000,74.8125,109,64,0.60830
2145570,-0.15000,74.0625,109,64,0.60220
2145580,-0.14500,73.6875,109,64,0.59780
2145590,-0.14500,73.3125,109,64,0.59243
2145600,-0.13500,73.0000,109,64,0.58632
2145610,-0.13500,72.3750,109,64,0.57070
2145620,-0.13500,72.1250,109,64,0.56190
2145630,-0.13500,71.7500,109,64,0.55263
2145640,-0.09500,71.4375,109,64,0.54286
2145650,-0.08000,70.9375,109,64,0.52405
2145660,-0.08500,70.6875,109,64,0.51600
2145670,-0.07500,70.4375,109,64,0.50769
2145680,-0.07000,69.9375,109,64,0.49963
2145690,-0.04500,69.6875,109,64,0.48449
2145700,-0.02500,69.5000,109,64,0.47790
2145710,-0.02500,69.2500,109,64,0.47204
2145720,-0.07000,68.8750,109,64,0.46178
2145730,-0.09500,68.6875,109,64,0.45739
2145740,-0.12000,68.5000,109,64,0.45324
2145750,-0.15500,68.3125,109,64,0.44908
2145760,-0.18000,68.1250,109,64,0.44542
2145770,-0.21500,67.6875,109,64,0.43858
2145780,-0.26500,67.5000,109,64,0.43468
2145790,-0.30000,67.3125,109,64,0.43028
2145800,-0.36500,67.1250,109,64,0.42589
2145810,-0.47000,66.7500,109,64,0.41709
2145820,-0.63000,66.6250,109,64,0.41245
2145830,-0.70500,66.5000,109,64,0.40781
2145840,-0.66000,66.1875,109,64,0.39927
2145850,-0.28000,66.0625,109,64,0.39585
2145860,-0.01500,65.9375,109,64,0.39267
2145870,-0.49000,65.7500,109,64,0.38901
2145880,-0.63000,65.6250,109,64,0.38510
2145890,-0.47500,65.3125,109,64,0.37705
2145900,-0.30500,65.1875,109,64,0.37338
2145910,-0.20000,65.0000,109,64,0.36972
2145920,-0.13500,64.8125,109,64,0.36606
2145930,-0.07500,64.3125,109,64,0.35897
2145940,-0.02500,64.1250,109,64,0.35531
2145950,-0.00500,63.8750,109,64,0.35165
2145960,0.01000,63.6875,109,64,0.34896
2145970,0.02000,63.3125,109,64,0.34383
2145980,0.01500,63.1250,109,64,0.34090
2145990,0.02000,62.8750,109,64,0.33773
2146000,0.04000,62.3750,109,64,0.33187
2146010,0.06000,62.1250,109,64,0.32894
2146020,0.08000,61.9375,109,64,0.32625
2146030,0.10000,61.7500,109,64,0.32357
2146040,0.12000,61.5625,109,64,0.31893
2146050,0.13000,61.5000,109,64,0.31746
2146060,0.14500,61.5000,109,64,0.31648
2146070,0.15500,61.7500,109,64,0.31502
2146080,0.15500,62.4375,109,64,0.31355
2146090,0.16500,66.5000,109,64,0.31013
2146100,0.18000,70.1250,109,64,0.30842
2146110,0.19000,74.5000,109,64,0.30672
2146120,0.20500,83.8750,109,64,0.30525
2146130,0.23000,88.0625,109,64,0.30183
2146140,0.25000,91.7500,109,64,0.30037
2146150,0.23500,94.8750,109,64,0.29890
2146160,0.22000,99.8750,109,64,0.29792
2146170,0.27500,101.6250,109,64,0.29768
2146180,0.34500,102.8750,109,64,0.29719
2146190,0.39000,103.5625,109,64,0.29646
2146200,0.41000,103.8750,109,64,0.29597
2146210,0.42000,103.5000,109,64,0.29499
2146220,0.41000,103.0625,109,64,0.29475
2146230,0.36500,102.5625,109,64,0.29426
2146240,0.28500,101.3750,109,64,0.29377
2146250,0.20500,100.6875,109,64,0.29402
2146260,0.14500,99.8750,109,64,0.29451
2146270,0.08000,99.0625,109,64,0.29475
2146280,0.03000,97.1250,109,64,0.29524
2146290,0.00000,96.1250,109,64,0.29548
2146300,-0.02000,94.9375,109,64,0.29573
2146310,-0.03500,93.6875,109,64,0.29573
2146320,-0.05000,92.3125,109,64,0.29573
2146330,-0.06500,89.2500,109,64,0.29646
2146340,-0.07000,87.5625,109,64,0.29792
2146350,-0.07500,85.7500,109,64,0.30085
2146360,-0.08000,83.9375,109,64,0.30501
2146370,-0.08500,80.9375,109,64,0.31990
2146380,-0.08500,80.0625,109,64,0.33162
2146390,-0.08500,79.5625,109,64,0.34652
2146400,-0.08500,79.5000,109,64,0.38486
2146410,-0.08500,79.5625,109,64,0.40733
2146420,-0.07500,79.6250,109,64,0.43150
2146430,-0.07500,79.6875,109,64,0.45641
2146440,-0.07500,79.7500,109,64,0.48132
2146450,-0.07500,79.8750,109,64,0.52576
2146460,-0.07500,79.8750,109,64,0.54310
2146470,-0.07500,79.8125,109,64,0.56117
2146480,-0.08000,79.6250,109,64,0.57851
2146490,-0.08000,79.0625,109,64,0.60879
2146500,-0.08500,78.6250,109,64,0.62125
2146510,-0.08500,78.1875,109,64,0.63150
2146520,-0.08000,77.7500,109,64,0.63980
2146530,-0.08000,76.9375,109,64,0.65079
2146540,-0.08000,76.5625,109,64,0.65397
2146550,-0.07500,76.1875,109,64,0.65592
2146560,-0.07000,75.3750,109,64,0.65397
2146570,-0.07000,75.0000,109,64,0.65153
2146580,-0.06500,74.6250,109,64,0.64786
2146590,-0.06500,74.2500,109,64,0.64322
2146600,-0.06500,73.9375,109,64,0.63736
2146610,-0.07000,73.3125,109,64,0.62271
2146620,-0.06500,73.0000,109,64,0.63297
2146630,-0.06500,72.6875,109,64,0.65104
2146640,-0.06500,72.3750,109,64,0.65299
2146650,-0.05000,71.7500,109,64,0.63785
2146660,-0.02500,71.5000,109,64,0.62759
2146670,-0.00500,71.1875,109,64,0.61587
2146680,0.00500,70.6875,109,64,0.59170
2146690,0.00500,70.3750,109,64,0.58022
2146700,0.02000,70.1250,109,64,0.56947
2146710,0.04000,69.8750,109,64,0.55971
2146720,0.03000,69.4375,109,64,0.55092
2146730,-0.01500,69.1875,109,64,0.53553
2146740,-0.04000,68.9375,109,64,0.52869
2146750,-0.06000,68.6875,109,64,0.52234
2146760,-0.09000,68.3125,109,64,0.51209
2146770,-0.10500,68.1250,109,64,0.50672
2146780,-0.11000,67.9375,109,64,0.50134
2146790,-0.10500,67.7500,109,64,0.49573
2146800,-0.10500,67.7500,109,64,0.49573
2146810,-0.09000,67.1875,109,64,0.47888
2146820,-0.08500,67.0000,109,64,0.47302
2146830,-0.05500,66.8125,109,64,0.46716
2146840,0.19500,66.5625,109,64,0.45495
2146850,0.60500,66.4375,109,64,0.44957
2146860,1.13000,66.3125,109,64,0.44469
2146870,0.76500,66.1875,109,64,0.43907
2146880,0.16000,66.0000,109,64,0.43346
2146890,-0.14500,65.6875,109,64,0.42222
2146900,-0.12500,65.5625,109,64,0.41661
2146910,-0.11500,65.3750,109,64,0.41123
2146920,-0.12500,65.2500,109,64,0.40586
2146930,-0.12500,64.8750,109,64,0.39512
2146940,-0.12500,64.6875,109,64,0.38974
2146950,-0.12000,64.5000,109,64,0.38437
2146960,-0.11500,64.0625,109,64,0.37656
2146970,-0.10500,63.8125,109,64,0.37241
2146980,-0.10000,63.6250,109,64,0.36801
2146990,-0.09500,63.3750,109,64,0.36361
2147000,-0.08500,63.1250,110,64,0.35922
2147010,-0.07500,62.6250,110,64,0.35116
2147020,-0.06500,62.4375,110,64,0.34725
2147030,-0.05500,62.2500,110,64,0.34335
2147040,-0.04500,61.8750,110,64,0.33626
2147050,-0.03500,61.7500,110,64,0.33382
2147060,-0.02500,61.6875,110,64,0.33187
2147070,-0.01500,61.6875,110,64,0.32943
2147080,-0.00500,62.8750,110,64,0.32698
2147090,0.01000,64.6875,110,64,0.32186
2147100,0.02000,67.6250,110,64,0.31917
2147110,0.03500,71.6875,110,64,0.31673
2147120,0.05000,76.3750,110,64,0.31404
2147130,0.07000,85.9375,110,64,0.30891
2147140,0.09000,90.1250,110,64,0.30672
2147150,0.11000,93.7500,110,64,0.30549
2147160,0.14000,96.8750,110,64,0.30501
2147170,0.17000,101.7500,110,64,0.30330
2147180,0.19500,103.4375,110,64,0.30232
2147190,0.23000,104.5625,110,64,0.30159
2147200,0.26500,105.4375,110,64,0.30012
2147210,0.28500,105.4375,110,64,0.29939
2147220,0.30000,105.1875,110,64,0.29890
2147230,0.29000,104.8750,110,64,0.29817
2147240,0.25500,104.4375,110,64,0.29768
2147250,0.18500,103.3750,110,64,0.29744
2147260,0.10000,102.7500,110,64,0.29817
2147270,0.04500,102.0625,110,64,0.29841
2147280,-0.00500,101.3125,110,64,0.29841
2147290,-0.04500,99.6250,110,64,0.29817
2147300,-0.06000,98.5625,110,64,0.29792
2147310,-0.08500,97.5000,110,64,0.29768
2147320,-0.10500,94.9375,110,64,0.29744
2147330,-0.11000,93.4375,110,64,0.29744
2147340,-0.12000,91.8125,110,64,0.29841
2147350,-0.12500,90.0625,110,64,0.30061
2147360,-0.13500,88.2500,110,64,0.30427
2147370,-0.14500,84.6250,110,64,0.31868
2147380,-0.14000,83.0625,110,64,0.33089
2147390,-0.13500,81.9375,110,64,0.34725
2147400,-0.13000,80.8750,110,64,0.36752
2147410,-0.12500,80.8125,110,64,0.41880
2147420,-0.12500,80.8750,110,64,0.44835
2147430,-0.12500,80.9375,110,64,0.47937
2147440,-0.12000,81.0000,110,64,0.54310
2147450,-0.11500,81.0625,110,64,0.56972
2147460,-0.11500,81.1250,110,64,0.59316
2147470,-0.10500,81.1250,110,64,0.61832
2147480,-0.10000,81.0625,110,64,0.64274
2147490,-0.09500,80.6250,110,64,0.68645
2147500,-0.09500,80.3125,110,64,0.70476
2147510,-0.09500,79.9375,110,64,0.72063
2147520,-0.09000,79.5000,110,64,0.73407
2147530,-0.08500,78.6875,110,64,0.75336
2147540,-0.08000,78.2500,110,64,0.75995
2147550,-0.07500,77.8750,110,64,0.76313
2147560,-0.07500,77.0625,110,64,0.76435
2147570,-0.07500,76.6875,110,64,0.76361
2147580,-0.07500,76.3125,110,64,0.76166
2147590,-0.07000,76.0000,110,64,0.75800
2147600,-0.07000,75.3750,110,64,0.75263
2147610,-0.07500,75.0625,110,64,0.73700
2147620,-0.07500,74.7500,110,64,0.72674
2147630,-0.07500,74.4375,110,64,0.71526
2147640,-0.07500,73.8125,110,64,0.68913
2147650,-0.07500,73.5000,110,64,0.67619
2147660,-0.06500,73.1875,110,64,0.66349
2147670,-0.04000,72.9375,110,64,0.64982
2147680,-0.00500,72.6250,110,64,0.63614
2147690,0.00500,72.1250,110,64,0.60928
2147700,0.00500,71.8750,110,64,0.59707
2147710,0.02000,71.6250,110,64,0.58584
2147720,0.04500,71.3750,110,64,0.57534
2147730,0.05000,70.8750,110,64,0.55727
2147740,0.03000,70.6250,110,64,0.54921
2147750,-0.00500,70.4375,110,64,0.54237
2147760,-0.02500,69.9375,110,64,0.52943
2147770,-0.04500,69.6875,110,64,0.52308
2147780,-0.06500,69.5000,110,64,0.51648
2147790,-0.08000,69.3125,110,64,0.51013
2147800,-0.08000,69.3125,110,64,0.51013
2147810,-0.08500,68.7500,110,64,0.49182
2147820,-0.08000,68.5625,110,64,0.48596
2147830,-0.07500,68.4375,110,64,0.48010
2147840,-0.07000,68.3125,110,64,0.47424
2147850,0.03000,68.0000,110,64,0.46300
2147860,0.42000,67.8750,110,64,0.45836
2147870,1.13500,67.7500,110,64,0.45299
2147880,1.14500,67.6250,110,64,0.44713
2147890,0.44500,67.3750,110,64,0.43541
2147900,-0.11000,67.2500,110,64,0.42955
2147910,-0.14500,67.0625,110,64,0.42369
2147920,-0.13500,66.9375,110,64,0.41807
2147930,-0.14500,66.6250,110,64,0.40757
2147940,-0.17000,66.5000,110,64,0.40244
2147950,-0.18000,66.3750,110,64,0.39829
2147960,-0.18000,66.1875,110,64,0.39487
2147970,-0.17500,65.7500,110,64,0.38657
2147980,-0.16000,65.5000,110,64,0.38217
2147990,-0.14500,65.2500,110,64,0.37778
2148000,-0.12500,64.8125,110,65,0.36874
2148010,-0.11000,64.5625,110,65,0.36435
2148020,-0.08500,64.3750,110,65,0.36020
2148030,-0.05500,64.1875,110,65,0.35604
2148040,-0.04000,64.0625,110,65,0.35214
2148050,-0.01500,63.8125,110,65,0.34603
2148060,0.00000,63.7500,110,65,0.34383
2148070,0.01000,63.6875,110,65,0.34090
2148080,0.02500,63.7500,110,65,0.33797
2148090,0.04500,64.8750,110,65,0.33260
2148100,0.06000,66.6250,110,65,0.32991
2148110,0.07000,69.5625,110,65,0.32723
2148120,0.07500,78.3125,110,65,0.32479
2148130,0.07500,83.3125,110,65,0.32063
2148140,0.09000,88.0625,110,65,0.31893
2148150,0.10500,92.3125,110,65,0.31819
2148160,0.13000,96.0000,110,65,0.31795
2148170,0.15500,101.9375,110,65,0.31624
2148180,0.19000,104.2500,110,65,0.31575
2148190,0.21500,106.0625,110,65,0.31526
2148200,0.24500,107.4375,110,65,0.31477
2148210,0.27500,108.6875,110,65,0.31404
2148220,0.29000,108.8750,110,65,0.31404
2148230,0.30500,108.8750,110,65,0.31429
2148240,0.30000,108.7500,110,65,0.31429
2148250,0.26500,108.3125,110,65,0.31477
2148260,0.21500,108.0000,110,65,0.31551
2148270,0.14000,107.6250,110,65,0.31600
2148280,0.07000,106.5625,110,65,0.31648
2148290,-0.00500,105.9375,110,65,0.31746
2148300,-0.04000,105.1250,110,65,0.31819
2148310,-0.07500,104.2500,110,65,0.31917
2148320,-0.10000,102.1250,110,65,0.32039
2148330,-0.12500,100.8750,110,65,0.32112
2148340,-0.17000,99.5000,110,65,0.32210
2148350,-0.25000,97.9375,110,65,0.32381
2148360,-0.27000,94.2500,110,65,0.33065
2148370,-0.26000,92.2500,110,65,0.33675
2148380,-0.23000,90.0625,110,65,0.34554
2148390,-0.19000,88.0000,110,65,0.35775
2148400,-0.16500,86.1250,110,65,0.37363
2148410,-0.14500,83.8750,110,65,0.41758
2148420,-0.12500,83.6875,110,65,0.44469
2148430,-0.10000,83.8750,110,65,0.47424
2148440,-0.07000,84.6250,110,65,0.50549
2148450,-0.05000,84.9375,110,65,0.56484
2148460,-0.04500,85.3125,110,65,0.58926
2148470,-0.04000,85.6875,110,65,0.61636
2148480,-0.03500,86.0000,110,65,0.64371
2148490,-0.02500,86.1250,110,65,0.69475
2148500,-0.01500,85.9375,110,65,0.71697
2148510,-0.01500,85.6250,110,65,0.73675
2148520,-0.01000,85.1250,110,65,0.75433
2148530,-0.00500,83.8750,110,65,0.78144
2148540,-0.01000,83.1875,110,65,0.79121
2148550,-0.04000,82.5000,110,65,0.79707
2148560,-0.07000,81.2500,110,65,0.80317
2148570,-0.07500,80.6250,110,65,0.80537
2148580,-0.07000,80.0000,110,65,0.80610
2148590,-0.07500,79.4375,110,65,0.80562
2148600,-0.09500,78.3125,110,65,0.80000
2148610,-0.10000,77.8750,110,65,0.79487
2148620,-0.10500,77.5000,110,65,0.78779
2148630,-0.10500,77.2500,110,65,0.77900
2148640,-0.09500,77.0000,110,65,0.76825
2148650,-0.07500,76.6875,110,65,0.74335
2148660,-0.04500,76.6250,110,65,0.72991
2148670,-0.02500,76.5000,110,65,0.70134
2148680,-0.01500,76.3750,110,65,0.66569
2148690,0.02000,76.1875,110,65,0.62149
2148700,0.07000,76.0000,110,65,0.60537
2148710,0.10500,75.8125,110,65,0.59145
2148720,0.11500,75.3125,110,65,0.56801
2148730,0.12000,75.0000,110,65,0.55824
2148740,0.12500,74.6875,110,65,0.54969
2148750,0.12000,74.3750,110,65,0.54237
2148760,0.10000,74.0625,110,65,0.53578
2148770,0.05500,73.5000,110,65,0.52405
2148780,0.03000,73.1875,110,65,0.51844
2148790,-0.01500,72.7500,110,65,0.51306
2148800,-0.01500,72.7500,110,65,0.51306
2148810,-0.07500,72.0625,110,65,0.49621
2148820,-0.07500,72.0625,110,65,0.49621
2148830,-0.09500,72.5000,110,65,0.48376
2148840,-0.07500,72.6875,110,65,0.47741
2148850,-0.06500,72.4375,110,65,0.46569
2148860,-0.07000,72.0625,110,65,0.46056
2148870,0.03500,71.8125,110,65,0.45495
2148880,0.37000,71.6250,110,65,0.44908
2148890,1.05000,71.4375,110,65,0.43663
2148900,1.35500,71.2500,110,65,0.43053
2148910,0.72000,71.0000,110,65,0.42442
2148920,0.05000,70.0625,110,65,0.41294
2148930,-0.09083,69.5625,110,65,0.40781
2148940,-0.00500,69.1250,110,65,0.40317
2148950,0.00500,68.6875,110,65,0.39927
2148960,-0.00500,68.0625,110,65,0.39219
2148970,-0.00500,67.6875,110,65,0.38852
2148980,-0.01500,67.3750,110,65,0.38462
2148990,-0.02500,67.0625,110,65,0.38095
2149000,-0.02500,66.7500,110,65,0.37753
2149010,-0.03000,66.3125,110,65,0.37070
2149020,-0.04000,66.1875,110,65,0.36752
2149030,-0.05500,66.1250,110,65,0.36435
2149040,-0.06500,66.1250,110,65,0.35849
2149050,-0.07000,66.1250,110,65,0.35604
2149060,-0.07500,66.1250,110,65,0.35336
2149070,-0.07000,66.1250,110,65,0.35043
2149080,-0.05500,66.3125,110,65,0.34481
2149090,-0.03500,66.5000,110,65,0.34212
2149100,-0.01000,66.8750,110,65,0.33944
2149110,0.00500,67.7500,110,65,0.33700
2149120,0.02000,69.5000,110,65,0.33431
2149130,0.04000,76.3125,110,65,0.32943
2149140,0.05500,81.1250,110,65,0.32698
2149150,0.07500,86.3125,110,65,0.32527
2149160,0.09500,95.6875,110,65,0.32405
2149170,0.12000,99.5000,110,65,0.32186
2149180,0.15000,102.7500,110,65,0.32112
2149190,0.18500,105.5625,110,65,0.32088
2149200,0.22500,109.8125,110,65,0.32137
2149210,0.24500,111.2500,110,65,0.32161
2149220,0.28500,112.1875,110,65,0.32210
2149230,0.30500,112.7500,110,65,0.32234
2149240,0.32500,113.0000,110,65,0.32210
2149250,0.34000,113.0000,110,65,0.32210
2149260,0.34500,112.8750,110,65,0.32137
2149270,0.31500,112.7500,110,65,0.31990
2149280,0.25000,112.4375,110,65,0.31819
2149290,0.16000,111.4375,110,65,0.31477
2149300,0.10000,110.8750,110,65,0.31306
2149310,0.03000,110.3125,110,65,0.31184
2149320,-0.02500,109.5625,110,65,0.30989
2149330,-0.03500,109.1875,110,65,0.30965
2149340,-0.03500,108.6250,110,65,0.30965
2149350,-0.06500,107.8750,110,65,0.31013
2149360,-0.08000,106.8750,110,65,0.31111
2149370,-0.09000,104.1250,110,65,0.31502
2149380,-0.09500,102.3750,110,65,0.31893
2149390,-0.09500,100.5000,110,65,0.32503
2149400,-0.09500,98.3750,110,65,0.33407
2149410,-0.06500,94.1875,110,65,0.36190
2149420,-0.05500,92.3750,110,65,0.38095
2149430,-0.09000,91.0000,110,65,0.40317
2149440,-0.14000,89.5625,110,65,0.45104
2149450,-0.15500,89.1875,110,65,0.47302
2149460,-0.15000,89.0000,110,65,0.49866
2149470,-0.13000,88.8750,110,65,0.52576
2149480,-0.11500,88.7500,110,65,0.55336
2149490,-0.10500,88.6875,110,65,0.60537
2149500,-0.09000,88.6875,110,65,0.62906
2149510,-0.06000,88.5625,110,65,0.65031
2149520,-0.03500,88.3750,110,65,0.66911
2149530,0.00500,87.6875,110,65,0.69939
2149540,0.06000,87.2500,110,65,0.71111
2149550,0.09000,86.7500,110,65,0.71893
2149560,0.12500,85.8125,110,65,0.72405
2149570,0.16500,85.3750,110,65,0.73431
2149580,0.19500,84.9375,110,65,0.73871
2149590,0.22000,84.5000,110,65,0.74212
2149600,0.23000,84.1250,110,65,0.74457
2149610,0.24500,83.1875,110,65,0.74628
2149620,0.28000,82.7500,110,65,0.74554
2149630,0.31000,82.3750,110,65,0.74310
2149640,0.35000,82.0000,110,65,0.73895
2149650,0.38000,81.3750,110,65,0.72552
2149660,0.39000,81.0000,110,65,0.71673
2149670,0.38000,80.6250,110,65,0.70623
2149680,0.35000,79.8750,110,65,0.68107
2149690,0.31000,79.5000,110,65,0.66716
2149700,0.27500,79.1875,110,65,0.65275
2149710,0.21500,78.8750,110,65,0.63834
2149720,0.18000,78.6250,110,65,0.62418
2149730,0.13000,78.0625,110,65,0.59829
2149740,0.04000,77.7500,110,65,0.58681
2149750,-0.02500,77.5000,110,65,0.57705
2149760,-0.06500,77.0000,110,65,0.56850
2149770,-0.08500,76.7500,110,65,0.55311
2149780,-0.09500,76.5000,110,65,0.54603
2149790,-0.15000,76.1875,110,65,0.53919
2149800,-0.15000,76.1875,110,65,0.53919
2149810,-0.26500,75.3750,110,65,0.51868
2149820,-0.35500,75.0625,110,65,0.51209
2149830,-0.40000,74.7500,110,65,0.50525
2149840,-0.43000,74.4375,110,65,0.49841
2149850,-0.44500,73.7500,110,65,0.48620
2149860,-0.43500,73.3750,110,65,0.48010
2149870,-0.41500,73.0000,110,65,0.47399
2149880,-0.41500,72.6875,110,65,0.46813
2149890,-0.40500,72.0625,110,65,0.45665
2149900,-0.34000,71.8125,110,65,0.45104
2149910,0.00500,71.5625,110,65,0.44567
2149920,0.67500,71.3125,110,65,0.44029
2149930,1.03500,70.8750,110,65,0.42979
2149940,0.30000,70.6875,110,65,0.42466
2149950,-0.19500,70.5000,110,65,0.42027
2149960,-0.24500,70.1250,110,65,0.41172
2149970,-0.19000,70.0000,110,65,0.40708
2149980,-0.17500,69.8125,110,65,0.40244
2149990,-0.18000,69.6250,110,65,0.39780
2150000,-0.20000,69.3125,109,64,0.38828
2150010,-0.22000,69.1250,109,64,0.38364
2150020,-0.26000,68.9375,109,64,0.37875
2150030,-0.30500,68.6875,109,64,0.37411
2150040,-0.34000,68.5000,109,64,0.36947
2150050,-0.38500,68.0000,109,64,0.36264
2150060,-0.43500,67.6875,109,64,0.35897
2150070,-0.48000,67.4375,109,64,0.35531
2150080,-0.51500,67.1250,109,64,0.35189
2150090,-0.56000,66.6250,109,64,0.34481
2150100,-0.61500,66.4375,109,64,0.34139
2150110,-0.65500,66.3125,109,64,0.33797
2150120,-0.70000,66.1875,109,64,0.33455
2150130,-0.74500,66.4375,109,64,0.32796
2150140,-0.77000,67.2500,109,64,0.32479
2150150,-0.80000,68.8125,109,64,0.32234
2150160,-0.82000,75.4375,109,64,0.31795
2150170,-0.82500,80.1875,109,64,0.31526
2150180,-0.81500,85.1875,109,64,0.31233
2150190,-0.79000,90.0000,109,64,0.30940
2150200,-0.77500,94.3750,109,64,0.30647
2150210,-0.74000,101.2500,109,64,0.30134
2150220,-0.70500,103.9375,109,64,0.29915
2150230,-0.66500,106.1875,109,64,0.29719
2150240,-0.61000,109.2500,109,64,0.29475
2150250,-0.57500,109.9375,109,64,0.29426
2150260,-0.52000,110.2500,109,64,0.29353
2150270,-0.47000,110.2500,109,64,0.29231
2150280,-0.42500,109.7500,109,64,0.28987
2150290,-0.39500,109.3125,109,64,0.28864
2150300,-0.38500,108.8750,109,64,0.28742
2150310,-0.39500,108.3750,109,64,0.28645
2150320,-0.41000,107.8125,109,64,0.28571
2150330,-0.41500,106.4375,109,64,0.28498
2150340,-0.41500,105.6875,109,64,0.28498
2150350,-0.41000,104.8125,109,64,0.28523
2150360,-0.40000,103.9375,109,64,0.28571
2150370,-0.38000,101.8750,109,64,0.28547
2150380,-0.36500,100.6875,109,64,0.28498
2150390,-0.34500,99.4375,109,64,0.28449
2150400,-0.32000,96.4375,109,64,0.28425
2150410,-0.29000,94.6875,109,64,0.28620
2150420,-0.27000,92.8125,109,64,0.29011
2150430,-0.24500,90.8750,109,64,0.29670
2150440,-0.21500,87.1875,109,64,0.31795
2150450,-0.20000,85.8750,109,64,0.33114
2150460,-0.18000,84.9375,109,64,0.34872
2150470,-0.17000,84.5000,109,64,0.36972
2150480,-0.18000,84.2500,109,64,0.39316
2150490,-0.19000,84.1250,109,64,0.44444
2150500,-0.19500,84.1250,109,64,0.47057
2150510,-0.18500,84.1250,109,64,0.49621
2150520,-0.15500,84.4375,109,64,0.52063
2150530,-0.08000,84.6875,109,64,0.56337
2150540,-0.03500,84.9375,109,64,0.58120
2150550,0.00500,85.1250,109,64,0.59438
2150560,0.02500,85.2500,109,64,0.60415
2150570,0.04500,85.1250,109,64,0.62173
2150580,0.07000,84.7500,109,64,0.62784
2150590,0.09500,84.1875,109,64,0.63223
2150600,0.14000,83.5000,109,64,0.63492
2150610,0.21500,82.0625,109,64,0.63590
2150620,0.25000,81.4375,109,64,0.63443
2150630,0.25500,80.8125,109,64,0.63175
2150640,0.21500,79.5625,109,64,0.62320
2150650,0.18500,78.9375,109,64,0.61709
2150660,0.18000,78.3750,109,64,0.61001
2150670,0.18500,77.8125,109,64,0.60195
2150680,0.14000,77.3125,109,64,0.59292
2150690,0.08500,76.1875,109,64,0.57118
2150700,0.08000,75.6250,109,64,0.55849
2150710,0.09000,75.1250,109,64,0.54481
2150720,0.12000,74.3125,109,64,0.52576
2150730,0.15500,74.0000,109,64,0.48352
2150740,0.18000,73.6875,109,64,0.46667
2150750,0.20000,73.3750,109,64,0.45177
2150760,0.20000,73.0625,109,64,0.43639
2150770,0.20500,72.4375,109,64,0.40879
2150780,0.22500,72.1250,109,64,0.39731
2150790,0.24000,71.8750,109,64,0.38755
2150800,0.24000,71.8750,109,64,0.38755
2150810,0.20000,71.3125,109,64,0.36581
2150820,0.16500,71.1875,109,64,0.35971
2150830,0.14500,71.0000,109,64,0.35385
2150840,0.10500,70.6875,109,64,0.34335
2150850,0.08000,70.5000,109,64,0.33919
2150860,0.06000,70.3125,109,64,0.33431
2150870,0.05500,70.0625,109,64,0.32918
2150880,0.05000,69.6250,109,64,0.31795
2150890,0.05000,69.3750,109,64,0.31160
2150900,0.05000,69.1875,109,64,0.30525
2150910,0.08000,69.0000,109,64,0.29915
2150920,0.30000,68.8125,109,64,0.29280
2150930,0.94000,68.6875,109,64,0.28059
2150940,1.23000,68.5625,109,64,0.27570
2150950,0.84500,68.4375,109,64,0.27155
2150960,0.03000,68.2500,109,64,0.26129
2150970,-0.08500,68.1250,109,64,0.25568
2150980,-0.06500,68.0000,109,64,0.24982
2150990,-0.09500,67.8125,109,64,0.24396
2151000,-0.10500,67.6875,108,64,0.23785
2151010,-0.08500,67.1875,108,64,0.22637
2151020,-0.01500,66.9375,108,64,0.22076
2151030,0.03000,66.6250,108,64,0.21538
2151040,0.06500,66.3750,108,64,0.21050
2151050,0.09000,65.8750,108,64,0.20464
2151060,0.10000,65.6875,108,64,0.20147
2151070,0.10500,65.4375,108,64,0.19780
2151080,0.12000,65.0000,108,64,0.19072
2151090,0.12500,64.8750,108,64,0.18779
2151100,0.13000,64.9375,108,64,0.18510
2151110,0.14000,65.1875,108,64,0.18266
2151120,0.14000,65.5625,108,64,0.18022
2151130,0.14000,65.8750,108,64,0.17534
2151140,0.14000,65.6875,108,64,0.17387
2151150,0.14500,65.4375,108,64,0.17314
2151160,0.14000,66.0000,108,64,0.16996
2151170,0.14000,67.5000,108,64,0.16801
2151180,0.13000,70.0625,108,64,0.16630
2151190,0.13000,73.6250,108,64,0.16459
2151200,0.14000,77.8125,108,64,0.16313
2151210,0.16500,86.5625,108,64,0.16068
2151220,0.20000,90.5625,108,64,0.15971
2151230,0.23500,94.0625,108,64,0.15873
2151240,0.28500,97.1875,108,64,0.15800
2151250,0.33500,102.0625,108,64,0.15922
2151260,0.37000,103.8125,108,64,0.15922
2151270,0.42500,105.0000,108,64,0.15849
2151280,0.44500,105.6875,108,64,0.15726
2151290,0.47000,105.8125,108,64,0.15409
2151300,0.47000,105.4375,108,64,0.15263
2151310,0.43500,104.9375,108,64,0.15165
2151320,0.39000,104.2500,108,64,0.15092
2151330,0.31000,102.7500,108,64,0.14994
2151340,0.21000,101.8125,108,64,0.15067
2151350,0.17500,100.8125,108,64,0.15189
2151360,0.16000,98.5625,108,64,0.15385
2151370,0.10000,97.4375,108,64,0.15507
2151380,-0.01500,96.2500,108,64,0.15702
2151390,-0.05500,95.0000,108,64,0.15946
2151400,-0.05500,93.6250,108,64,0.16166
2151410,-0.07500,90.6250,108,64,0.16606
2151420,-0.13500,88.8750,108,64,0.16801
2151430,-0.15500,87.1250,108,64,0.17070
2151440,-0.15500,85.3125,108,64,0.17460
2151450,-0.14500,82.1250,108,64,0.18755
2151460,-0.14500,81.0625,108,64,0.19853
2151470,-0.14500,80.5000,108,64,0.21319
2151480,-0.15500,80.4375,108,64,0.25519
2151490,-0.16000,80.6250,108,64,0.28230
2151500,-0.17000,80.8125,108,64,0.31258
2151510,-0.17000,81.0000,108,64,0.34505
2151520,-0.17000,81.0625,108,64,0.37851
2151530,-0.17000,81.1250,108,64,0.44469
2151540,-0.17000,81.0625,108,64,0.47204
2151550,-0.15500,80.8750,108,64,0.49548
2151560,-0.13500,80.1250,108,64,0.54310
2151570,-0.12500,79.5625,108,64,0.56435
2151580,-0.12500,78.9375,108,64,0.58291
2151590,-0.13500,78.3750,108,64,0.59902
2151600,-0.14500,77.7500,108,64,0.61221
2151610,-0.14500,76.6250,108,64,0.63175
2151620,-0.14000,76.1250,108,64,0.63810
2151630,-0.14000,75.6250,108,64,0.64249
2151640,-0.13500,75.2500,108,64,0.64518
2151650,-0.13000,74.5000,108,64,0.64371
2151660,-0.13000,74.1875,108,64,0.64127
2151670,-0.13000,73.9375,108,64,0.63761
2151680,-0.13500,73.5625,108,64,0.62540
2151690,-0.13500,73.4375,108,64,0.61661
2151700,-0.13500,73.3125,108,64,0.60586
2151710,-0.13500,73.1250,108,64,0.59341
2151720,-0.13500,73.0000,108,64,0.57998
2151730,-0.13000,72.6250,108,64,0.55067
2151740,-0.11500,72.4375,108,64,0.53700
2151750,-0.09500,72.2500,108,64,0.52405
2151760,-0.07500,72.0000,108,64,0.51062
2151770,-0.07500,71.4375,108,64,0.48596
2151780,-0.08000,71.1250,108,64,0.47497
2151790,-0.07500,70.8125,108,64,0.46545
2151800,-0.07500,70.8125,108,64,0.46545
2151810,-0.09000,69.8750,108,64,0.44274
2151820,-0.12500,69.5625,108,64,0.43639
2151830,-0.14500,69.2500,108,64,0.43028
2151840,-0.16000,68.5625,108,64,0.41856
2151850,-0.17000,68.2500,108,64,0.41319
2151860,-0.17500,68.0000,108,64,0.40684
2151870,-0.17000,67.7500,108,64,0.40000
2151880,-0.15500,67.1875,108,64,0.38535
2151890,-0.14500,67.0000,108,64,0.37778
2151900,-0.12500,66.8125,108,64,0.37045
2151910,-0.11500,66.6250,108,64,0.36361
2151920,-0.08500,66.4375,108,64,0.35726
2151930,0.12000,66.1875,108,64,0.34530
2151940,0.75500,66.0625,108,64,0.34066
2151950,1.09000,65.9375,108,64,0.33675
2151960,0.59500,65.7500,108,64,0.32821
2151970,0.01000,65.6250,108,64,0.32357
2151980,-0.22000,65.5000,108,64,0.31893
2151990,-0.18000,65.3750,108,64,0.31429
2152000,-0.17000,65.2500,108,64,0.30965
2152010,-0.17500,64.8750,108,64,0.30037
2152020,-0.17000,64.6875,108,64,0.29597
2152030,-0.16500,64.5000,108,64,0.29158
2152040,-0.15500,64.1250,108,64,0.28376
2152050,-0.14500,63.8750,108,64,0.28083
2152060,-0.14000,63.6875,108,64,0.27741
2152070,-0.13000,63.5000,108,64,0.27375
2152080,-0.12500,63.3125,108,64,0.26984
2152090,-0.11500,62.9375,108,64,0.26178
2152100,-0.10500,62.7500,108,64,0.25763
2152110,-0.10000,62.5625,108,64,0.25324
2152120,-0.09000,62.3750,108,64,0.24884
2152130,-0.08000,62.0625,108,64,0.23956
2152140,-0.07500,61.9375,108,64,0.23590
2152150,-0.07000,61.8750,108,64,0.23272
2152160,-0.06500,61.8125,108,64,0.22882
2152170,-0.04500,62.6875,108,64,0.22027
2152180,-0.03500,64.1250,108,64,0.21587
2152190,-0.02000,66.5625,108,64,0.21148
2152200,-0.00500,74.3750,108,64,0.20391
2152210,0.01000,79.0625,108,64,0.20049
2152220,0.03000,83.6250,108,64,0.19731
2152230,0.05500,87.8750,108,64,0.19463
2152240,0.08000,91.5625,108,64,0.19243
2152250,0.12000,97.4375,108,64,0.19096
2152260,0.15000,99.6875,108,64,0.18999
2152270,0.18500,101.5000,108,64,0.18852
2152280,0.23000,103.3750,108,64,0.18510
2152290,0.26500,103.6250,108,64,0.18339
2152300,0.28500,103.5625,108,64,0.18193
2152310,0.29500,103.1875,108,64,0.18071
2152320,0.28000,102.1250,108,64,0.17949
2152330,0.24500,101.4375,108,64,0.17924
2152340,0.18500,100.7500,108,64,0.17998
2152350,0.10000,100.0000,108,64,0.18095
2152360,0.04500,99.1875,108,64,0.18120
2152370,-0.02000,97.3750,108,64,0.18120
2152380,-0.05500,96.4375,108,64,0.18120
2152390,-0.08500,95.3125,108,64,0.18120
2152400,-0.10500,92.8750,108,64,0.18120
2152410,-0.11500,91.5625,108,64,0.18120
2152420,-0.12500,90.0625,108,64,0.18144
2152430,-0.13000,88.4375,108,64,0.18193
2152440,-0.13500,86.7500,108,64,0.18315
2152450,-0.14000,83.1875,108,64,0.19096
2152460,-0.14500,81.6250,108,64,0.19805
2152470,-0.15500,80.4375,108,64,0.20806
2152480,-0.15500,79.2500,108,64,0.22198
2152490,-0.16000,79.1875,108,64,0.26203
2152500,-0.16000,79.2500,108,64,0.28791
2152510,-0.16000,79.3750,108,64,0.31722
2152520,-0.16500,79.5625,108,64,0.38144
2152530,-0.17000,79.6875,108,64,0.41465
2152540,-0.17000,79.7500,108,64,0.44298
2152550,-0.17000,79.8125,108,64,0.46838
2152560,-0.17000,79.8125,108,64,0.49548
2152570,-0.17000,79.5000,108,64,0.54652
2152580,-0.17000,79.2500,108,64,0.56874
2152590,-0.17500,78.8750,108,64,0.58828
2152600,-0.17500,78.1250,108,64,0.60513
2152610,-0.18000,77.7500,108,64,0.63028
2152620,-0.18000,77.3125,108,64,0.63907
2152630,-0.17500,76.8750,108,64,0.64591
2152640,-0.17000,76.1250,108,64,0.65055
2152650,-0.17000,75.6875,108,64,0.65104
2152660,-0.16500,75.3125,108,64,0.65031
2152670,-0.16000,74.9375,108,64,0.64811
2152680,-0.15500,74.1875,108,64,0.63883
2152690,-0.15500,73.8125,108,64,0.63150
2152700,-0.15500,73.5000,108,64,0.62247
2152710,-0.15500,73.1875,108,64,0.61221
2152720,-0.15000,72.8750,108,64,0.60073
2152730,-0.14500,72.3125,108,64,0.57460
2152740,-0.14500,72.0000,108,64,0.56166
2152750,-0.13500,71.6875,108,64,0.54896
2152760,-0.10000,71.3750,108,64,0.53553
2152770,-0.06500,70.8125,108,64,0.56996
2152780,-0.06000,70.5000,108,64,0.57582
2152790,-0.05500,70.2500,108,64,0.57363
2152800,-0.05500,70.2500,108,64,0.57363
2152810,-0.02500,69.7500,108,64,0.56117
2152820,-0.02500,69.2500,108,64,0.54799
2152830,-0.06500,69.0625,108,64,0.54212
2152840,-0.08500,68.8125,108,64,0.53700
2152850,-0.11000,68.3750,108,64,0.52698
2152860,-0.13500,68.1875,108,64,0.52161
2152870,-0.15500,68.0000,108,64,0.51624
2152880,-0.16500,67.6250,108,64,0.50574
2152890,-0.16500,67.4375,108,64,0.50061
2152900,-0.17000,67.3125,108,64,0.49524
2152910,-0.16000,67.1250,108,64,0.48987
2152920,-0.15500,67.0000,108,64,0.48449
2152930,-0.13500,66.6875,108,64,0.47350
2152940,0.08500,66.5625,108,64,0.46862
2152950,0.48500,66.4375,108,64,0.46422
2152960,1.02500,66.3125,108,64,0.45934
2152970,0.74500,66.0625,108,64,0.44860
2152980,0.15000,65.9375,108,64,0.44298
2152990,-0.22500,65.8125,108,64,0.43712
2153000,-0.21000,65.5000,108,64,0.43126
2153010,-0.19000,65.3125,108,64,0.42002
2153020,-0.19500,65.1250,108,64,0.41441
2153030,-0.20000,64.9375,108,64,0.40904
2153040,-0.19000,64.5625,108,64,0.40073
2153050,-0.18000,64.3125,108,64,0.39609
2153060,-0.17000,64.1250,108,64,0.39145
2153070,-0.15500,63.9375,108,64,0.38657
2153080,-0.14500,63.4375,108,64,0.37753
2153090,-0.13500,63.2500,108,64,0.37338
2153100,-0.12500,63.0000,108,64,0.36923
2153110,-0.11000,62.6875,108,64,0.36508
2153120,-0.09000,62.4375,108,64,0.36117
2153130,-0.07000,61.9375,108,64,0.35311
2153140,-0.06500,61.8125,108,64,0.35043
2153150,-0.05000,61.6875,108,64,0.34823
2153160,-0.03500,61.6875,108,64,0.34212
2153170,-0.03500,61.8750,108,64,0.33895
2153180,-0.03000,62.4375,108,64,0.33602
2153190,-0.02500,63.8125,108,64,0.33309
2153200,-0.01000,69.7500,108,64,0.32821
2153210,0.00000,74.1875,108,64,0.32601
2153220,0.00500,79.0000,108,64,0.32405
2153230,0.02000,83.8125,108,64,0.32234
2153240,0.03000,88.2500,108,64,0.32161
2153250,0.05000,95.5000,108,64,0.32112
2153260,0.08000,98.4375,108,64,0.32039
2153270,0.12000,100.8750,108,64,0.31966
2153280,0.14000,102.8125,108,64,0.31893
2153290,0.17500,105.0000,108,64,0.31697
2153300,0.22000,105.3750,108,64,0.31624
2153310,0.24000,105.3750,108,64,0.31526
2153320,0.25500,104.7500,108,64,0.31355
2153330,0.25000,104.1875,108,64,0.31306
2153340,0.21500,103.6250,108,64,0.31331
2153350,0.14000,103.0625,108,64,0.31404
2153360,0.07000,101.6875,108,64,0.31380
2153370,0.02000,100.8750,108,64,0.31331
2153380,-0.04500,100.0625,108,64,0.31258
2153390,-0.08000,99.1250,108,64,0.31160
2153400,-0.10500,98.1875,108,64,0.31087
2153410,-0.13000,96.0625,108,64,0.30940
2153420,-0.14000,94.8125,108,64,0.30891
2153430,-0.15000,93.4375,108,64,0.30891
2153440,-0.15500,91.8750,108,64,0.30965
2153450,-0.15000,88.5000,108,64,0.31404
2153460,-0.15000,86.6875,108,64,0.31844
2153470,-0.14500,84.8750,108,64,0.32576
2153480,-0.14500,81.9375,108,64,0.35140
2153490,-0.14500,81.1250,108,64,0.37045
2153500,-0.14000,80.7500,108,64,0.39341
2153510,-0.14500,80.6250,108,64,0.42002
2153520,-0.14500,80.6875,108,64,0.44957
2153530,-0.13500,80.7500,108,64,0.51429
2153540,-0.13500,80.8125,108,64,0.54310
2153550,-0.13000,80.8750,108,64,0.56947
2153560,-0.12500,80.9375,108,64,0.59829
2153570,-0.12500,80.8750,108,64,0.65470
2153580,-0.12000,80.7500,108,64,0.68059
2153590,-0.12500,80.5000,108,64,0.70403
2153600,-0.12500,80.1875,108,64,0.72503
2153610,-0.12000,79.3750,108,64,0.75897
2153620,-0.11500,78.9375,108,64,0.77192
2153630,-0.11500,78.5000,108,64,0.78242
2153640,-0.11500,77.7500,108,64,0.78877
2153650,-0.11500,77.3750,108,64,0.79536
2153660,-0.11500,77.0000,108,64,0.79707
2153670,-0.11500,76.6250,108,64,0.79683
2153680,-0.11500,75.8750,108,64,0.79194
2153690,-0.11500,75.5625,108,64,0.78706
2153700,-0.11500,75.1875,108,64,0.78046
2153710,-0.11500,74.8750,108,64,0.77241
2153720,-0.11000,74.5000,108,64,0.76288
2153730,-0.10500,73.8125,108,64,0.73993
2153740,-0.07500,73.5000,108,64,0.72796
2153750,-0.04500,73.1250,108,64,0.71551
2153760,-0.03000,72.8125,108,64,0.70159
2153770,-0.02500,72.1875,108,64,0.67204
2153780,-0.01000,71.8125,108,64,0.65739
2153790,0.01500,71.5625,108,64,0.64322
2153800,0.01500,71.5625,108,64,0.64322
2153810,-0.00500,70.7500,108,64,0.60635
2153820,-0.04500,70.5000,108,64,0.59609
2153830,-0.07500,70.2500,108,64,0.58681
2153840,-0.09000,70.0000,108,64,0.57924
2153850,-0.11000,69.5000,108,64,0.56557
2153860,-0.12000,69.3125,108,64,0.55897
2153870,-0.12500,69.1250,108,64,0.55238
2153880,-0.12500,68.8750,108,64,0.54603
2153890,-0.12500,68.5000,108,64,0.53358
2153900,-0.11500,68.3750,108,64,0.52698
2153910,-0.10500,68.1875,108,64,0.52063
2153920,0.01000,67.8750,108,64,0.50794
2153930,0.30500,67.7500,108,64,0.50208
2153940,0.89500,67.6250,108,64,0.49670
2153950,1.04500,67.4375,108,64,0.49182
2153960,0.50500,67.3125,108,64,0.48645
2153970,-0.09500,67.0625,108,64,0.47546
2153980,-0.17500,66.8750,108,64,0.46984
2153990,-0.15500,66.6875,108,64,0.46398
2154000,-0.15500,66.3125,108,64,0.45177
2154010,-0.15500,66.1250,108,64,0.44567
2154020,-0.15500,65.9375,108,64,0.43956
2154030,-0.15000,65.7500,108,64,0.43321
2154040,-0.14500,65.3125,108,64,0.42344
2154050,-0.14000,65.0625,108,64,0.41832
2154060,-0.13500,64.8125,108,64,0.41294
2154070,-0.12500,64.5625,108,64,0.40757
2154080,-0.11500,64.1250,108,64,0.39683
2154090,-0.11000,63.8750,108,64,0.39170
2154100,-0.10000,63.6250,108,64,0.38681
2154110,-0.08500,63.3750,108,64,0.38193
2154120,-0.07500,63.1875,108,64,0.37729
2154130,-0.07000,63.0000,108,64,0.36825
2154140,-0.06000,62.8750,108,64,0.36508
2154150,-0.05000,62.8750,108,64,0.36239
2154160,-0.04000,63.8125,108,64,0.35897
2154170,-0.02500,65.5000,108,64,0.35189
2154180,-0.01500,68.2500,108,64,0.34847
2154190,0.00500,72.0625,108,64,0.34554
2154200,0.02000,76.6875,108,64,0.34261
2154210,0.04000,86.3125,108,64,0.33748
2154220,0.05500,90.6250,108,64,0.33529
2154230,0.08500,94.4375,108,64,0.33309
2154240,0.11000,97.7500,108,64,0.33187
2154250,0.14000,102.8750,108,64,0.33016
2154260,0.16500,104.6875,108,64,0.32845
2154270,0.20500,105.9375,108,64,0.32698
2154280,0.23500,106.7500,108,64,0.32527
2154290,0.26500,107.1250,108,64,0.32259
2154300,0.27500,106.9375,108,64,0.32161
2154310,0.27500,106.6250,108,64,0.32063
2154320,0.24000,105.8125,108,64,0.31893
2154330,0.19000,105.3750,108,64,0.31868
2154340,0.12000,104.8125,108,64,0.31893
2154350,0.04000,104.1875,108,64,0.31868
2154360,-0.02000,103.5000,108,64,0.31819
2154370,-0.08000,101.9375,108,64,0.31746
2154380,-0.10500,101.0000,108,64,0.31697
2154390,-0.13000,99.9375,108,64,0.31673
2154400,-0.14500,97.4375,108,64,0.31624
2154410,-0.15500,95.9375,108,64,0.31600
2154420,-0.15500,94.3750,108,64,0.31648
2154430,-0.15500,92.6875,108,64,0.31795
2154440,-0.15500,90.8125,108,64,0.32088
2154450,-0.15000,87.0000,108,64,0.33236
2154460,-0.15000,85.2500,108,64,0.34261
2154470,-0.14500,83.9375,108,64,0.35678
2154480,-0.14500,82.6875,108,64,0.37509
2154490,-0.14500,82.6250,108,64,0.42393
2154500,-0.13500,82.6250,108,64,0.45324
2154510,-0.12500,82.6875,108,64,0.48474
2154520,-0.12500,82.7500,108,64,0.51746
2154530,-0.12000,82.8125,108,64,0.57875
2154540,-0.11500,82.8750,108,64,0.60366
2154550,-0.10500,82.9375,108,64,0.63053
2154560,-0.10500,82.8750,108,64,0.65714
2154570,-0.10500,82.5625,108,64,0.70549
2154580,-0.10000,82.1875,108,64,0.72625
2154590,-0.09500,81.8125,108,64,0.74408
2154600,-0.09500,80.9375,108,64,0.77216
2154610,-0.09000,80.5625,108,64,0.78266
2154620,-0.08500,80.1250,108,64,0.79096
2154630,-0.08000,79.6875,108,64,0.79707
2154640,-0.07500,78.8750,108,64,0.80000
2154650,-0.07500,78.4375,108,64,0.80000
2154660,-0.08000,78.0625,108,64,0.79878
2154670,-0.09000,77.6875,108,64,0.79634
2154680,-0.09500,77.3125,108,64,0.79243
2154690,-0.09000,76.6250,108,64,0.77949
2154700,-0.08000,76.3125,108,64,0.77045
2154710,-0.07500,76.0000,108,64,0.75971
2154720,-0.05500,75.3125,108,64,0.73407
2154730,-0.04500,75.0000,108,64,0.72088
2154740,-0.01500,74.6875,108,64,0.70745
2154750,0.01500,74.3750,108,64,0.69304
2154760,0.03000,74.1250,108,64,0.67839
2154770,0.04000,73.6250,108,64,0.64957
2154780,0.05000,73.3750,108,64,0.63639
2154790,0.08500,73.1875,108,64,0.62393
2154800,0.09000,72.8750,108,64,0.60220
2154810,0.06500,72.7500,108,64,0.57875
2154820,0.03500,72.5625,108,64,0.54896
2154830,0.00500,72.3750,108,64,0.53065
2154840,-0.02500,72.0000,108,64,0.51038
2154850,-0.04500,71.8750,108,64,0.50305
2154860,-0.05500,71.7500,108,64,0.49646
2154870,-0.05500,71.6250,108,64,0.49011
2154880,-0.06000,71.3750,108,64,0.47741
2154890,-0.06000,71.2500,108,64,0.47131
2154900,-0.06000,71.1875,108,64,0.46520
2154910,-0.06000,71.0625,108,64,0.45910
2154920,-0.01500,70.9375,108,64,0.45275
2154930,0.40000,70.6875,108,64,0.44078
2154940,0.91500,70.5625,108,64,0.43565
2154950,1.21500,70.4375,108,64,0.43028
2154960,0.47500,70.1875,108,64,0.41954
2154970,-0.04500,70.0000,108,64,0.41392
2154980,-0.19500,69.8125,108,64,0.40830
2154990,-0.18000,69.6250,108,64,0.40293
2155000,-0.21000,69.3125,109,64,0.39756
2155010,-0.26000,68.6250,109,64,0.38706
2155020,-0.29500,68.2500,109,64,0.38169
2155030,-0.30500,67.8125,109,64,0.37631
2155040,-0.29500,67.3750,109,64,0.37167
2155050,-0.27000,66.5000,109,64,0.36410
2155060,-0.23000,66.1250,109,64,0.35995
2155070,-0.20500,65.7500,109,64,0.35531
2155080,-0.16000,65.1250,109,64,0.34212
2155090,-0.13000,64.8125,109,64,0.33431
2155100,-0.09500,64.5625,109,64,0.32918
2155110,-0.07500,64.3750,109,64,0.33138
2155120,-0.05500,64.2500,109,64,0.34505
2155130,-0.03500,64.2500,109,64,0.38608
2155140,-0.02500,64.3750,109,64,0.38803
2155150,-0.01500,64.6250,109,64,0.35043
2155160,0.00000,65.4375,109,64,0.24689
2155170,0.01000,69.7500,109,64,0.06593
2155180,0.02000,73.6250,109,64,0.03297
2155190,0.03000,78.4375,109,64,0.01636
2155200,0.03500,88.8125,109,64,0.00806
2155210,0.05000,93.4375,109,64,0.00195
2155220,0.07000,97.5000,109,64,0.00098
2155230,0.10000,101.0000,109,64,0.00049
2155240,0.13500,106.2500,109,64,0.00000
2155250,0.15500,108.1875,109,64,0.00000
2155260,0.18500,109.5625,109,64,0.00000
2155270,0.22500,110.5000,109,64,0.00000
2155280,0.24500,110.9375,109,64,0.00000
2155290,0.27500,111.1250,109,64,0.00000
2155300,0.29000,111.0625,109,64,0.00000
2155310,0.29000,110.8750,109,64,0.00000
2155320,0.27000,110.6250,109,64,0.00000
2155330,0.22000,110.0625,109,64,0.00000
2155340,0.14000,109.6875,109,64,0.00000
2155350,0.09000,109.2500,109,64,0.00000
2155360,0.02000,108.1250,109,64,0.00000
2155370,-0.03500,107.3750,109,64,0.00000
2155380,-0.06500,106.5625,109,64,0.00000
2155390,-0.08500,105.5625,109,64,0.00000
2155400,-0.10000,103.1250,109,64,0.00000
2155410,-0.11000,101.6250,109,64,0.00000
2155420,-0.04500,76.4375,109,64,0.07399
2155430,0.04000,74.5625,109,64,0.07619
2155440,0.04000,74.5625,109,64,0.07619
2155450,0.04000,74.5625,109,64,0.07619
2155460,0.04000,74.5625,109,64,0.07619
2155470,0.04000,74.5625,109,64,0.07619
2155480,0.04000,74.5625,109,64,0.07619
2155490,0.04000,74.5625,109,64,0.07619
2155500,0.04000,74.5625,109,64,0.07619
2155510,0.04000,74.5625,109,64,0.07619
2155520,0.04000,74.5625,109,64,0.07619
2155530,0.04000,74.5625,109,64,0.07619
2155540,0.04000,74.5625,109,64,0.07619
2155550,0.04000,74.5625,109,64,0.07619
2155560,0.04000,74.5625,109,64,0.07619
2155570,0.04000,74.5625,109,64,0.07619
2155580,0.04000,74.5625,109,64,0.07619
2155590,0.04000,74.5625,109,64,0.07619
2155600,0.04000,74.5625,109,64,0.07619
2155610,0.04000,74.5625,109,64,0.07619
2155620,0.04000,74.5625,109,64,0.07619
2155630,0.04000,74.5625,109,64,0.07619
2155640,0.04000,74.5625,109,64,0.07619
2155650,0.04000,74.5625,109,64,0.07619
2155660,0.04000,74.5625,109,64,0.07619
2155670,0.04000,74.5625,109,64,0.07619
2155680,0.04000,74.5625,109,64,0.07619
2155690,0.04000,74.5625,109,64,0.07619
2155700,0.04000,74.5625,109,64,0.07619
2155710,0.04000,74.5625,109,64,0.07619
2155720,0.04000,74.5625,109,64,0.07619
2155730,0.04000,74.5625,109,64,0.07619
2155740,0.04000,74.5625,109,64,0.07619
2155750,0.04000,74.5625,109,64,0.07619
2155760,0.04000,74.5625,109,64,0.07619
2155770,0.04000,74.5625,109,64,0.07619
2155780,0.04000,74.5625,109,64,0.07619
2155790,0.04000,74.5625,109,64,0.07619
2155800,0.04000,74.5625,109,64,0.07619
2155810,0.04000,74.5625,109,64,0.07619
2155820,0.04000,74.5625,109,64,0.07619
2155830,0.01500,74.3125,109,64,0.08010
2155840,-0.02500,73.8125,109,64,0.09109
2155850,-0.05500,73.5625,109,64,0.09646
2155860,-0.08500,73.3125,109,64,0.10159
2155870,-0.10500,73.0625,109,64,0.10672
2155880,-0.11500,72.7500,109,64,0.11136
2155890,-0.11000,72.2500,109,64,0.12015
2155900,-0.10500,72.0625,109,64,0.12381
2155910,-0.10000,71.9375,109,64,0.12723
2155920,-0.09000,71.6250,109,64,0.13309
2155930,-0.09500,71.4375,109,64,0.13626
2155940,-0.06500,71.3750,109,64,0.13944
2155950,0.33500,71.2500,109,64,0.14164
2155960,0.89000,71.1250,109,64,0.14310
2155970,1.33500,70.9375,109,64,0.14530
2155980,0.68000,70.8750,109,64,0.14628
2155990,0.09000,70.7500,109,64,0.14701
2156000,-0.12500,70.6250,108,64,0.14750
2156010,-0.11000,70.4375,108,64,0.14774
2156020,-0.12500,70.2500,108,64,0.14725
2156030,-0.14500,70.0000,108,64,0.14652
2156040,-0.15000,69.5625,108,64,0.14799
2156050,-0.15000,69.3125,108,64,0.14774
2156060,-0.15000,69.1250,108,64,0.14701
2156070,-0.15500,68.8750,108,64,0.14603
2156080,-0.15500,68.4375,108,64,0.14335
2156090,-0.15500,68.2500,108,64,0.14212
2156100,-0.15000,68.0625,108,64,0.14066
2156110,-0.14000,67.8125,108,64,0.13944
2156120,-0.13000,67.4375,108,64,0.13675
2156130,-0.12000,67.1875,108,64,0.13675
2156140,-0.10500,67.0625,108,64,0.13748
2156150,-0.09000,66.9375,108,64,0.13724
2156160,-0.08000,66.8750,108,64,0.13675
2156170,-0.06500,67.6250,108,64,0.13578
2156180,-0.05000,68.9375,108,64,0.13553
2156190,-0.03000,71.3750,108,64,0.13553
2156200,-0.01000,79.6250,108,64,0.13626
2156210,0.00000,84.8750,108,64,0.13724
2156220,0.02000,90.0625,108,64,0.13822
2156230,0.04000,94.8750,108,64,0.14017
2156240,0.06500,102.7500,108,64,0.14505
2156250,0.08500,105.8125,108,64,0.14750
2156260,0.11000,108.3750,108,64,0.14994
2156270,0.13500,110.4375,108,64,0.15263
2156280,0.15000,112.0625,108,64,0.15531
2156290,0.17500,113.8750,108,64,0.16166
2156300,0.20000,114.2500,108,64,0.16508
2156310,0.22000,114.3750,108,64,0.16850
2156320,0.23500,114.4375,108,64,0.17216
2156330,0.23000,114.3750,108,64,0.17973
2156340,0.21500,114.3125,108,64,0.18437
2156350,0.16500,114.1250,108,64,0.18852
2156360,0.10500,113.8750,108,64,0.19243
2156370,0.03000,113.1250,108,64,0.19976
2156380,-0.05000,112.5625,108,64,0.20317
2156390,-0.09000,111.8750,108,64,0.20611
2156400,-0.13000,111.0625,108,64,0.20855
2156410,-0.16000,109.0000,108,64,0.21245
2156420,-0.17500,107.6250,108,64,0.21416
2156430,-0.19500,106.1250,108,64,0.21661
2156440,-0.22000,102.5000,108,64,0.22393
2156450,-0.23500,100.4375,108,64,0.23053
2156460,-0.23500,98.2500,108,64,0.24054
2156470,-0.23000,96.0000,108,64,0.25519
2156480,-0.22000,93.8750,108,64,0.27546
2156490,-0.21000,90.3750,108,64,0.33480
2156500,-0.19000,89.3125,108,64,0.37241
2156510,-0.18500,88.6250,108,64,0.41465
2156520,-0.18000,88.2500,108,64,0.46007
2156530,-0.18000,87.9375,108,64,0.54896
2156540,-0.18500,87.8125,108,64,0.58681
2156550,-0.18500,87.8125,108,64,0.62882
2156560,-0.18500,87.8125,108,64,0.71209
2156570,-0.18000,87.8125,108,64,0.75018
2156580,-0.17000,87.7500,108,64,0.78510
2156590,-0.16000,87.6250,108,64,0.81661
2156600,-0.14500,87.3750,108,64,0.84444
2156610,-0.13500,86.5000,108,64,0.89011
2156620,-0.13000,86.0000,108,64,0.90818
2156630,-0.13000,85.4375,108,64,0.92015
2156640,-0.12500,84.9375,108,64,0.92796
2156650,-0.12500,83.8750,108,64,0.94335
2156660,-0.13500,83.3750,108,64,0.94872
2156670,-0.13500,82.8750,108,64,0.95214
2156680,-0.13500,82.4375,108,64,0.95336
2156690,-0.14000,81.5625,108,64,0.94823
2156700,-0.14500,81.1250,108,64,0.94164
2156710,-0.14500,80.7500,108,64,0.93236
2156720,-0.15000,79.9375,108,64,0.90549
2156730,-0.15500,79.5000,108,64,0.88913
2156740,-0.15500,79.0625,108,64,0.87131
2156750,-0.16000,78.6250,108,64,0.85128
2156760,-0.16000,77.8125,108,64,0.80610
2156770,-0.16000,77.4375,108,64,0.78217
2156780,-0.15500,77.0625,108,64,0.75824
2156790,-0.12500,76.6875,108,64,0.73455
2156800,-0.10000,76.3125,108,64,0.71184
2156810,-0.09000,75.6250,108,64,0.67033
2156820,-0.08500,75.3125,108,64,0.65177
2156830,-0.07500,74.9375,108,64,0.63565
2156840,-0.05000,74.3125,108,64,0.60684
2156850,-0.05000,74.0000,108,64,0.59341
2156860,-0.07500,73.6875,108,64,0.61319
2156870,-0.11000,73.4375,108,64,0.65250
2156880,-0.13500,73.1250,108,64,0.67131
2156890,-0.16500,72.5000,108,64,0.68327
2156900,-0.19000,72.1875,108,64,0.68425
2156910,-0.19000,71.8750,108,64,0.68400
2156920,-0.19000,71.1875,108,64,0.68303
2156930,-0.19000,70.8750,108,64,0.68034
2156940,-0.18000,70.6250,108,64,0.67912
2156950,-0.17000,70.3125,108,64,0.67766
2156960,-0.16000,70.0625,108,64,0.67619
2156970,-0.05500,69.6250,108,64,0.67326
2156980,0.36500,69.5000,108,64,0.67179
2156990,1.05500,69.3750,108,64,0.67033
2157000,0.96500,69.2500,108,64,0.66886
2157010,0.24500,68.8750,108,64,0.66593
2157020,-0.24500,68.6875,108,64,0.66422
2157030,-0.24000,68.5000,108,64,0.66300
2157040,-0.22000,68.3750,108,64,0.66178
2157050,-0.22500,68.0000,108,64,0.65885
2157060,-0.22500,67.8125,108,64,0.65739
2157070,-0.22500,67.5625,108,64,0.65592
2157080,-0.21500,67.1875,108,64,0.65299
2157090,-0.21000,67.0000,108,64,0.65177
2157100,-0.19500,66.8125,108,64,0.65031
2157110,-0.18500,66.5625,108,64,0.64884
2157120,-0.17500,66.3125,108,64,0.64762
2157130,-0.17000,65.7500,108,64,0.64518
2157140,-0.15500,65.5000,108,64,0.64420
2157150,-0.14500,65.1875,108,64,0.64322
2157160,-0.13500,64.9375,108,64,0.64200
2157170,-0.12500,64.4375,108,64,0.63956
2157180,-0.11500,64.2500,108,64,0.63834
2157190,-0.10000,64.1875,108,64,0.63712
2157200,-0.09500,64.1250,108,64,0.63614
2157210,-0.07500,65.1875,108,64,0.63394
2157220,-0.04000,66.9375,108,64,0.63297
2157230,-0.01500,69.8125,108,64,0.63223
2157240,0.01000,73.6875,108,64,0.63175
2157250,0.03000,83.1875,108,64,0.63028
2157260,0.05000,87.9375,108,64,0.62955
2157270,0.07000,92.1875,108,64,0.62882
2157280,0.09000,99.0625,108,64,0.62759
2157290,0.11000,101.8125,108,64,0.62711
2157300,0.13000,104.0625,108,64,0.62662
2157310,0.16000,105.8125,108,64,0.62613
2157320,0.18500,107.0625,108,64,0.62564
2157330,0.21000,108.0000,108,64,0.62515
2157340,0.23500,107.9375,108,64,0.62515
2157350,0.24500,107.6875,108,64,0.62491
2157360,0.23500,107.2500,108,64,0.62491
2157370,0.19500,106.2500,108,64,0.62442
2157380,0.13000,105.6250,108,64,0.62442
2157390,0.05500,104.9375,108,64,0.62418
2157400,-0.01500,104.1875,108,64,0.62418
2157410,-0.08500,102.5625,108,64,0.62418
2157420,-0.12000,101.6250,108,64,0.62393
2157430,-0.15000,100.5625,108,64,0.62393
2157440,-0.16000,98.1250,108,64,0.62418
2157450,-0.17500,96.6875,108,64,0.62418
2157460,-0.18000,95.1250,108,64,0.62418
2157470,-0.18500,93.5000,108,64,0.62418
2157480,-0.18000,89.6875,108,64,0.62491
2157490,-0.18000,87.6875,108,64,0.62564
2157500,-0.18000,85.6875,108,64,0.62711
2157510,-0.18000,83.8750,108,64,0.62930
2157520,-0.17500,82.5000,108,64,0.63248
2157530,-0.17000,81.3750,108,64,0.64054
2157540,-0.16500,81.3125,108,64,0.64518
2157550,-0.16000,81.4375,108,64,0.65079
2157560,-0.16000,81.6250,108,64,0.66349
2157570,-0.15500,81.7500,108,64,0.67033
2157580,-0.15000,81.8125,108,64,0.67717
2157590,-0.14500,81.8750,108,64,0.68376
2157600,-0.14500,82.0000,108,64,0.69597
2157610,-0.14000,81.9375,108,64,0.70134
2157620,-0.13500,81.6875,108,64,0.70598
2157630,-0.13500,81.3750,108,64,0.70940
2157640,-0.13500,80.5625,108,64,0.71477
2157650,-0.13500,80.0625,108,64,0.71697
2157660,-0.13000,79.6250,108,64,0.71893
2157670,-0.12500,79.1875,108,64,0.72039
2157680,-0.12500,78.7500,108,64,0.72161
2157690,-0.12500,77.8750,108,64,0.72259
2157700,-0.12500,77.5000,108,64,0.72259
2157710,-0.12500,77.1250,108,64,0.72234
2157720,-0.12000,76.3125,108,64,0.72039
2157730,-0.12500,76.0000,108,64,0.71893
2157740,-0.12500,75.6250,108,64,0.71722
2157750,-0.12000,75.3125,108,64,0.71526
2157760,-0.11500,75.0000,108,64,0.71306
2157770,-0.10500,74.4375,108,64,0.70745
2157780,-0.08500,74.1250,108,64,0.70427
2157790,-0.08500,74.1250,108,64,0.70427
2157800,-0.08500,74.1250,108,64,0.70427
2157810,-0.08500,74.1250,108,64,0.70427
2157820,0.03000,72.9375,108,64,0.69109
2157830,0.02000,72.4375,108,64,0.68547
2157840,0.02000,72.4375,108,64,0.68547
2157850,0.02000,72.4375,108,64,0.68547
2157860,0.02000,72.4375,108,64,0.68547
2157870,0.02000,72.4375,108,64,0.68547
2157880,0.00500,70.6875,108,64,0.67375
2157890,-0.01500,70.4375,108,64,0.67131
2157900,-0.01500,70.4375,108,64,0.67131
2157910,-0.05000,70.3125,108,64,0.66911
2157920,-0.05500,69.9375,108,64,0.66691
2157930,-0.05000,69.6250,108,64,0.66593
2157940,-0.03000,69.3750,108,64,0.66520
2157950,-0.01500,69.0625,108,64,0.66422
2157960,-0.01500,68.8125,108,64,0.66325
2157970,0.01500,68.4375,108,64,0.66081
2157980,0.30000,68.2500,108,64,0.65983
2157990,0.85000,68.0625,108,64,0.65861
2158000,1.17000,67.6250,107,64,0.65641
2158010,0.79500,67.3750,107,64,0.65543
2158020,0.07500,67.1875,107,64,0.65421
2158030,-0.15500,67.0000,107,64,0.65324
2158040,-0.12000,66.8125,107,64,0.65250
2158050,-0.10000,66.5000,107,64,0.65079
2158060,-0.10000,66.4375,107,64,0.64982
2158070,-0.10500,66.3750,107,64,0.64884
2158080,-0.10500,66.2500,107,64,0.64786
2158090,-0.10500,66.0625,107,64,0.64591
2158100,-0.10500,65.8750,107,64,0.64493
2158110,-0.09500,65.7500,107,64,0.64396
2158120,-0.08500,65.5625,107,64,0.64298
2158130,-0.07000,65.1875,107,64,0.64151
2158140,-0.05000,64.9375,107,64,0.64078
2158150,-0.03500,64.6875,107,64,0.64005
2158160,-0.02500,64.1875,107,64,0.63932
2158170,-0.01000,64.0625,107,64,0.63785
2158180,-0.00500,63.9375,107,64,0.63712
2158190,0.00500,63.8125,107,64,0.63639
2158200,0.02000,63.5625,107,64,0.63492
2158210,0.02500,63.6875,107,64,0.63419
2158220,0.04000,64.4375,107,64,0.63370
2158230,0.06000,65.9375,107,64,0.63321
2158240,0.08000,72.0000,107,64,0.63248
2158250,0.09500,76.3125,107,64,0.63199
2158260,0.11500,80.8750,107,64,0.63150
2158270,0.14500,85.4375,107,64,0.63126
2158280,0.17000,89.5625,107,64,0.63101
2158290,0.19500,96.3125,107,64,0.63077
2158300,0.23000,98.9375,107,64,0.63077
2158310,0.25000,101.1250,107,64,0.63077
2158320,0.29000,103.9375,107,64,0.63101
2158330,0.33000,104.5625,107,64,0.63126
2158340,0.36500,104.7500,107,64,0.63126
2158350,0.40000,104.6875,107,64,0.63126
2158360,0.40500,104.3125,107,64,0.63126
2158370,0.39000,103.2500,107,64,0.63126
2158380,0.34000,102.5625,107,64,0.63126
2158390,0.25500,101.8750,107,64,0.63126
2158400,0.18500,101.1250,107,64,0.63126
2158410,0.11500,99.4375,107,64,0.63126
2158420,0.05000,98.5000,107,64,0.63150
2158430,0.00000,97.5000,107,64,0.63175
2158440,-0.03500,95.3750,107,64,0.63272
2158450,-0.05500,94.1250,107,64,0.63297
2158460,-0.07500,92.7500,107,64,0.63321
2158470,-0.09000,91.2500,107,64,0.63346
2158480,-0.10000,89.5625,107,64,0.63370
2158490,-0.11000,85.9375,107,64,0.63468
2158500,-0.12000,84.0625,107,64,0.63565
2158510,-0.13000,82.3750,107,64,0.63687
2158520,-0.14000,80.3125,107,64,0.63883
2158530,-0.15500,80.0000,107,64,0.64420
2158540,-0.16500,80.0625,107,64,0.64811
2158550,-0.18000,80.2500,107,64,0.65299
2158560,-0.19500,80.6875,107,64,0.66471
2158570,-0.20000,80.8125,107,64,0.67131
2158580,-0.21500,80.9375,107,64,0.67814
2158590,-0.22000,81.0000,107,64,0.68498
2158600,-0.22500,81.0000,107,64,0.69158
2158610,-0.21000,80.9375,107,64,0.70379
2158620,-0.19000,80.6875,107,64,0.70916
2158630,-0.17000,80.3750,107,64,0.71331
2158640,-0.15500,80.0000,107,64,0.71648
2158650,-0.14000,79.0000,107,64,0.72259
2158660,-0.13000,78.5000,107,64,0.72503
2158670,-0.12500,78.0000,107,64,0.72698
2158680,-0.12000,77.5000,107,64,0.72869
2158690,-0.11500,76.4375,107,64,0.73065
2158700,-0.11000,75.9375,107,64,0.73089
2158710,-0.10500,75.5000,107,64,0.73089
2158720,-0.09500,75.0625,107,64,0.73040
2158730,-0.09500,74.2500,107,64,0.72845
2158740,-0.09500,73.8750,107,64,0.72723
2158750,-0.10000,73.5000,107,64,0.72552
2158760,-0.11500,72.8750,107,64,0.72137
2158770,-0.12500,72.5000,107,64,0.71893
2158780,-0.12500,72.1875,107,64,0.71624
2158790,-0.11000,71.9375,107,64,0.71331
2158800,-0.11000,71.9375,107,64,0.71331
2158810,-0.05500,71.1875,107,64,0.70427
2158820,-0.03000,71.0000,107,64,0.70134
2158830,-0.02500,70.7500,107,64,0.69890
2158840,-0.01500,70.4375,107,64,0.69670
2158850,0.01000,70.2500,107,64,0.69255
2158860,0.02000,70.1250,107,64,0.69084
2158870,0.01000,69.9375,107,64,0.68913
2158880,-0.02500,69.5625,107,64,0.68767
2158890,-0.06500,69.3750,107,64,0.68523
2158900,-0.08500,69.2500,107,64,0.68400
2158910,-0.11500,69.0625,107,64,0.64151
2158920,-0.13000,68.8750,107,64,0.57705
2158930,-0.13500,68.5000,107,64,0.52259
2158940,-0.14000,68.3125,107,64,0.50940
2158950,-0.13500,68.1250,107,64,0.49939
2158960,-0.13000,67.9375,107,64,0.49109
2158970,-0.12000,67.5000,107,64,0.47643
2158980,-0.07000,67.3750,107,64,0.46960
2158990,0.12000,67.1875,107,64,0.46300
2159000,0.63500,67.0000,107,64,0.45641
2159010,1.10000,66.6875,107,64,0.44322
2159020,0.76500,66.5000,107,64,0.43687
2159030,0.04000,66.3125,107,64,0.43150
2159040,-0.19500,65.9375,107,64,0.42076
2159050,-0.16000,65.7500,107,64,0.41490
2159060,-0.14500,65.5625,107,64,0.40928
2159070,-0.15500,65.3125,107,64,0.40366
2159080,-0.15500,65.1250,107,64,0.39829
2159090,-0.15000,64.6250,107,64,0.38828
2159100,-0.13500,64.3750,107,64,0.38364
2159110,-0.12500,64.1250,107,64,0.37924
2159120,-0.11500,63.6250,107,64,0.37167
2159130,-0.10500,63.3750,107,64,0.36923
2159140,-0.10000,63.1250,107,64,0.36606
2159150,-0.09000,62.8750,107,64,0.36288
2159160,-0.08500,62.6875,107,64,0.35946
2159170,-0.07000,62.2500,107,64,0.35311
2159180,-0.06500,62.0625,107,64,0.34994
2159190,-0.05500,61.9375,107,64,0.34701
2159200,-0.04500,61.8125,107,64,0.34408
2159210,-0.03500,61.8750,107,64,0.33822
2159220,-0.02000,62.2500,107,64,0.33529
2159230,-0.01500,63.0625,107,64,0.33333
2159240,-0.00500,64.8125,107,64,0.33187
2159250,0.00500,71.5625,107,64,0.32747
2159260,0.01500,76.1250,107,64,0.32479
2159270,0.03000,81.0000,107,64,0.32210
2159280,0.05000,85.6875,107,64,0.31941
2159290,0.07500,93.6250,107,64,0.31404
2159300,0.10000,96.8125,107,64,0.31184
2159310,0.13000,99.5000,107,64,0.30989
2159320,0.15500,101.6875,107,64,0.30794
2159330,0.19000,104.4375,107,64,0.30672
2159340,0.23000,105.1250,107,64,0.30574
2159350,0.25500,105.3125,107,64,0.30452
2159360,0.27500,104.8750,107,64,0.30330
2159370,0.28500,104.3750,107,64,0.30110
2159380,0.27500,103.8125,107,64,0.29963
2159390,0.23000,103.2500,107,64,0.29817
2159400,0.15000,101.8750,107,64,0.29573
2159410,0.09500,101.0625,107,64,0.29451
2159420,0.01500,100.1250,107,64,0.29353
2159430,-0.03000,99.1875,107,64,0.29353
2159440,-0.07000,98.1875,107,64,0.29402
2159450,-0.10000,95.9375,107,64,0.29426
2159460,-0.11500,94.6250,107,64,0.29402
2159470,-0.13500,93.2500,107,64,0.29377
2159480,-0.14000,91.7500,107,64,0.29377
2159490,-0.14500,88.4375,107,64,0.29597
2159500,-0.14500,86.6875,107,64,0.29890
2159510,-0.14500,84.8750,107,64,0.30379
2159520,-0.14500,83.3125,107,64,0.31160
2159530,-0.14500,81.0625,107,64,0.33382
2159540,-0.14500,80.6250,107,64,0.35092
2159550,-0.14500,80.4375,107,64,0.37241
2159560,-0.15000,80.5625,107,64,0.39805
2159570,-0.15500,80.6875,107,64,0.45836
2159580,-0.15500,80.7500,107,64,0.49109
2159590,-0.15000,80.8125,107,64,0.52430
2159600,-0.15000,80.9375,107,64,0.58901
2159610,-0.15000,80.9375,107,64,0.61905
2159620,-0.14500,80.8125,107,64,0.64664
2159630,-0.14500,80.6875,107,64,0.66838
2159640,-0.14500,80.4375,107,64,0.68596
2159650,-0.14500,79.6875,107,64,0.72015
2159660,-0.14000,79.3125,107,64,0.73455
2159670,-0.13500,78.8750,107,64,0.74652
2159680,-0.13500,78.0000,107,64,0.75629
2159690,-0.13500,77.6250,107,64,0.76874
2159700,-0.13500,77.1875,107,64,0.77192
2159710,-0.12500,76.7500,107,64,0.77338
2159720,-0.12500,76.3125,107,64,0.77314
2159730,-0.11500,75.5625,107,64,0.76606
2159740,-0.11500,75.1875,107,64,0.76044
2159750,-0.11000,74.8125,107,64,0.75360
2159760,-0.10500,74.5000,107,64,0.74530
2159770,-0.10500,73.8125,107,64,0.72430
2159780,-0.10500,73.5000,107,64,0.71184
2159790,-0.10500,73.1875,107,64,0.69841
2159800,-0.09500,72.5625,107,64,0.66960
2159810,-0.08500,72.2500,107,64,0.65470
2159820,-0.05500,71.9375,107,64,0.64127
2159830,-0.02500,71.6250,107,64,0.62906
2159840,-0.02000,71.1250,107,64,0.60464
2159850,-0.01500,70.8125,107,64,0.59341
2159860,0.00500,70.6250,107,64,0.58315
2159870,0.03000,70.3750,107,64,0.57363
2159880,0.02000,69.9375,107,64,0.55751
2159890,-0.01000,69.6875,107,64,0.55067
2159900,-0.03500,69.4375,107,64,0.54432
2159910,-0.06000,69.2500,107,64,0.53822
2159920,-0.08500,69.0000,107,64,0.53236
2159930,-0.10500,68.6250,107,64,0.52210
2159940,-0.11000,68.4375,107,64,0.51673
2159950,-0.11500,68.2500,107,64,0.51111
2159960,-0.11000,67.9375,107,64,0.49915
2159970,-0.10500,67.7500,107,64,0.49304
2159980,-0.09500,67.6250,107,64,0.48694
2159990,-0.07000,67.4375,107,64,0.48083
2160000,0.11000,67.3125,108,64,0.47497
2160010,0.71000,67.0625,108,64,0.46276
2160020,1.09500,66.9375,108,64,0.45763
2160030,0.90500,66.7500,108,64,0.45299
2160040,0.03500,66.5000,108,64,0.44200
2160050,-0.18500,66.3125,108,64,0.43639
2160060,-0.18000,66.1250,108,64,0.43053
2160070,-0.18500,66.0000,108,64,0.42466
2160080,-0.20000,65.8125,108,64,0.41880
2160090,-0.20000,65.4375,108,64,0.40757
2160100,-0.19000,65.1875,108,64,0.40220
2160110,-0.16500,65.0000,108,64,0.39683
2160120,-0.14500,64.7500,108,64,0.39170
2160130,-0.12500,64.3750,108,64,0.38437
2160140,-0.09500,64.1875,108,64,0.38022
2160150,-0.07500,64.0000,108,64,0.37582
2160160,-0.04500,63.8125,108,64,0.37143
2160170,-0.01500,63.4375,108,64,0.36239
2160180,0.02000,63.2500,108,64,0.35824
2160190,0.04000,63.1250,108,64,0.35433
2160200,0.05500,62.9375,108,64,0.35043
2160210,0.06000,62.9375,108,64,0.34310
2160220,0.04500,62.9375,108,64,0.34066
2160230,0.01500,63.1875,108,64,0.33871
2160240,-0.02000,65.5625,108,64,0.33309
2160250,-0.02500,68.2500,108,64,0.33040
2160260,0.00000,72.0625,108,64,0.32796
2160270,0.04000,76.6875,108,64,0.32552
2160280,0.08500,86.3125,108,64,0.32161
2160290,0.12500,90.6875,108,64,0.31966
2160300,0.19000,94.5625,108,64,0.31795
2160310,0.28000,97.8750,108,64,0.31624
2160320,0.33000,100.7500,108,64,0.31453
2160330,0.38500,105.0000,108,64,0.31331
2160340,0.43500,106.3750,108,64,0.31233
2160350,0.48000,107.3125,108,64,0.31160
2160360,0.50500,107.8125,108,64,0.31087
2160370,0.53000,107.9375,108,64,0.30989
2160380,0.53500,107.6875,108,64,0.30965
2160390,0.51500,107.3750,108,64,0.30940
2160400,0.46500,106.9375,108,64,0.30916
2160410,0.37500,105.8125,108,64,0.30842
2160420,0.30500,105.1250,108,64,0.30867
2160430,0.22000,104.3125,108,64,0.30916
2160440,0.14500,102.3750,108,64,0.30940
2160450,0.09000,101.2500,108,64,0.30940
2160460,0.05500,100.0625,108,64,0.30965
2160470,0.03500,98.7500,108,64,0.30989
2160480,0.02000,95.7500,108,64,0.31136
2160490,0.01000,94.1250,108,64,0.31258
2160500,-0.00500,92.3125,108,64,0.31453
2160510,-0.02500,90.3125,108,64,0.31770
2160520,-0.03500,88.3125,108,64,0.32259
2160530,-0.05000,84.5000,108,64,0.33846
2160540,-0.08500,83.0000,108,64,0.35140
2160550,-0.15500,82.0000,108,64,0.36825
2160560,-0.19000,81.5625,108,64,0.38950
2160570,-0.22000,81.6875,108,64,0.44249
2160580,-0.24000,81.9375,108,64,0.47302
2160590,-0.25000,82.1250,108,64,0.50549
2160600,-0.25000,82.1875,108,64,0.53895
2160610,-0.25000,82.1875,108,64,0.60513
2160620,-0.25500,82.1250,108,64,0.63199
2160630,-0.26000,82.0000,108,64,0.65519
2160640,-0.26000,81.8125,108,64,0.68010
2160650,-0.26000,81.1875,108,64,0.72674
2160660,-0.26000,80.7500,108,64,0.74701
2160670,-0.25500,80.2500,108,64,0.76459
2160680,-0.24000,79.3125,108,64,0.79194
2160690,-0.22000,78.8125,108,64,0.80195
2160700,-0.20000,78.3125,108,64,0.80952
2160710,-0.18500,77.8750,108,64,0.81490
2160720,-0.17000,77.4375,108,64,0.81807
2160730,-0.16000,76.5000,108,64,0.81587
2160740,-0.15500,76.0000,108,64,0.81270
2160750,-0.15500,75.5625,108,64,0.80830
2160760,-0.15500,75.1250,108,64,0.80244
2160770,-0.14500,74.2500,108,64,0.78632
2160780,-0.14500,73.8750,108,64,0.77631
2160790,-0.15000,73.5625,108,64,0.76532
2160800,-0.15000,73.5625,108,64,0.76532
2160810,-0.15500,72.6250,108,64,0.72674
2160820,-0.14500,72.3125,108,64,0.71380
2160830,-0.11500,72.0625,108,64,0.70110
2160840,-0.08000,71.6250,108,64,0.67473
2160850,-0.07500,71.3750,108,64,0.66178
2160860,-0.07500,71.1875,108,64,0.64957
2160870,-0.05500,70.9375,108,64,0.63785
2160880,-0.03000,70.7500,108,64,0.62686
2160890,-0.03000,70.2500,108,64,0.60684
2160900,-0.07000,70.0625,108,64,0.59780
2160910,-0.09500,69.8125,108,64,0.58926
2160920,-0.11000,69.6250,108,64,0.58095
2160930,-0.13500,69.3125,108,64,0.56728
2160940,-0.15000,69.1250,108,64,0.56068
2160950,-0.15500,69.0000,108,64,0.55433
2160960,-0.15500,68.6875,108,64,0.50647
2160970,-0.15500,68.5625,108,64,0.49011
2160980,-0.15000,68.5000,108,64,0.47888
2160990,-0.14500,68.4375,108,64,0.46984
2161000,-0.12500,68.2500,109,64,0.45446
2161010,-0.00500,68.1875,109,64,0.44664
2161020,0.55500,68.0625,109,64,0.43956
2161030,1.02500,67.9375,109,64,0.43272
2161040,0.96500,67.8125,109,64,0.42491
2161050,0.24500,67.5625,109,64,0.40830
2161060,-0.23000,67.3750,109,64,0.40000
2161070,-0.20500,67.2500,109,64,0.39194
2161080,-0.18000,66.8750,109,64,0.38413
2161090,-0.17000,66.6875,109,64,0.36947
2161100,-0.18500,66.5000,109,64,0.36288
2161110,-0.24000,66.2500,109,64,0.35653
2161120,-0.32500,65.6875,109,64,0.34579
2161130,-0.34500,65.4375,109,64,0.34164
2161140,-0.32500,65.2500,109,64,0.33724
2161150,-0.27000,65.0000,109,64,0.33260
2161160,-0.22000,64.8125,109,64,0.32772
2161170,-0.14500,64.5000,109,64,0.31819
2161180,-0.08500,64.4375,109,64,0.31355
2161190,-0.04500,64.3750,109,64,0.30916
2161200,-0.02500,64.3125,109,64,0.30501
2161210,-0.01500,64.1250,109,64,0.29719
2161220,-0.01000,64.1250,109,64,0.29475
2161230,-0.00500,64.1875,109,64,0.29280
2161240,0.00000,64.5000,109,64,0.29060
2161250,0.01000,66.9375,109,64,0.28571
2161260,0.02000,69.6250,109,64,0.28352
2161270,0.03000,73.3750,109,64,0.28132
2161280,0.05000,82.8125,109,64,0.27692
2161290,0.06000,87.5625,109,64,0.27497
2161300,0.07500,91.9375,109,64,0.27302
2161310,0.09500,95.8125,109,64,0.27106
2161320,0.11500,99.1875,109,64,0.26935
2161330,0.13500,104.5000,109,64,0.26838
2161340,0.15000,106.4375,109,64,0.26764
2161350,0.17500,107.9375,109,64,0.26667
2161360,0.20000,109.3125,109,64,0.26447
2161370,0.22500,109.4375,109,64,0.26325
2161380,0.23500,109.3125,109,64,0.26203
2161390,0.22500,109.0625,109,64,0.26105
2161400,0.19500,108.7500,109,64,0.26007
2161410,0.12000,108.0000,109,64,0.25885
2161420,0.05500,107.5625,109,64,0.25910
2161430,-0.02500,107.0000,109,64,0.25958
2161440,-0.10000,105.7500,109,64,0.26007
2161450,-0.14000,104.9375,109,64,0.26032
2161460,-0.18500,104.0625,109,64,0.26056
2161470,-0.20000,103.0000,109,64,0.26081
2161480,-0.22000,101.8125,109,64,0.26129
2161490,-0.22000,98.9375,109,64,0.26227
2161500,-0.22000,97.3125,109,64,0.26325
2161510,-0.22000,95.5000,109,64,0.26520
2161520,-0.21000,91.5000,109,64,0.26886
2161530,-0.21000,89.3750,109,64,0.28107
2161540,-0.20000,87.3125,109,64,0.29158
2161550,-0.20000,85.4375,109,64,0.30549
2161560,-0.20500,83.0625,109,64,0.34481
2161570,-0.20500,82.7500,109,64,0.36972
2161580,-0.21500,82.7500,109,64,0.39731
2161590,-0.25000,82.8750,109,64,0.42711
2161600,-0.26500,83.0625,109,64,0.45836
2161610,-0.28000,83.3125,109,64,0.52234
2161620,-0.28000,83.4375,109,64,0.54921
2161630,-0.25000,83.5625,109,64,0.57265
2161640,-0.19500,83.7500,109,64,0.59805
2161650,-0.15500,84.0000,109,64,0.64689
2161660,-0.10500,84.0625,109,64,0.66862
2161670,-0.06500,84.0000,109,64,0.68816
2161680,-0.03000,83.8750,109,64,0.70525
2161690,-0.01000,83.3125,109,64,0.73284
2161700,-0.01000,82.8750,109,64,0.74310
2161710,-0.01500,82.5000,109,64,0.75140
2161720,-0.01500,82.0625,109,64,0.75580
2161730,-0.01500,81.0625,109,64,0.75922
2161740,-0.01500,80.5000,109,64,0.75946
2161750,-0.01500,79.9375,109,64,0.75824
2161760,-0.02500,79.3750,109,64,0.75531
2161770,-0.03000,78.3125,109,64,0.74335
2161780,-0.04000,77.8125,109,64,0.73504
2161790,-0.04500,77.4375,109,64,0.72479
2161800,-0.04500,77.0000,109,64,0.71306
2161810,-0.04000,76.1250,109,64,0.68571
2161820,-0.04000,75.6875,109,64,0.67179
2161830,-0.04500,75.3125,109,64,0.65812
2161840,-0.04000,74.6250,109,64,0.62857
2161850,-0.02500,74.3125,109,64,0.61368
2161860,0.00000,74.0625,109,64,0.59902
2161870,0.01500,73.8750,109,64,0.58486
2161880,0.01500,73.6250,109,64,0.57167
2161890,0.01500,73.1875,109,64,0.54896
2161900,0.03000,73.0000,109,64,0.53968
2161910,0.04000,72.7500,109,64,0.53162
2161920,0.03000,72.5000,109,64,0.52479
2161930,-0.01500,72.0000,109,64,0.51331
2161940,-0.04500,71.7500,109,64,0.50794
2161950,-0.08500,71.5625,109,64,0.50256
2161960,-0.10000,71.3750,109,64,0.49744
2161970,-0.11500,70.9375,109,64,0.48767
2161980,-0.12500,70.7500,109,64,0.48278
2161990,-0.13000,70.5625,109,64,0.47790
2162000,-0.13500,70.3750,108,64,0.47277
2162010,-0.12500,70.0625,108,64,0.46203
2162020,-0.12500,69.9375,108,64,0.45690
2162030,-0.10500,69.7500,108,64,0.45177
2162040,0.15000,69.5000,108,64,0.44591
2162050,0.75500,69.4375,108,64,0.43321
2162060,1.26000,69.3125,108,64,0.42686
2162070,0.72000,69.2500,108,64,0.42051
2162080,0.11000,69.1250,108,64,0.41441
2162090,-0.16000,68.8750,108,64,0.40293
2162100,-0.14000,68.6875,108,64,0.39731
2162110,-0.14000,68.5625,108,64,0.39194
2162120,-0.15000,68.5000,108,64,0.38755
2162130,-0.14500,68.1875,108,64,0.37924
2162140,-0.14000,68.0000,108,64,0.37460
2162150,-0.13000,67.7500,108,64,0.36972
2162160,-0.12500,67.1875,108,64,0.36044
2162170,-0.11500,66.8750,108,64,0.35604
2162180,-0.10500,66.6250,108,64,0.35165
2162190,-0.09500,66.3750,108,64,0.34750
2162200,-0.09000,65.7500,108,64,0.33968
2162210,-0.08500,65.4375,108,64,0.33602
2162220,-0.07500,65.1250,108,64,0.33333
2162230,-0.06500,64.9375,108,64,0.33114
2162240,-0.05500,64.8125,108,64,0.32845
2162250,-0.05000,64.7500,108,64,0.32576
2162260,-0.04000,64.8750,108,64,0.32308
2162270,-0.02500,65.3125,108,64,0.32039
2162280,-0.01000,68.3750,108,64,0.31551
2162290,-0.01500,71.6875,108,64,0.31306
2162300,-0.03500,76.0625,108,64,0.31038
2162310,-0.04500,81.2500,108,64,0.30769
2162320,-0.03500,91.7500,108,64,0.30525
2162330,-0.01000,96.2500,108,64,0.30232
2162340,0.01000,100.1875,108,64,0.30085
2162350,0.05000,103.5625,108,64,0.29915
2162360,0.08500,106.4375,108,64,0.29744
2162370,0.13500,110.6250,108,64,0.29499
2162380,0.20000,112.0000,108,64,0.29451
2162390,0.25000,112.8750,108,64,0.29426
2162400,0.31000,113.3125,108,64,0.29451
2162410,0.35500,113.5625,108,64,0.29524
2162420,0.37000,113.5000,108,64,0.29573
2162430,0.37500,113.3750,108,64,0.29646
2162440,0.34500,112.9375,108,64,0.29841
2162450,0.30000,112.6250,108,64,0.29915
2162460,0.23500,112.1875,108,64,0.29988
2162470,0.14500,111.6250,108,64,0.30037
2162480,0.09500,111.0000,108,64,0.30110
2162490,0.03500,109.3125,108,64,0.30183
2162500,-0.02000,108.3125,108,64,0.30232
2162510,-0.05000,107.1875,108,64,0.30256
2162520,-0.07000,106.0000,108,64,0.30305
2162530,-0.08500,103.1250,108,64,0.30501
2162540,-0.09000,101.5000,108,64,0.30647
2162550,-0.09500,99.6875,108,64,0.30916
2162560,-0.10000,95.7500,108,64,0.32063
2162570,-0.10500,93.8125,108,64,0.33089
2162580,-0.10500,92.0000,108,64,0.34481
2162590,-0.10500,90.5625,108,64,0.36264
2162600,-0.10000,89.5625,108,64,0.38437
2162610,-0.09500,88.6875,108,64,0.43761
2162620,-0.09000,88.5625,108,64,0.46764
2162630,-0.09500,88.5000,108,64,0.49451
2162640,-0.10500,88.5000,108,64,0.51941
2162650,-0.10500,88.5625,108,64,0.57631
2162660,-0.10500,88.6250,108,64,0.60464
2162670,-0.10500,88.6875,108,64,0.63126
2162680,-0.10000,88.3750,108,64,0.67814
2162690,-0.09000,88.1250,108,64,0.69817
2162700,-0.07500,87.7500,108,64,0.71551
2162710,-0.06500,87.3125,108,64,0.73040
2162720,-0.06500,86.8750,108,64,0.74286
2162730,-0.05500,85.8750,108,64,0.75629
2162740,-0.05500,85.3750,108,64,0.76166
2162750,-0.06000,84.8750,108,64,0.76630
2162760,-0.06500,84.3125,108,64,0.76948
2162770,-0.07500,83.2500,108,64,0.77143
2162780,-0.07500,82.7500,108,64,0.77021
2162790,-0.07500,82.2500,108,64,0.76777
2162800,-0.07500,82.2500,108,64,0.76777
2162810,-0.04500,80.8125,108,64,0.75116
2162820,-0.04500,80.8125,108,64,0.75116
2162830,-0.00500,80.0000,108,64,0.73309
2162840,0.01000,79.2500,108,64,0.71062
2162850,0.02000,78.8750,108,64,0.69792
2162860,0.03000,78.5000,108,64,0.68425
2162870,0.02500,78.1875,108,64,0.67033
2162880,0.02000,77.8750,108,64,0.65617
2162890,0.02000,77.3125,108,64,0.62857
2162900,0.03500,77.0625,108,64,0.61563
2162910,0.05000,76.8125,108,64,0.60366
2162920,0.05000,76.5625,108,64,0.59267
2162930,0.04500,75.9375,108,64,0.57436
2162940,0.05000,75.6250,108,64,0.56606
2162950,0.06000,75.3125,108,64,0.55800
2162960,0.05500,74.6250,108,64,0.54359
2162970,0.03500,74.3750,108,64,0.53700
2162980,0.01000,74.1250,108,64,0.53040
2162990,-0.02500,73.9375,108,64,0.52430
2163000,-0.06500,73.5625,108,64,0.51258
2163010,-0.09500,73.3125,108,64,0.50281
2163020,-0.10000,73.1250,108,64,0.49133
2163030,-0.11500,72.9375,108,64,0.48303
2163040,-0.14000,72.6875,108,64,0.47033
2163050,-0.15000,72.6250,108,64,0.46398
2163060,-0.16000,72.5625,108,64,0.45788
2163070,-0.16500,72.5625,108,64,0.45177
2163080,0.02000,72.4375,108,64,0.43907
2163090,0.44000,72.3750,108,64,0.43272
2163100,1.14500,72.2500,108,64,0.42637
2163110,1.06500,72.1250,108,64,0.42002
2163120,0.40500,72.0000,108,64,0.41392
2163130,-0.11500,71.6250,108,64,0.40366
2163140,-0.16000,71.3750,108,64,0.39829
2163150,-0.16500,71.1250,108,64,0.39267
2163160,-0.18000,70.8125,108,64,0.38730
2163170,-0.18500,70.1250,108,64,0.37705
2163180,-0.18000,69.8125,108,64,0.37241
2163190,-0.17000,69.4375,108,64,0.36801
2163200,-0.16000,68.7500,108,64,0.36386
2163210,-0.15500,68.4375,108,64,0.35556
2163220,-0.14500,68.0625,108,64,0.35140
2163230,-0.13500,67.7500,108,64,0.34799
2163240,-0.11500,67.1250,108,64,0.34090
2163250,-0.10500,66.7500,108,64,0.33651
2163260,-0.09500,66.4375,108,64,0.33211
2163270,-0.08500,66.1250,108,64,0.32772
2163280,-0.06500,65.5625,108,64,0.31917
2163290,-0.05500,65.4375,108,64,0.31551
2163300,-0.04500,65.4375,108,64,0.31209
2163310,-0.03000,65.6875,108,64,0.30916
2163320,-0.01500,66.4375,108,64,0.30696
2163330,-0.00500,71.0625,108,64,0.30501
2163340,0.01000,75.1875,108,64,0.30427
2163350,0.03000,80.1875,108,64,0.30379
2163360,0.04500,85.6250,108,64,0.30330
2163370,0.06000,95.5625,108,64,0.30232
2163380,0.08000,99.6250,108,64,0.30183
2163390,0.11000,103.0625,108,64,0.30134
2163400,0.13000,106.0000,108,64,0.30085
2163410,0.15500,110.4375,108,64,0.30012
2163420,0.18500,111.8750,108,64,0.29988
2163430,0.20500,112.7500,108,64,0.30012
2163440,0.23000,113.1875,108,64,0.30061
2163450,0.25000,113.3750,108,64,0.30110
2163460,0.25500,113.3125,108,64,0.30134
2163470,0.24000,113.1250,108,64,0.30159
2163480,0.21000,112.9375,108,64,0.30208
2163490,0.15500,112.3750,108,64,0.30256
2163500,0.07000,112.0000,108,64,0.30232
2163510,0.01000,111.5625,108,64,0.30183
2163520,-0.05500,110.3750,108,64,0.30061
2163530,-0.09000,109.5625,108,64,0.30037
2163540,-0.12000,108.6875,108,64,0.29915
2163550,-0.14000,107.6250,108,64,0.29744
2163560,-0.15500,106.4375,108,64,0.29548
2163570,-0.17000,103.5625,108,64,0.29206
2163580,-0.18500,101.8750,108,64,0.29109
2163590,-0.22000,100.0000,108,64,0.29158
2163600,-0.25000,95.8125,108,64,0.29866
2163610,-0.24000,93.6250,108,64,0.30672
2163620,-0.21000,91.5000,108,64,0.31648
2163630,-0.14500,89.6875,108,64,0.32869
2163640,-0.05500,88.3125,108,64,0.34530
2163650,0.12500,86.9375,108,64,0.38999
2163660,0.34000,86.7500,108,64,0.41636
2163670,0.72000,86.6250,108,64,0.44420
2163680,1.18500,86.4375,108,64,0.50061
2163690,1.42000,86.4375,108,64,0.52796
2163700,1.60000,86.5000,108,64,0.55360
2163710,1.72000,86.5625,108,64,0.57729
2163720,1.89500,86.4375,108,64,0.61538
2163730,2.01500,86.1875,108,64,0.62882
2163740,2.11000,85.8750,108,64,0.64249
2163750,2.13000,85.4375,108,64,0.65519
2163760,1.74000,84.9375,108,64,0.66618
2163770,0.54500,84.0000,108,64,0.68327
2163780,-0.19000,83.5625,108,64,0.68864
2163790,-0.67500,83.0625,108,64,0.69255
2163800,-0.67500,83.0625,108,64,0.69255
2163810,-0.89000,81.6875,108,64,0.69426
2163820,-0.91500,81.2500,108,64,0.69133
2163830,-0.91500,80.8125,108,64,0.68694
2163840,-0.91500,80.0000,108,64,0.67521
2163850,-0.90500,79.5625,108,64,0.66764
2163860,-0.89000,79.1250,108,64,0.65861
2163870,-0.88000,78.7500,108,64,0.64811
2163880,-0.87500,78.3750,108,64,0.63614
2163890,-0.86500,77.5625,108,64,0.60904
2163900,-0.83000,77.1250,108,64,0.59414
2163910,-0.81000,76.7500,108,64,0.57875
2163920,-0.82000,76.5000,108,64,0.56337
2163930,-0.88000,76.0000,108,64,0.53675
2163940,-0.92500,75.7500,108,64,0.52357
2163950,-0.94500,75.3750,108,64,0.51062
2163960,-0.93500,74.5625,108,64,0.48645
2163970,-0.92500,74.1875,108,64,0.47570
2163980,-0.91500,73.8750,108,64,0.46545
2163990,-0.89500,73.5625,108,64,0.45617
2164000,-0.89000,73.3125,108,64,0.44762
2164010,-0.87500,72.6875,108,64,0.43297
2164020,-0.84000,72.3125,108,64,0.42711
2164030,-0.81000,72.0000,108,64,0.42198
2164040,-0.75000,71.7500,108,64,0.41685
2164050,-0.67500,71.5000,108,64,0.40586
2164060,-0.57000,71.5000,108,64,0.40000
2164070,-0.48500,71.6875,108,64,0.39390
2164080,-0.37500,72.5625,108,64,0.38779
2164090,-0.25000,73.1875,108,64,0.37558
2164100,-0.17000,73.8750,108,64,0.36972
2164110,-0.08000,74.5625,108,64,0.36386
2164120,0.00000,75.5625,108,64,0.35311
2164130,0.02500,75.8125,108,64,0.34872
2164140,0.04000,75.8750,108,64,0.34383
2164150,0.03000,75.7500,108,64,0.33822
2164160,0.02000,74.6250,108,64,0.32650
2164170,0.01000,73.8125,108,64,0.32063
2164180,0.00000,72.8125,108,64,0.31477
2164190,-0.01500,71.6875,108,64,0.30916
2164200,-0.02000,69.5000,108,64,0.29866
2164210,-0.02500,68.5625,108,64,0.29377
2164220,-0.02500,67.8125,108,64,0.29011
2164230,-0.03000,67.2500,108,64,0.28694
2164240,-0.03000,66.8125,108,64,0.28303
2164250,-0.03500,66.1250,108,64,0.27448
2164260,-0.03500,65.9375,108,64,0.27033
2164270,-0.03500,65.7500,108,64,0.26618
2164280,-0.03500,65.5625,108,64,0.26227
2164290,-0.04000,65.3750,108,64,0.25519
2164300,-0.04500,65.3125,108,64,0.25177
2164310,-0.05500,65.3125,108,64,0.24884
2164320,-0.06000,65.3125,108,64,0.24615
2164330,-0.07000,65.1875,108,64,0.24420
2164340,-0.07500,65.0625,108,64,0.24347
2164350,-0.08000,64.9375,108,64,0.24298
2164360,-0.08000,64.6250,108,64,0.24371
2164370,-0.08000,64.4375,108,64,0.24542
2164380,-0.08000,64.3125,108,64,0.24786
2164390,-0.07500,64.1250,108,64,0.25104
2164400,-0.06500,64.0000,108,64,0.25495
2164410,-0.05500,63.6875,108,64,0.26398
2164420,-0.05000,63.5625,108,64,0.26862
2164430,-0.05500,63.4375,108,64,0.27326
2164440,-0.05500,63.2500,108,64,0.27741
2164450,-0.06500,63.1250,108,64,0.28400
2164460,-0.07500,63.0625,108,64,0.28596
2164470,-0.09000,62.9375,108,64,0.28718
2164480,-0.08500,62.8125,108,64,0.28742
2164490,-0.08000,62.5625,108,64,0.28596
2164500,-0.08000,62.4375,108,64,0.28425
2164510,-0.07000,62.3125,108,64,0.28181
2164520,-0.05500,62.0625,108,64,0.27717
2164530,-0.04500,61.9375,108,64,0.27570
2164540,-0.03500,61.6875,108,64,0.27350
2164550,-0.02500,61.5000,108,64,0.27106
2164560,0.02000,61.1875,108,64,0.26667
2164570,0.06000,61.0000,108,64,0.26496
2164580,0.09000,60.8125,108,64,0.26349
2164590,0.11000,60.6875,108,64,0.26252
2164600,0.12500,60.5625,108,64,0.26178
2164610,0.14500,60.3125,108,64,0.26154
2164620,0.16500,60.1875,108,64,0.26203
2164630,0.16500,60.0625,108,64,0.26276
2164640,0.15500,59.9375,108,64,0.26300
2164650,0.14000,59.6875,108,64,0.26276
2164660,0.13000,59.5625,108,64,0.26227
2164670,0.13000,59.4375,108,64,0.26154
2164680,0.13000,59.1250,108,64,0.25958
2164690,0.12000,59.0000,108,64,0.25836
2164700,0.11000,58.8125,108,64,0.25714
2164710,0.10500,58.6875,108,64,0.25617
2164720,0.10000,58.3750,108,64,0.25470
2164730,0.09500,58.2500,108,64,0.25495
2164740,0.09000,58.1250,108,64,0.25446
