RelativeTimeMilliseconds;ECG;ART;ART (Sys);ART (Dia);PPG
1953490;-0.10500;81.1250;114;67;0.62589
1953500;-0.10000;80.6875;114;67;0.62637
1953510;-0.09500;80.2500;114;67;0.62686
1953520;-0.09500;79.4375;114;67;0.62662
1953530;-0.09000;79.0625;114;67;0.62442
1953540;-0.09000;78.6875;114;67;0.62198
1953550;-0.09000;78.3125;114;67;0.61856
1953560;-0.09000;77.5625;114;67;0.60952
1953570;-0.08500;77.2500;114;67;0.60391
1953580;-0.07500;76.8750;114;67;0.59780
1953590;-0.04000;76.5625;114;67;0.59145
1953600;-0.01500;76.1875;114;67;0.58559
1953610;-0.00500;75.5625;114;67;0.57411
1953620;-0.00500;75.3125;114;67;0.56825
1953630;0.01000;75.0000;114;67;0.56288
1953640;0.03000;74.7500;114;67;0.55775
1953650;0.03000;74.2500;114;67;0.54872
1953660;0.00000;74.0000;114;67;0.54481
1953670;-0.03500;73.7500;114;67;0.54115
1953680;-0.05000;73.5000;114;67;0.53773
1953690;-0.07000;73.0000;114;67;0.53138
1953700;-0.09500;72.8125;114;67;0.52845
1953710;-0.11000;72.5625;114;67;0.52552
1953720;-0.11000;72.3125;114;67;0.52234
1953730;-0.10500;71.8750;114;67;0.51600
1953740;-0.10500;71.6250;114;67;0.51282
1953750;-0.10000;71.5000;114;67;0.50989
1953760;-0.08000;71.1250;114;67;0.50330
1953770;0.02500;70.9375;114;67;0.50012
1953780;0.45500;70.7500;114;67;0.49695
1953790;1.09500;70.6250;114;67;0.49377
1953800;0.76000;70.3125;114;67;0.48840
1953810;0.29000;70.1250;114;67;0.48547
1953820;-0.16500;69.9375;114;67;0.48254
1953830;-0.17000;69.7500;114;67;0.47937
1953840;-0.15500;69.5625;114;67;0.47643
1953850;-0.15000;69.1250;114;67;0.47057
1953860;-0.15000;68.8750;114;67;0.46764
1953870;-0.14500;68.6250;114;67;0.46471
1953880;-0.14500;68.4375;114;67;0.46178
1953890;-0.13000;68.0625;114;67;0.45665
1953900;-0.12500;67.8125;114;67;0.45470
1953910;-0.11500;67.6250;114;67;0.45250
1953920;-0.10500;67.4375;114;67;0.45031
1953930;-0.10000;67.0000;114;67;0.44615
1953940;-0.09500;66.7500;114;67;0.44371
1953950;-0.08500;66.5625;114;67;0.44127
1953960;-0.07500;66.3125;114;67;0.43883
1953970;-0.06000;66.0000;114;67;0.43443
1953980;-0.04500;65.9375;114;67;0.43248
1953990;-0.03000;65.8750;114;67;0.43053
1954000;-0.02000;65.8125;114;67;0.42906
1954010;-0.00500;66.4375;114;67;0.42613
1954020;-0.00500;67.8125;114;67;0.42442
1954030;0.01000;70.5000;114;67;0.42295
1954040;0.03000;79.5625;114;67;0.42002
1954050;0.05000;85.1875;114;67;0.41880
1954060;0.07000;90.6875;114;67;0.41758
1954070;0.10000;95.6250;114;67;0.41636
1954080;0.12500;103.2500;114;67;0.41392
1954090;0.14500;106.1875;114;67;0.41319
1954100;0.18500;108.6250;114;67;0.41270
1954110;0.21500;110.5625;114;67;0.41197
1954120;0.24500;111.9375;114;67;0.41123
1954130;0.27500;113.1875;114;67;0.32088
1954140;0.29000;113.2500;114;67;0.29304
1954150;0.30000;113.1875;114;67;0.27839
1954160;0.27500;112.8125;114;67;0.26545
1954170;0.23500;112.6250;114;67;0.26203
1954180;0.16000;112.3125;114;67;0.25934
1954190;0.08000;111.9375;114;67;0.25812
1954200;0.00000;111.0000;114;67;0.25617
1954210;-0.04000;110.3750;114;67;0.25495
1954220;-0.08500;109.6250;114;67;0.25421
1954230;-0.10500;108.7500;114;67;0.25372
1954240;-0.12500;106.5000;114;67;0.25348
1954250;-0.13500;105.1250;114;67;0.25348
1954260;-0.13500;103.5625;114;67;0.25348
1954270;-0.14000;101.7500;114;67;0.25348
1954280;-0.14000;99.7500;114;67;0.25372
1954290;-0.14000;95.0000;114;67;0.25812
1954300;-0.14000;92.5000;114;67;0.26325
1954310;-0.14000;90.1250;114;67;0.27057
1954320;-0.13500;87.0625;114;67;0.29670
1954330;-0.13500;86.6875;114;67;0.31624
1954340;-0.13500;86.8750;114;67;0.33968
1954350;-0.13500;87.2500;114;67;0.36679
1954360;-0.13000;87.8750;114;67;0.42906
1954370;-0.12500;88.0000;114;67;0.46252
1954380;-0.12500;88.1250;114;67;0.49621
1954390;-0.12500;88.1875;114;67;0.52479
1954400;-0.12000;88.3125;114;67;0.54994
1954410;-0.12000;88.0625;114;67;0.60391
1954420;-0.11500;87.7500;114;67;0.62955
1954430;-0.11500;87.3125;114;67;0.65324
1954440;-0.11000;86.8125;114;67;0.67448
1954450;-0.11000;85.7500;114;67;0.70940
1954460;-0.10500;85.1875;114;67;0.72332
1954470;-0.10500;84.7500;114;67;0.73529
1954480;-0.10000;83.8125;114;67;0.75385
1954490;-0.10000;83.3125;114;67;0.75897
1954500;-0.10000;82.8750;114;67;0.76166
1954510;-0.10000;82.4375;114;67;0.76410
1954520;-0.09500;82.0000;114;67;0.76532
1954530;-0.09500;81.1875;114;67;0.76337
1954540;-0.09500;80.8125;114;67;0.75971
1954550;-0.09000;80.5000;114;67;0.75409
1954560;-0.08500;79.7500;114;67;0.73724
1954570;-0.08000;79.3750;114;67;0.72601
1954580;-0.07500;79.0625;114;67;0.71306
1954590;-0.06500;78.6875;114;67;0.69988
1954600;-0.04500;78.3750;114;67;0.68694
1954610;-0.01500;77.7500;114;67;0.65885
1954620;0.00000;77.4375;114;67;0.64493
1954630;0.00500;77.1250;114;67;0.63175
1954640;0.01500;76.8750;114;67;0.61954
1954650;0.03500;76.3750;114;67;0.59805
1954660;0.04500;76.1250;114;67;0.58901
1954670;0.03000;75.8750;114;67;0.58071
1954680;0.00000;75.6250;114;67;0.57289
1954690;-0.02500;75.1875;114;67;0.55873
1954700;-0.05500;74.9375;114;67;0.55189
1954710;-0.08000;74.7500;114;67;0.54505
1954720;-0.09500;74.3125;114;67;0.53187
1954730;-0.10000;74.0625;114;67;0.52552
1954740;-0.09500;73.8750;114;67;0.51917
1954750;-0.08500;73.6250;114;67;0.51258
1954760;-0.08000;73.4375;114;67;0.50574
1954770;-0.08000;73.0625;114;67;0.49206
1954780;-0.02000;72.8750;114;67;0.48474
1954790;0.33000;72.6875;114;67;0.47839
1954800;0.33000;72.6875;114;67;0.47839
1954810;1.28000;72.1875;114;67;0.45934
1954820;0.78500;72.0000;114;67;0.45275
1954830;0.02000;71.8750;114;67;0.44591
1954840;-0.16500;71.5625;114;67;0.43248
1954850;-0.14500;71.3750;114;67;0.42613
1954860;-0.15000;71.1875;114;67;0.41978
1954870;-0.15500;71.0000;114;67;0.41368
1954880;-0.15500;70.8125;114;67;0.40757
1954890;-0.15000;70.3750;114;67;0.39634
1954900;-0.14500;70.1250;114;67;0.39219
1954910;-0.14000;69.8750;114;67;0.38755
1954920;-0.13500;69.6875;114;67;0.38266
1954930;-0.12500;69.2500;114;67;0.37265
1954940;-0.11500;69.0000;114;67;0.36752
1954950;-0.11500;68.8125;114;67;0.36239
1954960;-0.10500;68.5625;114;67;0.35775
1954970;-0.09500;68.1250;114;67;0.34945
1954980;-0.08500;67.9375;114;67;0.34554
1954990;-0.06500;67.7500;114;67;0.34237
1955000;-0.05000;67.6875;114;67;0.33968
1955010;-0.03500;67.8125;114;67;0.33284
1955020;-0.02500;68.3750;114;67;0.32967
1955030;-0.00500;69.7500;114;67;0.32601
1955040;0.00000;72.3750;114;67;0.32259
1955050;0.02000;81.6875;114;67;0.31624
1955060;0.04000;87.5625;114;67;0.31380
1955070;0.06000;93.3125;114;67;0.31160
1955080;0.08000;98.4375;114;67;0.30965
1955090;0.10500;106.3750;114;67;0.30647
1955100;0.13500;109.4375;114;67;0.30574
1955110;0.16500;111.9375;114;67;0.30452
1955120;0.19500;115.5625;114;67;0.30281
1955130;0.23500;116.6250;114;67;0.29939
1955140;0.26000;117.1250;114;67;0.29744
1955150;0.28500;117.3750;114;67;0.29573
1955160;0.29500;117.4375;114;67;0.29426
1955170;0.29000;117.3125;114;67;0.29304
1955180;0.25000;117.1875;114;67;0.29280
1955190;0.20000;117.0625;114;67;0.29280
1955200;0.12500;116.9375;114;67;0.29280
1955210;0.05000;116.3750;114;67;0.29231
1955220;-0.02000;115.9375;114;67;0.29182
1955230;-0.06000;115.4375;114;67;0.29133
1955240;-0.09500;114.8125;114;67;0.29084
1955250;-0.12500;113.0000;114;67;0.28938
1955260;-0.14000;111.8125;114;67;0.28864
1955270;-0.14500;110.3750;114;67;0.28816
1955280;-0.15000;106.9375;114;67;0.28816
1955290;-0.14500;104.8125;114;67;0.28987
1955300;-0.14500;102.4375;114;67;0.29280
1955310;-0.14500;99.8750;114;67;0.29792
1955320;-0.14500;97.2500;114;67;0.30574
1955330;-0.14000;92.8125;114;67;0.33284
1955340;-0.14000;91.5625;114;67;0.35263
1955350;-0.14500;91.0625;114;67;0.37656
1955360;-0.14500;91.2500;114;67;0.43443
1955370;-0.14500;91.4375;114;67;0.46642
1955380;-0.14500;91.5625;114;67;0.49963
1955390;-0.13500;91.6250;114;67;0.52821
1955400;-0.13000;91.8125;114;67;0.58266
1955410;-0.12500;91.8750;114;67;0.61148
1955420;-0.12000;91.7500;114;67;0.63907
1955430;-0.12000;91.5000;114;67;0.66496
1955440;-0.11500;90.5625;114;67;0.70989
1955450;-0.11500;90.0000;114;67;0.72894
1955460;-0.11500;89.5000;114;67;0.74554
1955470;-0.11000;88.9375;114;67;0.75971
1955480;-0.10500;88.4375;114;67;0.77216
1955490;-0.10500;87.3750;114;67;0.78926
1955500;-0.10500;86.8750;114;67;0.79316
1955510;-0.10500;86.4375;114;67;0.79756
1955520;-0.10500;85.9375;114;67;0.80098
1955530;-0.10000;85.0000;114;67;0.80391
1955540;-0.09500;84.5625;114;67;0.80317
1955550;-0.09500;84.1250;114;67;0.80098
1955560;-0.09500;83.3125;114;67;0.79096
1955570;-0.09000;82.9375;114;67;0.78291
1955580;-0.09000;82.5625;114;67;0.77289
1955590;-0.08500;82.1250;114;67;0.76166
1955600;-0.07500;81.4375;114;67;0.73602
1955610;-0.05500;81.0625;114;67;0.72137
1955620;-0.02500;80.6875;114;67;0.70623
1955630;0.00000;80.3750;114;67;0.69109
1955640;0.01500;79.7500;114;67;0.66252
1955650;0.02000;79.4375;114;67;0.64957
1955660;0.03000;79.1875;114;67;0.63761
1955670;0.05000;78.9375;114;67;0.62637
1955680;0.03500;78.3750;114;67;0.60684
1955690;0.01000;78.0625;114;67;0.59853
1955700;-0.02000;77.8125;114;67;0.59072
1955710;-0.05500;77.5625;114;67;0.58315
1955720;-0.07500;77.3125;114;67;0.57558
1955730;-0.09500;76.8125;114;67;0.56020
1955740;-0.10000;76.6250;114;67;0.55263
1955750;-0.10500;76.4375;114;67;0.54554
1955760;-0.10500;76.0000;114;67;0.53114
1955770;-0.10500;75.8125;114;67;0.52381
1955780;-0.10500;75.6250;114;67;0.51648
1955790;-0.06500;75.3750;114;67;0.50989
1955800;-0.06500;75.3750;114;67;0.50989
1955810;0.75500;74.7500;114;67;0.48987
1955820;1.31500;74.5625;114;67;0.48278
1955830;0.99000;74.4375;114;67;0.47546
1955840;0.16500;74.3125;114;67;0.46838
1955850;-0.16000;73.9375;114;67;0.45446
1955860;-0.15000;73.7500;114;67;0.44786
1955870;-0.15500;73.5625;114;67;0.44103
1955880;-0.16000;73.3750;114;67;0.43443
1955890;-0.16500;72.9375;114;67;0.42222
1955900;-0.16000;72.6875;114;67;0.41734
1955910;-0.15500;72.4375;114;67;0.41221
1955920;-0.15000;72.1250;114;67;0.40659
1955930;-0.14500;71.6875;114;67;0.39512
1955940;-0.13500;71.5000;114;67;0.38926
1955950;-0.13500;71.2500;114;67;0.38364
1955960;-0.12500;70.8125;114;67;0.37851
1955970;-0.11500;70.5000;114;67;0.36923
1955980;-0.10000;70.2500;114;67;0.36459
1955990;-0.08500;70.0625;114;67;0.36093
1956000;-0.07500;69.8750;113;67;0.35751
1956010;-0.06500;69.6875;113;67;0.34945
1956020;-0.05000;69.7500;113;67;0.34505
1956030;-0.03500;70.0625;113;67;0.34066
1956040;-0.01500;73.1875;113;67;0.33236
1956050;-0.00500;76.6875;113;67;0.32869
1956060;0.01000;81.6250;113;67;0.32552
1956070;0.03000;87.4375;113;67;0.32283
1956080;0.04000;93.4375;113;67;0.32015
1956090;0.06000;103.6250;113;67;0.31697
1956100;0.08500;107.5000;113;67;0.31526
1956110;0.12000;110.6875;113;67;0.31331
1956120;0.14000;113.3125;113;67;0.31160
1956130;0.16500;117.0000;113;67;0.30891
1956140;0.21000;118.0625;113;67;0.30769
1956150;0.23500;118.5625;113;67;0.30647
1956160;0.26500;118.6875;113;67;0.30549
1956170;0.27500;118.5625;113;67;0.30183
1956180;0.26500;118.5000;113;67;0.29817
1956190;0.24000;118.3125;113;67;0.29670
1956200;0.18000;118.1875;113;67;0.29621
1956210;0.09500;117.7500;113;67;0.29524
1956220;0.04000;117.4375;113;67;0.29475
1956230;-0.02000;117.0000;113;67;0.29426
1956240;-0.08000;115.8750;113;67;0.29353
1956250;-0.11500;115.0625;113;67;0.29353
1956260;-0.13500;114.1875;113;67;0.29328
1956270;-0.16000;113.0625;113;67;0.29280
1956280;-0.19500;110.1250;113;67;0.29231
1956290;-0.22000;108.3125;113;67;0.29280
1956300;-0.23500;106.3125;113;67;0.29377
1956310;-0.25000;104.0625;113;67;0.29597
1956320;-0.26000;101.6250;113;67;0.30012
1956330;-0.26000;96.8125;113;67;0.31575
1956340;-0.26500;94.8125;113;67;0.32845
1956350;-0.27000;93.3750;113;67;0.34457
1956360;-0.27000;92.1875;113;67;0.36435
1956370;-0.27500;92.0625;113;67;0.41270
1956380;-0.27500;92.0000;113;67;0.44005
1956390;-0.27500;91.9375;113;67;0.46447
1956400;-0.27000;91.8750;113;67;0.51306
1956410;-0.26500;91.8750;113;67;0.53944
1956420;-0.26000;91.8750;113;67;0.56484
1956430;-0.25500;91.7500;113;67;0.58877
1956440;-0.25000;91.0625;113;67;0.63101
1956450;-0.24500;90.5625;113;67;0.64908
1956460;-0.24500;90.0000;113;67;0.66520
1956470;-0.24500;89.4375;113;67;0.67912
1956480;-0.24500;88.8750;113;67;0.69109
1956490;-0.24000;87.6875;113;67;0.70501
1956500;-0.24000;87.1250;113;67;0.71087
1956510;-0.23000;86.5625;113;67;0.71600
1956520;-0.23000;85.5000;113;67;0.71990
1956530;-0.23000;85.0000;113;67;0.72454
1956540;-0.22500;84.5000;113;67;0.72479
1956550;-0.21500;83.9375;113;67;0.72357
1956560;-0.21000;83.4375;113;67;0.72063
1956570;-0.20500;82.5000;113;67;0.71062
1956580;-0.20000;82.0625;113;67;0.70281
1956590;-0.20000;81.6250;113;67;0.69377
1956600;-0.20000;81.2500;113;67;0.68352
1956610;-0.19500;80.4375;113;67;0.65983
1956620;-0.18000;80.0625;113;67;0.64640
1956630;-0.14500;79.6875;113;67;0.63223
1956640;-0.11500;79.0000;113;67;0.60440
1956650;-0.10500;78.6875;113;67;0.59121
1956660;-0.10500;78.3750;113;67;0.57851
1956670;-0.08000;78.0625;113;67;0.56654
1956680;-0.06000;77.6875;113;67;0.55531
1956690;-0.06000;77.1250;113;67;0.53675
1956700;-0.08500;76.8125;113;67;0.52796
1956710;-0.12500;76.5625;113;67;0.51917
1956720;-0.14500;76.2500;113;67;0.51062
1956730;-0.17000;75.6875;113;67;0.49377
1956740;-0.18500;75.4375;113;67;0.48547
1956750;-0.19000;75.1875;113;67;0.47717
1956760;-0.19000;74.9375;113;67;0.46911
1956770;-0.18500;74.5000;113;67;0.45348
1956780;-0.18000;74.2500;113;67;0.44591
1956790;-0.18000;74.0000;113;67;0.43932
1956800;-0.18000;74.0000;113;67;0.43932
1956810;-0.00500;73.3125;113;67;0.41929
1956820;-0.00500;73.3125;113;67;0.41929
1956830;1.04000;72.8750;113;67;0.40440
1956840;0.79000;72.5000;113;67;0.38950
1956850;0.15500;72.3125;113;67;0.38217
1956860;-0.24500;72.0625;113;67;0.37534
1956870;-0.23500;71.8750;113;67;0.36825
1956880;-0.21000;71.4375;113;67;0.35531
1956890;-0.21000;71.1875;113;67;0.35018
1956900;-0.21500;70.9375;113;67;0.34432
1956910;-0.21500;70.6250;113;67;0.33822
1956920;-0.21000;70.3750;113;67;0.33187
1956930;-0.19500;69.8125;113;67;0.32063
1956940;-0.18500;69.6250;113;67;0.31502
1956950;-0.17500;69.3750;113;67;0.30989
1956960;-0.17000;69.1250;113;67;0.30501
1956970;-0.16000;68.5625;113;67;0.29524
1956980;-0.15500;68.2500;113;67;0.29084
1956990;-0.15000;68.0000;113;67;0.28767
1957000;-0.13500;67.5625;113;67;0.28132
1957010;-0.12500;67.3750;113;67;0.27717
1957020;-0.11500;67.2500;113;67;0.27302
1957030;-0.10500;67.1250;113;67;0.26886
1957040;-0.08500;66.9375;113;67;0.26105
1957050;-0.07500;67.2500;113;67;0.25739
1957060;-0.06000;68.1875;113;67;0.25372
1957070;-0.04000;70.1875;113;67;0.25055
1957080;-0.02500;73.5000;113;67;0.24737
1957090;-0.00500;83.2500;113;67;0.24420
1957100;0.02000;88.5625;113;67;0.24225
1957110;0.04000;93.5000;113;67;0.24005
1957120;0.07000;97.7500;113;67;0.23785
1957130;0.10500;104.4375;113;67;0.23321
1957140;0.13000;106.9375;113;67;0.23101
1957150;0.16500;109.0000;113;67;0.22882
1957160;0.21500;111.4375;113;67;0.22491
1957170;0.23500;111.9375;113;67;0.22320
1957180;0.25500;112.0000;113;67;0.22149
1957190;0.26000;111.8125;113;67;0.22076
1957200;0.23000;111.2500;113;67;0.21954
1957210;0.18500;110.8750;113;67;0.21807
1957220;0.11500;110.5000;113;67;0.21661
1957230;0.04000;110.0000;113;67;0.21538
1957240;-0.02500;109.4375;113;67;0.21416
1957250;-0.08000;108.0625;113;67;0.21221
1957260;-0.11500;107.1875;113;67;0.21123
1957270;-0.14000;106.1875;113;67;0.21001
1957280;-0.15500;105.0000;113;67;0.20904
1957290;-0.16500;102.1875;113;67;0.20928
1957300;-0.17000;100.4375;113;67;0.20879
1957310;-0.17000;98.4375;113;67;0.20830
1957320;-0.17000;96.2500;113;67;0.20806
1957330;-0.16500;91.3750;113;67;0.21001
1957340;-0.16000;88.8750;113;67;0.21319
1957350;-0.15500;86.6875;113;67;0.21880
1957360;-0.15500;85.1250;113;67;0.22735
1957370;-0.15000;84.4375;113;67;0.25519
1957380;-0.14500;84.9375;113;67;0.27424
1957390;-0.14500;85.4375;113;67;0.29353
1957400;-0.14500;85.8125;113;67;0.31355
1957410;-0.14000;86.1875;113;67;0.36386
1957420;-0.13500;86.3125;113;67;0.39145
1957430;-0.13500;86.4375;113;67;0.41905
1957440;-0.13000;86.5000;113;67;0.44591
1957450;-0.13000;86.1875;113;67;0.49524
1957460;-0.13000;85.8125;113;67;0.51746
1957470;-0.12500;85.3125;113;67;0.53773
1957480;-0.12500;84.8125;113;67;0.55580
1957490;-0.12000;83.7500;113;67;0.58095
1957500;-0.11500;83.2500;113;67;0.59219
1957510;-0.11500;82.7500;113;67;0.60244
1957520;-0.11500;81.7500;113;67;0.61832
1957530;-0.11000;81.3125;113;67;0.62369
1957540;-0.10500;80.8750;113;67;0.62735
1957550;-0.10500;80.4375;113;67;0.62930
1957560;-0.10000;80.0000;113;67;0.62955
1957570;-0.09500;79.1875;113;67;0.62515
1957580;-0.09500;78.7500;113;67;0.62100
1957590;-0.09500;78.3750;113;67;0.61538
1957600;-0.09500;78.0625;113;67;0.60879
1957610;-0.08500;77.3125;113;67;0.59121
1957620;-0.07500;77.0000;113;67;0.58046
1957630;-0.05500;76.6875;113;67;0.56850
1957640;-0.02500;76.0625;113;67;0.55580
1957650;-0.01500;75.7500;113;67;0.52991
1957660;-0.01000;75.5000;113;67;0.51746
1957670;0.00000;75.1875;113;67;0.50598
1957680;0.03500;74.6250;113;67;0.48694
1957690;0.04000;74.3750;113;67;0.47961
1957700;0.01000;74.1250;113;67;0.47277
1957710;-0.02500;73.8750;113;67;0.46642
1957720;-0.04500;73.6250;113;67;0.46081
1957730;-0.07500;73.1250;113;67;0.45079
1957740;-0.09500;72.9375;113;67;0.44615
1957750;-0.10500;72.6875;113;67;0.44127
1957760;-0.11000;72.5000;113;67;0.43639
1957770;-0.11000;72.0625;113;67;0.42564
1957780;-0.10500;71.8750;113;67;0.42076
1957790;-0.10000;71.6875;113;67;0.41636
1957800;-0.10000;71.6875;113;67;0.41636
1957810;0.04000;71.1875;113;67;0.40147
1957820;0.35500;71.0000;113;67;0.39560
1957830;0.93000;70.8750;113;67;0.38999
1957840;0.98500;70.5625;113;67;0.37851
1957850;0.27000;70.3750;113;67;0.37289
1957860;-0.14500;70.1875;113;67;0.36728
1957870;-0.19000;70.0000;113;67;0.36166
1957880;-0.15500;69.5625;113;67;0.35140
1957890;-0.15000;69.3750;113;67;0.34725
1957900;-0.15500;69.1875;113;67;0.34261
1957910;-0.15000;68.8750;113;67;0.33797
1957920;-0.14500;68.6250;113;67;0.33309
1957930;-0.14000;68.1875;113;67;0.32332
1957940;-0.13000;67.9375;113;67;0.31868
1957950;-0.12500;67.7500;113;67;0.31404
1957960;-0.11500;67.5000;113;67;0.30940
1957970;-0.10500;67.0000;113;67;0.30110
1957980;-0.10000;66.8125;113;67;0.29792
1957990;-0.09500;66.5625;113;67;0.29548
1958000;-0.08500;66.3125;113;67;0.29255
1958010;-0.07500;65.9375;113;67;0.28620
1958020;-0.07000;65.8750;113;67;0.28278
1958030;-0.06000;65.7500;113;67;0.27937
1958040;-0.04500;65.5000;113;67;0.27253
1958050;-0.04000;65.6875;113;67;0.26960
1958060;-0.02500;66.3750;113;67;0.26716
1958070;-0.01500;68.0625;113;67;0.26471
1958080;0.00500;75.0000;113;67;0.26105
1958090;0.02000;80.0000;113;67;0.26032
1958100;0.03500;85.3125;113;67;0.25861
1958110;0.06000;90.3125;113;67;0.25690
1958120;0.08500;94.7500;113;67;0.25519
1958130;0.11000;101.6250;113;67;0.25128
1958140;0.15000;104.1875;113;67;0.24957
1958150;0.17500;106.3125;113;67;0.24786
1958160;0.21500;107.9375;113;67;0.24640
1958170;0.24000;109.6250;113;67;0.24371
1958180;0.26500;109.8125;113;67;0.24347
1958190;0.27500;109.6250;113;67;0.24371
1958200;0.26000;109.3125;113;67;0.24347
1958210;0.20500;108.5625;113;67;0.24176
1958220;0.15000;108.1250;113;67;0.25104
1958230;0.07000;107.6250;113;67;0.26545
1958240;0.00000;106.3750;113;67;0.27204
1958250;-0.06000;105.5625;113;67;0.27570
1958260;-0.10500;104.7500;113;67;0.27546
1958270;-0.13000;103.7500;113;67;0.27497
1958280;-0.15000;101.2500;113;67;0.27424
1958290;-0.16000;99.7500;113;67;0.27448
1958300;-0.16500;98.0625;113;67;0.27424
1958310;-0.17000;96.1875;113;67;0.27399
1958320;-0.17000;94.1250;113;67;0.27375
1958330;-0.17000;89.5000;113;67;0.27497
1958340;-0.16000;87.1875;113;67;0.27741
1958350;-0.16000;85.2500;113;67;0.28181
1958360;-0.15500;83.8750;113;67;0.28889
1958370;-0.15000;83.4375;113;67;0.31306
1958380;-0.14500;83.8750;113;67;0.32796
1958390;-0.14000;84.3125;113;67;0.34481
1958400;-0.14000;84.8125;113;67;0.39048
1958410;-0.13500;84.9375;113;67;0.41661
1958420;-0.13000;85.0000;113;67;0.44371
1958430;-0.13000;85.0625;113;67;0.47082
1958440;-0.13000;85.1250;113;67;0.49768
1958450;-0.13000;84.8125;113;67;0.54799
1958460;-0.13000;84.4375;113;67;0.57070
1958470;-0.13000;84.0000;113;67;0.59121
1958480;-0.12500;83.5000;113;67;0.60952
1958490;-0.12500;82.4375;113;67;0.63394
1958500;-0.12000;81.9375;113;67;0.64518
1958510;-0.11500;81.5000;113;67;0.65543
1958520;-0.11500;81.0625;113;67;0.66447
1958530;-0.11000;80.1875;113;67;0.67839
1958540;-0.10500;79.7500;113;67;0.68278
1958550;-0.10500;79.3750;113;67;0.68547
1958560;-0.10000;78.5625;113;67;0.68474
1958570;-0.09500;78.1875;113;67;0.68205
1958580;-0.09500;77.8125;113;67;0.67741
1958590;-0.09000;77.5000;113;67;0.67155
1958600;-0.08500;76.7500;113;67;0.65592
1958610;-0.08500;76.4375;113;67;0.64615
1958620;-0.08500;76.1250;113;67;0.63565
1958630;-0.06500;75.7500;113;67;0.62393
1958640;-0.04000;75.4375;113;67;0.61197
1958650;-0.01500;74.8750;113;67;0.58877
1958660;0.00000;74.6250;113;67;0.57802
1958670;0.00000;74.3125;113;67;0.56777
1958680;0.01500;74.0625;113;67;0.55824
1958690;0.04000;73.5625;113;67;0.54261
1958700;0.03500;73.3125;113;67;0.53553
1958710;0.01000;73.0625;113;67;0.52894
1958720;-0.01500;72.8125;113;67;0.52283
1958730;-0.04500;72.3750;113;67;0.51209
1958740;-0.06500;72.1875;113;67;0.50696
1958750;-0.08500;71.9375;113;67;0.50183
1958760;-0.09500;71.5000;113;67;0.49646
1958770;-0.10500;71.2500;113;67;0.48571
1958780;-0.10000;71.0625;113;67;0.48107
1958790;-0.09500;70.8750;113;67;0.47668
1958800;-0.09500;70.8750;113;67;0.47668
1958810;-0.07000;70.3750;113;67;0.46056
1958820;0.03500;70.1875;113;67;0.45495
1958830;0.56500;70.0625;113;67;0.44933
1958840;1.03000;69.8750;113;67;0.44347
1958850;1.02000;69.6250;113;67;0.43175
1958860;0.32000;69.4375;113;67;0.42613
1958870;-0.18000;69.2500;113;67;0.42051
1958880;-0.17000;69.0625;113;67;0.41538
1958890;-0.14000;68.6875;113;67;0.40757
1958900;-0.13500;68.5000;113;67;0.40317
1958910;-0.14000;68.2500;113;67;0.39853
1958920;-0.13500;68.0625;113;67;0.39365
1958930;-0.13000;67.6250;113;67;0.38364
1958940;-0.12500;67.3750;113;67;0.37900
1958950;-0.12000;67.1875;113;67;0.37460
1958960;-0.11000;66.6875;113;67;0.36606
1958970;-0.10500;66.5000;113;67;0.36190
1958980;-0.09500;66.2500;113;67;0.35873
1958990;-0.08500;66.0000;113;67;0.35629
1959000;-0.07500;65.5000;114;67;0.34969
1959010;-0.07000;65.3125;114;67;0.34628
1959020;-0.06000;65.1875;114;67;0.34286
1959030;-0.05000;65.1250;114;67;0.33919
1959040;-0.04000;65.0625;114;67;0.33553
1959050;-0.02500;64.8750;114;67;0.32894
1959060;-0.01500;65.1250;114;67;0.32601
1959070;-0.00500;66.0625;114;67;0.32308
1959080;0.00500;71.5000;114;67;0.31917
1959090;0.01500;76.0625;114;67;0.31819
1959100;0.03000;81.3750;114;67;0.31648
1959110;0.05500;86.7500;114;67;0.31453
1959120;0.07500;91.6875;114;67;0.31233
1959130;0.10000;99.6250;114;67;0.30867
1959140;0.13500;102.6250;114;67;0.30696
1959150;0.16000;105.1250;114;67;0.30525
1959160;0.20000;107.1875;114;67;0.30354
1959170;0.24000;109.7500;114;67;0.30012
1959180;0.26500;110.2500;114;67;0.29939
1959190;0.28500;110.3125;114;67;0.29890
1959200;0.28500;110.1875;114;67;0.29792
1959210;0.27000;109.6250;114;67;0.29499
1959220;0.21500;109.3125;114;67;0.29353
1959230;0.14000;108.9375;114;67;0.29231
1959240;0.08000;108.5000;114;67;0.29158
1959250;0.01000;107.4375;114;67;0.29060
1959260;-0.05500;106.6875;114;67;0.29011
1959270;-0.08500;105.8750;114;67;0.28938
1959280;-0.11500;104.9375;114;67;0.28840
1959290;-0.13500;102.6250;114;67;0.28864
1959300;-0.14500;101.1875;114;67;0.28864
1959310;-0.15000;99.5625;114;67;0.28840
1959320;-0.15000;95.7500;114;67;0.28791
1959330;-0.14500;93.5000;114;67;0.28816
1959340;-0.15000;91.0625;114;67;0.28962
1959350;-0.15000;88.6875;114;67;0.29255
1959360;-0.14500;86.5000;114;67;0.29768
1959370;-0.14000;84.0625;114;67;0.31746
1959380;-0.13500;83.9375;114;67;0.33040
1959390;-0.13500;84.3125;114;67;0.34530
1959400;-0.13000;84.7500;114;67;0.36435
1959410;-0.12500;85.3125;114;67;0.41294
1959420;-0.12500;85.4375;114;67;0.44054
1959430;-0.12500;85.5000;114;67;0.46911
1959440;-0.12500;85.6250;114;67;0.52527
1959450;-0.12500;85.5625;114;67;0.55165
1959460;-0.12000;85.3750;114;67;0.57631
1959470;-0.12000;85.0000;114;67;0.59902
1959480;-0.12000;84.0625;114;67;0.63565
1959490;-0.11500;83.5625;114;67;0.64835
1959500;-0.11000;83.0625;114;67;0.66129
1959510;-0.11000;82.5625;114;67;0.67350
1959520;-0.10500;82.0625;114;67;0.68425
1959530;-0.10000;81.1250;114;67;0.70110
1959540;-0.09500;80.6875;114;67;0.70720
1959550;-0.09500;80.2500;114;67;0.71184
1959560;-0.09000;79.8750;114;67;0.71477
1959570;-0.08500;79.0625;114;67;0.71575
1959580;-0.09000;78.6250;114;67;0.71306
1959590;-0.08500;78.3125;114;67;0.70916
1959600;-0.08500;77.5625;114;67;0.69744
1959610;-0.08500;77.2500;114;67;0.68913
1959620;-0.08500;76.8750;114;67;0.67937
1959630;-0.07500;76.5000;114;67;0.66862
1959640;-0.04500;75.8750;114;67;0.64469
1959650;-0.02000;75.5625;114;67;0.63248
1959660;0.00000;75.2500;114;67;0.62051
1959670;0.00500;75.0000;114;67;0.60879
1959680;0.01000;74.6875;114;67;0.59829
1959690;0.03000;74.1875;114;67;0.57900
1959700;0.04500;73.8750;114;67;0.56996
1959710;0.02500;73.6250;114;67;0.56166
1959720;-0.00500;73.3750;114;67;0.55385
1959730;-0.03000;72.9375;114;67;0.54042
1959740;-0.05500;72.6875;114;67;0.53431
1959750;-0.08500;72.5000;114;67;0.52845
1959760;-0.09500;72.2500;114;67;0.52283
1959770;-0.09500;71.7500;114;67;0.51111
1959780;-0.10000;71.5625;114;67;0.50574
1959790;-0.09500;71.3750;114;67;0.50061
1959800;-0.09500;71.3750;114;67;0.50061
1959810;-0.08500;70.8125;114;67;0.48449
1959820;-0.08500;70.8125;114;67;0.48449
1959830;0.21500;70.5000;114;67;0.47302
1959840;0.76000;70.3125;114;67;0.46716
1959850;1.14000;70.0000;114;67;0.45519
1959860;0.56000;69.8125;114;67;0.44933
1959870;0.01500;69.6250;114;67;0.44322
1959880;-0.18000;69.5000;114;67;0.43810
1959890;-0.13500;69.1250;114;67;0.42833
1959900;-0.13500;68.9375;114;67;0.42295
1959910;-0.13500;68.6875;114;67;0.41758
1959920;-0.13500;68.2500;114;67;0.40733
1959930;-0.13000;68.0625;114;67;0.40220
1959940;-0.12500;67.8125;114;67;0.39707
1959950;-0.12500;67.6250;114;67;0.39194
1959960;-0.11500;67.1250;114;67;0.38144
1959970;-0.10500;66.8750;114;67;0.37680
1959980;-0.10000;66.6250;114;67;0.37314
1959990;-0.08500;66.3750;114;67;0.36996
1960000;-0.08000;66.1250;114;67;0.36606
1960010;-0.07500;65.6875;114;67;0.35824
1960020;-0.07000;65.5000;114;67;0.35433
1960030;-0.06000;65.3750;114;67;0.35043
1960040;-0.05000;65.2500;114;67;0.34335
1960050;-0.04000;65.1875;114;67;0.33993
1960060;-0.02500;65.2500;114;67;0.33651
1960070;-0.01500;65.8750;114;67;0.33333
1960080;0.00000;70.1875;114;67;0.32918
1960090;0.01000;74.3750;114;67;0.32674
1960100;0.03000;79.5625;114;67;0.32430
1960110;0.05000;85.1250;114;67;0.32210
1960120;0.07000;90.4375;114;67;0.31990
1960130;0.09000;99.0625;114;67;0.31551
1960140;0.12500;102.3750;114;67;0.31331
1960150;0.15000;105.1875;114;67;0.31111
1960160;0.18500;107.5000;114;67;0.30940
1960170;0.22000;110.5000;114;67;0.30672
1960180;0.24500;111.2500;114;67;0.30623
1960190;0.27500;111.5000;114;67;0.30598
1960200;0.29000;111.3750;114;67;0.30501
1960210;0.28500;111.1875;114;67;0.30232
1960220;0.25500;110.9375;114;67;0.30085
1960230;0.19500;110.6875;114;67;0.29963
1960240;0.10500;110.0000;114;67;0.29744
1960250;0.04500;109.5625;114;67;0.29597
1960260;-0.01500;109.0000;114;67;0.29451
1960270;-0.07500;108.2500;114;67;0.28816
1960280;-0.10000;107.4375;114;67;0.27985
1960290;-0.12000;105.4375;114;67;0.27350
1960300;-0.14000;104.1250;114;67;0.27179
1960310;-0.14500;102.6875;114;67;0.27082
1960320;-0.15500;99.0625;114;67;0.27009
1960330;-0.15500;96.9375;114;67;0.27009
1960340;-0.15500;94.6250;114;67;0.27057
1960350;-0.15000;92.2500;114;67;0.27277
1960360;-0.15000;89.8750;114;67;0.27717
1960370;-0.14500;86.3125;114;67;0.29548
1960380;-0.14500;85.6250;114;67;0.30842
1960390;-0.14000;85.5000;114;67;0.32405
1960400;-0.13500;85.8125;114;67;0.34481
1960410;-0.13500;86.3750;114;67;0.39829
1960420;-0.13500;86.5000;114;67;0.42906
1960430;-0.13000;86.5625;114;67;0.46129
1960440;-0.12500;86.6250;114;67;0.49402
1960450;-0.12500;86.6250;114;67;0.55727
1960460;-0.12000;86.5000;114;67;0.58657
1960470;-0.12000;86.2500;114;67;0.61368
1960480;-0.12000;85.8750;114;67;0.63492
1960490;-0.11500;85.0000;114;67;0.67009
1960500;-0.11500;84.4375;114;67;0.68742
1960510;-0.11000;83.9375;114;67;0.70330
1960520;-0.10500;82.9375;114;67;0.72894
1960530;-0.10000;82.4375;114;67;0.73895
1960540;-0.09500;82.0000;114;67;0.74725
1960550;-0.09500;81.5625;114;67;0.75385
1960560;-0.08500;81.1250;114;67;0.75849
1960570;-0.08000;80.3125;114;67;0.76239
1960580;-0.07500;79.9375;114;67;0.76068
1960590;-0.07500;79.5625;114;67;0.75702
1960600;-0.07500;79.1875;114;67;0.75238
1960610;-0.07000;78.5000;114;67;0.73871
1960620;-0.07000;78.1875;114;67;0.72943
1960630;-0.06500;77.8750;114;67;0.71844
1960640;-0.05000;77.5625;114;67;0.70598
1960650;-0.02500;76.9375;114;67;0.67814
1960660;0.01000;76.6250;114;67;0.66374
1960670;0.01500;76.3125;114;67;0.64982
1960680;0.02000;76.0625;114;67;0.63736
1960690;0.04000;75.5625;114;67;0.61392
1960700;0.06000;75.3125;114;67;0.60293
1960710;0.06500;75.0625;114;67;0.59292
1960720;0.03000;74.5625;114;67;0.57582
1960730;0.00000;74.3125;114;67;0.56825
1960740;-0.02000;74.0625;114;67;0.56093
1960750;-0.04500;73.8125;114;67;0.55385
1960760;-0.07500;73.4375;114;67;0.54017
1960770;-0.08500;73.1875;114;67;0.53309
1960780;-0.08500;72.9375;114;67;0.52650
1960790;-0.08500;72.7500;114;67;0.52039
1960800;-0.08500;72.7500;114;67;0.52039
1960810;-0.07500;72.1875;114;67;0.50085
1960820;-0.07500;72.0625;114;67;0.49377
1960830;-0.01000;71.8750;114;67;0.48669
1960840;0.31500;71.5625;114;67;0.47961
1960850;1.04500;71.4375;114;67;0.46569
1960860;1.21000;71.2500;114;67;0.45836
1960870;0.60000;71.1250;114;67;0.45153
1960880;-0.11000;70.8125;114;67;0.44078
1960890;-0.16500;70.6250;114;67;0.43468
1960900;-0.13000;70.4375;114;67;0.42833
1960910;-0.13500;70.3125;114;67;0.42198
1960920;-0.14000;70.1250;114;67;0.41587
1960930;-0.14000;69.6875;114;67;0.40391
1960940;-0.13500;69.4375;114;67;0.39805
1960950;-0.12500;69.2500;114;67;0.39267
1960960;-0.11500;68.8125;114;67;0.38730
1960970;-0.11000;68.5625;114;67;0.37680
1960980;-0.10000;68.3125;114;67;0.37265
1960990;-0.09500;68.0625;114;67;0.36923
1961000;-0.08500;67.6875;114;67;0.36044
1961010;-0.08000;67.4375;114;67;0.35580
1961020;-0.06500;67.2500;114;67;0.35140
1961030;-0.05500;67.0625;114;67;0.34725
1961040;-0.04500;66.9375;114;67;0.34286
1961050;-0.02500;66.8125;114;67;0.33480
1961060;-0.01500;66.8125;114;67;0.33114
1961070;-0.00500;67.1250;114;67;0.32772
1961080;0.01000;70.1875;114;67;0.32381
1961090;0.02000;73.7500;114;67;0.32161
1961100;0.04000;78.6250;114;67;0.31893
1961110;0.05500;84.2500;114;67;0.31624
1961120;0.07000;89.9375;114;67;0.31380
1961130;0.09500;99.5000;114;67;0.30916
1961140;0.12000;103.1875;114;67;0.30696
1961150;0.14500;106.3750;114;67;0.30476
1961160;0.18000;111.2500;114;67;0.30037
1961170;0.20500;112.9375;114;67;0.29841
1961180;0.23500;114.0625;114;67;0.29768
1961190;0.27000;114.6250;114;67;0.29744
1961200;0.29000;114.8750;114;67;0.29670
1961210;0.30000;114.8125;114;67;0.29475
1961220;0.29000;114.6250;114;67;0.29353
1961230;0.25000;114.5000;114;67;0.29231
1961240;0.19000;114.3125;114;67;0.29109
1961250;0.10000;113.8125;114;67;0.28962
1961260;0.04500;113.4375;114;67;0.28938
1961270;-0.01500;112.9375;114;67;0.28913
1961280;-0.06000;112.2500;114;67;0.28962
1961290;-0.10000;110.5625;114;67;0.28987
1961300;-0.11500;109.5000;114;67;0.28938
1961310;-0.13000;108.2500;114;67;0.28913
1961320;-0.13500;106.8125;114;67;0.28864
1961330;-0.14500;103.2500;114;67;0.28864
1961340;-0.14500;101.1875;114;67;0.28913
1961350;-0.15000;98.8125;114;67;0.29084
1961360;-0.14500;96.3125;114;67;0.29426
1961370;-0.14000;91.5625;114;67;0.30842
1961380;-0.13500;89.9375;114;67;0.31941
1961390;-0.13000;89.0625;114;67;0.33529
1961400;-0.12500;88.8125;114;67;0.35556
1961410;-0.12000;89.2500;114;67;0.40733
1961420;-0.12000;89.5000;114;67;0.43736
1961430;-0.11500;89.6250;114;67;0.46935
1961440;-0.11500;89.7500;114;67;0.53455
1961450;-0.11500;89.8125;114;67;0.56606
1961460;-0.11500;89.8125;114;67;0.59585
1961470;-0.10500;89.7500;114;67;0.62393
1961480;-0.10500;89.5000;114;67;0.64615
1961490;-0.10000;88.6250;114;67;0.68449
1961500;-0.10500;88.0625;114;67;0.70379
1961510;-0.10500;87.5000;114;67;0.72161
1961520;-0.10000;87.0000;114;67;0.73773
1961530;-0.09500;86.0625;114;67;0.76459
1961540;-0.09500;85.5625;114;67;0.77485
1961550;-0.09500;85.1250;114;67;0.78315
1961560;-0.09000;84.6250;114;67;0.78950
1961570;-0.09000;83.6875;114;67;0.79560
1961580;-0.09000;83.2500;114;67;0.79463
1961590;-0.09000;82.8750;114;67;0.79341
1961600;-0.09000;82.0625;114;67;0.78681
1961610;-0.08500;81.6875;114;67;0.78120
1961620;-0.08500;81.3125;114;67;0.77387
1961630;-0.08000;80.9375;114;67;0.76459
1961640;-0.07500;80.2500;114;67;0.74139
1961650;-0.06500;79.9375;114;67;0.72821
1961660;-0.04000;79.6250;114;67;0.71453
1961670;-0.01000;79.2500;114;67;0.70061
1961680;0.01000;78.9375;114;67;0.68742
1961690;0.01000;78.3125;114;67;0.66252
1961700;0.02000;78.0625;114;67;0.65031
1961710;0.03500;77.7500;114;67;0.63883
1961720;0.04500;77.2500;114;67;0.61807
1961730;0.03000;77.0000;114;67;0.60904
1961740;0.00000;76.7500;114;67;0.60049
1961750;-0.03000;76.4375;114;67;0.59219
1961760;-0.06500;76.0000;114;67;0.57729
1961770;-0.08500;75.7500;114;67;0.57045
1961780;-0.10000;75.5625;114;67;0.56386
1961790;-0.10500;75.3125;114;67;0.55727
1961800;-0.10500;75.0625;114;67;0.55043
1961810;-0.10000;74.6875;114;67;0.53724
1961820;-0.09000;74.5000;114;67;0.53065
1961830;-0.09000;74.3125;114;67;0.52381
1961840;-0.05000;73.8750;114;67;0.51013
1961850;0.16000;73.6875;114;67;0.50330
1961860;0.74000;73.5625;114;67;0.49621
1961870;1.30000;73.3750;114;67;0.48913
1961880;0.94000;73.2500;114;67;0.48278
1961890;0.14000;72.9375;114;67;0.47106
1961900;-0.17000;72.7500;114;67;0.46496
1961910;-0.15500;72.5625;114;67;0.45861
1961920;-0.15500;72.3750;114;67;0.45250
1961930;-0.16000;72.0000;114;67;0.44029
1961940;-0.16000;71.8125;114;67;0.43419
1961950;-0.16000;71.5625;114;67;0.42784
1961960;-0.15500;71.3125;114;67;0.42198
1961970;-0.15000;70.8125;114;67;0.41148
1961980;-0.15000;70.5625;114;67;0.40733
1961990;-0.14500;70.3750;114;67;0.40269
1962000;-0.13500;69.9375;113;67;0.39292
1962010;-0.13000;69.6875;113;67;0.38828
1962020;-0.12500;69.4375;113;67;0.38364
1962030;-0.11000;69.2500;113;67;0.37875
1962040;-0.09500;68.8125;113;67;0.36923
1962050;-0.08500;68.6875;113;67;0.36508
1962060;-0.07000;68.6250;113;67;0.36093
1962070;-0.05500;68.6875;113;67;0.35702
1962080;-0.03500;69.0000;113;67;0.35409
1962090;-0.02000;71.9375;113;67;0.34872
1962100;-0.00500;75.4375;113;67;0.34579
1962110;0.00500;80.3125;113;67;0.34310
1962120;0.03000;92.1250;113;67;0.33797
1962130;0.05000;97.6250;113;67;0.33553
1962140;0.07000;102.2500;113;67;0.33309
1962150;0.09500;106.1875;113;67;0.33065
1962160;0.12500;109.3750;113;67;0.32845
1962170;0.16000;114.4375;113;67;0.32527
1962180;0.18500;116.1875;113;67;0.32454
1962190;0.21500;117.4375;113;67;0.32332
1962200;0.25000;118.1250;113;67;0.32234
1962210;0.28500;118.4375;113;67;0.32088
1962220;0.30000;118.3750;113;67;0.32015
1962230;0.30000;118.3125;113;67;0.31941
1962240;0.28500;118.2500;113;67;0.31868
1962250;0.23500;118.1250;113;67;0.31673
1962260;0.14500;118.0000;113;67;0.31600
1962270;0.08500;117.7500;113;67;0.31526
1962280;0.02000;117.3750;113;67;0.31526
1962290;-0.04500;116.3125;113;67;0.31526
1962300;-0.08000;115.5625;113;67;0.31477
1962310;-0.10500;114.6875;113;67;0.31429
1962320;-0.12500;112.3750;113;67;0.29915
1962330;-0.13500;110.8750;113;67;0.29451
1962340;-0.14500;109.1250;113;67;0.29206
1962350;-0.14500;107.1875;113;67;0.29133
1962360;-0.15000;104.8750;113;67;0.29231
1962370;-0.14500;99.8125;113;67;0.30012
1962380;-0.14500;97.1250;113;67;0.30672
1962390;-0.14500;94.8125;113;67;0.31722
1962400;-0.14500;93.0000;113;67;0.33211
1962410;-0.14500;91.7500;113;67;0.37363
1962420;-0.14500;91.8750;113;67;0.39902
1962430;-0.14000;92.0625;113;67;0.42662
1962440;-0.14000;92.2500;113;67;0.45617
1962450;-0.13500;92.4375;113;67;0.51673
1962460;-0.13500;92.5625;113;67;0.54603
1962470;-0.13500;92.6875;113;67;0.57387
1962480;-0.12500;92.5625;113;67;0.61538
1962490;-0.12000;92.1875;113;67;0.63565
1962500;-0.12000;91.7500;113;67;0.65519
1962510;-0.11500;91.2500;113;67;0.67302
1962520;-0.11500;90.6875;113;67;0.68913
1962530;-0.11500;89.6250;113;67;0.71624
1962540;-0.12000;89.1250;113;67;0.72723
1962550;-0.11500;88.5625;113;67;0.73651
1962560;-0.11500;88.0625;113;67;0.74408
1962570;-0.10500;87.0625;113;67;0.75336
1962580;-0.10500;86.5625;113;67;0.75433
1962590;-0.10500;86.1250;113;67;0.75531
1962600;-0.10500;85.6250;113;67;0.75531
1962610;-0.09500;84.7500;113;67;0.75092
1962620;-0.09500;84.3125;113;67;0.74628
1962630;-0.09000;83.8750;113;67;0.73993
1962640;-0.08500;83.5000;113;67;0.73211
1962650;-0.08500;82.7500;113;67;0.71136
1962660;-0.08500;82.3750;113;67;0.69915
1962670;-0.08500;82.0000;113;67;0.68596
1962680;-0.07500;81.6875;113;67;0.67302
1962690;-0.05000;81.0000;113;67;0.64689
1962700;-0.01000;80.6875;113;67;0.63370
1962710;0.00000;80.4375;113;67;0.62125
1962720;0.00000;80.1250;113;67;0.60928
1962730;0.01500;79.5625;113;67;0.58706
1962740;0.03000;79.3125;113;67;0.57729
1962750;0.04000;79.0625;113;67;0.56825
1962760;0.02000;78.5000;113;67;0.55238
1962770;-0.00500;78.2500;113;67;0.54554
1962780;-0.04000;77.9375;113;67;0.53919
1962790;-0.08000;77.6250;113;67;0.53260
1962800;-0.08000;77.6250;113;67;0.53260
1962810;-0.11500;76.6250;113;67;0.51306
1962820;-0.12500;76.3125;113;67;0.50696
1962830;-0.12500;76.0000;113;67;0.50037
1962840;-0.12000;75.7500;113;67;0.49377
1962850;-0.11500;75.1875;113;67;0.48059
1962860;-0.12000;74.8750;113;67;0.47424
1962870;-0.07500;74.6250;113;67;0.46764
1962880;0.25500;74.3125;113;67;0.46178
1962890;1.04500;73.8750;113;67;0.45006
1962900;1.28000;73.6250;113;67;0.44396
1962910;0.73000;73.4375;113;67;0.43785
1962920;-0.09000;72.9375;113;67;0.42418
1962930;-0.18000;72.7500;113;67;0.41734
1962940;-0.16000;72.5000;113;67;0.41270
1962950;-0.17000;72.3125;113;67;0.40757
1962960;-0.18000;71.7500;113;67;0.39707
1962970;-0.18000;71.4375;113;67;0.39267
1962980;-0.17500;71.1875;113;67;0.38852
1962990;-0.16500;70.8750;113;67;0.38364
1963000;-0.15500;70.2500;113;67;0.37387
1963010;-0.14500;70.0000;113;67;0.36899
1963020;-0.14000;69.6875;113;67;0.36435
1963030;-0.13000;69.5000;113;67;0.35971
1963040;-0.12500;69.2500;113;67;0.35531
1963050;-0.11000;68.6875;113;67;0.34676
1963060;-0.10000;68.4375;113;67;0.34261
1963070;-0.09000;68.1875;113;67;0.33846
1963080;-0.07500;68.0625;113;67;0.33529
1963090;-0.06000;67.9375;113;67;0.32869
1963100;-0.05000;68.0625;113;67;0.32503
1963110;-0.03500;68.6250;113;67;0.32137
1963120;-0.02500;70.0625;113;67;0.31770
1963130;-0.00500;77.2500;113;67;0.31062
1963140;0.01000;82.8125;113;67;0.30745
1963150;0.03000;88.8125;113;67;0.30452
1963160;0.04500;99.4375;113;67;0.30208
1963170;0.07500;103.5000;113;67;0.29744
1963180;0.09500;106.8750;113;67;0.29597
1963190;0.12000;109.7500;113;67;0.29402
1963200;0.15500;114.1250;113;67;0.28962
1963210;0.17500;115.4375;113;67;0.28767
1963220;0.21000;116.2500;113;67;0.28596
1963230;0.23500;116.6250;113;67;0.28425
1963240;0.25500;116.6875;113;67;0.28278
1963250;0.25500;116.6250;113;67;0.28010
1963260;0.24500;116.5625;113;67;0.27888
1963270;0.21000;116.4375;113;67;0.27839
1963280;0.15500;116.0625;113;67;0.27839
1963290;0.07000;115.7500;113;67;0.27668
1963300;0.01000;115.3750;113;67;0.27570
1963310;-0.04500;114.8750;113;67;0.27448
1963320;-0.10000;113.5000;113;67;0.27082
1963330;-0.12500;112.5625;113;67;0.26911
1963340;-0.15000;111.5000;113;67;0.26764
1963350;-0.16000;110.1875;113;67;0.26618
1963360;-0.17000;108.6875;113;67;0.26496
1963370;-0.17500;105.0000;113;67;0.26422
1963380;-0.17000;102.8125;113;67;0.26520
1963390;-0.17000;100.3750;113;67;0.26691
1963400;-0.16500;97.8125;113;67;0.26984
1963410;-0.16000;93.0000;113;67;0.28327
1963420;-0.16000;91.3750;113;67;0.29524
1963430;-0.15500;90.4375;113;67;0.31136
1963440;-0.15500;90.0000;113;67;0.35433
1963450;-0.15500;90.0625;113;67;0.37998
1963460;-0.15500;90.0625;113;67;0.40733
1963470;-0.15000;90.1250;113;67;0.43199
1963480;-0.14500;90.1875;113;67;0.45495
1963490;-0.14500;90.3125;113;67;0.50647
1963500;-0.14500;90.3125;113;67;0.53162
1963510;-0.14500;90.1250;113;67;0.55507
1963520;-0.14500;89.8125;113;67;0.57680
1963530;-0.14000;88.9375;113;67;0.61416
1963540;-0.13500;88.3750;113;67;0.62955
1963550;-0.13500;87.8125;113;67;0.64298
1963560;-0.13500;86.7500;113;67;0.66422
1963570;-0.13500;86.1875;113;67;0.67057
1963580;-0.13000;85.6875;113;67;0.67473
1963590;-0.12500;85.1250;113;67;0.67912
1963600;-0.12500;84.6250;113;67;0.68303
1963610;-0.12500;83.6250;113;67;0.68694
1963620;-0.12500;83.1875;113;67;0.68669
1963630;-0.12500;82.6875;113;67;0.68523
1963640;-0.12500;82.2500;113;67;0.68181
1963650;-0.11500;81.3125;113;67;0.67009
1963660;-0.11500;80.9375;113;67;0.66154
1963670;-0.11000;80.5625;113;67;0.65201
1963680;-0.10500;79.7500;113;67;0.64200
1963690;-0.07500;79.4375;113;67;0.61783
1963700;-0.05500;79.0625;113;67;0.60415
1963710;-0.03000;78.7500;113;67;0.59023
1963720;-0.02500;78.0625;113;67;0.56264
1963730;-0.01500;77.7500;113;67;0.54945
1963740;0.01000;77.4375;113;67;0.53724
1963750;0.02500;77.1250;113;67;0.52576
1963760;0.00500;76.8125;113;67;0.51502
1963770;-0.03500;76.2500;113;67;0.49646
1963780;-0.05500;76.0000;113;67;0.48889
1963790;-0.08000;75.7500;113;67;0.48132
1963800;-0.11000;75.1875;113;67;0.46642
1963810;-0.12500;74.9375;113;67;0.45934
1963820;-0.12500;74.6875;113;67;0.45275
1963830;-0.12500;74.4375;113;67;0.44615
1963840;-0.12500;73.9375;113;67;0.43370
1963850;-0.12000;73.7500;113;67;0.42735
1963860;-0.11500;73.5625;113;67;0.42076
1963870;-0.09500;73.3750;113;67;0.41514
1963880;0.15500;73.0000;113;67;0.40366
1963890;0.57500;72.8125;113;67;0.39707
1963900;1.07500;72.6250;113;67;0.39023
1963910;0.71000;72.4375;113;67;0.38339
1963920;0.11000;72.2500;113;67;0.37680
1963930;-0.21500;71.7500;113;67;0.36386
1963940;-0.17000;71.5625;113;67;0.35775
1963950;-0.16000;71.3750;113;67;0.35165
1963960;-0.16500;70.8750;113;67;0.33968
1963970;-0.16500;70.6250;113;67;0.33480
1963980;-0.16000;70.3750;113;67;0.33065
1963990;-0.15500;70.1250;113;67;0.32576
1964000;-0.14500;69.6250;113;67;0.31551
1964010;-0.13500;69.4375;113;67;0.31038
1964020;-0.13000;69.1875;113;67;0.30549
1964030;-0.12500;68.8750;113;67;0.30061
1964040;-0.11500;68.6250;113;67;0.29573
1964050;-0.10500;68.1250;113;67;0.28596
1964060;-0.10000;67.8125;113;67;0.28107
1964070;-0.09500;67.6250;113;67;0.27766
1964080;-0.08500;67.4375;113;67;0.27521
1964090;-0.07500;67.3125;113;67;0.26862
1964100;-0.06500;67.1250;113;67;0.26520
1964110;-0.05500;67.0000;113;67;0.26178
1964120;-0.04000;67.0625;113;67;0.25836
1964130;-0.02500;69.0000;113;67;0.25177
1964140;-0.01500;71.6875;113;67;0.24908
1964150;0.00000;75.5625;113;67;0.24664
1964160;0.02500;85.7500;113;67;0.24176
1964170;0.04000;90.8750;113;67;0.24029
1964180;0.06500;95.4375;113;67;0.23956
1964190;0.10000;99.3125;113;67;0.23810
1964200;0.13000;102.5625;113;67;0.23614
1964210;0.16500;107.5000;113;67;0.23199
1964220;0.20500;109.1875;113;67;0.23028
1964230;0.23500;110.3125;113;67;0.22857
1964240;0.25500;110.9375;113;67;0.22711
1964250;0.28000;111.0000;113;67;0.22515
1964260;0.28000;110.6875;113;67;0.22442
1964270;0.25500;110.3125;113;67;0.22466
1964280;0.18500;109.5000;113;67;0.22540
1964290;0.12500;109.0000;113;67;0.22466
1964300;0.05000;108.3750;113;67;0.22393
1964310;-0.02500;107.7500;113;67;0.22295
1964320;-0.06500;106.9375;113;67;0.22198
1964330;-0.10500;105.0625;113;67;0.21954
1964340;-0.13500;103.9375;113;67;0.21832
1964350;-0.15000;102.6250;113;67;0.21685
1964360;-0.16500;101.1875;113;67;0.21563
1964370;-0.16500;97.6250;113;67;0.23712
1964380;-0.17000;95.5000;113;67;0.24444
1964390;-0.17000;93.1875;113;67;0.24811
1964400;-0.17000;90.8125;113;67;0.25006
1964410;-0.17000;86.6875;113;67;0.25568
1964420;-0.17000;85.4375;113;67;0.26129
1964430;-0.16500;84.8750;113;67;0.26960
1964440;-0.16000;85.1875;113;67;0.29548
1964450;-0.15500;85.5000;113;67;0.31355
1964460;-0.15500;85.6875;113;67;0.33480
1964470;-0.14500;85.8750;113;67;0.35531
1964480;-0.14500;85.9375;113;67;0.37582
1964490;-0.13500;86.1250;113;67;0.42442
1964500;-0.13500;86.1250;113;67;0.44982
1964510;-0.13500;86.0000;113;67;0.47473
1964520;-0.13500;85.7500;113;67;0.49866
1964530;-0.13500;85.0000;113;67;0.54212
1964540;-0.13000;84.5000;113;67;0.56093
1964550;-0.13000;84.0000;113;67;0.57753
1964560;-0.13000;83.0000;113;67;0.59219
1964570;-0.12500;82.5000;113;67;0.61441
1964580;-0.12500;82.0625;113;67;0.62149
1964590;-0.12000;81.6250;113;67;0.62857
1964600;-0.11000;80.7500;113;67;0.63883
1964610;-0.10500;80.3125;113;67;0.64176
1964620;-0.10000;79.8750;113;67;0.64298
1964630;-0.10500;79.5000;113;67;0.64249
1964640;-0.10500;79.1250;113;67;0.64054
1964650;-0.10000;78.3750;113;67;0.63223
1964660;-0.10000;78.0000;113;67;0.62589
1964670;-0.10000;77.6250;113;67;0.61880
1964680;-0.10000;76.9375;113;67;0.61074
1964690;-0.09000;76.6250;113;67;0.59072
1964700;-0.07000;76.2500;113;67;0.57949
1964710;-0.03500;76.0000;113;67;0.56825
1964720;-0.01500;75.6875;113;67;0.55702
1964730;-0.00500;75.1250;113;67;0.53626
1964740;-0.00500;74.8750;113;67;0.52698
1964750;0.02000;74.6250;113;67;0.51844
1964760;0.03000;74.3750;113;67;0.51062
1964770;0.02000;73.8125;113;67;0.49744
1964780;-0.02500;73.6250;113;67;0.49206
1964790;-0.05000;73.3750;113;67;0.48645
1964800;-0.07000;72.8750;113;67;0.48107
1964810;-0.09500;72.6250;113;67;0.47106
1964820;-0.11000;72.4375;113;67;0.46642
1964830;-0.11500;72.1875;113;67;0.46178
1964840;-0.11500;72.0000;113;67;0.45714
1964850;-0.10500;71.6250;113;67;0.44786
1964860;-0.10500;71.5000;113;67;0.44298
1964870;-0.09500;71.3125;113;67;0.43883
1964880;-0.07000;70.9375;113;67;0.43077
1964890;0.07500;70.7500;113;67;0.42613
1964900;0.55500;70.5625;113;67;0.42100
1964910;1.08000;70.4375;113;67;0.41563
1964920;0.74500;70.1250;113;67;0.40513
1964930;0.13000;69.9375;113;67;0.40000
1964940;-0.20000;69.7500;113;67;0.39487
1964950;-0.18000;69.6250;113;67;0.38974
1964960;-0.15500;69.1875;113;67;0.37924
1964970;-0.15500;68.9375;113;67;0.37411
1964980;-0.15500;68.6875;113;67;0.37021
1964990;-0.15500;68.4375;113;67;0.36728
1965000;-0.14500;68.2500;113;67;0.36386
1965010;-0.13500;67.8125;113;67;0.35604
1965020;-0.13000;67.5625;113;67;0.35189
1965030;-0.12000;67.3750;113;67;0.34774
1965040;-0.11500;67.1250;113;67;0.34335
1965050;-0.11000;66.6250;113;67;0.33529
1965060;-0.10500;66.4375;113;67;0.33162
1965070;-0.09500;66.1875;113;67;0.32894
1965080;-0.09500;65.9375;113;67;0.32650
1965090;-0.07500;65.6250;113;67;0.32015
1965100;-0.06000;65.5625;113;67;0.31697
1965110;-0.05500;65.4375;113;67;0.31404
1965120;-0.04500;65.4375;113;67;0.30867
1965130;-0.03000;66.0625;113;67;0.30598
1965140;-0.02000;67.5625;113;67;0.30354
1965150;-0.00500;70.3125;113;67;0.30110
1965160;0.01000;79.4375;113;67;0.29792
1965170;0.02500;84.8750;113;67;0.29695
1965180;0.05000;90.0625;113;67;0.29548
1965190;0.07000;94.6875;113;67;0.29402
1965200;0.10000;98.5625;113;67;0.29231
1965210;0.13000;104.5625;113;67;0.28913
1965220;0.15500;106.8125;113;67;0.28742
1965230;0.19500;108.5000;113;67;0.28596
1965240;0.23500;110.2500;113;67;0.28327
1965250;0.26500;110.4375;113;67;0.28205
1965260;0.28500;110.3750;113;67;0.28083
1965270;0.28500;110.0625;113;67;0.28059
1965280;0.26500;109.7500;113;67;0.28059
1965290;0.21500;109.0625;113;67;0.27961
1965300;0.12500;108.6250;113;67;0.27888
1965310;0.06000;108.0625;113;67;0.27814
1965320;-0.00500;107.4375;113;67;0.27790
1965330;-0.07000;105.9375;113;67;0.27692
1965340;-0.10500;105.0000;113;67;0.27643
1965350;-0.13000;103.9375;113;67;0.27570
1965360;-0.15000;101.3125;113;67;0.27521
1965370;-0.16000;99.7500;113;67;0.27570
1965380;-0.16500;97.9375;113;67;0.27570
1965390;-0.17000;95.9375;113;67;0.27570
1965400;-0.16500;91.5625;113;67;0.27619
1965410;-0.16500;89.3750;113;67;0.27790
1965420;-0.16000;87.4375;113;67;0.28107
1965430;-0.16000;86.0000;113;67;0.28669
1965440;-0.15500;85.2500;113;67;0.29524
1965450;-0.15500;85.1875;113;67;0.32283
1965460;-0.15500;85.4375;113;67;0.34212
1965470;-0.15000;85.6875;113;67;0.36093
1965480;-0.15000;85.8125;113;67;0.38071
1965490;-0.14500;85.9375;113;67;0.43004
1965500;-0.14500;85.9375;113;67;0.45665
1965510;-0.14000;85.9375;113;67;0.48352
1965520;-0.14000;85.6250;113;67;0.50989
1965530;-0.13500;85.3750;113;67;0.55800
1965540;-0.13500;85.0000;113;67;0.57949
1965550;-0.13000;84.5000;113;67;0.59878
1965560;-0.13000;83.5000;113;67;0.62882
1965570;-0.12500;83.0000;113;67;0.63907
1965580;-0.12500;82.5625;113;67;0.64933
1965590;-0.12500;82.1250;113;67;0.65885
1965600;-0.12500;81.6250;113;67;0.66691
1965610;-0.12500;80.8125;113;67;0.67888
1965620;-0.12000;80.4375;113;67;0.68254
1965630;-0.11500;80.0625;113;67;0.68425
1965640;-0.11500;79.6250;113;67;0.68449
1965650;-0.11500;78.8125;113;67;0.68059
1965660;-0.11000;78.4375;113;67;0.67619
1965670;-0.10500;78.0625;113;67;0.67033
1965680;-0.10500;77.6875;113;67;0.66349
1965690;-0.10000;77.0000;113;67;0.64567
1965700;-0.09500;76.6250;113;67;0.63492
1965710;-0.08000;76.3125;113;67;0.62344
1965720;-0.05000;75.6875;113;67;0.60024
1965730;-0.02500;75.4375;113;67;0.58901
1965740;-0.01500;75.1250;113;67;0.57802
1965750;-0.01500;74.8750;113;67;0.56777
1965760;0.00500;74.3125;113;67;0.55018
1965770;0.02500;74.0625;113;67;0.54286
1965780;0.02500;73.8125;113;67;0.53602
1965790;-0.01000;73.5625;113;67;0.52943
1965800;-0.04000;73.1250;113;67;0.51746
1965810;-0.06500;72.8750;113;67;0.51160
1965820;-0.08500;72.6250;113;67;0.50574
1965830;-0.10500;72.3750;113;67;0.50012
1965840;-0.11500;72.1875;113;67;0.49451
1965850;-0.11500;71.7500;113;67;0.48376
1965860;-0.11500;71.5625;113;67;0.47814
1965870;-0.11000;71.3750;113;67;0.47326
1965880;-0.10000;71.0000;113;67;0.46325
1965890;-0.09500;70.8125;113;67;0.45788
1965900;-0.01500;70.6875;113;67;0.45250
1965910;0.32000;70.5625;113;67;0.44713
1965920;1.01000;70.2500;113;67;0.43614
1965930;1.10500;70.0625;113;67;0.43053
1965940;0.46500;69.8750;113;67;0.42491
1965950;-0.17000;69.6875;113;67;0.41929
1965960;-0.20000;69.5625;113;67;0.41392
1965970;-0.16000;69.1875;113;67;0.40513
1965980;-0.15500;68.9375;113;67;0.40073
1965990;-0.16000;68.7500;113;67;0.39609
1966000;-0.16000;68.5000;113;67;0.39023
1966010;-0.15500;68.1250;113;67;0.38120
1966020;-0.14500;67.8750;113;67;0.37729
1966030;-0.14000;67.6250;113;67;0.37314
1966040;-0.13500;67.4375;113;67;0.36874
1966050;-0.12500;66.9375;113;67;0.35971
1966060;-0.11500;66.6875;113;67;0.35507
1966070;-0.11000;66.4375;113;67;0.35165
1966080;-0.10000;65.8750;113;67;0.34505
1966090;-0.09000;65.6875;113;67;0.34115
1966100;-0.08500;65.5625;113;67;0.33748
1966110;-0.07000;65.5000;113;67;0.33382
1966120;-0.06000;65.3125;113;67;0.32723
1966130;-0.05500;65.3125;113;67;0.32430
1966140;-0.04000;65.6250;113;67;0.32161
1966150;-0.03500;66.6875;113;67;0.31893
1966160;-0.01500;68.8125;113;67;0.31624
1966170;0.00000;77.0625;113;67;0.31306
1966180;0.02000;82.5000;113;67;0.31111
1966190;0.03500;87.9375;113;67;0.30891
1966200;0.06000;92.9375;113;67;0.30672
1966210;0.09000;100.8125;113;67;0.30256
1966220;0.11500;103.8125;113;67;0.30085
1966230;0.15000;106.3750;113;67;0.29939
1966240;0.18500;110.0625;113;67;0.29695
1966250;0.22500;111.0625;113;67;0.29548
1966260;0.25500;111.5625;113;67;0.29402
1966270;0.28500;111.6250;113;67;0.29328
1966280;0.29500;111.3125;113;67;0.29255
1966290;0.28500;111.1250;113;67;0.29158
1966300;0.24000;110.8750;113;67;0.29060
1966310;0.16000;110.5000;113;67;0.28938
1966320;0.09667;110.1042;113;67;0.28824
1966330;0.03500;109.6250;113;67;0.28718
1966340;-0.04000;109.0000;113;67;0.28620
1966350;-0.08500;108.2500;113;67;0.28547
1966360;-0.11500;107.5000;113;67;0.28498
1966370;-0.13500;105.5625;113;67;0.28449
1966380;-0.15000;104.3750;113;67;0.28474
1966390;-0.15500;102.9375;113;67;0.28425
1966400;-0.16000;99.5000;113;67;0.28278
1966410;-0.16000;97.5000;113;67;0.28230
1966420;-0.16000;95.2500;113;67;0.28376
1966430;-0.16000;92.9375;113;67;0.28669
1966440;-0.15500;90.5625;113;67;0.29011
1966450;-0.15000;86.7500;113;67;0.30476
1966460;-0.14500;85.7500;113;67;0.31697
1966470;-0.14500;85.4375;113;67;0.33333
1966480;-0.14500;85.5625;113;67;0.35067
1966490;-0.14500;86.1875;113;67;0.39414
1966500;-0.14000;86.3750;113;67;0.42222
1966510;-0.14000;86.5000;113;67;0.45250
1966520;-0.14000;86.5625;113;67;0.48400
1966530;-0.13500;86.6250;113;67;0.54725
1966540;-0.13000;86.5625;113;67;0.57729
1966550;-0.12500;86.4375;113;67;0.60586
1966560;-0.12500;86.1250;113;67;0.63248
1966570;-0.12500;85.2500;113;67;0.67521
1966580;-0.12500;84.7500;113;67;0.69035
1966590;-0.12500;84.2500;113;67;0.70598
1966600;-0.12500;83.1875;113;67;0.73382
1966610;-0.12500;82.7500;113;67;0.74530
1966620;-0.12000;82.3125;113;67;0.75482
1966630;-0.11500;81.8750;113;67;0.76239
1966640;-0.11500;81.4375;113;67;0.76777
1966650;-0.11500;80.5625;113;67;0.77289
1966660;-0.10500;80.1250;113;67;0.77289
1966670;-0.10500;79.6875;113;67;0.77094
1966680;-0.10000;79.3125;113;67;0.76679
1966690;-0.09500;78.6250;113;67;0.75433
1966700;-0.09500;78.2500;113;67;0.74603
1966710;-0.07500;77.8750;113;67;0.73626
1966720;-0.05500;77.5625;113;67;0.72527
1966730;-0.03000;76.8125;113;67;0.69963
1966740;-0.01500;76.5000;113;67;0.68547
1966750;-0.01000;76.1875;113;67;0.67131
1966760;0.00500;75.9375;113;67;0.65739
1966770;0.03000;75.3125;113;67;0.63223
1966780;0.02500;75.0625;113;67;0.62173
1966790;-0.01000;74.8125;113;67;0.61148
1966800;-0.01000;74.8125;113;67;0.61148
1966810;-0.06000;74.0000;113;67;0.58413
1966820;-0.07500;73.7500;113;67;0.57607
1966830;-0.09500;73.5000;113;67;0.56874
1966840;-0.10500;73.0625;113;67;0.55458
1966850;-0.11000;72.8125;113;67;0.54750
1966860;-0.10500;72.5625;113;67;0.54042
1966870;-0.10500;72.3750;113;67;0.53407
1966880;-0.10000;72.1875;113;67;0.52821
1966890;-0.09500;71.8750;113;67;0.51575
1966900;0.01500;71.6875;113;67;0.50965
1966910;0.53500;71.5625;113;67;0.50354
1966920;1.00500;71.3750;113;67;0.49719
1966930;1.04500;71.0000;113;67;0.48400
1966940;0.22000;70.8125;113;67;0.47741
1966950;-0.18500;70.6250;113;67;0.47057
1966960;-0.18500;70.5000;113;67;0.46374
1966970;-0.15500;70.1250;113;67;0.45128
1966980;-0.15500;69.9375;113;67;0.44591
1966990;-0.15500;69.6875;113;67;0.44029
1967000;-0.15500;69.1875;114;67;0.43468
1967010;-0.14500;68.9375;114;67;0.42320
1967020;-0.14000;68.7500;114;67;0.41758
1967030;-0.13500;68.5000;114;67;0.41050
1967040;-0.12500;68.2500;114;67;0.40415
1967050;-0.12000;67.7500;114;67;0.39414
1967060;-0.11000;67.5000;114;67;0.38926
1967070;-0.10500;67.2500;114;67;0.38535
1967080;-0.09500;66.8125;114;67;0.38193
1967090;-0.08500;66.5625;114;67;0.37265
1967100;-0.08000;66.3750;114;67;0.36752
1967110;-0.07000;66.2500;114;67;0.36239
1967120;-0.05500;66.0625;114;67;0.35751
1967130;-0.04500;66.0000;114;67;0.34847
1967140;-0.03500;66.1250;114;67;0.34481
1967150;-0.02500;66.6875;114;67;0.34139
1967160;-0.00500;71.0625;114;67;0.33504
1967170;0.00500;75.2500;114;67;0.33284
1967180;0.02000;80.3750;114;67;0.33114
1967190;0.05000;85.9375;114;67;0.32894
1967200;0.08000;95.9375;114;67;0.32405
1967210;0.10000;99.9375;114;67;0.32161
1967220;0.14000;103.3750;114;67;0.31917
1967230;0.16500;106.2500;114;67;0.31673
1967240;0.20000;108.6250;114;67;0.31429
1967250;0.23500;111.8125;114;67;0.30940
1967260;0.27000;112.6250;114;67;0.30720
1967270;0.29000;112.9375;114;67;0.30623
1967280;0.29500;113.0000;114;67;0.30574
1967290;0.28000;112.7500;114;67;0.30354
1967300;0.23500;112.5625;114;67;0.30256
1967310;0.16500;112.3125;114;67;0.30159
1967320;0.07000;111.6250;114;67;0.29963
1967330;0.01500;111.1250;114;67;0.29866
1967340;-0.04000;110.6250;114;67;0.29768
1967350;-0.08500;109.9375;114;67;0.29670
1967360;-0.10500;109.1875;114;67;0.29597
1967370;-0.12500;107.1875;114;67;0.29475
1967380;-0.14000;105.9375;114;67;0.29475
1967390;-0.14500;104.5000;114;67;0.29402
1967400;-0.14500;102.8750;114;67;0.29280
1967410;-0.14500;98.9375;114;67;0.29060
1967420;-0.14500;96.6250;114;67;0.29035
1967430;-0.14000;94.1875;114;67;0.29133
1967440;-0.14000;89.4375;114;67;0.30110
1967450;-0.14000;87.7500;114;67;0.31087
1967460;-0.14000;86.8125;114;67;0.32454
1967470;-0.13500;86.5625;114;67;0.33968
1967480;-0.13500;86.8125;114;67;0.35726
1967490;-0.13500;87.5000;114;67;0.40659
1967500;-0.12500;87.6875;114;67;0.43614
1967510;-0.12500;87.7500;114;67;0.46740
1967520;-0.12500;87.8750;114;67;0.49939
1967530;-0.12500;88.0000;114;67;0.56215
1967540;-0.12500;88.0000;114;67;0.59170
1967550;-0.12000;87.8125;114;67;0.61929
1967560;-0.12000;87.4375;114;67;0.64469
1967570;-0.11500;86.5000;114;67;0.68596
1967580;-0.11500;85.9375;114;67;0.70037
1967590;-0.11500;85.4375;114;67;0.71502
1967600;-0.11500;84.4375;114;67;0.72894
1967610;-0.11000;84.0000;114;67;0.75263
1967620;-0.10500;83.5000;114;67;0.76190
1967630;-0.09500;83.0625;114;67;0.76948
1967640;-0.09000;82.6875;114;67;0.77534
1967650;-0.08500;81.8125;114;67;0.78144
1967660;-0.08500;81.4375;114;67;0.78144
1967670;-0.08500;81.0625;114;67;0.77900
1967680;-0.08500;80.6875;114;67;0.77436
1967690;-0.08500;80.0000;114;67;0.76166
1967700;-0.07500;79.6250;114;67;0.75336
1967710;-0.05500;79.2500;114;67;0.74359
1967720;-0.03000;78.5000;114;67;0.71941
1967730;-0.00500;78.1875;114;67;0.70598
1967740;0.01000;77.8125;114;67;0.69182
1967750;0.01000;77.5000;114;67;0.67717
1967760;0.02500;77.2500;114;67;0.66300
1967770;0.05000;76.6875;114;67;0.63761
1967780;0.05000;76.4375;114;67;0.62686
1967790;0.02000;76.1875;114;67;0.61661
1967800;0.02000;76.1875;114;67;0.61661
1967810;-0.03500;75.4375;114;67;0.59048
1967820;-0.05500;75.1875;114;67;0.58291
1967830;-0.08500;74.9375;114;67;0.57582
1967840;-0.10000;74.5000;114;67;0.56215
1967850;-0.10500;74.3125;114;67;0.55556
1967860;-0.10000;74.0625;114;67;0.54921
1967870;-0.09500;73.8750;114;67;0.54335
1967880;-0.08500;73.6875;114;67;0.53797
1967890;-0.08000;73.3750;114;67;0.52576
1967900;0.07000;73.1875;114;67;0.51966
1967910;0.42000;72.9375;114;67;0.51331
1967920;1.05000;72.7500;114;67;0.50720
1967930;1.08500;72.5000;114;67;0.49475
1967940;0.47500;72.3750;114;67;0.48840
1967950;-0.10500;72.1875;114;67;0.48205
1967960;-0.16000;71.8125;114;67;0.46935
1967970;-0.14500;71.6250;114;67;0.46422
1967980;-0.15000;71.3750;114;67;0.45934
1967990;-0.15500;71.1875;114;67;0.45397
1968000;-0.15500;70.7500;114;67;0.44176
1968010;-0.15500;70.5625;114;67;0.43565
1968020;-0.14500;70.3125;114;67;0.42979
1968030;-0.13500;70.0625;114;67;0.42393
1968040;-0.12500;69.8125;114;67;0.41832
1968050;-0.11500;69.3750;114;67;0.40610
1968060;-0.10500;69.1875;114;67;0.40024
1968070;-0.10500;69.0000;114;67;0.39707
1968080;-0.09500;68.5000;114;67;0.39072
1968090;-0.08500;68.3125;114;67;0.38681
1968100;-0.07500;68.0625;114;67;0.38291
1968110;-0.06000;67.9375;114;67;0.37900
1968120;-0.05500;67.8750;114;67;0.37485
1968130;-0.04000;67.9375;114;67;0.36679
1968140;-0.02500;68.4375;114;67;0.36288
1968150;-0.01000;69.7500;114;67;0.35922
1968160;0.00000;72.3750;114;67;0.35556
1968170;0.01500;81.5625;114;67;0.34921
1968180;0.04000;87.3750;114;67;0.34725
1968190;0.05500;93.0625;114;67;0.34530
1968200;0.08500;98.1250;114;67;0.34359
1968210;0.12000;106.0625;114;67;0.33968
1968220;0.14500;109.1250;114;67;0.33797
1968230;0.17500;111.6875;114;67;0.33602
1968240;0.20500;113.7500;114;67;0.33431
1968250;0.23500;116.1875;114;67;0.33040
1968260;0.26000;116.7500;114;67;0.32869
1968270;0.28500;117.0000;114;67;0.32796
1968280;0.29000;117.0625;114;67;0.32747
1968290;0.27000;116.9375;114;67;0.32576
1968300;0.23500;116.8750;114;67;0.32503
1968310;0.16500;116.7500;114;67;0.32430
1968320;0.08000;116.3750;114;67;0.32283
1968330;0.02000;116.0000;114;67;0.32210
1968340;-0.03500;115.5625;114;67;0.32161
1968350;-0.08000;115.0000;114;67;0.32137
1968360;-0.10500;114.3125;114;67;0.32112
1968370;-0.12500;112.4375;114;67;0.32161
1968380;-0.14000;111.2500;114;67;0.32210
1968390;-0.14500;109.8750;114;67;0.32210
1968400;-0.15000;108.2500;114;67;0.32210
1968410;-0.15500;104.2500;114;67;0.32234
1968420;-0.15500;101.8750;114;67;0.32357
1968430;-0.15000;99.3125;114;67;0.32650
1968440;-0.14500;93.9375;114;67;0.34115
1968450;-0.14000;91.6250;114;67;0.35409
1968460;-0.13500;90.0000;114;67;0.37143
1968470;-0.13500;89.2500;114;67;0.38022
1968480;-0.12500;89.2500;114;67;0.38632
1968490;-0.12500;90.1250;114;67;0.43004
1968500;-0.12500;90.4375;114;67;0.45934
1968510;-0.12500;90.5625;114;67;0.49060
1968520;-0.12000;90.7500;114;67;0.52259
1968530;-0.12000;91.0000;114;67;0.58413
1968540;-0.11500;91.0000;114;67;0.61270
1968550;-0.11500;90.8750;114;67;0.63932
1968560;-0.11500;90.0625;114;67;0.68523
1968570;-0.11500;89.5000;114;67;0.70159
1968580;-0.11500;88.9375;114;67;0.71453
1968590;-0.11500;88.3750;114;67;0.72796
1968600;-0.11000;87.8750;114;67;0.74066
1968610;-0.10500;86.8125;114;67;0.76215
1968620;-0.10000;86.3125;114;67;0.77045
1968630;-0.09500;85.8125;114;67;0.77753
1968640;-0.09500;85.3125;114;67;0.78315
1968650;-0.09500;84.3750;114;67;0.78877
1968660;-0.09500;84.0000;114;67;0.78706
1968670;-0.09500;83.5625;114;67;0.78388
1968680;-0.09000;82.7500;114;67;0.78120
1968690;-0.09000;82.3750;114;67;0.76850
1968700;-0.09500;81.9375;114;67;0.75507
1968710;-0.09500;81.5625;114;67;0.73626
1968720;-0.08500;81.1875;114;67;0.71575
1968730;-0.06500;80.5000;114;67;0.70842
1968740;-0.03500;80.1875;114;67;0.73700
1968750;-0.01000;79.8125;114;67;0.77509
1968760;0.00000;79.1875;114;67;0.75067
1968770;0.00000;78.8750;114;67;0.62100
1968780;0.02000;78.6250;114;67;0.38999
1968790;0.04000;78.3750;114;67;0.19487
1968800;0.04000;78.3750;114;67;0.19487
1968810;0.00000;77.5625;114;67;0.02418
1968820;-0.02500;77.3125;114;67;0.01197
1968830;-0.06000;77.0625;114;67;0.00586
1968840;-0.09000;76.5625;114;67;0.00147
1968850;-0.10500;76.3125;114;67;0.00073
1968860;-0.11500;76.1250;114;67;0.00024
1968870;-0.12000;75.8750;114;67;0.00000
1968880;-0.11500;75.6250;114;67;0.00000
1968890;-0.11000;75.2500;114;67;0.00000
1968900;-0.10500;75.0625;114;67;0.00000
1968910;-0.09500;74.8750;114;67;0.00000
1968920;0.06000;74.6875;114;67;0.00000
1968930;0.72500;74.3125;114;67;0.00000
1968940;1.24500;74.1875;114;67;0.00000
1968950;1.12000;74.0000;114;67;0.00000
1968960;0.17500;73.6250;114;67;0.00000
1968970;-0.13500;73.4375;114;67;0.00000
1968980;-0.16000;73.2500;114;67;0.00000
1968990;-0.16000;73.0625;114;67;0.00000
1969000;-0.17000;72.8750;114;67;0.00000
1969010;-0.17500;72.5000;114;67;0.00000
1969020;-0.17500;72.2500;114;67;0.00000
1969030;-0.17000;72.0000;114;67;0.00000
1969040;-0.16000;71.7500;114;67;0.00000
1969050;-0.15500;71.3125;114;67;0.00000
1969060;-0.14500;71.0625;114;67;0.00000
1969070;-0.14500;70.8125;114;67;0.00000
1969080;-0.13500;70.6250;114;67;0.00000
1969090;-0.12500;70.1875;114;67;0.00000
1969100;-0.12000;69.9375;114;67;0.00000
1969110;-0.10000;69.6875;114;67;0.00000
1969120;-0.08500;69.4375;114;67;0.00000
1969130;-0.07500;69.1875;114;67;0.00000
1969140;-0.06500;69.1875;114;67;0.00000
1969150;-0.05000;69.4375;114;67;0.00000
1969160;-0.03500;70.1250;114;67;0.00000
1969170;-0.01500;74.7500;114;67;0.00000
1969180;0.00000;79.2500;114;67;0.00000
1969190;0.02000;84.9375;114;67;0.00000
1969200;0.04000;96.6875;114;67;0.00000
1969210;0.06000;101.6875;114;67;0.00000
1969220;0.09000;105.8125;114;67;0.00000
1969230;0.11500;109.3125;114;67;0.00000
1969240;0.14500;112.1875;114;67;0.00000
1969250;0.17500;116.6250;114;67;0.00000
1969260;0.21500;118.0625;114;67;0.00000
1969270;0.24000;118.8750;114;67;0.00000
1969280;0.27000;119.3125;114;67;0.00000
1969290;0.28500;119.5000;114;67;0.00000
1969300;0.28500;119.5000;114;67;0.00000
1969310;0.26500;119.5000;114;67;0.00000
1969320;0.20500;119.4375;114;67;0.00000
1969330;0.15000;119.3125;114;67;0.00000
1969340;0.06000;119.0625;114;67;0.00000
1969350;0.00500;118.7500;114;67;0.00000
1969360;-0.04500;118.3750;114;67;0.00000
1969370;-0.09500;117.2500;114;67;0.00000
1969380;-0.12000;116.4375;114;67;0.00000
1969390;-0.14000;115.5000;114;67;0.00000
1969400;-0.15500;112.9375;114;67;0.00000
1969410;-0.17000;111.3750;114;67;0.00000
1969420;-0.17000;109.5625;114;67;0.00000
1969430;-0.17500;107.4375;114;67;0.00000
1969440;-0.17000;105.1250;114;67;0.00000
1969450;-0.17000;100.0000;114;67;0.00000
1969460;-0.16500;97.5625;114;67;0.00000
1969470;-0.16000;95.5625;114;67;0.00000
1969480;-0.16000;94.1875;114;67;0.00000
1969490;-0.16000;93.0625;114;67;0.00000
1969500;-0.15500;92.9375;114;67;0.00000
1969510;-0.15500;92.8750;114;67;0.00000
1969520;-0.15000;92.8125;114;67;0.00000
1969530;-0.15000;92.8125;114;67;0.00000
1969540;-0.15000;92.8125;114;67;0.00000
1969550;-0.15000;92.6875;114;67;0.00440
1969560;-0.15000;92.1250;114;67;0.09182
1969570;-0.15000;91.6875;114;67;0.15067
1969580;-0.15000;91.1250;114;67;0.19609
1969590;-0.15500;90.5625;114;67;0.24957
1969600;-0.15000;90.0000;114;67;0.30403
1969610;-0.14500;88.8750;114;67;0.40635
1969620;-0.14500;88.2500;114;67;0.45226
1969630;-0.14500;87.6875;114;67;0.49402
1969640;-0.14000;87.1250;114;67;0.53162
1969650;-0.13500;86.0625;114;67;0.59389
1969660;-0.13500;85.5625;114;67;0.61905
1969670;-0.13500;85.0625;114;67;0.63761
1969680;-0.13500;84.5000;114;67;0.65104
1969690;-0.13500;83.5625;114;67;0.67277
1969700;-0.13000;83.1250;114;67;0.67692
1969710;-0.13000;82.6875;114;67;0.67692
1969720;-0.13000;81.8125;114;67;0.66520
1969730;-0.12500;81.4375;114;67;0.65372
1969740;-0.12500;81.0625;114;67;0.63907
1969750;-0.11500;80.6250;114;67;0.62198
1969760;-0.09500;80.2500;114;67;0.60293
1969770;-0.06000;79.5000;114;67;0.56630
1969780;-0.03500;79.1250;114;67;0.54676
1969790;-0.03500;78.8125;114;67;0.52747
1969800;-0.03500;78.8125;114;67;0.52747
1969810;-0.01500;77.8750;114;67;0.47033
1969820;0.00000;77.5000;114;67;0.45836
1969830;-0.01500;77.1875;114;67;0.44640
1969840;-0.04000;76.8750;114;67;0.43248
1969850;-0.07000;76.3125;114;67;0.41172
1969860;-0.10500;76.0000;114;67;0.40220
1969870;-0.12500;75.7500;114;67;0.39121
1969880;-0.13500;75.5000;114;67;0.38217
1969890;-0.14500;74.9375;114;67;0.36654
1969900;-0.14500;74.6250;114;67;0.35507
1969910;-0.13500;74.3750;114;67;0.34457
1969920;-0.12500;73.8750;114;67;0.33651
1969930;-0.12500;73.6875;114;67;0.30916
1969940;-0.09500;73.4375;114;67;0.29866
1969950;0.18500;73.2500;114;67;0.28694
1969960;0.90000;72.8125;114;67;0.26300
1969970;1.17000;72.5625;114;67;0.25153
1969980;0.54500;72.3750;114;67;0.23932
1969990;-0.02500;72.1875;114;67;0.22686
1970000;-0.22000;71.7500;113;67;0.21441
1970010;-0.19000;71.5625;113;67;0.19023
1970020;-0.18000;71.3750;113;67;0.18144
1970030;-0.18500;71.1250;113;67;0.17167
1970040;-0.18500;70.9375;113;67;0.15824
1970050;-0.18500;70.3750;113;67;0.13407
1970060;-0.17000;70.1250;113;67;0.12527
1970070;-0.16500;69.8125;113;67;0.11795
1970080;-0.15500;69.5625;113;67;0.10916
1970090;-0.14500;69.0625;113;67;0.09035
1970100;-0.14500;68.8125;113;67;0.08059
1970110;-0.13500;68.5000;113;67;0.07082
1970120;-0.12500;67.9375;113;67;0.05177
1970130;-0.12500;67.6875;113;67;0.04249
1970140;-0.11500;67.5000;113;67;0.03394
1970150;-0.10500;67.3125;113;67;0.02564
1970160;-0.09500;67.0625;113;67;0.01636
1970170;-0.08500;67.0000;113;67;0.01050
1970180;-0.07000;67.0000;113;67;0.00537
1970190;-0.04500;67.4375;113;67;0.00269
1970200;-0.03500;68.5625;113;67;0.00122
1970210;-0.02500;74.6250;113;67;0.00024
1970220;-0.00500;79.5625;113;67;0.00000
1970230;0.01500;85.0625;113;67;0.00000
1970240;0.03000;90.5000;113;67;0.00000
1970250;0.05500;99.5625;113;67;0.00000
1970260;0.09000;103.1250;113;67;0.00000
1970270;0.12000;106.1250;113;67;0.00000
1970280;0.16000;110.6250;113;67;0.00000
1970290;0.18500;112.1250;113;67;0.00000
1970300;0.21500;113.0625;113;67;0.00000
1970310;0.24000;113.5000;113;67;0.00000
1970320;0.25500;113.6250;113;67;0.00000
1970330;0.24500;113.3750;113;67;0.00000
1970340;0.20500;113.1875;113;67;0.00000
1970350;0.15500;113.0000;113;67;0.00000
1970360;0.07000;112.3125;113;67;0.00000
1970370;0.01000;111.8750;113;67;0.00000
1970380;-0.05500;111.3125;113;67;0.00000
1970390;-0.11000;110.6875;113;67;0.00000
1970400;-0.13500;109.9375;113;67;0.00000
1970410;-0.15500;107.9375;113;67;0.00000
1970420;-0.17000;106.6875;113;67;0.00000
1970430;-0.17500;105.2500;113;67;0.00000
1970440;-0.18000;103.6250;113;67;0.00000
1970450;-0.18500;99.6875;113;67;0.00000
1970460;-0.18000;97.3125;113;67;0.00000
1970470;-0.18000;94.8125;113;67;0.00000
1970480;-0.17500;92.1875;113;67;0.00000
1970490;-0.17500;87.6250;113;67;0.00366
1970500;-0.17000;86.1875;113;67;0.02051
1970510;-0.17000;85.6250;113;67;0.19658
1970520;-0.16000;85.6875;113;67;0.44225
1970530;-0.15500;86.5625;113;67;0.63419
1970540;-0.15500;86.8750;113;67;0.67033
1970550;-0.15000;87.0000;113;67;0.69158
1970560;-0.14500;87.3125;113;67;0.71331
1970570;-0.14500;87.4375;113;67;0.72063
1970580;-0.14000;87.4375;113;67;0.72698
1970590;-0.14000;87.3125;113;67;0.73260
1970600;-0.14000;86.6250;113;67;0.74212
1970610;-0.14000;86.1250;113;67;0.74603
1970620;-0.14000;85.5625;113;67;0.74945
1970630;-0.13500;85.0000;113;67;0.75263
1970640;-0.13500;83.8750;113;67;0.75751
1970650;-0.13500;83.3750;113;67;0.75897
1970660;-0.12500;82.8750;113;67;0.75995
1970670;-0.12000;82.4375;113;67;0.76093
1970680;-0.11500;81.9375;113;67;0.76166
1970690;-0.11000;81.1250;113;67;0.76239
1970700;-0.11000;80.6875;113;67;0.76215
1970710;-0.11000;80.3125;113;67;0.76166
1970720;-0.11000;79.5000;113;67;0.75946
1970730;-0.10500;79.1250;113;67;0.75775
1970740;-0.10500;78.7500;113;67;0.75580
1970750;-0.10000;78.3750;113;67;0.75336
1970760;-0.08500;78.0000;113;67;0.75092
1970770;-0.05500;77.2500;113;67;0.74579
1970780;-0.02500;76.9375;113;67;0.74310
1970790;-0.01500;76.6250;113;67;0.74017
1970800;-0.01500;76.3125;113;67;0.73724
1970810;-0.00500;75.6875;113;67;0.73211
1970820;-0.00500;75.6875;113;67;0.73211
1970830;0.02000;75.1875;113;67;0.72772
1970840;-0.00500;74.9375;113;67;0.72601
1970850;-0.03500;74.3750;113;67;0.72283
1970860;-0.06500;74.1250;113;67;0.72161
1970870;-0.08500;73.8750;113;67;0.72039
1970880;-0.10500;73.4375;113;67;0.71941
1970890;-0.12000;73.1875;113;67;0.71722
1970900;-0.12000;72.9375;113;67;0.71600
1970910;-0.11500;72.6875;113;67;0.71477
1970920;-0.11000;72.5000;113;67;0.71380
1970930;-0.10500;72.0625;113;67;0.71136
1970940;-0.08500;71.8750;113;67;0.71013
1970950;0.02000;71.6875;113;67;0.70891
1970960;0.43500;71.3750;113;67;0.70696
1970970;1.07500;71.1875;113;67;0.70574
1970980;1.01000;71.0625;113;67;0.70452
1970990;0.30500;70.8750;113;67;0.70330
1971000;-0.20500;70.5000;113;67;0.70085
1971010;-0.19000;70.3125;113;67;0.69963
1971020;-0.15500;70.1250;113;67;0.69841
1971030;-0.15500;69.8750;113;67;0.69744
1971040;-0.16000;69.6875;113;67;0.69621
1971050;-0.15500;69.2500;113;67;0.69426
1971060;-0.15000;69.0000;113;67;0.69353
1971070;-0.14500;68.7500;113;67;0.69255
1971080;-0.13500;68.3125;113;67;0.69060
1971090;-0.12500;68.0625;113;67;0.68962
1971100;-0.12000;67.8125;113;67;0.68864
1971110;-0.11000;67.5000;113;67;0.68767
1971120;-0.10500;67.0000;113;67;0.68669
1971130;-0.09000;66.7500;113;67;0.68498
1971140;-0.08500;66.5000;113;67;0.68425
1971150;-0.07500;66.3125;113;67;0.68352
1971160;-0.06500;66.1250;113;67;0.68254
1971170;-0.05500;66.0625;113;67;0.68205
1971180;-0.04500;65.9375;113;67;0.68156
1971190;-0.03500;65.8750;113;67;0.68083
1971200;-0.02500;66.1875;113;67;0.68034
1971210;-0.00500;69.4375;113;67;0.67937
1971220;0.00500;72.8750;113;67;0.67888
1971230;0.02000;77.4375;113;67;0.67839
1971240;0.04500;87.8750;113;67;0.67741
1971250;0.07000;92.6875;113;67;0.67692
1971260;0.09000;96.8125;113;67;0.67668
1971270;0.12000;100.3750;113;67;0.67643
1971280;0.16000;105.7500;113;67;0.67570
1971290;0.19000;107.6875;113;67;0.67546
1971300;0.22500;109.1250;113;67;0.67521
1971310;0.25500;110.0000;113;67;0.67497
1971320;0.27500;110.3750;113;67;0.67473
1971330;0.28500;110.1875;113;67;0.67424
1971340;0.26000;109.8750;113;67;0.67399
1971350;0.22000;109.5000;113;67;0.67375
1971360;0.14500;109.1250;113;67;0.67375
1971370;0.07000;108.1250;113;67;0.67399
1971380;-0.01000;107.5625;113;67;0.67375
1971390;-0.05500;106.8750;113;67;0.67375
1971400;-0.09500;106.0625;113;67;0.67350
1971410;-0.13000;104.1250;113;67;0.67326
1971420;-0.14500;103.0000;113;67;0.67302
1971430;-0.15500;101.6250;113;67;0.67302
1971440;-0.16000;98.3750;113;67;0.67277
1971450;-0.16500;96.3750;113;67;0.67277
1971460;-0.17000;94.2500;113;67;0.67302
1971470;-0.17000;91.9375;113;67;0.67326
1971480;-0.16500;87.4375;113;67;0.67448
1971490;-0.16000;85.7500;113;67;0.67570
1971500;-0.15500;84.6875;113;67;0.67766
1971510;-0.15500;84.3750;113;67;0.68059
1971520;-0.15500;84.5000;113;67;0.68400
1971530;-0.15500;85.1250;113;67;0.69353
1971540;-0.15000;85.3125;113;67;0.69915
1971550;-0.14500;85.4375;113;67;0.70501
1971560;-0.14000;85.5000;113;67;0.71013
1971570;-0.13500;85.5625;113;67;0.72088
1971580;-0.13500;85.5625;113;67;0.72650
1971590;-0.13000;85.3750;113;67;0.73211
1971600;-0.13000;84.7500;113;67;0.73724
1971610;-0.13000;84.2500;113;67;0.74652
1971620;-0.13000;83.7500;113;67;0.75043
1971630;-0.13000;83.2500;113;67;0.75385
1971640;-0.12500;82.2500;113;67;0.75678
1971650;-0.12500;81.8125;113;67;0.76093
1971660;-0.12500;81.3125;113;67;0.76215
1971670;-0.12000;80.8750;113;67;0.76337
1971680;-0.11500;80.0000;113;67;0.76435
1971690;-0.11000;79.6250;113;67;0.76508
1971700;-0.10500;79.1875;113;67;0.76508
1971710;-0.10500;78.8125;113;67;0.76484
1971720;-0.10500;78.0625;113;67;0.76288
1971730;-0.10500;77.6875;113;67;0.76142
1971740;-0.10000;77.3125;113;67;0.75971
1971750;-0.10000;77.0000;113;67;0.75751
1971760;-0.09500;76.3750;113;67;0.75287
1971770;-0.08000;76.0625;113;67;0.75043
1971780;-0.05500;75.7500;113;67;0.74774
1971790;-0.02500;75.3750;113;67;0.74505
1971800;-0.02500;75.3750;113;67;0.74505
1971810;0.00000;74.5625;113;67;0.73773
1971820;0.01000;74.3125;113;67;0.73553
1971830;0.03000;74.0000;113;67;0.73358
1971840;0.02500;73.5000;113;67;0.73040
1971850;0.00000;73.2500;113;67;0.72894
1971860;-0.03000;73.0000;113;67;0.72772
1971870;-0.05500;72.7500;113;67;0.72650
1971880;-0.08500;72.3125;113;67;0.72405
1971890;-0.10500;72.0625;113;67;0.72283
1971900;-0.11000;71.8125;113;67;0.72186
1971910;-0.11500;71.6250;113;67;0.72063
1971920;-0.11000;71.2500;113;67;0.71819
1971930;-0.10000;71.0625;113;67;0.71697
1971940;-0.09000;70.8750;113;67;0.71575
1971950;-0.05500;70.6875;113;67;0.71477
1971960;0.10000;70.5000;113;67;0.71380
1971970;0.70500;70.1875;113;67;0.71160
1971980;1.10000;70.0625;113;67;0.71038
1971990;0.90000;69.8750;113;67;0.70916
1972000;0.02000;69.5625;113;67;0.70672
1972010;-0.19000;69.3750;113;67;0.70549
1972020;-0.15500;69.2500;113;67;0.70427
1972030;-0.15000;69.0625;113;67;0.70305
1972040;-0.15500;68.8125;113;67;0.70183
1972050;-0.15500;68.3750;113;67;0.69988
1972060;-0.15000;68.1250;113;67;0.69915
1972070;-0.14000;67.8750;113;67;0.69817
1972080;-0.13000;67.6875;113;67;0.69719
1972090;-0.12000;67.1875;113;67;0.69524
1972100;-0.11000;67.0000;113;67;0.69426
1972110;-0.10000;66.7500;113;67;0.69328
1972120;-0.09500;66.3125;113;67;0.69231
1972130;-0.09000;66.0625;113;67;0.69035
1972140;-0.08500;65.8125;113;67;0.68962
1972150;-0.08000;65.5625;113;67;0.68864
1972160;-0.07000;65.1875;113;67;0.68767
1972170;-0.06500;65.1250;113;67;0.68694
1972180;-0.05500;65.0000;113;67;0.68620
1972190;-0.04000;65.0000;113;67;0.68547
1972200;-0.02500;65.6875;113;67;0.68425
1972210;-0.01500;67.1250;113;67;0.68352
1972220;0.00000;69.7500;113;67;0.68303
1972230;0.01500;73.6875;113;67;0.68254
1972240;0.03000;78.6875;113;67;0.68205
1972250;0.05500;89.3125;113;67;0.68107
1972260;0.07000;93.9375;113;67;0.68083
1972270;0.09500;97.8750;113;67;0.68059
1972280;0.13000;103.9375;113;67;0.67985
1972290;0.15500;106.3125;113;67;0.67961
1972300;0.19000;108.1250;113;67;0.67937
1972310;0.22500;109.4375;113;67;0.67888
1972320;0.25500;110.2500;113;67;0.67863
1972330;0.28000;110.5000;113;67;0.67814
1972340;0.28000;110.3125;113;67;0.67790
1972350;0.26000;110.0625;113;67;0.67790
1972360;0.19500;109.4375;113;67;0.67790
1972370;0.14000;109.0000;113;67;0.67766
1972380;0.06500;108.5625;113;67;0.67741
1972390;-0.01500;108.0000;113;67;0.67717
1972400;-0.05500;107.3125;113;67;0.67692
1972410;-0.10500;105.6875;113;67;0.67668
1972420;-0.12500;104.6875;113;67;0.67643
1972430;-0.14500;103.5000;113;67;0.67643
1972440;-0.15500;100.6875;113;67;0.67619
1972450;-0.16000;99.0000;113;67;0.67619
1972460;-0.16000;97.0625;113;67;0.67643
1972470;-0.16000;95.0000;113;67;0.67643
1972480;-0.16000;90.4375;113;67;0.67717
1972490;-0.16000;88.1875;113;67;0.67814
1972500;-0.15500;86.4375;113;67;0.67985
1972510;-0.15000;85.3125;113;67;0.68205
1972520;-0.14500;84.9375;113;67;0.68523
1972530;-0.14500;85.1875;113;67;0.69377
1972540;-0.14500;85.4375;113;67;0.69890
1972550;-0.14500;85.5625;113;67;0.70403
1972560;-0.14000;85.6875;113;67;0.57900
1972570;-0.13500;85.7500;113;67;0.55995
1972580;-0.13500;85.7500;113;67;0.56703
1972590;-0.13000;85.7500;113;67;0.58632
1972600;-0.13000;85.3125;113;67;0.63565
1972610;-0.12500;84.9375;113;67;0.66007
1972620;-0.12500;84.4375;113;67;0.68278
1972630;-0.12500;83.9375;113;67;0.70354
1972640;-0.12000;83.4375;113;67;0.72186
1972650;-0.11500;82.5000;113;67;0.74896
1972660;-0.11500;82.0000;113;67;0.75702
1972670;-0.11500;81.5625;113;67;0.76484
1972680;-0.11500;81.1250;113;67;0.77167
1972690;-0.11500;80.1875;113;67;0.78095
1972700;-0.11000;79.7500;113;67;0.78291
1972710;-0.11000;79.3750;113;67;0.78291
1972720;-0.10500;79.0000;113;67;0.78120
1972730;-0.09500;78.2500;113;67;0.77143
1972740;-0.09500;77.8750;113;67;0.76361
1972750;-0.09000;77.5000;113;67;0.75433
1972760;-0.09000;76.8750;113;67;0.73162
1972770;-0.08500;76.5000;113;67;0.71819
1972780;-0.06500;76.1875;113;67;0.70379
1972790;-0.03500;75.8125;113;67;0.68889
1972800;-0.01500;75.5000;113;67;0.67424
1972810;-0.00500;74.9375;113;67;0.64591
1972820;0.00000;74.6875;113;67;0.63297
1972830;0.02000;74.3750;113;67;0.62125
1972840;0.04000;73.8125;113;67;0.60049
1972850;0.02500;73.6250;113;67;0.59194
1972860;0.00000;73.3750;113;67;0.58413
1972870;-0.02500;73.1250;113;67;0.57631
1972880;-0.05500;72.6250;113;67;0.56142
1972890;-0.07500;72.3750;113;67;0.55409
1972900;-0.10000;72.1250;113;67;0.54701
1972910;-0.10500;71.9375;113;67;0.53993
1972920;-0.10500;71.6875;113;67;0.53309
1972930;-0.10500;71.2500;113;67;0.51941
1972940;-0.10000;71.0625;113;67;0.51233
1972950;-0.09000;70.8750;113;67;0.50598
1972960;-0.06500;70.6875;113;67;0.50012
1972970;0.21500;70.3750;113;67;0.48620
1972980;0.64000;70.1875;113;67;0.47912
1972990;1.13500;70.0000;113;67;0.47204
1973000;0.70000;69.6875;113;67;0.45788
1973010;0.09500;69.5625;113;67;0.45079
1973020;-0.19000;69.3750;113;67;0.44396
1973030;-0.15500;69.1875;113;67;0.43712
1973040;-0.14500;69.0000;113;67;0.43028
1973050;-0.15500;68.6250;113;67;0.41832
1973060;-0.15500;68.3750;113;67;0.41343
1973070;-0.15000;68.1875;113;67;0.40781
1973080;-0.14500;67.9375;113;67;0.40220
1973090;-0.14000;67.5000;113;67;0.39023
1973100;-0.12500;67.2500;113;67;0.38413
1973110;-0.11500;67.0000;113;67;0.37802
1973120;-0.11000;66.6875;113;67;0.37241
1973130;-0.10000;66.2500;113;67;0.36166
1973140;-0.09500;66.0000;113;67;0.35678
1973150;-0.09000;65.7500;113;67;0.35287
1973160;-0.08500;65.3750;113;67;0.34579
1973170;-0.07500;65.1875;113;67;0.34164
1973180;-0.06500;65.1250;113;67;0.33748
1973190;-0.06000;65.0625;113;67;0.33333
1973200;-0.05500;65.1875;113;67;0.32552
1973210;-0.04500;65.8125;113;67;0.32186
1973220;-0.03500;67.3750;113;67;0.31844
1973230;-0.01500;70.1875;113;67;0.31502
1973240;-0.00500;74.3125;113;67;0.31160
1973250;0.01000;84.9375;113;67;0.30647
1973260;0.02500;90.2500;113;67;0.30501
1973270;0.05000;94.9375;113;67;0.30305
1973280;0.06500;98.8750;113;67;0.30085
1973290;0.09500;105.0625;113;67;0.29646
1973300;0.12500;107.4375;113;67;0.29426
1973310;0.15500;109.2500;113;67;0.29231
1973320;0.19500;111.2500;113;67;0.28889
1973330;0.22500;111.5000;113;67;0.28718
1973340;0.24500;111.5000;113;67;0.28571
1973350;0.25000;111.3125;113;67;0.28523
1973360;0.22500;111.1250;113;67;0.28523
1973370;0.17500;110.5625;113;67;0.28376
1973380;0.09000;110.2500;113;67;0.28278
1973390;0.02500;109.8125;113;67;0.28156
1973400;-0.04500;108.7500;113;67;0.28034
1973410;-0.10500;108.0625;113;67;0.27790
1973420;-0.13500;107.2500;113;67;0.27692
1973430;-0.15500;106.3125;113;67;0.27595
1973440;-0.17000;103.9375;113;67;0.27424
1973450;-0.18000;102.5000;113;67;0.27424
1973460;-0.19000;100.8125;113;67;0.27473
1973470;-0.20000;98.9375;113;67;0.27448
1973480;-0.20000;96.8750;113;67;0.27448
1973490;-0.20500;92.0625;113;67;0.27814
1973500;-0.20500;89.5000;113;67;0.28352
1973510;-0.20000;87.1875;113;67;0.29231
1973520;-0.19000;84.1250;113;67;0.30501
1973530;-0.19000;83.7500;113;67;0.34383
1973540;-0.19000;84.0625;113;67;0.36972
1973550;-0.19000;84.6250;113;67;0.39512
1973560;-0.19000;85.4375;113;67;0.45177
1973570;-0.18500;85.5625;113;67;0.48498
1973580;-0.18500;85.6250;113;67;0.51917
1973590;-0.18000;85.6875;113;67;0.55336
1973600;-0.18000;85.7500;113;67;0.58657
1973610;-0.17500;85.6250;113;67;0.64689
1973620;-0.17000;85.3750;113;67;0.67326
1973630;-0.17000;84.9375;113;67;0.69695
1973640;-0.16500;84.4375;113;67;0.71819
1973650;-0.16000;83.3125;113;67;0.75043
1973660;-0.15500;82.7500;113;67;0.76068
1973670;-0.15500;82.2500;113;67;0.77094
1973680;-0.15000;81.3125;113;67;0.78803
1973690;-0.15000;80.8750;113;67;0.79414
1973700;-0.15000;80.4375;113;67;0.79829
1973710;-0.14500;80.0000;113;67;0.80073
1973720;-0.14000;79.5625;113;67;0.80122
1973730;-0.13500;78.7500;113;67;0.79634
1973740;-0.13500;78.3750;113;67;0.79072
1973750;-0.12500;78.0000;113;67;0.78339
1973760;-0.12000;77.3125;113;67;0.76386
1973770;-0.11500;76.9375;113;67;0.75140
1973780;-0.10500;76.6250;113;67;0.73724
1973790;-0.07500;76.2500;113;67;0.72210
1973800;-0.07500;76.2500;113;67;0.72210
1973810;-0.03500;75.3125;113;67;0.67350
1973820;-0.03000;75.0000;113;67;0.65788
1973830;-0.01000;74.6875;113;67;0.64322
1973840;0.00500;74.4375;113;67;0.62955
1973850;0.01000;73.8750;113;67;0.60659
1973860;-0.00500;73.6250;113;67;0.59731
1973870;-0.04000;73.3750;113;67;0.58828
1973880;-0.06500;73.1250;113;67;0.57998
1973890;-0.08500;72.6250;113;67;0.56484
1973900;-0.10500;72.3750;113;67;0.55751
1973910;-0.12000;72.1875;113;67;0.55043
1973920;-0.12000;72.0000;113;67;0.54335
1973930;-0.11500;71.6875;113;67;0.52918
1973940;-0.10500;71.5000;113;67;0.52234
1973950;-0.09500;71.3750;113;67;0.51600
1973960;-0.09000;71.1875;113;67;0.51013
1973970;0.01500;70.8750;113;67;0.49670
1973980;0.30000;70.6875;113;67;0.48962
1973990;1.00000;70.5625;113;67;0.48230
1974000;1.14500;70.4375;114;67;0.47497
1974010;0.56500;70.1250;114;67;0.46032
1974020;-0.14500;70.0000;114;67;0.45299
1974030;-0.19000;69.8125;114;67;0.44567
1974040;-0.15000;69.6250;114;67;0.43834
1974050;-0.14500;69.2500;114;67;0.42564
1974060;-0.14500;69.0625;114;67;0.42051
1974070;-0.14500;68.8750;114;67;0.41465
1974080;-0.14000;68.4375;114;67;0.40269
1974090;-0.13500;68.2500;114;67;0.39683
1974100;-0.12500;68.0625;114;67;0.39096
1974110;-0.11500;67.8125;114;67;0.38535
1974120;-0.11000;67.3125;114;67;0.37436
1974130;-0.10500;67.0625;114;67;0.36874
1974140;-0.10000;66.8750;114;67;0.36337
1974150;-0.09500;66.6250;114;67;0.35922
1974160;-0.09000;66.3750;114;67;0.35556
1974170;-0.08000;66.0625;114;67;0.34676
1974180;-0.06500;65.9375;114;67;0.34212
1974190;-0.05000;65.8750;114;67;0.33773
1974200;-0.03500;65.9375;114;67;0.33358
1974210;-0.02500;66.3125;114;67;0.32601
1974220;-0.01500;67.3750;114;67;0.32259
1974230;0.00000;69.6875;114;67;0.31917
1974240;0.01000;73.3125;114;67;0.31600
1974250;0.03000;83.6875;114;67;0.31282
1974260;0.05000;89.1875;114;67;0.31087
1974270;0.07500;94.2500;114;67;0.30867
1974280;0.10000;102.2500;114;67;0.30379
1974290;0.13000;105.3750;114;67;0.30159
1974300;0.15500;108.0000;114;67;0.29939
1974310;0.19500;110.1250;114;67;0.29744
1974320;0.22500;111.6875;114;67;0.29573
1974330;0.25500;113.3125;114;67;0.29255
1974340;0.28500;113.5000;114;67;0.29109
1974350;0.29500;113.4375;114;67;0.29084
1974360;0.28500;113.3125;114;67;0.29109
1974370;0.24500;112.9375;114;67;0.29035
1974380;0.17000;112.7500;114;67;0.28987
1974390;0.11000;112.4375;114;67;0.28913
1974400;0.03000;112.1250;114;67;0.28840
1974410;-0.03500;111.1250;114;67;0.28645
1974420;-0.07500;110.4375;114;67;0.28547
1974430;-0.11500;109.6250;114;67;0.28474
1974440;-0.12500;108.6875;114;67;0.28400
1974450;-0.13500;106.3750;114;67;0.28449
1974460;-0.14500;104.8750;114;67;0.28449
1974470;-0.15000;103.1875;114;67;0.28425
1974480;-0.14500;99.1250;114;67;0.28425
1974490;-0.14000;96.8125;114;67;0.28767
1974500;-0.14000;94.3750;114;67;0.29231
1974510;-0.14000;92.0625;114;67;0.29988
1974520;-0.13500;90.0000;114;67;0.31136
1974530;-0.13500;87.9375;114;67;0.34725
1974540;-0.13500;87.8750;114;67;0.37167
1974550;-0.13500;88.0625;114;67;0.39609
1974560;-0.13000;88.3125;114;67;0.42149
1974570;-0.12500;88.5000;114;67;0.48498
1974580;-0.12000;88.5625;114;67;0.51966
1974590;-0.11500;88.5625;114;67;0.55458
1974600;-0.11000;88.6250;114;67;0.58877
1974610;-0.10500;88.4375;114;67;0.62295
1974620;-0.10500;88.1875;114;67;0.64176
1974630;-0.10500;87.7500;114;67;0.66203
1974640;-0.10500;86.7500;114;67;0.68181
1974650;-0.10000;86.2500;114;67;0.70940
1974660;-0.10000;85.7500;114;67;0.72234
1974670;-0.09500;85.3125;114;67;0.73455
1974680;-0.10000;84.3125;114;67;0.75458
1974690;-0.09500;83.8750;114;67;0.76215
1974700;-0.09500;83.3750;114;67;0.76801
1974710;-0.09500;82.9375;114;67;0.77192
1974720;-0.09500;82.5000;114;67;0.77411
1974730;-0.09500;81.6875;114;67;0.77338
1974740;-0.08500;81.3125;114;67;0.77021
1974750;-0.08500;80.9375;114;67;0.76484
1974760;-0.08500;80.1875;114;67;0.74945
1974770;-0.08000;79.8125;114;67;0.73944
1974780;-0.07500;79.4375;114;67;0.72821
1974790;-0.06000;79.0625;114;67;0.71551
1974800;-0.06000;79.0625;114;67;0.71551
1974810;0.00000;78.1875;114;67;0.67326
1974820;0.01000;77.8750;114;67;0.65910
1974830;0.01000;77.5625;114;67;0.64542
1974840;0.02500;77.3125;114;67;0.63248
1974850;0.05000;76.7500;114;67;0.61074
1974860;0.04500;76.4375;114;67;0.60073
1974870;0.02000;76.1875;114;67;0.59121
1974880;-0.01000;75.9375;114;67;0.58242
1974890;-0.03500;75.4375;114;67;0.56630
1974900;-0.06000;75.2500;114;67;0.55897
1974910;-0.08000;75.0000;114;67;0.55189
1974920;-0.09000;74.5625;114;67;0.54481
1974930;-0.09500;74.3125;114;67;0.53114
1974940;-0.09500;74.1250;114;67;0.52430
1974950;-0.08500;73.8750;114;67;0.51795
1974960;-0.08500;73.5625;114;67;0.50525
1974970;-0.07500;73.3750;114;67;0.49841
1974980;0.09000;73.1875;114;67;0.49133
1974990;0.75000;73.0000;114;67;0.48449
1975000;1.22000;72.8125;114;67;0.47766
1975010;0.93000;72.4375;114;67;0.46398
1975020;0.28000;72.3125;114;67;0.45714
1975030;-0.14500;72.1250;114;67;0.45055
1975040;-0.14500;71.8125;114;67;0.43810
1975050;-0.14000;71.6250;114;67;0.43297
1975060;-0.14500;71.5000;114;67;0.42711
1975070;-0.15000;71.3125;114;67;0.42125
1975080;-0.15000;70.8125;114;67;0.40952
1975090;-0.14500;70.5625;114;67;0.40366
1975100;-0.14500;70.3125;114;67;0.39780
1975110;-0.13500;70.0625;114;67;0.39219
1975120;-0.13500;69.8750;114;67;0.38657
1975130;-0.12500;69.4375;114;67;0.37607
1975140;-0.12500;69.2500;114;67;0.37094
1975150;-0.11500;69.0000;114;67;0.36703
1975160;-0.10000;68.5000;114;67;0.35995
1975170;-0.09000;68.2500;114;67;0.35604
1975180;-0.07500;68.0625;114;67;0.35189
1975190;-0.06000;68.0000;114;67;0.34774
1975200;-0.04500;68.0000;114;67;0.34359
1975210;-0.02500;68.4375;114;67;0.33626
1975220;-0.01500;69.5000;114;67;0.33284
1975230;0.00000;71.6875;114;67;0.32943
1975240;0.01500;80.3750;114;67;0.32405
1975250;0.02500;86.1250;114;67;0.32234
1975260;0.04000;91.9375;114;67;0.32039
1975270;0.07000;97.1875;114;67;0.31795
1975280;0.09000;101.6875;114;67;0.31551
1975290;0.11500;108.6250;114;67;0.31136
1975300;0.14500;111.3125;114;67;0.30916
1975310;0.18500;113.5625;114;67;0.30720
1975320;0.21000;115.2500;114;67;0.30525
1975330;0.24500;117.0000;114;67;0.30232
1975340;0.27000;117.2500;114;67;0.30110
1975350;0.28500;117.3750;114;67;0.30085
1975360;0.29000;117.3125;114;67;0.30061
1975370;0.27500;117.2500;114;67;0.30037
1975380;0.23500;117.1250;114;67;0.29988
1975390;0.15000;117.0000;114;67;0.29939
1975400;0.09000;116.8125;114;67;0.29890
1975410;0.01500;116.1250;114;67;0.29768
1975420;-0.05000;115.6250;114;67;0.29719
1975430;-0.08000;114.9375;114;67;0.29646
1975440;-0.10500;113.3125;114;67;0.29597
1975450;-0.13000;112.1875;114;67;0.29621
1975460;-0.14500;110.9375;114;67;0.29597
1975470;-0.15500;109.3750;114;67;0.29548
1975480;-0.16000;105.5625;114;67;0.29548
1975490;-0.16000;103.2500;114;67;0.29744
1975500;-0.16000;100.8125;114;67;0.30159
1975510;-0.15500;98.1875;114;67;0.30867
1975520;-0.15000;95.6875;114;67;0.31917
1975530;-0.15000;91.9375;114;67;0.35263
1975540;-0.15000;91.0625;114;67;0.37534
1975550;-0.14500;90.8750;114;67;0.39756
1975560;-0.14500;91.1875;114;67;0.44835
1975570;-0.14500;91.3125;114;67;0.47888
1975580;-0.14500;91.3750;114;67;0.51087
1975590;-0.14500;91.4375;114;67;0.54286
1975600;-0.14000;91.5625;114;67;0.57411
1975610;-0.13500;91.6250;114;67;0.63175
1975620;-0.13500;91.4375;114;67;0.65763
1975630;-0.13500;91.1250;114;67;0.68132
1975640;-0.13500;90.6250;114;67;0.70256
1975650;-0.13000;89.6250;114;67;0.73089
1975660;-0.13000;89.0625;114;67;0.74359
1975670;-0.13000;88.5625;114;67;0.75580
1975680;-0.12000;87.5625;114;67;0.77631
1975690;-0.11500;87.0000;114;67;0.78413
1975700;-0.11500;86.5000;114;67;0.78999
1975710;-0.11500;86.0000;114;67;0.79438
1975720;-0.11500;85.0625;114;67;0.79805
1975730;-0.11000;84.6250;114;67;0.79731
1975740;-0.10500;84.1875;114;67;0.79487
1975750;-0.10500;83.7500;114;67;0.79023
1975760;-0.10500;83.3750;114;67;0.78364
1975770;-0.10500;82.5625;114;67;0.76654
1975780;-0.10000;82.1875;114;67;0.75580
1975790;-0.10000;81.8125;114;67;0.74335
1975800;-0.09500;81.1250;114;67;0.71526
1975810;-0.07500;80.7500;114;67;0.70012
1975820;-0.04500;80.4375;114;67;0.68498
1975830;-0.01000;80.0625;114;67;0.67009
1975840;0.00500;79.4375;114;67;0.65568
1975850;0.00500;79.1875;114;67;0.63101
1975860;0.01500;78.9375;114;67;0.61929
1975870;0.03000;78.6875;114;67;0.60830
1975880;0.04000;78.1250;114;67;0.59805
1975890;0.01000;77.8750;114;67;0.57973
1975900;-0.01000;77.6250;114;67;0.57143
1975910;-0.04500;77.4375;114;67;0.56361
1975920;-0.08000;76.8750;114;67;0.54921
1975930;-0.09500;76.6250;114;67;0.54212
1975940;-0.10500;76.3750;114;67;0.53553
1975950;-0.10500;76.1250;114;67;0.52918
1975960;-0.10500;75.9375;114;67;0.52259
1975970;-0.09500;75.5000;114;67;0.50867
1975980;-0.09500;75.3125;114;67;0.50134
1975990;-0.08500;75.1250;114;67;0.49426
1976000;0.02000;74.9375;114;67;0.48718
1976010;0.50500;74.6250;114;67;0.47302
1976020;1.29500;74.4375;114;67;0.46593
1976030;1.26000;74.2500;114;67;0.45910
1976040;0.48500;74.0625;114;67;0.45226
1976050;-0.08500;73.7500;114;67;0.44127
1976060;-0.14500;73.5625;114;67;0.43565
1976070;-0.14500;73.3750;114;67;0.42979
1976080;-0.16000;73.1875;114;67;0.42369
1976090;-0.16500;72.8125;114;67;0.41172
1976100;-0.16000;72.5625;114;67;0.40610
1976110;-0.16000;72.3125;114;67;0.40049
1976120;-0.15500;71.8125;114;67;0.39512
1976130;-0.14500;71.5625;114;67;0.38437
1976140;-0.14500;71.3125;114;67;0.37998
1976150;-0.13500;71.0000;114;67;0.37607
1976160;-0.13000;70.4375;114;67;0.36703
1976170;-0.12500;70.1250;114;67;0.36239
1976180;-0.11500;69.7500;114;67;0.35800
1976190;-0.10500;69.4375;114;67;0.35360
1976200;-0.09500;69.1250;114;67;0.34921
1976210;-0.07500;68.6875;114;67;0.34090
1976220;-0.06000;68.6250;114;67;0.33724
1976230;-0.03500;68.8125;114;67;0.33358
1976240;-0.02500;69.5000;114;67;0.33016
1976250;-0.01500;74.3125;114;67;0.32576
1976260;0.00000;78.8750;114;67;0.32357
1976270;0.01500;84.4375;114;67;0.32112
1976280;0.04000;90.3750;114;67;0.31893
1976290;0.06000;100.6250;114;67;0.31526
1976300;0.08500;104.6250;114;67;0.31355
1976310;0.10500;108.0000;114;67;0.31184
1976320;0.13500;110.8125;114;67;0.31013
1976330;0.17000;115.0625;114;67;0.30696
1976340;0.19000;116.3750;114;67;0.30623
1976350;0.21500;117.1250;114;67;0.30623
1976360;0.25000;117.5625;114;67;0.30549
1976370;0.26000;117.5625;114;67;0.30525
1976380;0.26500;117.5000;114;67;0.30501
1976390;0.24000;117.4375;114;67;0.30501
1976400;0.19000;117.1250;114;67;0.30501
1976410;0.13000;116.9375;114;67;0.30501
1976420;0.07000;116.6250;114;67;0.30501
1976430;0.00000;116.3125;114;67;0.30476
1976440;-0.05500;115.8125;114;67;0.30452
1976450;-0.10000;114.5000;114;67;0.30501
1976460;-0.12500;113.5625;114;67;0.30476
1976470;-0.14500;112.5000;114;67;0.30427
1976480;-0.15500;111.1875;114;67;0.30354
1976490;-0.16000;108.0000;114;67;0.30208
1976500;-0.16000;106.0625;114;67;0.30183
1976510;-0.16000;103.8750;114;67;0.30256
1976520;-0.16000;101.4375;114;67;0.30501
1976530;-0.16000;96.1250;114;67;0.31844
1976540;-0.16000;93.7500;114;67;0.32845
1976550;-0.16000;91.8125;114;67;0.34090
1976560;-0.16000;90.6875;114;67;0.35800
1976570;-0.15500;90.1875;114;67;0.40464
1976580;-0.15500;90.2500;114;67;0.43223
1976590;-0.15500;90.3125;114;67;0.46178
1976600;-0.16000;90.4375;114;67;0.52210
1976610;-0.16000;90.5000;114;67;0.55140
1976620;-0.15500;90.6250;114;67;0.57949
1976630;-0.15500;90.6250;114;67;0.60586
1976640;-0.15000;90.5000;114;67;0.63004
1976650;-0.14500;89.7500;114;67;0.65201
1976660;-0.14500;89.2500;114;67;0.64933
1976670;-0.14000;88.6875;114;67;0.65495
1976680;-0.13500;87.5625;114;67;0.67277
1976690;-0.13500;87.0000;114;67;0.68132
1976700;-0.13500;86.4375;114;67;0.68864
1976710;-0.13500;85.8750;114;67;0.69451
1976720;-0.13500;85.3750;114;67;0.69890
1976730;-0.13500;84.3125;114;67;0.70256
1976740;-0.13000;83.8750;114;67;0.70134
1976750;-0.12500;83.3750;114;67;0.69841
1976760;-0.11500;82.9375;114;67;0.69475
1976770;-0.11500;82.0000;114;67;0.68425
1976780;-0.11500;81.5625;114;67;0.67643
1976790;-0.11500;81.1250;114;67;0.66691
1976800;-0.11500;81.1250;114;67;0.66691
1976810;-0.10000;79.9375;114;67;0.62833
1976820;-0.08500;79.6250;114;67;0.61319
1976830;-0.05500;79.2500;114;67;0.59731
1976840;-0.03000;78.8750;114;67;0.58120
1976850;-0.02000;78.1875;114;67;0.55287
1976860;-0.01500;77.8750;114;67;0.53895
1976870;-0.00500;77.5625;114;67;0.52503
1976880;0.01500;77.2500;114;67;0.51184
1976890;0.00500;76.6250;114;67;0.48791
1976900;-0.02000;76.3125;114;67;0.47717
1976910;-0.04500;76.0000;114;67;0.46740
1976920;-0.07500;75.4375;114;67;0.44982
1976930;-0.09500;75.1875;114;67;0.44176
1976940;-0.12500;74.8750;114;67;0.43492
1976950;-0.13000;74.5625;114;67;0.42857
1976960;-0.13000;74.3125;114;67;0.42198
1976970;-0.13500;73.8750;114;67;0.40806
1976980;-0.12500;73.6250;114;67;0.40073
1976990;-0.12500;73.4375;114;67;0.39316
1977000;-0.11000;73.1875;113;67;0.38559
1977010;0.03000;72.7500;113;67;0.37045
1977020;0.48000;72.6250;113;67;0.36313
1977030;1.12000;72.4375;113;67;0.35580
1977040;0.98000;72.2500;113;67;0.34847
1977050;0.23500;71.8750;113;67;0.33675
1977060;-0.20000;71.6250;113;67;0.33065
1977070;-0.19000;71.4375;113;67;0.32430
1977080;-0.17500;71.3125;113;67;0.31795
1977090;-0.17500;70.8125;113;67;0.30501
1977100;-0.17500;70.5625;113;67;0.29866
1977110;-0.17000;70.3125;113;67;0.29231
1977120;-0.16500;70.0000;113;67;0.28620
1977130;-0.15500;69.5000;113;67;0.27448
1977140;-0.15000;69.2500;113;67;0.27009
1977150;-0.14500;69.0000;113;67;0.26618
1977160;-0.14500;68.5000;113;67;0.25690
1977170;-0.13500;68.1875;113;67;0.25201
1977180;-0.13000;67.9375;113;67;0.24713
1977190;-0.12500;67.6250;113;67;0.24249
1977200;-0.11500;67.3750;113;67;0.23785
1977210;-0.10500;67.0625;113;67;0.22906
1977220;-0.09000;66.9375;113;67;0.22442
1977230;-0.08000;66.8125;113;67;0.22002
1977240;-0.06500;66.6875;113;67;0.21587
1977250;-0.05500;66.8750;113;67;0.21123
1977260;-0.03500;67.6875;113;67;0.20855
1977270;-0.02000;69.6250;113;67;0.20586
1977280;-0.00500;72.8125;113;67;0.20293
1977290;0.02000;82.3125;113;67;0.19756
1977300;0.03500;87.5625;113;67;0.19487
1977310;0.05500;92.4375;113;67;0.19243
1977320;0.08000;100.3125;113;67;0.18779
1977330;0.10000;103.3750;113;67;0.18608
1977340;0.13500;105.9375;113;67;0.18535
1977350;0.17500;108.0000;113;67;0.18510
1977360;0.20500;109.5625;113;67;0.18413
1977370;0.23500;110.9375;113;67;0.18144
1977380;0.26500;111.0000;113;67;0.17998
1977390;0.27000;110.8125;113;67;0.17875
1977400;0.25000;110.5000;113;67;0.17753
1977410;0.19500;109.7500;113;67;0.17558
1977420;0.11000;109.2500;113;67;0.17436
1977430;0.05000;108.7500;113;67;0.17338
1977440;-0.02000;107.4375;113;67;0.17192
1977450;-0.07500;106.6250;113;67;0.17216
1977460;-0.12000;105.6875;113;67;0.17167
1977470;-0.15500;104.6875;113;67;0.17118
1977480;-0.16500;103.5000;113;67;0.17045
1977490;-0.17500;100.6250;113;67;0.16947
1977500;-0.18000;98.9375;113;67;0.16874
1977510;-0.18000;97.0000;113;67;0.16825
1977520;-0.17500;92.5000;113;67;0.16777
1977530;-0.17000;90.1250;113;67;0.16947
1977540;-0.17000;87.9375;113;67;0.17265
1977550;-0.17000;86.2500;113;67;0.17778
1977560;-0.17000;85.1875;113;67;0.18535
1977570;-0.17000;84.8750;113;67;0.21099
1977580;-0.16500;85.1250;113;67;0.22979
1977590;-0.16500;85.3750;113;67;0.25250
1977600;-0.16500;85.5625;113;67;0.27814
1977610;-0.16000;85.7500;113;67;0.33602
1977620;-0.16000;85.8125;113;67;0.36654
1977630;-0.16000;85.8750;113;67;0.39683
1977640;-0.15500;85.6875;113;67;0.45079
1977650;-0.15500;85.3750;113;67;0.47228
1977660;-0.15500;85.0000;113;67;0.49475
1977670;-0.15500;84.5625;113;67;0.51673
1977680;-0.15000;84.0625;113;67;0.53700
1977690;-0.15000;83.0625;113;67;0.57094
1977700;-0.15000;82.6250;113;67;0.58462
1977710;-0.14500;82.1875;113;67;0.59609
1977720;-0.14500;81.2500;113;67;0.61270
1977730;-0.13500;80.8125;113;67;0.61807
1977740;-0.13000;80.4375;113;67;0.62076
1977750;-0.12500;79.5625;113;67;0.62149
1977760;-0.12500;79.5625;113;67;0.62149
1977770;-0.12500;78.7500;113;67;0.61758
1977780;-0.12500;78.3750;113;67;0.61319
1977790;-0.12500;78.3750;113;67;0.61319
1977800;-0.12500;78.3750;113;67;0.61319
1977810;-0.10500;76.9375;113;67;0.57827
1977820;-0.08000;76.6250;113;67;0.56630
1977830;-0.06000;76.3125;113;67;0.55360
1977840;-0.06000;76.3125;113;67;0.55360
1977850;-0.06000;76.3125;113;67;0.55360
1977860;-0.06000;76.3125;113;67;0.55360
1977870;-0.06000;76.3125;113;67;0.55360
1977880;0.01500;74.5625;113;67;0.48352
1977890;-0.00500;74.0000;113;67;0.46447
1977900;-0.04000;73.7500;113;67;0.45617
1977910;-0.05500;73.5000;113;67;0.44884
1977920;-0.07500;73.2500;113;67;0.44200
1977930;-0.10500;72.8125;113;67;0.42955
1977940;-0.12000;72.5625;113;67;0.42442
1977950;-0.12500;72.3125;113;67;0.41978
1977960;-0.12500;71.9375;113;67;0.40928
1977970;-0.12500;71.6875;113;67;0.40391
1977980;-0.11000;71.5000;113;67;0.39853
1977990;-0.10000;71.3125;113;67;0.39292
1978000;-0.01000;70.9375;113;67;0.38144
1978010;0.27000;70.8125;113;67;0.37558
1978020;0.72500;70.6250;113;67;0.36947
1978030;1.10000;70.5000;113;67;0.36337
1978040;0.68000;70.3125;113;67;0.35824
1978050;-0.11500;69.9375;113;67;0.34823
1978060;-0.21000;69.7500;113;67;0.34261
1978070;-0.17000;69.5625;113;67;0.33700
1978080;-0.16000;69.1875;113;67;0.32552
1978090;-0.16000;69.0000;113;67;0.32015
1978100;-0.16000;68.7500;113;67;0.31477
1978110;-0.15500;68.5000;113;67;0.30916
1978120;-0.15000;68.3125;113;67;0.30379
1978130;-0.14500;67.8750;113;67;0.29377
1978140;-0.13500;67.6250;113;67;0.28987
1978150;-0.12500;67.3750;113;67;0.28669
1978160;-0.12500;67.1875;113;67;0.28278
1978170;-0.11500;66.6875;113;67;0.27399
1978180;-0.10500;66.3750;113;67;0.26960
1978190;-0.09500;66.1250;113;67;0.26520
1978200;-0.08500;65.9375;113;67;0.26081
1978210;-0.07500;65.6250;113;67;0.25250
1978220;-0.06500;65.5625;113;67;0.24860
1978230;-0.05500;65.5000;113;67;0.24493
1978240;-0.04000;65.4375;113;67;0.24054
1978250;-0.03000;66.0000;113;67;0.23785
1978260;-0.01500;67.3750;113;67;0.23492
1978270;-0.00500;69.9375;113;67;0.23223
1978280;0.01000;73.7500;113;67;0.22955
1978290;0.03000;83.8125;113;67;0.22418
1978300;0.05000;88.9375;113;67;0.22173
1978310;0.07000;93.4375;113;67;0.21929
1978320;0.10000;100.5625;113;67;0.21709
1978330;0.14000;103.3125;113;67;0.21343
1978340;0.16000;105.6250;113;67;0.21294
1978350;0.19500;107.4375;113;67;0.21294
1978360;0.24000;109.3125;113;67;0.21099
1978370;0.26000;109.5000;113;67;0.20977
1978380;0.28000;109.3750;113;67;0.20855
1978390;0.27500;109.0625;113;67;0.20708
1978400;0.24000;108.6875;113;67;0.20562
1978410;0.16500;107.8750;113;67;0.20366
1978420;0.10000;107.3750;113;67;0.20293
1978430;0.03000;106.8125;113;67;0.20195
1978440;-0.04500;105.3125;113;67;0.20244
1978450;-0.08500;104.5000;113;67;0.20220
1978460;-0.11500;103.5000;113;67;0.20195
1978470;-0.14500;102.4375;113;67;0.20147
1978480;-0.15500;101.1875;113;67;0.20098
1978490;-0.16000;98.1875;113;67;0.19976
1978500;-0.16000;96.4375;113;67;0.19902
1978510;-0.16000;94.4375;113;67;0.19829
1978520;-0.16000;92.2500;113;67;0.19829
1978530;-0.16000;87.7500;113;67;0.20122
1978540;-0.16000;85.8125;113;67;0.20513
1978550;-0.15500;84.3750;113;67;0.21123
1978560;-0.15500;83.5000;113;67;0.22027
1978570;-0.15000;83.7500;113;67;0.25006
1978580;-0.14500;84.0625;113;67;0.27082
1978590;-0.14500;84.3125;113;67;0.29524
1978600;-0.15000;84.5000;113;67;0.32259
1978610;-0.14500;84.6875;113;67;0.38266
1978620;-0.14500;84.7500;113;67;0.41368
1978630;-0.14000;84.7500;113;67;0.44420
1978640;-0.13500;84.6875;113;67;0.46984
1978650;-0.13500;84.2500;113;67;0.51600
1978660;-0.13500;83.8750;113;67;0.53919
1978670;-0.13000;83.3750;113;67;0.56117
1978680;-0.12500;82.3750;113;67;0.58095
1978690;-0.12500;81.9375;113;67;0.61368
1978700;-0.12500;81.4375;113;67;0.63907
1978710;-0.11500;81.0000;113;67;0.66813
1978720;-0.11000;80.5625;113;67;0.68571
1978730;-0.10500;79.6875;113;67;0.70305
1978740;-0.10500;79.2500;113;67;0.70598
1978750;-0.10500;78.8750;113;67;0.70623
1978760;-0.10000;78.1875;113;67;0.70354
1978770;-0.09500;77.8125;113;67;0.69988
1978780;-0.09500;77.4375;113;67;0.69475
1978790;-0.09000;77.0625;113;67;0.68816
1978800;-0.08500;76.3750;113;67;0.66984
1978810;-0.07500;76.0625;113;67;0.65861
1978820;-0.05000;75.7500;113;67;0.64664
1978830;-0.01500;75.4375;113;67;0.63394
1978840;0.00000;75.1250;113;67;0.62222
1978850;0.00000;74.5000;113;67;0.59951
1978860;0.01000;74.2500;113;67;0.58828
1978870;0.03000;73.9375;113;67;0.57729
1978880;0.05000;73.4375;113;67;0.56728
1978890;0.02500;73.1875;113;67;0.54969
1978900;-0.00500;72.9375;113;67;0.54212
1978910;-0.03500;72.7500;113;67;0.53529
1978920;-0.05500;72.5000;113;67;0.52894
1978930;-0.08500;72.0000;113;67;0.51722
1978940;-0.10000;71.7500;113;67;0.51209
1978950;-0.10000;71.5000;113;67;0.50745
1978960;-0.09500;71.1250;113;67;0.49744
1978970;-0.09500;70.9375;113;67;0.49206
1978980;-0.08500;70.7500;113;67;0.48645
1978990;-0.07000;70.6250;113;67;0.48083
1979000;-0.02000;70.4375;113;67;0.47497
1979010;0.38000;70.1250;113;67;0.46325
1979020;0.85500;70.0000;113;67;0.45739
1979030;1.10000;69.8125;113;67;0.45153
1979040;0.60000;69.6250;113;67;0.44640
1979050;-0.05500;69.3125;113;67;0.43639
1979060;-0.17500;69.1250;113;67;0.43077
1979070;-0.14500;69.0000;113;67;0.42515
1979080;-0.14500;68.8125;113;67;0.41978
1979090;-0.15000;68.3750;113;67;0.40904
1979100;-0.15000;68.1250;113;67;0.40391
1979110;-0.14500;67.9375;113;67;0.39878
1979120;-0.13500;67.6875;113;67;0.39390
1979130;-0.13000;67.2500;113;67;0.38413
1979140;-0.12000;67.0000;113;67;0.38022
1979150;-0.11500;66.7500;113;67;0.37680
1979160;-0.10500;66.5000;113;67;0.37289
1979170;-0.09500;66.0625;113;67;0.36386
1979180;-0.09000;65.8125;113;67;0.35946
1979190;-0.08500;65.5625;113;67;0.35531
1979200;-0.07500;65.1875;113;67;0.35140
1979210;-0.06500;65.1250;113;67;0.34383
1979220;-0.05500;65.0000;113;67;0.34017
1979230;-0.04500;64.9375;113;67;0.33675
1979240;-0.03500;64.8750;113;67;0.33431
1979250;-0.01500;66.1250;113;67;0.33016
1979260;-0.00500;68.1875;113;67;0.32747
1979270;0.01000;71.6250;113;67;0.32454
1979280;0.02000;76.1875;113;67;0.32161
1979290;0.03500;86.9375;113;67;0.31624
1979300;0.05500;91.9375;113;67;0.31404
1979310;0.08000;96.1875;113;67;0.31184
1979320;0.11000;99.8125;113;67;0.30989
1979330;0.14000;105.3750;113;67;0.30598
1979340;0.16500;107.4375;113;67;0.30501
1979350;0.20500;108.9375;113;67;0.30452
1979360;0.24500;110.3750;113;67;0.30232
1979370;0.26500;110.4375;113;67;0.30134
1979380;0.28000;110.3125;113;67;0.30012
1979390;0.26500;110.0625;113;67;0.29890
1979400;0.22000;109.3750;113;67;0.29646
1979410;0.17000;108.9375;113;67;0.29548
1979420;0.08000;108.5000;113;67;0.29451
1979430;0.02000;108.0000;113;67;0.29353
1979440;-0.03500;107.3125;113;67;0.29328
1979450;-0.09000;105.7500;113;67;0.29304
1979460;-0.11500;104.8125;113;67;0.29255
1979470;-0.14000;103.7500;113;67;0.29182
1979480;-0.14500;102.5000;113;67;0.29109
1979490;-0.15500;99.5000;113;67;0.28987
1979500;-0.16000;97.6875;113;67;0.28938
1979510;-0.16000;95.6250;113;67;0.28913
1979520;-0.16000;93.3750;113;67;0.28913
1979530;-0.16000;88.6250;113;67;0.29328
1979540;-0.15500;86.5000;113;67;0.29792
1979550;-0.15500;84.8125;113;67;0.30501
1979560;-0.15500;83.6875;113;67;0.32967
1979570;-0.15000;83.9375;113;67;0.34774
1979580;-0.14500;84.3750;113;67;0.36947
1979590;-0.14500;84.6875;113;67;0.39414
1979600;-0.14000;85.0625;113;67;0.45006
1979610;-0.14000;85.1250;113;67;0.47985
1979620;-0.13500;85.2500;113;67;0.50965
1979630;-0.13500;85.3125;113;67;0.53871
1979640;-0.13500;85.1250;113;67;0.58364
1979650;-0.13000;84.8125;113;67;0.60562
1979660;-0.12500;84.3750;113;67;0.62686
1979670;-0.12500;83.9375;113;67;0.64664
1979680;-0.12500;83.4375;113;67;0.66447
1979690;-0.12500;82.3750;113;67;0.69377
1979700;-0.12000;81.8750;113;67;0.70549
1979710;-0.12000;81.3750;113;67;0.71551
1979720;-0.11500;80.5000;113;67;0.72991
1979730;-0.11500;80.0625;113;67;0.73309
1979740;-0.11000;79.6875;113;67;0.73407
1979750;-0.10500;79.3125;113;67;0.73455
1979760;-0.10500;78.8750;113;67;0.73407
1979770;-0.10500;78.1250;113;67;0.72845
1979780;-0.10000;77.7500;113;67;0.72308
1979790;-0.09500;77.4375;113;67;0.71600
1979800;-0.09500;77.4375;113;67;0.71600
1979810;-0.09500;76.3750;113;67;0.68547
1979820;-0.06500;76.1250;113;67;0.67277
1979830;-0.03500;75.7500;113;67;0.65934
1979840;-0.01500;75.4375;113;67;0.64664
1979850;-0.01000;74.8125;113;67;0.62222
1979860;-0.00500;74.5625;113;67;0.61001
1979870;0.01000;74.2500;113;67;0.59853
1979880;0.01500;74.0000;113;67;0.58755
1979890;-0.00500;73.4375;113;67;0.56825
1979900;-0.04500;73.1875;113;67;0.56020
1979910;-0.07000;73.0000;113;67;0.55287
1979920;-0.09500;72.7500;113;67;0.54603
1979930;-0.12000;72.3125;113;67;0.53382
1979940;-0.14500;72.0625;113;67;0.52845
1979950;-0.14500;71.8125;113;67;0.52308
1979960;-0.14500;71.3750;113;67;0.51184
1979970;-0.14000;71.1875;113;67;0.50598
1979980;-0.13500;71.0625;113;67;0.50012
1979990;-0.12500;70.8750;113;67;0.49402
1980000;-0.07500;70.6875;113;67;0.48791
1980010;0.31000;70.3750;113;67;0.47570
1980020;0.78500;70.2500;113;67;0.46960
1980030;1.14500;70.0625;113;67;0.46349
1980040;0.47000;69.6875;113;67;0.45348
1980050;-0.07000;69.5000;113;67;0.44786
1980060;-0.20500;69.3125;113;67;0.44200
1980070;-0.17500;69.1875;113;67;0.43614
1980080;-0.17000;69.0000;113;67;0.43028
1980090;-0.17000;68.5625;113;67;0.41856
1980100;-0.17000;68.3125;113;67;0.41294
1980110;-0.16500;68.1250;113;67;0.40733
1980120;-0.15500;67.6250;113;67;0.39658
1980130;-0.15000;67.4375;113;67;0.39243
1980140;-0.14500;67.1875;113;67;0.38877
1980150;-0.13500;66.9375;113;67;0.38437
1980160;-0.12500;66.6875;113;67;0.37998
1980170;-0.11500;66.1875;113;67;0.37118
1980180;-0.10500;65.9375;113;67;0.36679
1980190;-0.09500;65.6875;113;67;0.36239
1980200;-0.09000;65.5000;113;67;0.35800
1980210;-0.08000;65.3125;113;67;0.34969
1980220;-0.07000;65.2500;113;67;0.34579
1980230;-0.05500;65.1250;113;67;0.34212
1980240;-0.04500;65.6875;113;67;0.33944
1980250;-0.03500;67.0625;113;67;0.33480
1980260;-0.02000;69.6875;113;67;0.33187
1980270;-0.00500;73.6875;113;67;0.32894
1980280;0.01500;84.3125;113;67;0.32381
1980290;0.03000;89.6875;113;67;0.32137
1980300;0.04500;94.5000;113;67;0.31893
1980310;0.07000;98.6250;113;67;0.31673
1980320;0.10000;102.0625;113;67;0.31453
1980330;0.13500;107.3125;113;67;0.31111
1980340;0.16000;109.2500;113;67;0.31062
1980350;0.19500;110.6250;113;67;0.30965
1980360;0.23000;111.6875;113;67;0.30720
1980370;0.25000;111.6875;113;67;0.30598
1980380;0.26500;111.5000;113;67;0.30476
1980390;0.26000;111.2500;113;67;0.30330
1980400;0.23000;111.0000;113;67;0.30208
1980410;0.15500;110.3750;113;67;0.29988
1980420;0.10000;109.9375;113;67;0.29890
1980430;0.02500;109.5000;113;67;0.29792
1980440;-0.04500;108.2500;113;67;0.29768
1980450;-0.08500;107.5000;113;67;0.29719
1980460;-0.11500;106.5625;113;67;0.29646
1980470;-0.13500;105.5000;113;67;0.29548
1980480;-0.15000;104.2500;113;67;0.29475
1980490;-0.16000;101.1875;113;67;0.29328
1980500;-0.16500;99.3750;113;67;0.29280
1980510;-0.16500;97.3750;113;67;0.29280
1980520;-0.16500;92.8125;113;67;0.29328
1980530;-0.16000;90.5000;113;67;0.29866
1980540;-0.16000;88.4375;113;67;0.30427
1980550;-0.15500;86.8750;113;67;0.31258
1980560;-0.14500;85.7500;113;67;0.33993
1980570;-0.14000;85.8750;113;67;0.35922
1980580;-0.13500;86.1250;113;67;0.38217
1980590;-0.13500;86.3125;113;67;0.40830
1980600;-0.13500;86.5000;113;67;0.43663
1980610;-0.12500;86.6250;113;67;0.49670
1980620;-0.12500;86.6875;113;67;0.52674
1980630;-0.12000;86.7500;113;67;0.55580
1980640;-0.12000;86.5000;113;67;0.60024
1980650;-0.12000;86.1875;113;67;0.62198
1980660;-0.12000;85.8125;113;67;0.64298
1980670;-0.11500;85.3125;113;67;0.66252
1980680;-0.11000;84.8125;113;67;0.68010
1980690;-0.11000;83.8750;113;67;0.70916
1980700;-0.11000;83.3750;113;67;0.72063
1980710;-0.10000;82.9375;113;67;0.72991
1980720;-0.09500;82.0000;113;67;0.73748
1980730;-0.09500;81.5625;113;67;0.74603
1980740;-0.08500;81.1875;113;67;0.74676
1980750;-0.08500;80.7500;113;67;0.74701
1980760;-0.08500;80.0000;113;67;0.74383
1980770;-0.08500;79.6250;113;67;0.74017
1980780;-0.08500;79.2500;113;67;0.73480
1980790;-0.08000;78.9375;113;67;0.72747
1980800;-0.07500;78.2500;113;67;0.70696
1980810;-0.07000;77.9375;113;67;0.69426
1980820;-0.05500;77.5625;113;67;0.68059
1980830;-0.02500;77.2500;113;67;0.66618
1980840;0.00000;76.6250;113;67;0.63956
1980850;0.01000;76.3125;113;67;0.62613
1980860;0.01500;76.0000;113;67;0.61294
1980870;0.04000;75.7500;113;67;0.60024
1980880;0.06000;75.2500;113;67;0.57705
1980890;0.05000;75.0000;113;67;0.56679
1980900;0.02000;74.7500;113;67;0.55751
1980910;-0.01000;74.5000;113;67;0.54896
1980920;-0.03500;74.0000;113;67;0.53358
1980930;-0.05500;73.8125;113;67;0.52698
1980940;-0.07500;73.5625;113;67;0.52088
1980950;-0.08500;73.3750;113;67;0.51477
1980960;-0.08500;73.1875;113;67;0.50842
1980970;-0.08500;72.8125;113;67;0.49573
1980980;-0.08000;72.6250;113;67;0.48913
1980990;-0.07500;72.4375;113;67;0.48254
1981000;-0.06000;72.3125;114;67;0.47595
1981010;0.18500;72.0000;114;67;0.46227
1981020;0.61000;71.8750;114;67;0.45543
1981030;1.18000;71.6875;114;67;0.44860
1981040;0.85000;71.3750;114;67;0.43712
1981050;0.20500;71.1875;114;67;0.43126
1981060;-0.16500;71.0000;114;67;0.42491
1981070;-0.14000;70.8125;114;67;0.41856
1981080;-0.13500;70.6250;114;67;0.41221
1981090;-0.13500;70.2500;114;67;0.39976
1981100;-0.14000;70.0000;114;67;0.39365
1981110;-0.13500;69.8125;114;67;0.38755
1981120;-0.12500;69.3750;114;67;0.37607
1981130;-0.12000;69.1875;114;67;0.37143
1981140;-0.11000;68.9375;114;67;0.36752
1981150;-0.10500;68.6875;114;67;0.36288
1981160;-0.10000;68.2500;114;67;0.35800
1981170;-0.09500;68.0625;114;67;0.34847
1981180;-0.09000;67.8125;114;67;0.34383
1981190;-0.08500;67.5625;114;67;0.33944
1981200;-0.07500;67.1250;114;67;0.33089
1981210;-0.06500;67.0000;114;67;0.32674
1981220;-0.05500;67.0000;114;67;0.32259
1981230;-0.04500;67.0000;114;67;0.31868
1981240;-0.03500;67.1250;114;67;0.31575
1981250;-0.02000;69.1250;114;67;0.31062
1981260;0.00000;71.9375;114;67;0.30769
1981270;0.01000;76.1875;114;67;0.30452
1981280;0.03000;87.2500;114;67;0.29915
1981290;0.04500;92.7500;114;67;0.29695
1981300;0.07000;97.6250;114;67;0.29499
1981310;0.09500;101.6875;114;67;0.29328
1981320;0.11500;105.1250;114;67;0.29158
1981330;0.14500;110.5625;114;67;0.28913
1981340;0.17500;112.5625;114;67;0.28864
1981350;0.20500;114.0000;114;67;0.28767
1981360;0.24500;115.2500;114;67;0.28523
1981370;0.26500;115.3750;114;67;0.28400
1981380;0.28500;115.3750;114;67;0.28278
1981390;0.29000;115.3125;114;67;0.28181
1981400;0.27000;115.1250;114;67;0.28107
1981410;0.22000;114.7500;114;67;0.28010
1981420;0.15000;114.5000;114;67;0.27961
1981430;0.07500;114.1875;114;67;0.27985
1981440;-0.00500;113.1250;114;67;0.28034
1981450;-0.04500;112.5000;114;67;0.28034
1981460;-0.08500;111.6875;114;67;0.28010
1981470;-0.10500;110.7500;114;67;0.27961
1981480;-0.12500;109.6875;114;67;0.27912
1981490;-0.14000;106.9375;114;67;0.27814
1981500;-0.15000;105.1875;114;67;0.27766
1981510;-0.15500;103.2500;114;67;0.27766
1981520;-0.15500;98.6875;114;67;0.28132
1981530;-0.15500;96.2500;114;67;0.28547
1981540;-0.14500;93.8125;114;67;0.29182
1981550;-0.14500;91.7500;114;67;0.30159
1981560;-0.14500;90.1875;114;67;0.31526
1981570;-0.14500;89.1875;114;67;0.35433
1981580;-0.14500;89.3750;114;67;0.37973
1981590;-0.14500;89.5625;114;67;0.40830
1981600;-0.14500;89.8125;114;67;0.47155
1981610;-0.14000;89.8750;114;67;0.50452
1981620;-0.13500;89.9375;114;67;0.53724
1981630;-0.13500;90.0000;114;67;0.56484
1981640;-0.13000;89.9375;114;67;0.61441
1981650;-0.13000;89.6250;114;67;0.63980
1981660;-0.13000;89.1875;114;67;0.66349
1981670;-0.12500;88.6875;114;67;0.68523
1981680;-0.12500;88.1875;114;67;0.70501
1981690;-0.11500;87.1875;114;67;0.73724
1981700;-0.11000;86.6875;114;67;0.75018
1981710;-0.10500;86.2500;114;67;0.76117
1981720;-0.10500;85.2500;114;67;0.77753
1981730;-0.10500;84.7500;114;67;0.78144
1981740;-0.10500;84.3125;114;67;0.78291
1981750;-0.10500;83.8125;114;67;0.78413
1981760;-0.10000;83.3750;114;67;0.78437
1981770;-0.09500;82.5625;114;67;0.78071
1981780;-0.09500;82.1875;114;67;0.77631
1981790;-0.09500;81.8125;114;67;0.76996
1981800;-0.09500;81.8125;114;67;0.76996
1981810;-0.09000;80.6875;114;67;0.74042
1981820;-0.08000;80.3125;114;67;0.72747
1981830;-0.07000;79.9375;114;67;0.71429
1981840;-0.04500;79.6250;114;67;0.70085
1981850;-0.01000;79.0000;114;67;0.67204
1981860;0.00500;78.6875;114;67;0.65788
1981870;0.00500;78.3750;114;67;0.64420
1981880;0.02000;78.1250;114;67;0.63126
1981890;0.04000;77.5625;114;67;0.60806
1981900;0.04000;77.3125;114;67;0.59756
1981910;0.02000;77.0625;114;67;0.58803
1981920;-0.01500;76.5625;114;67;0.57118
1981930;-0.04000;76.3125;114;67;0.56386
1981940;-0.07000;76.0000;114;67;0.55702
1981950;-0.09500;75.8125;114;67;0.55018
1981960;-0.10500;75.5625;114;67;0.54359
1981970;-0.10500;75.1250;114;67;0.52967
1981980;-0.10500;74.9375;114;67;0.52259
1981990;-0.09500;74.7500;114;67;0.51551
1982000;-0.09000;74.5625;114;67;0.50842
1982010;-0.09500;74.1875;114;67;0.49426
1982020;0.00000;73.9375;114;67;0.48718
1982030;0.32000;73.7500;114;67;0.48083
1982040;0.99000;73.6250;114;67;0.47497
1982050;1.30500;73.3125;114;67;0.46227
1982060;0.65500;73.1250;114;67;0.45568
1982070;-0.05000;72.9375;114;67;0.44908
1982080;-0.16500;72.7500;114;67;0.44249
1982090;-0.14500;72.4375;114;67;0.42930
1982100;-0.15500;72.2500;114;67;0.42295
1982110;-0.16500;72.0000;114;67;0.41685
1982120;-0.16000;71.8125;114;67;0.41074
1982130;-0.15500;71.3125;114;67;0.40024
1982140;-0.15500;71.0625;114;67;0.39609
1982150;-0.14500;70.8125;114;67;0.39121
1982160;-0.14000;70.3125;114;67;0.38120
1982170;-0.13500;70.0625;114;67;0.37582
1982180;-0.13000;69.8750;114;67;0.37070
1982190;-0.12500;69.6875;114;67;0.36557
1982200;-0.11500;69.4375;114;67;0.36068
1982210;-0.10500;68.9375;114;67;0.35116
1982220;-0.08500;68.7500;114;67;0.34676
1982230;-0.07500;68.6875;114;67;0.34359
1982240;-0.06500;68.6875;114;67;0.34090
1982250;-0.04500;69.1875;114;67;0.33431
1982260;-0.02500;70.3125;114;67;0.33114
1982270;-0.01500;72.6875;114;67;0.32772
1982280;0.00000;76.5625;114;67;0.32454
1982290;0.02000;87.6875;114;67;0.31844
1982300;0.03500;93.6250;114;67;0.31575
1982310;0.06000;98.8750;114;67;0.31331
1982320;0.08000;103.3125;114;67;0.31087
1982330;0.11000;110.1875;114;67;0.30745
1982340;0.14000;112.8125;114;67;0.30672
1982350;0.17500;115.0000;114;67;0.30574
1982360;0.20500;116.6250;114;67;0.30452
1982370;0.23500;118.2500;114;67;0.30208
1982380;0.26500;118.4375;114;67;0.30085
1982390;0.28500;118.5000;114;67;0.29988
1982400;0.29500;118.5000;114;67;0.29915
1982410;0.29000;118.4375;114;67;0.29841
1982420;0.25500;118.3125;114;67;0.29817
1982430;0.19500;118.1875;114;67;0.29841
1982440;0.10500;117.6875;114;67;0.29915
1982450;0.04500;117.3125;114;67;0.29915
1982460;-0.01500;116.8125;114;67;0.29890
1982470;-0.07000;116.1875;114;67;0.29866
1982480;-0.09500;115.3750;114;67;0.29841
1982490;-0.11500;113.3750;114;67;0.29817
1982500;-0.13500;112.0625;114;67;0.29792
1982510;-0.14000;110.5625;114;67;0.29768
1982520;-0.14500;108.8125;114;67;0.29768
1982530;-0.15000;104.5000;114;67;0.30037
1982540;-0.15000;102.0625;114;67;0.30379
1982550;-0.14500;99.5000;114;67;0.30940
1982560;-0.14500;97.0625;114;67;0.31795
1982570;-0.14500;93.3125;114;67;0.34676
1982580;-0.14500;92.3750;114;67;0.36728
1982590;-0.14500;92.0625;114;67;0.39145
1982600;-0.14500;92.1875;114;67;0.44908
1982610;-0.14000;92.3125;114;67;0.48059
1982620;-0.13500;92.3750;114;67;0.51282
1982630;-0.13500;92.4375;114;67;0.54017
1982640;-0.13000;92.5625;114;67;0.56484
1982650;-0.12500;92.6250;114;67;0.61856
1982660;-0.12000;92.4375;114;67;0.64396
1982670;-0.12500;92.1250;114;67;0.66740
1982680;-0.12000;91.1875;114;67;0.68889
1982690;-0.11500;90.6250;114;67;0.72527
1982700;-0.11000;90.1250;114;67;0.74017
1982710;-0.10500;89.5625;114;67;0.75311
1982720;-0.10500;88.5625;114;67;0.77363
1982730;-0.10500;88.0000;114;67;0.77924
1982740;-0.10500;87.5000;114;67;0.78217
1982750;-0.10500;87.0000;114;67;0.78535
1982760;-0.10500;86.5000;114;67;0.78755
1982770;-0.10500;85.5625;114;67;0.78852
1982780;-0.10500;85.1250;114;67;0.78657
1982790;-0.10000;84.6875;114;67;0.78315
1982800;-0.10000;84.6875;114;67;0.78315
1982810;-0.09500;83.5000;114;67;0.72967
1982820;-0.09500;83.0000;114;67;0.71526
1982830;-0.09500;82.5625;114;67;0.70208
1982840;-0.09500;82.1250;114;67;0.68889
1982850;-0.09000;81.1875;114;67;0.66056
1982860;-0.08000;80.7500;114;67;0.64567
1982870;-0.05500;80.3750;114;67;0.63101
1982880;-0.02500;79.5625;114;67;0.60293
1982890;-0.01500;79.1875;114;67;0.58999
1982900;-0.01000;78.8125;114;67;0.57802
1982910;0.00000;78.5000;114;67;0.56679
1982920;0.01500;78.1250;114;67;0.55653
1982930;0.01500;77.4375;114;67;0.53846
1982940;0.00000;77.1250;114;67;0.53089
1982950;-0.02500;76.8750;114;67;0.52332
1982960;-0.05500;76.2500;114;67;0.51575
1982970;-0.09500;75.9375;114;67;0.50183
1982980;-0.11000;75.6875;114;67;0.49499
1982990;-0.12000;75.3750;114;67;0.48840
1983000;-0.11500;74.8750;113;67;0.47521
1983010;-0.11500;74.6250;113;67;0.46838
1983020;-0.11000;74.4375;113;67;0.46154
1983030;-0.10500;74.1875;113;67;0.45543
1983040;-0.10500;73.9375;113;67;0.44982
1983050;0.02000;73.5000;113;67;0.43736
1983060;0.35500;73.3125;113;67;0.43126
1983070;1.02000;73.0625;113;67;0.42515
1983080;1.20500;72.8750;113;67;0.41880
1983090;0.37500;72.4375;113;67;0.40635
1983100;-0.09000;72.1875;113;67;0.40024
1983110;-0.18000;72.0000;113;67;0.39414
1983120;-0.16000;71.8125;113;67;0.38779
1983130;-0.17000;71.3750;113;67;0.37631
1983140;-0.17000;71.1250;113;67;0.37167
1983150;-0.17000;70.8125;113;67;0.36630
1983160;-0.16500;70.2500;113;67;0.35507
1983170;-0.16000;70.0000;113;67;0.34921
1983180;-0.15500;69.6875;113;67;0.34359
1983190;-0.14500;69.4375;113;67;0.33797
1983200;-0.14000;69.1875;113;67;0.33236
1983210;-0.13500;68.5625;113;67;0.32112
1983220;-0.12500;68.3125;113;67;0.31575
1983230;-0.11500;68.0625;113;67;0.31160
1983240;-0.10500;67.7500;113;67;0.30794
1983250;-0.09500;67.3125;113;67;0.29890
1983260;-0.07500;67.1875;113;67;0.29426
1983270;-0.06000;67.1250;113;67;0.28987
1983280;-0.04500;67.1250;113;67;0.28547
1983290;-0.03500;68.2500;113;67;0.27692
1983300;-0.02000;70.2500;113;67;0.27277
1983310;-0.00500;73.6875;113;67;0.26886
1983320;0.01000;84.1875;113;67;0.26227
1983330;0.02000;90.0000;113;67;0.26032
1983340;0.03500;95.2500;113;67;0.25788
1983350;0.06000;99.7500;113;67;0.25495
1983360;0.08000;103.5000;113;67;0.25201
1983370;0.11000;109.3125;113;67;0.24615
1983380;0.14000;111.4375;113;67;0.24322
1983390;0.17500;113.1250;113;67;0.24054
1983400;0.20000;114.1875;113;67;0.23810
1983410;0.24000;114.8750;113;67;0.23346
1983420;0.26000;114.8750;113;67;0.23126
1983430;0.26500;114.8125;113;67;0.23004
1983440;0.25500;114.5000;113;67;0.22955
1983450;0.20000;114.3125;113;67;0.22686
1983460;0.15000;114.0625;113;67;0.22540
1983470;0.08000;113.6875;113;67;0.22369
1983480;-0.00500;112.6875;113;67;0.22027
1983490;-0.05000;112.0625;113;67;0.21880
1983500;-0.10000;111.2500;113;67;0.21734
1983510;-0.13500;110.3125;113;67;0.21587
