RelativeTimeMilliseconds;ECG;ART;ART (Sys);ART (Dia);PPG
2400000;0.26500;124.9375;132;78;0.28913
2400010;0.29500;126.1250;132;78;0.28669
2400020;0.31000;126.2500;132;78;0.28571
2400030;0.29500;126.1875;132;78;0.28474
2400040;0.24500;125.5625;132;78;0.28376
2400050;0.16500;125.1250;132;78;0.28205
2400060;0.10500;124.5625;132;78;0.28205
2400070;0.04000;123.8750;132;78;0.28230
2400080;-0.03500;122.2500;132;78;0.28132
2400090;-0.06500;121.2500;132;78;0.28059
2400100;-0.10000;120.1250;132;78;0.27985
2400110;-0.12500;118.8125;132;78;0.27937
2400120;-0.14000;117.3125;132;78;0.27937
2400130;-0.16000;113.6250;132;78;0.28303
2400140;-0.16500;111.3750;132;78;0.28767
2400150;-0.17000;108.8750;132;78;0.29524
2400160;-0.17500;103.3125;132;78;0.30598
2400170;-0.17000;100.4375;132;78;0.33284
2400180;-0.17000;97.8750;132;78;0.35189
2400190;-0.16500;95.9375;132;78;0.37460
2400200;-0.16000;94.6875;132;78;0.40024
2400210;-0.16000;94.2500;132;78;0.45641
2400220;-0.16000;94.5625;132;78;0.48547
2400230;-0.16000;94.9375;132;78;0.51380
2400240;-0.15500;95.3125;132;78;0.54115
2400250;-0.15500;96.0000;132;78;0.59072
2400260;-0.15500;96.3125;132;78;0.60904
2400270;-0.14500;96.4375;132;78;0.62393
2400280;-0.14500;96.3125;132;78;0.65372
2400290;-0.14500;95.9375;132;78;0.66667
2400300;-0.15000;95.5625;132;78;0.67790
2400310;-0.15000;95.0625;132;78;0.68742
2400320;-0.14500;94.5000;132;78;0.69548
2400330;-0.14500;93.3750;132;78;0.70623
2400340;-0.14500;92.8125;132;78;0.70916
2400350;-0.14500;92.2500;132;78;0.71062
2400360;-0.14500;91.6875;132;78;0.71013
2400370;-0.14500;90.5625;132;78;0.70305
2400380;-0.14500;90.0000;132;78;0.69768
2400390;-0.14500;89.5000;132;78;0.69084
2400400;-0.14500;88.5000;132;78;0.67204
2400410;-0.14500;87.9375;132;78;0.66007
2400420;-0.14000;87.4375;132;78;0.64713
2400430;-0.14000;86.9375;132;78;0.63321
2400440;-0.13500;86.4375;132;78;0.61880
2400450;-0.12000;85.5000;132;78;0.59072
2400460;-0.09000;85.0625;132;78;0.57875
2400470;-0.06000;84.6250;132;78;0.56801
2400480;-0.04500;83.8125;132;78;0.54847
2400490;-0.04000;83.4375;132;78;0.54042
2400500;-0.02000;83.1250;132;78;0.53333
2400510;0.00500;82.7500;132;78;0.52723
2400520;0.00500;82.3750;132;78;0.52186
2400530;-0.02500;81.8125;132;78;0.51258
2400540;-0.04500;81.5000;132;78;0.51160
2400550;-0.06000;81.2500;132;78;0.51184
2400560;-0.08500;80.6875;132;78;0.50623
2400570;-0.10500;80.4375;132;78;0.50232
2400580;-0.11000;80.1875;132;78;0.49744
2400590;-0.11000;79.9375;132;78;0.49206
2400600;-0.10000;79.5625;132;78;0.48059
2400610;-0.09500;79.3750;132;78;0.47424
2400620;-0.09500;79.1250;132;78;0.46789
2400630;-0.07500;78.9375;132;78;0.46129
2400640;0.04500;78.6875;132;78;0.45446
2400650;0.48000;78.3750;132;78;0.44127
2400660;1.13000;78.2500;132;78;0.43565
2400670;0.98000;78.1250;132;78;0.43028
2400680;0.25500;77.9375;132;78;0.42442
2400690;-0.16000;77.6250;132;78;0.41197
2400700;-0.15000;77.4375;132;78;0.40562
2400710;-0.14500;77.2500;132;78;0.39927
2400720;-0.15500;77.0625;132;78;0.39316
2400730;-0.15500;76.5625;132;78;0.38120
2400740;-0.14500;76.3125;132;78;0.37558
2400750;-0.14500;76.0625;132;78;0.36996
2400760;-0.15500;75.8125;132;78;0.36459
2400770;-0.15500;75.2500;132;78;0.35629
2400780;-0.14500;74.9375;132;78;0.35165
2400790;-0.13500;74.6250;132;78;0.34701
2400800;-0.10500;74.3750;132;78;0.34212
2400810;-0.08000;73.7500;132;78;0.33260
2400820;-0.08000;73.7500;132;78;0.33260
2400830;-0.08500;73.2500;132;78;0.32357
2400840;-0.07000;72.9375;132;78;0.31551
2400850;-0.06000;72.7500;132;78;0.31184
2400860;-0.04000;72.6250;132;78;0.30916
2400870;-0.03000;72.5625;132;78;0.30720
2400880;-0.01500;72.8750;132;78;0.30452
2400890;0.00000;76.0000;132;78;0.29939
2400900;0.00000;79.4375;132;78;0.29670
2400910;0.01000;84.1250;132;78;0.29426
2400920;0.02500;95.4375;132;78;0.29011
2400930;0.04000;101.0625;132;78;0.28816
2400940;0.06000;106.2500;132;78;0.28645
2400950;0.08000;110.9375;132;78;0.28474
2400960;0.10000;115.0625;132;78;0.28303
2400970;0.12500;121.5000;132;78;0.28181
2400980;0.14000;123.6875;132;78;0.28083
2400990;0.15000;125.2500;132;78;0.27961
2401000;0.16500;126.2500;132;78;0.27839
2401010;0.17500;127.0625;132;78;0.27595
2401020;0.17000;127.0625;132;78;0.27473
2401030;0.15000;127.0000;132;78;0.27350
2401040;0.09500;126.5000;132;78;0.27204
2401050;0.03500;126.0625;132;78;0.27131
2401060;-0.00500;125.5625;132;78;0.27131
2401070;-0.05500;124.8750;132;78;0.27155
2401080;-0.09500;124.1250;132;78;0.27131
2401090;-0.12500;122.2500;132;78;0.27033
2401100;-0.14500;121.0000;132;78;0.26984
2401110;-0.16000;119.5625;132;78;0.26960
2401120;-0.17500;116.1875;132;78;0.27228
2401130;-0.17500;114.1250;132;78;0.27619
2401140;-0.17500;111.8125;132;78;0.28303
2401150;-0.17500;109.2500;132;78;0.29377
2401160;-0.17000;103.6875;132;78;0.32552
2401170;-0.16000;101.0000;132;78;0.34432
2401180;-0.14000;98.6875;132;78;0.36899
2401190;-0.12500;97.0625;132;78;0.39756
2401200;-0.10000;95.6875;132;78;0.46252
2401210;-0.08000;95.6875;132;78;0.49646
2401220;-0.07000;95.8750;132;78;0.52991
2401230;-0.06000;96.1875;132;78;0.56215
2401240;-0.05500;96.9375;132;78;0.62149
2401250;-0.05500;97.2500;132;78;0.64737
2401260;-0.05500;97.5000;132;78;0.66740
2401270;-0.05500;97.6250;132;78;0.68352
2401280;-0.05500;97.3750;132;78;0.71600
2401290;-0.05000;97.0625;132;78;0.73016
2401300;-0.04500;96.6250;132;78;0.74237
2401310;-0.04500;96.1875;132;78;0.75263
2401320;-0.04500;95.0000;132;78;0.76093
2401330;-0.04000;94.3750;132;78;0.77216
2401340;-0.03500;93.7500;132;78;0.77509
2401350;-0.03500;93.1250;132;78;0.77582
2401360;-0.04000;91.8125;132;78;0.77094
2401370;-0.04500;91.1250;132;78;0.76532
2401380;-0.05500;90.5000;132;78;0.75824
2401390;-0.05500;89.8750;132;78;0.74969
2401400;-0.05500;89.3125;132;78;0.73944
2401410;-0.05500;88.2500;132;78;0.71331
2401420;-0.05500;87.7500;132;78;0.69792
2401430;-0.05500;87.2500;132;78;0.68205
2401440;-0.05500;86.3750;132;78;0.65031
2401450;-0.03500;85.9375;132;78;0.63541
2401460;-0.00500;85.6250;132;78;0.62247
2401470;0.02000;85.2500;132;78;0.61099
2401480;0.02500;84.6250;132;78;0.60000
2401490;0.03500;84.3750;132;78;0.58095
2401500;0.05000;84.0625;132;78;0.57289
2401510;0.07500;83.8125;132;78;0.56557
2401520;0.06500;83.6250;132;78;0.55922
2401530;0.03000;83.1250;132;78;0.54774
2401540;-0.00500;82.9375;132;78;0.54212
2401550;-0.02500;82.6875;132;78;0.53675
2401560;-0.04500;82.2500;132;78;0.52601
2401570;-0.06000;81.9375;132;78;0.52063
2401580;-0.07000;81.6875;132;78;0.51502
2401590;-0.07500;81.4375;132;78;0.50891
2401600;-0.07500;81.1250;132;78;0.50232
2401610;-0.06500;80.7500;132;78;0.48791
2401620;-0.05500;80.5625;132;78;0.48034
2401630;-0.05500;80.4375;132;78;0.47253
2401640;0.17000;80.0625;132;78;0.45714
2401650;0.60500;79.8750;132;78;0.44982
2401660;1.18000;79.6875;132;78;0.44347
2401670;0.86500;79.5000;132;78;0.43785
2401680;0.25500;79.3125;132;78;0.43175
2401690;-0.09500;78.9375;132;78;0.41880
2401700;-0.07500;78.7500;132;78;0.41221
2401710;-0.07500;78.5625;132;78;0.40586
2401720;-0.08500;78.3125;132;78;0.39951
2401730;-0.09000;77.7500;132;78;0.38730
2401740;-0.09500;77.5000;132;78;0.38193
2401750;-0.10500;77.1875;132;78;0.37705
2401760;-0.11000;76.5625;132;78;0.36874
2401770;-0.11500;76.3125;132;78;0.36557
2401780;-0.11500;76.0000;132;78;0.36190
2401790;-0.11500;75.6875;132;78;0.35800
2401800;-0.11500;75.6875;132;78;0.35800
2401810;-0.10500;74.9375;132;78;0.34676
2401820;-0.10500;74.6875;132;78;0.34310
2401830;-0.10000;74.4375;132;78;0.33944
2401840;-0.08500;74.1875;132;78;0.33260
2401850;-0.08000;74.0625;132;78;0.32943
2401860;-0.07000;74.0625;132;78;0.32723
2401870;-0.05500;74.3125;132;78;0.32552
2401880;-0.04500;75.1250;132;78;0.32332
2401890;-0.03500;80.0625;132;78;0.31844
2401900;-0.01500;84.5625;132;78;0.31624
2401910;0.00500;90.0000;132;78;0.31429
2401920;0.03000;95.9375;132;78;0.31233
2401930;0.05500;107.3750;132;78;0.30891
2401940;0.07500;112.3125;132;78;0.30720
2401950;0.11000;116.6875;132;78;0.30574
2401960;0.14500;123.5000;132;78;0.30427
2401970;0.17000;125.8750;132;78;0.30330
2401980;0.19500;127.5625;132;78;0.30232
2401990;0.23500;128.6875;132;78;0.30134
2402000;0.25500;129.3125;132;78;0.30037
2402010;0.27500;129.7500;132;78;0.29841
2402020;0.26500;129.7500;132;78;0.29719
2402030;0.24500;129.6250;132;78;0.29621
2402040;0.19000;129.4375;132;78;0.29524
2402050;0.11500;128.8125;132;78;0.29353
2402060;0.06000;128.3750;132;78;0.29353
2402070;0.00500;127.8750;132;78;0.29377
2402080;-0.04000;126.4375;132;78;0.29304
2402090;-0.07000;125.5625;132;78;0.29255
2402100;-0.10000;124.5000;132;78;0.29231
2402110;-0.12000;123.2500;132;78;0.29280
2402120;-0.12500;121.8125;132;78;0.29426
2402130;-0.13000;118.1875;132;78;0.30379
2402140;-0.13500;115.9375;132;78;0.31355
2402150;-0.13000;113.4375;132;78;0.32772
2402160;-0.12500;110.6875;132;78;0.34335
2402170;-0.12500;105.1875;132;78;0.38559
2402180;-0.12000;102.8750;132;78;0.41416
2402190;-0.11500;101.1875;132;78;0.44591
2402200;-0.11500;99.5625;132;78;0.51502
2402210;-0.11000;99.3750;132;78;0.54994
2402220;-0.10500;99.3750;132;78;0.58388
2402230;-0.10000;99.5000;132;78;0.61612
2402240;-0.09500;99.6875;132;78;0.64640
2402250;-0.09500;100.1250;132;78;0.69939
2402260;-0.09000;100.1875;132;78;0.71844
2402270;-0.09500;100.1250;132;78;0.73382
2402280;-0.09500;99.6250;132;78;0.76484
2402290;-0.09500;99.1875;132;78;0.77851
2402300;-0.09500;98.6875;132;78;0.79072
2402310;-0.09000;98.1875;132;78;0.80147
2402320;-0.09000;97.6250;132;78;0.81050
2402330;-0.09000;96.4375;132;78;0.82320
2402340;-0.09500;95.8750;132;78;0.82686
2402350;-0.09500;95.2500;132;78;0.82857
2402360;-0.09500;94.1250;132;78;0.82442
2402370;-0.09500;93.5625;132;78;0.82027
2402380;-0.09500;92.9375;132;78;0.81465
2402390;-0.10000;92.3750;132;78;0.80733
2402400;-0.10000;91.8125;132;78;0.79829
2402410;-0.09500;90.6875;132;78;0.77411
2402420;-0.09000;90.1875;132;78;0.75995
2402430;-0.09000;89.6875;132;78;0.74481
2402440;-0.09000;89.2500;132;78;0.72943
2402450;-0.08500;88.3750;132;78;0.69890
2402460;-0.06500;87.9375;132;78;0.68523
2402470;-0.03500;87.5625;132;78;0.67277
2402480;-0.00500;86.8750;132;78;0.65006
2402490;0.00000;86.5000;132;78;0.64005
2402500;-0.00500;86.1875;132;78;0.63101
2402510;-0.00500;85.8750;132;78;0.62295
2402520;0.01000;85.5625;132;78;0.61563
2402530;0.01000;85.0000;132;78;0.60244
2402540;-0.01500;84.7500;132;78;0.59634
2402550;-0.06000;84.5000;132;78;0.59023
2402560;-0.08500;84.1875;132;78;0.58437
2402570;-0.11500;83.7500;132;78;0.57216
2402580;-0.13000;83.5625;132;78;0.56557
2402590;-0.14500;83.3125;132;78;0.54628
2402600;-0.14500;82.8125;132;78;0.50452
2402610;-0.14500;82.6250;132;78;0.49304
2402620;-0.14000;82.3750;132;78;0.48400
2402630;-0.12500;82.1250;132;78;0.47595
2402640;-0.12000;81.6875;132;78;0.46178
2402650;-0.04500;81.4375;132;78;0.45543
2402660;0.47500;81.1875;132;78;0.44957
2402670;1.04500;81.0000;132;78;0.44420
2402680;1.25000;80.8125;132;78;0.43858
2402690;0.42000;80.3750;132;78;0.42711
2402700;-0.03500;80.1875;132;78;0.42125
2402710;-0.12500;80.0000;132;78;0.41563
2402720;-0.11500;79.5625;132;78;0.40440
2402730;-0.13000;79.3125;132;78;0.39878
2402740;-0.13500;79.0000;132;78;0.39341
2402750;-0.13000;78.7500;132;78;0.38803
2402760;-0.12000;78.4375;132;78;0.38364
2402770;-0.11500;77.8750;132;78;0.37582
2402780;-0.10500;77.6250;132;78;0.37167
2402790;-0.09500;77.3750;132;78;0.36752
2402800;-0.09500;77.3750;132;78;0.36752
2402810;-0.06500;76.5625;132;78;0.35580
2402820;-0.05000;76.2500;132;78;0.35214
2402830;-0.04000;76.0000;132;78;0.34847
2402840;-0.03500;75.8125;132;78;0.34505
2402850;-0.02500;75.5625;132;78;0.33846
2402860;-0.01500;75.5000;132;78;0.33602
2402870;-0.01000;75.5000;132;78;0.33382
2402880;-0.00500;76.5000;132;78;0.33138
2402890;0.00000;78.1250;132;78;0.32650
2402900;0.01000;81.1250;132;78;0.32405
2402910;0.02000;85.5625;132;78;0.32186
2402920;0.03000;91.0625;132;78;0.31990
2402930;0.04500;103.2500;132;78;0.31624
2402940;0.05000;109.0000;132;78;0.31477
2402950;0.07500;114.1875;132;78;0.31355
2402960;0.09000;118.7500;132;78;0.31282
2402970;0.12000;125.8750;132;78;0.31160
2402980;0.15000;128.3750;132;78;0.31062
2402990;0.18500;130.1875;132;78;0.30965
2403000;0.20500;131.3750;132;78;0.30867
2403010;0.22500;132.4375;132;78;0.30647
2403020;0.24500;132.6250;132;78;0.30574
2403030;0.25000;132.6250;132;78;0.30525
2403040;0.24000;132.5625;132;78;0.30476
2403050;0.20500;132.0625;132;78;0.30330
2403060;0.14500;131.7500;132;78;0.30305
2403070;0.09000;131.3750;132;78;0.30305
2403080;0.01500;130.3750;132;78;0.30183
2403090;-0.02500;129.7500;132;78;0.30110
2403100;-0.06500;129.0000;132;78;0.30037
2403110;-0.10500;128.0625;132;78;0.29988
2403120;-0.12000;126.9375;132;78;0.29988
2403130;-0.14000;124.1250;132;78;0.30354
2403140;-0.16000;122.3750;132;78;0.30842
2403150;-0.17000;120.3750;132;78;0.31648
2403160;-0.18000;118.1250;132;78;0.32625
2403170;-0.18500;112.9375;132;78;0.35580
2403180;-0.19500;110.1875;132;78;0.37753
2403190;-0.20000;107.6875;132;78;0.40293
2403200;-0.20000;105.5625;132;78;0.43126
2403210;-0.19000;103.0000;132;78;0.49280
2403220;-0.17000;102.5000;132;78;0.52405
2403230;-0.15500;102.2500;132;78;0.55433
2403240;-0.14500;102.3750;132;78;0.60977
2403250;-0.13500;102.6250;132;78;0.63443
2403260;-0.13000;102.8125;132;78;0.65348
2403270;-0.13000;102.9375;132;78;0.66886
2403280;-0.13500;102.8125;132;78;0.69988
2403290;-0.14000;102.5625;132;78;0.71355
2403300;-0.15500;102.2500;132;78;0.72552
2403310;-0.17500;101.8125;132;78;0.73578
2403320;-0.18000;101.2500;132;78;0.74457
2403330;-0.18000;100.0000;132;78;0.75751
2403340;-0.17000;99.3125;132;78;0.76190
2403350;-0.16500;98.5625;132;78;0.76508
2403360;-0.15500;97.8750;132;78;0.76532
2403370;-0.15000;96.5000;132;78;0.76190
2403380;-0.13500;95.8125;132;78;0.75922
2403390;-0.13000;95.1250;132;78;0.75531
2403400;-0.12500;94.4375;132;78;0.74969
2403410;-0.12500;93.1875;132;78;0.73333
2403420;-0.12500;92.6875;132;78;0.72283
2403430;-0.12500;92.1875;132;78;0.71087
2403440;-0.12500;91.6875;132;78;0.69817
2403450;-0.12000;90.7500;132;78;0.67082
2403460;-0.11500;90.2500;132;78;0.65788
2403470;-0.11500;89.8125;132;78;0.64542
2403480;-0.10500;89.3750;132;78;0.63321
2403490;-0.09500;88.3750;132;78;0.61026
2403500;-0.06500;87.8750;132;78;0.60024
2403510;-0.03500;87.3750;132;78;0.59121
2403520;-0.02500;86.5625;132;78;0.57631
2403530;-0.03500;86.1250;132;78;0.56996
2403540;-0.03500;85.7500;132;78;0.56410
2403550;-0.02500;85.4375;132;78;0.55849
2403560;-0.03000;85.1250;132;78;0.55311
2403570;-0.06000;84.5000;132;78;0.54261
2403580;-0.09500;84.1875;132;78;0.53675
2403590;-0.13500;83.8750;132;78;0.53040
2403600;-0.16000;83.3125;132;78;0.52381
2403610;-0.18500;83.0000;132;78;0.50916
2403620;-0.19000;82.6875;132;78;0.50159
2403630;-0.18000;82.3750;132;78;0.49402
2403640;-0.16000;81.7500;132;78;0.47937
2403650;-0.14500;81.4375;132;78;0.47228
2403660;-0.12500;81.1875;132;78;0.46593
2403670;-0.11000;80.8750;132;78;0.46007
2403680;-0.00500;80.6250;132;78;0.45372
2403690;0.55500;80.1250;132;78;0.44054
2403700;1.10500;79.8750;132;78;0.43370
2403710;1.19500;79.6875;132;78;0.42686
2403720;0.46500;79.3125;132;78;0.42027
2403730;-0.12500;79.0625;132;78;0.40733
2403740;-0.12500;78.8750;132;78;0.40122
2403750;-0.10500;78.6250;132;78;0.39512
2403760;-0.11000;78.3125;132;78;0.38999
2403770;-0.10500;77.6875;132;78;0.38022
2403780;-0.09500;77.3750;132;78;0.37509
2403790;-0.09500;77.0625;132;78;0.36972
2403800;-0.09500;77.0625;132;78;0.36972
2403810;-0.05500;76.0000;132;78;0.35507
2403820;-0.04000;75.6250;132;78;0.35043
2403830;-0.02500;75.3125;132;78;0.34579
2403840;-0.01000;75.0000;132;78;0.34139
2403850;0.00000;74.3750;132;78;0.33407
2403860;-0.00500;74.0625;132;78;0.33114
2403870;-0.01500;73.8125;132;78;0.32772
2403880;-0.01000;73.4375;132;78;0.32405
2403890;0.00000;73.3750;132;78;0.31697
2403900;0.01500;73.3125;132;78;0.31355
2403910;0.02500;73.5000;132;78;0.31013
2403920;0.03000;75.9375;132;78;0.30354
2403930;0.04000;78.9375;132;78;0.30061
2403940;0.06000;83.3125;132;78;0.29768
2403950;0.09000;88.7500;132;78;0.29499
2403960;0.10500;94.7500;132;78;0.29328
2403970;0.11000;106.2500;132;78;0.29035
2403980;0.11000;111.1875;132;78;0.28864
2403990;0.11000;115.6250;132;78;0.28645
2404000;0.12000;119.4375;132;77;0.28425
2404010;0.13500;124.9375;132;77;0.27961
2404020;0.15000;126.6250;132;77;0.27741
2404030;0.17000;127.6875;132;77;0.27521
2404040;0.20000;128.5000;132;77;0.27106
2404050;0.21500;128.5000;132;77;0.26984
2404060;0.21500;128.3750;132;77;0.26911
2404070;0.19500;128.1250;132;77;0.26789
2404080;0.15500;127.8125;132;77;0.26642
2404090;0.08000;126.8125;132;77;0.26349
2404100;-0.01500;126.3125;132;77;0.26227
2404110;-0.06500;125.6875;132;77;0.26129
2404120;-0.12500;125.0625;132;77;0.26007
2404130;-0.17000;123.4375;132;77;0.25788
2404140;-0.19500;122.3750;132;77;0.25714
2404150;-0.20500;121.1250;132;77;0.25665
2404160;-0.19500;119.6250;132;77;0.25739
2404170;-0.18500;116.0625;132;77;0.26325
2404180;-0.19000;113.8125;132;77;0.26935
2404190;-0.19000;111.3125;132;77;0.27888
2404200;-0.19000;108.5625;132;77;0.29206
2404210;-0.19500;102.8125;132;77;0.33089
2404220;-0.20000;100.3750;132;77;0.35556
2404230;-0.20000;98.6250;132;77;0.38266
2404240;-0.19500;97.5625;132;77;0.41172
2404250;-0.19000;97.0000;132;77;0.46691
2404260;-0.19000;97.0625;132;77;0.48987
2404270;-0.20000;97.2500;132;77;0.51453
2404280;-0.20000;97.4375;132;77;0.53895
2404290;-0.18000;97.9375;132;77;0.58291
2404300;-0.16000;98.1250;132;77;0.60171
2404310;-0.14000;98.1250;132;77;0.61832
2404320;-0.13500;97.6250;132;77;0.64469
2404330;-0.14500;97.1875;132;77;0.65495
2404340;-0.15500;96.6250;132;77;0.66349
2404350;-0.16000;96.0000;132;77;0.67009
2404360;-0.16000;94.7500;132;77;0.67546
2404370;-0.16000;94.1250;132;77;0.67717
2404380;-0.17000;93.4375;132;77;0.67790
2404390;-0.18000;92.8125;132;77;0.67741
2404400;-0.18500;92.1250;132;77;0.67546
2404410;-0.19000;90.8750;132;77;0.66691
2404420;-0.18500;90.2500;132;77;0.66007
2404430;-0.19000;89.6875;132;77;0.65153
2404440;-0.19000;88.6250;132;77;0.64127
2404450;-0.19000;88.0625;132;77;0.61709
2404460;-0.19000;87.5625;132;77;0.60440
2404470;-0.19000;87.0000;132;77;0.58999
2404480;-0.18000;86.5625;132;77;0.57485
2404490;-0.17000;85.6875;132;77;0.54432
2404500;-0.14000;85.3125;132;77;0.52991
2404510;-0.11500;84.9375;132;77;0.51624
2404520;-0.09000;84.5625;132;77;0.50354
2404530;-0.08000;83.9375;132;77;0.48205
2404540;-0.06500;83.6875;132;77;0.47302
2404550;-0.03000;83.3750;132;77;0.46471
2404560;-0.01500;82.7500;132;77;0.45788
2404570;-0.04500;82.4375;132;77;0.44567
2404580;-0.07500;82.1875;132;77;0.43956
2404590;-0.11000;81.9375;132;77;0.43346
2404600;-0.13500;81.6875;132;77;0.42735
2404610;-0.16000;81.2500;132;77;0.41465
2404620;-0.17000;81.0000;132;77;0.40830
2404630;-0.18000;80.7500;132;77;0.40171
2404640;-0.18000;80.5625;132;77;0.39292
2404650;-0.17500;80.1250;132;77;0.37582
2404660;-0.16000;79.9375;132;77;0.36972
2404670;-0.15000;79.6875;132;77;0.36337
2404680;-0.04500;79.3750;132;77;0.35043
2404690;0.24000;79.1875;132;77;0.34383
2404700;0.92500;78.9375;132;77;0.33748
2404710;1.06000;78.6875;132;77;0.33114
2404720;0.50000;78.2500;132;77;0.32503
2404730;-0.15500;77.9375;132;77;0.31306
2404740;-0.18000;77.6875;132;77;0.30720
2404750;-0.15500;77.4375;132;77;0.30134
2404760;-0.16000;76.8750;132;77;0.29304
2404770;-0.16500;76.6250;132;77;0.28864
2404780;-0.16000;76.3125;132;77;0.28425
2404790;-0.15500;76.0000;132;77;0.27985
2404800;-0.15500;76.0000;132;77;0.27985
2404810;-0.13500;75.0625;132;77;0.26691
2404820;-0.12500;74.7500;132;77;0.26276
2404830;-0.12500;74.4375;132;77;0.25885
2404840;-0.12500;73.8125;132;77;0.25128
2404850;-0.12000;73.5625;132;77;0.24884
2404860;-0.11500;73.3125;132;77;0.24713
2404870;-0.10500;73.1250;132;77;0.24493
2404880;-0.09000;72.9375;132;77;0.24249
2404890;-0.07500;72.6875;132;77;0.23785
2404900;-0.06000;72.5625;132;77;0.23541
2404910;-0.05000;72.4375;132;77;0.23297
2404920;-0.03500;72.9375;132;77;0.23077
2404930;-0.01000;74.1250;132;77;0.22637
2404940;0.00000;76.2500;132;77;0.22418
2404950;0.01000;79.5625;132;77;0.22222
2404960;0.03500;89.0625;132;77;0.22076
2404970;0.06000;94.3750;132;77;0.21954
2404980;0.09500;99.6250;132;77;0.21832
2404990;0.10000;104.4375;132;77;0.21685
2405000;0.09500;108.8125;130;77;0.21538
2405010;0.11000;115.8750;130;77;0.21294
2405020;0.14500;118.4375;130;77;0.21197
2405030;0.19000;120.2500;130;77;0.21099
2405040;0.23500;121.4375;130;77;0.21026
2405050;0.27000;122.3750;130;77;0.20928
2405060;0.29500;122.3125;130;77;0.20977
2405070;0.29000;122.0625;130;77;0.20952
2405080;0.26500;121.6250;130;77;0.20904
2405090;0.21000;120.4375;130;77;0.20757
2405100;0.13500;119.6875;130;77;0.20684
2405110;0.09000;118.8750;130;77;0.20611
2405120;0.04500;118.0000;130;77;0.20562
2405130;0.01000;116.0000;130;77;0.20488
2405140;-0.02500;114.8125;130;77;0.20488
2405150;-0.04500;113.4375;130;77;0.20513
2405160;-0.06000;110.1875;130;77;0.20611
2405170;-0.07500;108.2500;130;77;0.21050
2405180;-0.08000;106.0625;130;77;0.21441
2405190;-0.08000;103.6875;130;77;0.22027
2405200;-0.07500;98.4375;130;77;0.24054
2405210;-0.07000;96.0000;130;77;0.25592
2405220;-0.06500;94.0625;130;77;0.27497
2405230;-0.07500;92.7500;130;77;0.29719
2405240;-0.09500;92.0625;130;77;0.34945
2405250;-0.10500;92.2500;130;77;0.37387
2405260;-0.10500;92.5625;130;77;0.39731
2405270;-0.10000;92.9375;130;77;0.42344
2405280;-0.10500;93.2500;130;77;0.45006
2405290;-0.11000;93.8750;130;77;0.50085
2405300;-0.11500;94.0000;130;77;0.52357
2405310;-0.13000;94.0000;130;77;0.54408
2405320;-0.14000;93.8750;130;77;0.56239
2405330;-0.14500;93.1250;130;77;0.59243
2405340;-0.14500;92.6875;130;77;0.60391
2405350;-0.15000;92.1875;130;77;0.61319
2405360;-0.15500;91.1250;130;77;0.61905
2405370;-0.16000;90.6250;130;77;0.62540
2405380;-0.16000;90.0000;130;77;0.62735
2405390;-0.15500;89.4375;130;77;0.62784
2405400;-0.15000;88.2500;130;77;0.62442
2405410;-0.14500;87.6875;130;77;0.62051
2405420;-0.14500;87.1250;130;77;0.61490
2405430;-0.13500;86.5625;130;77;0.60733
2405440;-0.13500;86.0625;130;77;0.59805
2405450;-0.13500;85.1250;130;77;0.57631
2405460;-0.13500;84.6875;130;77;0.56484
2405470;-0.13500;84.2500;130;77;0.55214
2405480;-0.13500;83.4375;130;77;0.52576
2405490;-0.13500;83.0000;130;77;0.51282
2405500;-0.11500;82.6250;130;77;0.50085
2405510;-0.08500;82.2500;130;77;0.48987
2405520;-0.06000;81.5625;130;77;0.47131
2405530;-0.05500;81.1875;130;77;0.46374
2405540;-0.04500;80.9375;130;77;0.45714
2405550;-0.01500;80.6875;130;77;0.45153
2405560;-0.00500;80.1875;130;77;0.44176
2405570;-0.01500;79.9375;130;77;0.43687
2405580;-0.04500;79.7500;130;77;0.43199
2405590;-0.06500;79.5000;130;77;0.42735
2405600;-0.07500;79.3125;130;77;0.42247
2405610;-0.10000;78.9375;130;77;0.41319
2405620;-0.11500;78.6875;130;77;0.40855
2405630;-0.11500;78.5000;130;77;0.40366
2405640;-0.11500;78.3125;130;77;0.39853
2405650;-0.11500;78.0000;130;77;0.38852
2405660;-0.11500;77.8125;130;77;0.38413
2405670;-0.11500;77.6250;130;77;0.37875
2405680;-0.07500;77.2500;130;77;0.36752
2405690;0.21000;77.0625;130;77;0.36190
2405700;0.77500;76.8750;130;77;0.35604
2405710;1.07500;76.6875;130;77;0.35043
2405720;0.41500;76.2500;130;77;0.33919
2405730;-0.07500;76.0625;130;77;0.33382
2405740;-0.19000;75.8125;130;77;0.32869
2405750;-0.14500;75.5625;130;77;0.32454
2405760;-0.15000;75.3125;130;77;0.32088
2405770;-0.16000;74.8125;130;77;0.31233
2405780;-0.16000;74.5625;130;77;0.30794
2405790;-0.15500;74.2500;130;77;0.30354
2405800;-0.15500;74.2500;130;77;0.30354
2405810;-0.15500;73.4375;130;77;0.29158
2405820;-0.15500;73.1875;130;77;0.28791
2405830;-0.14500;72.9375;130;77;0.28425
2405840;-0.12500;72.6250;130;77;0.28059
2405850;-0.09500;72.0625;130;77;0.27497
2405860;-0.08500;71.8125;130;77;0.27302
2405870;-0.08000;71.5625;130;77;0.27057
2405880;-0.06500;71.1875;130;77;0.26789
2405890;-0.05500;71.0625;130;77;0.26300
2405900;-0.05000;70.9375;130;77;0.26056
2405910;-0.04000;70.8750;130;77;0.25812
2405920;-0.03500;70.9375;130;77;0.25568
2405930;-0.02500;72.6875;130;77;0.25153
2405940;-0.01500;75.0000;130;77;0.24957
2405950;-0.01000;78.5625;130;77;0.24860
2405960;0.00500;83.1875;130;77;0.24811
2405970;0.03000;93.9375;130;77;0.24542
2405980;0.05000;99.1875;130;77;0.24396
2405990;0.07000;104.0000;130;77;0.24225
2406000;0.10000;112.1250;130;76;0.24054
2406010;0.13000;115.3750;130;76;0.23785
2406020;0.15500;117.9375;130;76;0.23663
2406030;0.19000;119.8125;130;76;0.23565
2406040;0.21500;121.0000;130;76;0.23468
2406050;0.24000;121.9375;130;76;0.23321
2406060;0.25500;121.9375;130;76;0.23321
2406070;0.25000;121.7500;130;76;0.23272
2406080;0.21500;121.4375;130;76;0.23199
2406090;0.14000;120.4375;130;76;0.23028
2406100;0.08500;119.7500;130;76;0.22930
2406110;0.00000;119.0000;130;76;0.22857
2406120;-0.05000;118.1875;130;76;0.22784
2406130;-0.09500;116.1250;130;76;0.22662
2406140;-0.12500;114.8750;130;76;0.22613
2406150;-0.13500;113.5000;130;76;0.22662
2406160;-0.14500;111.9375;130;76;0.22759
2406170;-0.15000;108.1875;130;76;0.23053
2406180;-0.15500;106.0000;130;76;0.23394
2406190;-0.15000;103.6250;130;76;0.23932
2406200;-0.14500;98.3750;130;76;0.25958
2406210;-0.14500;95.8750;130;76;0.27546
2406220;-0.14500;93.8125;130;76;0.29499
2406230;-0.14500;92.3750;130;76;0.31795
2406240;-0.14000;91.3750;130;76;0.37167
2406250;-0.13500;91.5625;130;76;0.39731
2406260;-0.12500;91.8750;130;76;0.42149
2406270;-0.12000;92.2500;130;76;0.44835
2406280;-0.11500;92.6875;130;76;0.47595
2406290;-0.10500;93.3750;130;76;0.52869
2406300;-0.10500;93.6250;130;76;0.55238
2406310;-0.09500;93.7500;130;76;0.57363
2406320;-0.08500;93.4375;130;76;0.60928
2406330;-0.07500;93.0625;130;76;0.62369
2406340;-0.07500;92.6250;130;76;0.63590
2406350;-0.06500;92.1250;130;76;0.64420
2406360;-0.05500;91.0625;130;76;0.65495
2406370;-0.06000;90.5000;130;76;0.65910
2406380;-0.07500;89.9375;130;76;0.66178
2406390;-0.07500;89.4375;130;76;0.66300
2406400;-0.05500;88.9375;130;76;0.66252
2406410;-0.04500;87.8750;130;76;0.65665
2406420;-0.04500;87.3750;130;76;0.65079
2406430;-0.05000;86.8125;130;76;0.64298
2406440;-0.05000;86.2500;130;76;0.63346
2406450;-0.06000;85.1875;130;76;0.61074
2406460;-0.06500;84.6250;130;76;0.59878
2406470;-0.06500;84.1250;130;76;0.58535
2406480;-0.06500;83.6250;130;76;0.57118
2406490;-0.06500;82.6875;130;76;0.54359
2406500;-0.05500;82.1875;130;76;0.53065
2406510;-0.03000;81.7500;130;76;0.51868
2406520;0.00000;81.0000;130;76;0.49866
2406530;0.01000;80.6875;130;76;0.49035
2406540;0.02000;80.4375;130;76;0.48327
2406550;0.05500;80.1875;130;76;0.47766
2406560;0.08500;80.0000;130;76;0.47277
2406570;0.09500;79.5625;130;76;0.46349
2406580;0.07000;79.3750;130;76;0.45910
2406590;0.05000;79.1875;130;76;0.45470
2406600;0.04000;79.0000;130;76;0.45006
2406610;0.02500;78.6250;130;76;0.44029
2406620;0.01000;78.5000;130;76;0.43516
2406630;0.01000;78.3125;130;76;0.42955
2406640;0.02000;78.0000;130;76;0.41832
2406650;0.03000;77.8750;130;76;0.41319
2406660;0.04000;77.6875;130;76;0.40855
2406670;0.04000;77.5625;130;76;0.40342
2406680;0.04000;77.3750;130;76;0.39805
2406690;0.12000;77.0625;130;76;0.42491
2406700;0.47500;76.8750;130;76;0.43004
2406710;1.01500;76.6250;130;76;0.42930
2406720;1.02500;76.3750;130;76;0.42540
2406730;0.33000;75.9375;130;76;0.41416
2406740;-0.18000;75.7500;130;76;0.40830
2406750;-0.19000;75.5625;130;76;0.40317
2406760;-0.17000;75.3750;130;76;0.39853
2406770;-0.18000;74.8125;130;76;0.38755
2406780;-0.19500;74.5625;130;76;0.38169
2406790;-0.19000;74.3125;130;76;0.37607
2406800;-0.19000;74.3125;130;76;0.37607
2406810;-0.16500;73.5625;130;76;0.36068
2406820;-0.16000;73.3125;130;76;0.35604
2406830;-0.15500;73.0625;130;76;0.35189
2406840;-0.15000;72.5000;130;76;0.34774
2406850;-0.14500;72.2500;130;76;0.34139
2406860;-0.12500;71.9375;130;76;0.33895
2406870;-0.11000;71.6875;130;76;0.33626
2406880;-0.09500;71.5000;130;76;0.33333
2406890;-0.08000;71.2500;130;76;0.32772
2406900;-0.06500;71.0625;130;76;0.32503
2406910;-0.04500;70.8750;130;76;0.32259
2406920;-0.03000;70.8125;130;76;0.32039
2406930;-0.01500;71.9375;130;76;0.31673
2406940;-0.00500;73.7500;130;76;0.31502
2406950;0.01000;76.8125;130;76;0.31429
2406960;0.03000;86.1250;130;76;0.31282
2406970;0.04000;91.6875;130;76;0.31136
2406980;0.05000;97.2500;130;76;0.30965
2406990;0.06000;102.4375;130;76;0.30794
2407000;0.10000;107.1250;130;76;0.30647
2407010;0.14500;114.7500;130;76;0.30379
2407020;0.20000;117.5625;130;76;0.30256
2407030;0.24500;119.7500;130;76;0.30159
2407040;0.28500;121.2500;130;76;0.30061
2407050;0.33500;122.6250;130;76;0.29988
2407060;0.35000;122.7500;130;76;0.30037
2407070;0.35000;122.6875;130;76;0.30012
2407080;0.31000;122.1250;130;76;0.29988
2407090;0.24500;121.7500;130;76;0.29866
2407100;0.18500;121.2500;130;76;0.29768
2407110;0.11500;120.6875;130;76;0.29695
2407120;0.05000;120.0000;130;76;0.29621
2407130;-0.00500;118.2500;130;76;0.29451
2407140;-0.05000;117.1875;130;76;0.29377
2407150;-0.07000;116.0000;130;76;0.29377
2407160;-0.08500;113.1250;130;76;0.29451
2407170;-0.10500;111.3750;130;76;0.29573
2407180;-0.12500;109.4375;130;76;0.29792
2407190;-0.13500;107.2500;130;76;0.30208
2407200;-0.15000;104.8125;130;76;0.30940
2407210;-0.16000;99.5625;130;76;0.33529
2407220;-0.16500;97.0625;130;76;0.35458
2407230;-0.16500;94.9375;130;76;0.37778
2407240;-0.16000;93.4375;130;76;0.40464
2407250;-0.15000;92.3750;130;76;0.46154
2407260;-0.14500;92.5625;130;76;0.48767
2407270;-0.15500;92.9375;130;76;0.51746
2407280;-0.16000;93.8125;130;76;0.57900
2407290;-0.16000;94.1875;130;76;0.60830
2407300;-0.16000;94.5625;130;76;0.63590
2407310;-0.16500;94.8125;130;76;0.66081
2407320;-0.16000;94.8125;130;76;0.70281
2407330;-0.14500;94.6250;130;76;0.71966
2407340;-0.13000;94.2500;130;76;0.73407
2407350;-0.12500;93.7500;130;76;0.74383
2407360;-0.11500;93.1875;130;76;0.75067
2407370;-0.11500;92.0000;130;76;0.76337
2407380;-0.10500;91.3750;130;76;0.76801
2407390;-0.10500;90.7500;130;76;0.77094
2407400;-0.10500;89.4375;130;76;0.77216
2407410;-0.10500;88.8750;130;76;0.77021
2407420;-0.11500;88.2500;130;76;0.76630
2407430;-0.14000;87.6250;130;76;0.76044
2407440;-0.16000;87.0625;130;76;0.75238
2407450;-0.18000;86.0000;130;76;0.73211
2407460;-0.17500;85.5625;130;76;0.71941
2407470;-0.16000;85.1875;130;76;0.70525
2407480;-0.15000;84.7500;130;76;0.68987
2407490;-0.12500;84.0000;130;76;0.65763
2407500;-0.10500;83.5625;130;76;0.64176
2407510;-0.09000;83.1250;130;76;0.62686
2407520;-0.07500;82.7500;130;76;0.61319
2407530;-0.06500;82.0625;130;76;0.58999
2407540;-0.06500;81.7500;130;76;0.58046
2407550;-0.07500;81.5000;130;76;0.57265
2407560;-0.06500;81.2500;130;76;0.56581
2407570;-0.02500;80.6250;130;76;0.55409
2407580;0.00500;80.2500;130;76;0.54896
2407590;0.00500;79.9375;130;76;0.54383
2407600;-0.01500;79.6250;130;76;0.53871
2407610;-0.03000;79.1250;130;76;0.52796
2407620;-0.04000;78.8750;130;76;0.52234
2407630;-0.05500;78.6250;130;76;0.51648
2407640;-0.07500;78.1875;130;76;0.51038
2407650;-0.07500;77.9375;130;76;0.49939
2407660;-0.07000;77.7500;130;76;0.49328
2407670;-0.06500;77.5625;130;76;0.48669
2407680;-0.08500;77.1875;130;76;0.47326
2407690;-0.07500;77.0000;130;76;0.46642
2407700;-0.04500;76.8125;130;76;0.45958
2407710;0.13000;76.7500;130;76;0.45299
2407720;0.67500;76.6875;130;76;0.44640
2407730;0.92500;76.5000;130;76;0.43346
2407740;0.43000;76.4375;130;76;0.42735
2407750;-0.19000;76.3125;130;76;0.42222
2407760;-0.26000;75.9375;130;76;0.41221
2407770;-0.22500;75.6250;130;76;0.40635
2407780;-0.21500;75.3125;130;76;0.40024
2407790;-0.21000;75.0000;130;76;0.39438
2407800;-0.21000;75.0000;130;76;0.39438
2407810;-0.18500;74.0000;130;76;0.37778
2407820;-0.20000;73.6875;130;76;0.37289
2407830;-0.19000;73.3750;130;76;0.36825
2407840;-0.15500;72.8125;130;76;0.36020
2407850;-0.13500;72.5000;130;76;0.35702
2407860;-0.11500;72.2500;130;76;0.35311
2407870;-0.09000;71.9375;130;76;0.34872
2407880;-0.07000;71.6875;130;76;0.34432
2407890;-0.05000;71.3125;130;76;0.33578
2407900;-0.03500;71.1875;130;76;0.33187
2407910;-0.03000;71.0625;130;76;0.32845
2407920;0.00000;71.0000;130;76;0.32503
2407930;0.08000;71.3125;130;76;0.31893
2407940;0.09000;72.1250;130;76;0.31600
2407950;0.10000;73.8125;130;76;0.31429
2407960;0.12000;76.7500;130;76;0.31331
2407970;0.09000;86.1250;130;76;0.31038
2407980;-0.00500;91.8125;130;76;0.30916
2407990;-0.04500;97.4375;130;76;0.30818
2408000;0.00500;102.7500;130;76;0.30720
2408010;0.17500;111.8125;130;76;0.30549
2408020;0.23500;115.4375;130;76;0.30476
2408030;0.23500;118.4375;130;76;0.30403
2408040;0.23500;120.7500;130;76;0.30305
2408050;0.24000;123.4375;130;76;0.30281
2408060;0.24500;124.0625;130;76;0.30183
2408070;0.26500;124.3125;130;76;0.30061
2408080;0.27500;124.3750;130;76;0.29890
2408090;0.27500;124.0625;130;76;0.29597
2408100;0.23500;123.7500;130;76;0.29475
2408110;0.17500;123.3125;130;76;0.29353
2408120;0.14000;122.8125;130;76;0.29280
2408130;0.03000;121.4375;130;76;0.29158
2408140;-0.05500;120.5625;130;76;0.29084
2408150;-0.05500;119.5625;130;76;0.29084
2408160;-0.08500;118.5000;130;76;0.29109
2408170;-0.08000;115.8125;130;76;0.29133
2408180;-0.08500;114.1875;130;76;0.29231
2408190;-0.10000;112.2500;130;76;0.29475
2408200;-0.13500;107.8750;130;76;0.30647
2408210;-0.12000;105.3125;130;76;0.31722
2408220;-0.09500;102.7500;130;76;0.33211
2408230;-0.07500;100.1875;130;76;0.35116
2408240;-0.04500;96.0625;130;76;0.39707
2408250;-0.06000;94.8750;130;76;0.42076
2408260;-0.04500;94.3750;130;76;0.44957
2408270;-0.03500;94.3125;130;76;0.48107
2408280;-0.04500;94.5625;130;76;0.51404
2408290;-0.05000;95.1875;130;76;0.57949
2408300;-0.05500;95.5000;130;76;0.61026
2408310;-0.05000;95.8125;130;76;0.63858
2408320;-0.04000;96.1875;130;76;0.66447
2408330;-0.03000;96.1250;130;76;0.70842
2408340;-0.00500;96.0000;130;76;0.72650
2408350;-0.00500;95.6250;130;76;0.73968
2408360;-0.02500;95.1875;130;76;0.74945
2408370;-0.05000;94.1875;130;76;0.76923
2408380;-0.07000;93.5625;130;76;0.77729
2408390;-0.08000;93.0000;130;76;0.78364
2408400;-0.08500;91.8125;130;76;0.78828
2408410;-0.08500;91.2500;130;76;0.79096
2408420;-0.09000;90.6875;130;76;0.78950
2408430;-0.08500;90.1875;130;76;0.78608
2408440;-0.08500;89.6250;130;76;0.78071
2408450;-0.08500;88.6250;130;76;0.76508
2408460;-0.08500;88.1250;130;76;0.75507
2408470;-0.07500;87.6250;130;76;0.74310
2408480;-0.06500;87.1875;130;76;0.72967
2408490;-0.05000;86.3125;130;76;0.69939
2408500;-0.02000;85.8750;130;76;0.68352
2408510;0.01000;85.5000;130;76;0.66789
2408520;0.02000;85.1250;130;76;0.65275
2408530;0.03000;84.4375;130;76;0.62589
2408540;0.03500;84.1250;130;76;0.61441
2408550;0.03500;83.8125;130;76;0.60464
2408560;-0.01500;83.1875;130;76;0.58877
2408570;-0.04500;82.8750;130;76;0.58193
2408580;-0.04000;82.5625;130;76;0.57582
2408590;-0.03500;82.2500;130;76;0.56996
2408600;-0.08000;81.6250;130;76;0.55873
2408610;-0.10500;81.3125;130;76;0.55263
2408620;-0.11500;81.0000;130;76;0.54628
2408630;-0.13500;80.7500;130;76;0.53968
2408640;-0.14000;80.5000;130;76;0.53333
2408650;-0.13000;80.1250;130;76;0.52234
2408660;-0.10500;79.8750;130;76;0.51697
2408670;-0.09000;79.7500;130;76;0.51160
2408680;0.05000;79.6250;130;76;0.50623
2408690;0.64000;79.4375;130;76;0.49524
2408700;1.11500;79.3125;130;76;0.48913
2408710;1.09500;79.2500;130;76;0.48278
2408720;0.17500;79.0625;130;76;0.46960
2408730;-0.15500;78.9375;130;76;0.45250
2408740;-0.17000;78.8750;130;76;0.43053
2408750;-0.15500;78.6875;130;76;0.41709
2408760;-0.15000;78.5625;130;76;0.40806
2408770;-0.15000;78.0625;130;76;0.39390
2408780;-0.14500;77.7500;130;76;0.38779
2408790;-0.14500;77.4375;130;76;0.38217
2408800;-0.14500;77.4375;130;76;0.38217
2408810;-0.15500;76.5000;130;76;0.36850
2408820;-0.17500;76.1250;130;76;0.36435
2408830;-0.18000;75.8125;130;76;0.35995
2408840;-0.13500;75.1250;130;76;0.35189
2408850;-0.11500;74.8125;130;76;0.34872
2408860;-0.10500;74.5000;130;76;0.34481
2408870;-0.08500;74.2500;130;76;0.34066
2408880;-0.07500;74.0625;130;76;0.33651
2408890;-0.05500;73.8125;130;76;0.32845
2408900;-0.03500;73.8750;130;76;0.32454
2408910;-0.03500;74.3125;130;76;0.32112
2408920;-0.04500;77.9375;130;76;0.31551
2408930;-0.04000;81.6875;130;76;0.31306
2408940;-0.04000;86.6250;130;76;0.31111
2408950;-0.01500;92.3125;130;76;0.30989
2408960;0.03000;104.0625;130;76;0.30818
2408970;0.05500;109.3125;130;76;0.30696
2408980;0.10000;114.0000;130;76;0.30574
2408990;0.13000;118.0625;130;76;0.30476
2409000;0.16000;121.4375;130;76;0.30379
2409010;0.21000;126.0000;130;76;0.30208
2409020;0.24500;127.2500;130;76;0.30134
2409030;0.26000;128.0000;130;76;0.30061
2409040;0.28500;128.3125;130;76;0.30012
2409050;0.31000;128.2500;130;76;0.30037
2409060;0.30000;128.0625;130;76;0.30012
2409070;0.27500;127.7500;130;76;0.29988
2409080;0.22500;127.0625;130;76;0.29890
2409090;0.17500;126.6250;130;76;0.29841
2409100;0.09500;126.1875;130;76;0.29768
2409110;0.02000;125.6250;130;76;0.29670
2409120;-0.01500;125.0000;130;76;0.29573
2409130;-0.05000;123.4375;130;76;0.29377
2409140;-0.07500;122.4375;130;76;0.29328
2409150;-0.08000;121.1875;130;76;0.29353
2409160;-0.09500;119.7500;130;76;0.29451
2409170;-0.11500;116.1250;130;76;0.30037
2409180;-0.13000;113.8750;130;76;0.30720
2409190;-0.13500;111.5000;130;76;0.31795
2409200;-0.14500;108.8750;130;76;0.33309
2409210;-0.15500;103.7500;130;76;0.37631
2409220;-0.16000;101.6875;130;76;0.40391
2409230;-0.17000;100.1875;130;76;0.43419
2409240;-0.18000;99.3125;130;76;0.46593
2409250;-0.17000;98.8125;130;76;0.51966
2409260;-0.15000;98.8125;130;76;0.54799
2409270;-0.15500;98.9375;130;76;0.57680
2409280;-0.14000;99.3125;130;76;0.63028
2409290;-0.13000;99.5625;130;76;0.65372
2409300;-0.12000;99.6250;130;76;0.67473
2409310;-0.11500;99.6250;130;76;0.69353
2409320;-0.11500;99.3750;130;76;0.71013
2409330;-0.14000;98.6250;130;76;0.73675
2409340;-0.14000;98.1250;130;76;0.74481
2409350;-0.10500;97.5625;130;76;0.75018
2409360;-0.10500;97.0000;130;76;0.75580
2409370;-0.09500;95.7500;130;76;0.76435
2409380;-0.11500;95.1250;130;76;0.76679
2409390;-0.14000;94.5000;130;76;0.76777
2409400;-0.15500;93.8750;130;76;0.76728
2409410;-0.16000;92.6875;130;76;0.76117
2409420;-0.15500;92.0625;130;76;0.75531
2409430;-0.16000;91.5000;130;76;0.74774
2409440;-0.16500;90.9375;130;76;0.73846
2409450;-0.13500;89.8750;130;76;0.71673
2409460;-0.09500;89.3750;130;76;0.70427
2409470;-0.08500;88.8750;130;76;0.69084
2409480;-0.12500;87.8750;130;76;0.66203
2409490;-0.14500;87.5000;130;76;0.64737
2409500;-0.11500;87.0625;130;76;0.63297
2409510;-0.04000;86.6875;130;76;0.61929
2409520;0.00000;86.3125;130;76;0.60659
2409530;0.02000;85.7500;130;76;0.58462
2409540;0.01000;85.4375;130;76;0.57582
2409550;0.02500;85.1875;130;76;0.56825
2409560;0.04000;84.9375;130;76;0.56117
2409570;0.04500;84.5000;130;76;0.54847
2409580;0.00000;84.3125;130;76;0.54286
2409590;-0.03000;84.0625;130;76;0.53748
2409600;-0.05500;83.5625;130;76;0.52698
2409610;-0.06500;83.3125;130;76;0.52137
2409620;-0.09000;83.0625;130;76;0.51551
2409630;-0.10500;82.8750;130;76;0.50916
2409640;-0.11000;82.6250;130;76;0.50232
2409650;-0.10500;82.1875;130;76;0.48938
2409660;-0.11500;82.0000;130;76;0.48254
2409670;-0.09000;81.7500;130;76;0.47546
2409680;-0.06500;81.2500;130;76;0.46838
2409690;0.09500;81.1250;130;76;0.45470
2409700;0.47000;80.9375;130;76;0.44811
2409710;1.15500;80.8125;130;76;0.44151
2409720;1.18000;80.4375;130;76;0.42857
2409730;0.55000;80.3125;130;76;0.42222
2409740;-0.01500;80.1250;130;76;0.41685
2409750;-0.07500;79.9375;130;76;0.41172
2409760;-0.08500;79.8125;130;76;0.40610
2409770;-0.11500;79.3750;130;76;0.39438
2409780;-0.12500;79.1250;130;76;0.38852
2409790;-0.11500;78.8125;130;76;0.38266
2409800;-0.11500;78.8125;130;76;0.38266
2409810;-0.08500;77.8750;130;76;0.36654
2409820;-0.07500;77.5625;130;76;0.36166
2409830;-0.06500;77.3125;130;76;0.35726
2409840;-0.05500;76.7500;130;76;0.35018
2409850;-0.05500;76.5000;130;76;0.34774
2409860;-0.06500;76.1875;130;76;0.34481
2409870;-0.07500;75.8750;130;76;0.34188
2409880;-0.08500;75.6250;130;76;0.33895
2409890;-0.08500;75.3125;130;76;0.33309
2409900;-0.08500;75.2500;130;76;0.33040
2409910;-0.07000;75.3750;130;76;0.32772
2409920;-0.05500;77.3125;130;76;0.32259
2409930;-0.00500;79.9375;130;76;0.32039
2409940;0.01500;83.9375;130;76;0.31893
2409950;-0.02000;89.1875;130;76;0.31795
2409960;-0.00500;95.1250;130;76;0.31697
2409970;0.01000;107.0000;130;76;0.31575
2409980;0.03000;112.1875;130;76;0.31526
2409990;0.03000;116.8125;130;76;0.31502
2410000;0.01000;120.7500;129;75;0.31453
2410010;0.03500;126.6875;129;75;0.31380
2410020;0.10500;128.5625;129;75;0.31331
2410030;0.13000;129.8125;129;75;0.31282
2410040;0.14000;130.5625;129;75;0.31209
2410050;0.18000;131.1250;129;75;0.31209
2410060;0.23000;131.1250;129;75;0.31184
2410070;0.22500;131.0000;129;75;0.31136
2410080;0.18500;130.8750;129;75;0.31111
2410090;0.09000;130.3750;129;75;0.31013
2410100;-0.01000;130.0625;129;75;0.30940
2410110;-0.06500;129.5625;129;75;0.30867
2410120;-0.15500;129.0625;129;75;0.30769
2410130;-0.22000;127.5625;129;75;0.30501
2410140;-0.22000;126.5625;129;75;0.30427
2410150;-0.21000;125.3750;129;75;0.30379
2410160;-0.22500;124.0625;129;75;0.30330
2410170;-0.24000;120.6875;129;75;0.30574
2410180;-0.24500;118.6875;129;75;0.31062
2410190;-0.24500;116.4375;129;75;0.31868
2410200;-0.25000;111.2500;129;75;0.33089
2410210;-0.26000;108.4375;129;75;0.36777
2410220;-0.27000;105.7500;129;75;0.39243
2410230;-0.25500;103.4375;129;75;0.42027
2410240;-0.24000;101.6875;129;75;0.45031
2410250;-0.23000;99.8750;129;75;0.50281
2410260;-0.25500;99.5625;129;75;0.53162
2410270;-0.24000;99.5000;129;75;0.56117
2410280;-0.19000;99.5625;129;75;0.58999
2410290;-0.17500;99.8750;129;75;0.64249
2410300;-0.16000;100.0625;129;75;0.66545
2410310;-0.13000;100.1250;129;75;0.68596
2410320;-0.11500;99.7500;129;75;0.71990
2410330;-0.11500;99.3750;129;75;0.73333
2410340;-0.11500;98.9375;129;75;0.74237
2410350;-0.13500;98.3750;129;75;0.74872
2410360;-0.14500;97.8125;129;75;0.75531
2410370;-0.09500;96.5625;129;75;0.76654
2410380;-0.02500;95.8750;129;75;0.77045
2410390;-0.05500;95.1250;129;75;0.77289
2410400;-0.10000;94.3750;129;75;0.77363
2410410;-0.09000;93.0625;129;75;0.76996
2410420;-0.07000;92.3750;129;75;0.76557
2410430;-0.06000;91.6875;129;75;0.75946
2410440;-0.06500;90.4375;129;75;0.74188
2410450;-0.06500;89.8125;129;75;0.73089
2410460;-0.08000;89.2500;129;75;0.71819
2410470;-0.13000;88.6875;129;75;0.70427
2410480;-0.15500;88.1875;129;75;0.68938
2410490;-0.18000;87.2500;129;75;0.65739
2410500;-0.18000;86.7500;129;75;0.64151
2410510;-0.19500;86.2500;129;75;0.62589
2410520;-0.22500;85.8125;129;75;0.61123
2410530;-0.20000;85.1250;129;75;0.58486
2410540;-0.12500;84.8125;129;75;0.57387
2410550;-0.06500;84.4375;129;75;0.56435
2410560;-0.04000;83.6875;129;75;0.54750
2410570;-0.06500;83.2500;129;75;0.54017
2410580;-0.06500;83.0000;129;75;0.53284
2410590;-0.04000;82.8125;129;75;0.52576
2410600;-0.05500;82.6250;129;75;0.51868
2410610;-0.07000;82.0625;129;75;0.50427
2410620;-0.09000;81.7500;129;75;0.49670
2410630;-0.15500;81.4375;129;75;0.48864
2410640;-0.21000;81.1250;129;75;0.48034
2410650;-0.26000;80.5625;129;75;0.46520
2410660;-0.28000;80.2500;129;75;0.45690
2410670;-0.29000;80.0000;129;75;0.44835
2410680;-0.29000;79.5000;129;75;0.43980
2410690;-0.28500;79.2500;129;75;0.42295
2410700;-0.28000;79.0000;129;75;0.41465
2410710;-0.06000;78.8125;129;75;0.40635
2410720;0.35000;78.6250;129;75;0.39805
2410730;0.95000;78.1875;129;75;0.38169
2410740;0.77000;77.9375;129;75;0.37509
2410750;0.05500;77.6875;129;75;0.36899
2410760;-0.20500;77.5000;129;75;0.36190
2410770;-0.19000;77.1250;129;75;0.34652
2410780;-0.18000;76.9375;129;75;0.32869
2410790;-0.19000;76.7500;129;75;0.30598
2410800;-0.19000;76.7500;129;75;0.30598
2410810;-0.18000;75.8750;129;75;0.27228
2410820;-0.16500;75.6250;129;75;0.26496
2410830;-0.13500;75.3125;129;75;0.25836
2410840;-0.09500;75.0000;129;75;0.25201
2410850;-0.10500;74.4375;129;75;0.24322
2410860;-0.15500;74.1875;129;75;0.23858
2410870;-0.16000;73.8750;129;75;0.23370
2410880;-0.16000;73.3125;129;75;0.22369
2410890;-0.13500;73.0625;129;75;0.21856
2410900;-0.14000;72.7500;129;75;0.21343
2410910;-0.16500;72.5625;129;75;0.20855
2410920;-0.16500;72.3125;129;75;0.20366
2410930;-0.16000;72.0625;129;75;0.19536
2410940;-0.14000;72.2500;129;75;0.19316
2410950;-0.11500;73.0000;129;75;0.19170
2410960;-0.07000;74.6875;129;75;0.18974
2410970;-0.05500;81.7500;129;75;0.18559
2410980;-0.03500;86.7500;129;75;0.18339
2410990;-0.01000;92.1875;129;75;0.18120
2411000;0.01500;102.6875;128;75;0.17680
2411010;0.03500;107.2500;128;75;0.17460
2411020;0.06000;111.3125;128;75;0.17241
2411030;0.07000;114.8125;128;75;0.17045
2411040;0.07000;119.8125;128;75;0.16947
2411050;0.08000;121.3125;128;75;0.16874
2411060;0.12000;122.2500;128;75;0.16777
2411070;0.17500;122.6875;128;75;0.16679
2411080;0.20500;122.8750;128;75;0.16581
2411090;0.22000;122.5000;128;75;0.16484
2411100;0.21000;122.1875;128;75;0.16459
2411110;0.17500;121.7500;128;75;0.16435
2411120;0.10500;120.5000;128;75;0.16361
2411130;0.06000;119.7500;128;75;0.16313
2411140;0.01000;118.8750;128;75;0.16337
2411150;-0.01500;117.9375;128;75;0.16410
2411160;-0.06500;115.5625;128;75;0.16386
2411170;-0.09500;114.1875;128;75;0.16337
2411180;-0.11500;112.6250;128;75;0.16313
2411190;-0.13500;110.9375;128;75;0.16361
2411200;-0.15000;109.0000;128;75;0.16532
2411210;-0.15500;104.5000;128;75;0.17509
2411220;-0.16000;101.9375;128;75;0.18510
2411230;-0.16000;99.3125;128;75;0.19902
2411240;-0.17000;94.8125;128;75;0.23223
2411250;-0.18000;93.4375;128;75;0.25519
2411260;-0.19000;92.7500;128;75;0.28181
2411270;-0.19500;92.5625;128;75;0.31136
2411280;-0.18500;92.9375;128;75;0.37387
2411290;-0.17000;93.1875;128;75;0.40513
2411300;-0.16000;93.5000;128;75;0.43541
2411310;-0.15000;93.8125;128;75;0.46422
2411320;-0.14500;94.1250;128;75;0.49084
2411330;-0.13500;94.3750;128;75;0.53700
2411340;-0.13500;94.3125;128;75;0.55360
2411350;-0.13500;94.0625;128;75;0.56654
2411360;-0.13000;93.6875;128;75;0.57924
2411370;-0.12500;92.6875;128;75;0.60049
2411380;-0.11000;92.1250;128;75;0.60855
2411390;-0.10500;91.5625;128;75;0.61465
2411400;-0.10000;90.9375;128;75;0.61880
2411410;-0.08500;89.7500;128;75;0.62125
2411420;-0.08000;89.1875;128;75;0.61978
2411430;-0.08000;88.6875;128;75;0.61661
2411440;-0.08000;87.6875;128;75;0.60513
2411450;-0.08000;87.1875;128;75;0.59707
2411460;-0.08000;86.6875;128;75;0.58755
2411470;-0.08000;86.1875;128;75;0.57607
2411480;-0.08000;85.1875;128;75;0.54847
2411490;-0.08000;84.6875;128;75;0.53284
2411500;-0.08000;84.2500;128;75;0.51673
2411510;-0.07500;83.8125;128;75;0.50061
2411520;-0.07000;83.3750;128;75;0.48498
2411530;-0.04500;82.5625;128;75;0.45641
2411540;-0.02500;82.1875;128;75;0.44518
2411550;-0.02500;81.7500;128;75;0.43541
2411560;-0.03500;81.4375;128;75;0.42613
2411570;-0.04500;80.7500;128;75;0.41001
2411580;-0.04500;80.5000;128;75;0.40342
2411590;-0.01500;80.2500;128;75;0.39756
2411600;-0.00500;80.0625;128;75;0.39194
2411610;-0.01500;79.6250;128;75;0.38120
2411620;-0.01000;79.4375;128;75;0.37582
2411630;-0.00500;79.1875;128;75;0.37070
2411640;0.00000;78.8125;128;75;0.36166
2411650;0.01000;78.6875;128;75;0.35653
2411660;0.01000;78.5625;128;75;0.35092
2411670;0.01000;78.4375;128;75;0.34505
2411680;-0.00500;78.1875;128;75;0.33309
2411690;-0.01000;78.0625;128;75;0.32698
2411700;-0.02000;77.9375;128;75;0.32088
2411710;0.09000;77.8125;128;75;0.31477
2411720;0.39500;77.6250;128;75;0.30891
2411730;0.96000;77.2500;128;75;0.29695
2411740;1.02000;77.0000;128;75;0.29206
2411750;0.47000;76.8125;128;75;0.28767
2411760;-0.11000;76.3125;128;75;0.27643
2411770;-0.11500;76.0625;128;75;0.27082
2411780;-0.08500;75.7500;128;75;0.26496
2411790;-0.10500;75.4375;128;75;0.25934
2411800;-0.10500;75.4375;128;75;0.25934
2411810;-0.14000;74.3750;128;75;0.24347
2411820;-0.14000;74.3750;128;75;0.24347
2411830;-0.14500;73.7500;128;75;0.23346
2411840;-0.13500;73.5000;128;75;0.22979
2411850;-0.12500;72.9375;128;75;0.22344
2411860;-0.10500;72.6250;128;75;0.22002
2411870;-0.09500;72.3750;128;75;0.21661
2411880;-0.09500;72.0625;128;75;0.21319
2411890;-0.08500;71.6250;128;75;0.20684
2411900;-0.08500;71.5000;128;75;0.20415
2411910;-0.07500;71.3750;128;75;0.20147
2411920;-0.07000;71.1875;128;75;0.19658
2411930;-0.06500;71.0625;128;75;0.19414
2411940;-0.05500;71.0000;128;75;0.19292
2411950;-0.04500;71.3125;128;75;0.19219
2411960;-0.03750;72.2604;128;75;0.19109
2411970;-0.02500;74.1250;128;75;0.18974
2411980;0.00000;77.1875;128;75;0.18828
2411990;0.01500;81.3750;128;75;0.18706
2412000;0.03500;91.8125;127;74;0.18584
2412010;0.07000;97.1250;127;74;0.18364
2412020;0.10000;102.0000;127;74;0.18242
2412030;0.14000;106.3750;127;74;0.18144
2412040;0.16500;110.2500;127;74;0.18046
2412050;0.19500;116.0625;127;74;0.18095
2412060;0.25500;117.9375;127;74;0.18071
2412070;0.33500;119.1875;127;74;0.17998
2412080;0.38000;120.0625;127;74;0.17900
2412090;0.28000;119.9375;127;74;0.17680
2412100;0.23500;119.6250;127;74;0.17558
2412110;0.25500;119.1875;127;74;0.17460
2412120;0.16500;118.6875;127;74;0.17411
2412130;-0.00500;117.3750;127;74;0.17338
2412140;-0.06500;116.5625;127;74;0.17289
2412150;-0.09500;115.6875;127;74;0.17338
2412160;-0.11000;113.6875;127;74;0.17411
2412170;-0.08500;112.5000;127;74;0.17436
2412180;-0.08500;111.1875;127;74;0.17436
2412190;-0.12000;109.6250;127;74;0.17436
2412200;-0.15000;106.0000;127;74;0.17558
2412210;-0.15000;103.9375;127;74;0.17778
2412220;-0.14500;101.6875;127;74;0.18217
2412230;-0.16000;99.1875;127;74;0.18926
2412240;-0.16500;94.3750;127;74;0.21245
2412250;-0.17000;92.5000;127;74;0.22735
2412260;-0.16000;91.2500;127;74;0.24713
2412270;-0.15500;90.6250;127;74;0.27106
2412280;-0.15500;90.5000;127;74;0.29841
2412290;-0.13000;91.1250;127;74;0.35922
2412300;-0.07500;91.5000;127;74;0.39096
2412310;-0.04000;91.9375;127;74;0.42198
2412320;-0.04500;92.6250;127;74;0.45177
2412330;-0.05500;92.8125;127;74;0.50501
2412340;-0.04500;92.8750;127;74;0.52772
2412350;-0.04000;92.7500;127;74;0.54481
2412360;-0.03500;92.1875;127;74;0.57167
2412370;-0.05500;91.8125;127;74;0.58364
2412380;-0.10500;91.3750;127;74;0.59414
2412390;-0.12500;90.8750;127;74;0.60269
2412400;-0.12000;90.3125;127;74;0.60952
2412410;-0.11000;89.1250;127;74;0.61758
2412420;-0.09500;88.5625;127;74;0.61880
2412430;-0.09000;87.9375;127;74;0.61832
2412440;-0.08000;87.4375;127;74;0.61612
2412450;-0.08500;86.3750;127;74;0.60635
2412460;-0.10500;85.9375;127;74;0.59927
2412470;-0.13000;85.4375;127;74;0.59048
2412480;-0.13500;85.0000;127;74;0.57973
2412490;-0.16000;84.0000;127;74;0.55385
2412500;-0.17500;83.5625;127;74;0.53919
2412510;-0.18500;83.1250;127;74;0.52405
2412520;-0.20000;82.7500;127;74;0.50891
2412530;-0.18000;81.9375;127;74;0.48010
2412540;-0.13500;81.5625;127;74;0.46716
2412550;-0.10000;81.1875;127;74;0.45641
2412560;-0.05500;80.5625;127;74;0.44737
2412570;0.00000;80.2500;127;74;0.43101
2412580;-0.00500;80.0000;127;74;0.42418
2412590;-0.01000;79.8125;127;74;0.41832
2412600;-0.03500;79.3750;127;74;0.40781
2412610;-0.04500;79.1250;127;74;0.40293
2412620;-0.02500;78.8750;127;74;0.39805
2412630;-0.02500;78.6250;127;74;0.39292
2412640;-0.02500;78.4375;127;74;0.38755
2412650;-0.00500;77.9375;127;74;0.37851
2412660;0.01000;77.7500;127;74;0.37338
2412670;0.03000;77.6250;127;74;0.36801
2412680;0.04000;77.3750;127;74;0.36215
2412690;0.06000;77.2500;127;74;0.35018
2412700;0.05000;77.0625;127;74;0.34383
2412710;0.04500;76.8750;127;74;0.33773
2412720;0.27000;76.5000;127;74;0.32552
2412730;0.67000;76.3750;127;74;0.31917
2412740;1.18000;76.2500;127;74;0.31258
2412750;0.86500;76.1250;127;74;0.30672
2412760;-0.05500;75.8125;127;74;0.29524
2412770;-0.24000;75.6250;127;74;0.28889
2412780;-0.15500;75.4375;127;74;0.28254
2412790;-0.13500;75.1875;127;74;0.27668
2412800;-0.13500;75.1875;127;74;0.27668
2412810;-0.07500;74.3125;127;74;0.26105
2412820;-0.07000;74.0000;127;74;0.25592
2412830;-0.07500;73.6875;127;74;0.25079
2412840;-0.08500;73.0625;127;74;0.30061
2412850;-0.11500;72.7500;127;74;0.31502
2412860;-0.12500;72.3750;127;74;0.31966
2412870;-0.12500;72.0625;127;74;0.31941
2412880;-0.11500;71.3750;127;74;0.31306
2412890;-0.10500;71.0625;127;74;0.30916
2412900;-0.09500;70.8125;127;74;0.30549
2412910;-0.09000;70.5625;127;74;0.30183
2412920;-0.08500;70.3750;127;74;0.29866
2412930;-0.07000;70.1875;127;74;0.29206
2412940;-0.05500;70.1250;127;74;0.28987
2412950;-0.03500;70.0625;127;74;0.28840
2412960;-0.01500;70.3125;127;74;0.28596
2412970;0.00000;72.9375;127;74;0.28034
2412980;0.01000;75.9375;127;74;0.27741
2412990;0.02000;80.1250;127;74;0.27448
2413000;0.04000;85.1875;127;74;0.27204
2413010;0.06500;96.1875;127;74;0.26764
2413020;0.09500;101.3125;127;74;0.26545
2413030;0.13000;105.8750;127;74;0.26349
2413040;0.17500;113.3125;127;74;0.26105
2413050;0.20500;116.0000;127;74;0.26129
2413060;0.23500;118.0625;127;74;0.26056
2413070;0.26000;119.4375;127;74;0.25958
2413080;0.26500;120.2500;127;74;0.25812
2413090;0.26000;120.7500;127;74;0.25495
2413100;0.24000;120.6250;127;74;0.25348
2413110;0.21500;120.3125;127;74;0.25201
2413120;0.16000;119.9375;127;74;0.25055
2413130;0.07500;118.8125;127;74;0.24811
2413140;0.01000;118.1250;127;74;0.24786
2413150;-0.05000;117.3750;127;74;0.24811
2413160;-0.09000;115.5000;127;74;0.24737
2413170;-0.11500;114.3750;127;74;0.24493
2413180;-0.12500;113.1875;127;74;0.24371
2413190;-0.14000;111.7500;127;74;0.24274
2413200;-0.14500;110.1875;127;74;0.24225
2413210;-0.14500;106.3750;127;74;0.24469
2413220;-0.15500;104.1250;127;74;0.24860
2413230;-0.16000;101.7500;127;74;0.25543
2413240;-0.16000;99.2500;127;74;0.26569
2413250;-0.17000;94.1875;127;74;0.29280
2413260;-0.18000;92.1875;127;74;0.31306
2413270;-0.18000;90.8750;127;74;0.33748
2413280;-0.17500;90.1875;127;74;0.36557
2413290;-0.17000;90.5000;127;74;0.42906
2413300;-0.16500;90.9375;127;74;0.46203
2413310;-0.16000;91.3125;127;74;0.49475
2413320;-0.15500;92.0625;127;74;0.55580
2413330;-0.15500;92.3750;127;74;0.58291
2413340;-0.16000;92.6250;127;74;0.60464
2413350;-0.16000;92.7500;127;74;0.62222
2413360;-0.16000;92.5000;127;74;0.65592
2413370;-0.16000;92.1250;127;74;0.67033
2413380;-0.16000;91.7500;127;74;0.68254
2413390;-0.16000;91.3125;127;74;0.69255
2413400;-0.16000;90.8125;127;74;0.70061
2413410;-0.16000;89.8125;127;74;0.71087
2413420;-0.16000;89.3125;127;74;0.71282
2413430;-0.16000;88.7500;127;74;0.71282
2413440;-0.15500;88.2500;127;74;0.71111
2413450;-0.15500;87.1875;127;74;0.70232
2413460;-0.15500;86.6875;127;74;0.69548
2413470;-0.15000;86.1250;127;74;0.68694
2413480;-0.14500;85.6250;127;74;0.67643
2413490;-0.14000;84.5625;127;74;0.65031
2413500;-0.13500;84.0625;127;74;0.63492
2413510;-0.13500;83.5625;127;74;0.61880
2413520;-0.13500;83.0625;127;74;0.60220
2413530;-0.12500;82.1875;127;74;0.56972
2413540;-0.09000;81.7500;127;74;0.55629
2413550;-0.07000;81.3125;127;74;0.54457
2413560;-0.05000;80.8750;127;74;0.53333
2413570;-0.04500;80.1875;127;74;0.51429
2413580;-0.03500;79.8750;127;74;0.50647
2413590;-0.00500;79.6250;127;74;0.49988
2413600;0.00500;79.3125;127;74;0.49377
2413610;-0.02000;78.8125;127;74;0.48327
2413620;-0.04500;78.5625;127;74;0.47839
2413630;-0.07500;78.3750;127;74;0.47375
2413640;-0.09500;78.1875;127;74;0.46911
2413650;-0.12000;77.8125;127;74;0.46081
2413660;-0.13500;77.6250;127;74;0.45592
2413670;-0.13500;77.4375;127;74;0.45055
2413680;-0.13500;77.1250;127;74;0.43956
2413690;-0.13000;76.9375;127;74;0.43346
2413700;-0.12500;76.7500;127;74;0.42711
2413710;-0.11500;76.6250;127;74;0.42051
2413720;-0.05000;76.5000;127;74;0.41392
2413730;0.40000;76.1875;127;74;0.40024
2413740;0.96500;76.0000;127;74;0.39463
2413750;1.04000;75.8750;127;74;0.38974
2413760;0.44500;75.5625;127;74;0.37753
2413770;-0.12500;75.3750;127;74;0.37094
2413780;-0.19000;75.1875;127;74;0.36410
2413790;-0.16000;75.0000;127;74;0.35726
2413800;-0.16000;75.0000;127;74;0.35726
2413810;-0.16000;74.3125;127;74;0.33748
2413820;-0.16000;74.0625;127;74;0.33138
2413830;-0.15500;73.8125;127;74;0.32552
2413840;-0.14500;73.2500;127;74;0.31526
2413850;-0.14000;72.9375;127;74;0.31184
2413860;-0.13000;72.6250;127;74;0.30745
2413870;-0.12500;72.3750;127;74;0.30281
2413880;-0.11000;72.1250;127;74;0.29817
2413890;-0.10000;71.6250;127;74;0.28889
2413900;-0.09500;71.3125;127;74;0.28449
2413910;-0.08500;71.0625;127;74;0.28010
2413920;-0.07500;70.8750;127;74;0.27595
2413930;-0.05500;70.5625;127;74;0.26813
2413940;-0.05000;70.4375;127;74;0.26569
2413950;-0.04000;70.3125;127;74;0.26398
2413960;-0.03000;71.0000;127;74;0.25861
2413970;-0.02000;72.3750;127;74;0.25568
2413980;-0.00500;74.9375;127;74;0.25299
2413990;0.00500;78.8125;127;74;0.25031
2414000;0.02000;89.3125;127;74;0.24567
2414010;0.03000;95.0625;127;74;0.24347
2414020;0.05000;100.5000;127;74;0.24127
2414030;0.07000;105.4375;127;74;0.23907
2414040;0.09000;109.8125;127;74;0.23687
2414050;0.11500;116.7500;127;74;0.23541
2414060;0.15500;119.2500;127;74;0.23419
2414070;0.18500;121.0625;127;74;0.23272
2414080;0.22000;122.1875;127;74;0.23150
2414090;0.24500;123.0000;127;74;0.22857
2414100;0.25500;122.9375;127;74;0.22711
2414110;0.24000;122.7500;127;74;0.22564
2414120;0.20000;122.0625;127;74;0.22295
2414130;0.15500;121.5625;127;74;0.22173
2414140;0.09000;121.0000;127;74;0.22173
2414150;0.02000;120.3125;127;74;0.22247
2414160;-0.03000;119.5000;127;74;0.22222
2414170;-0.07500;117.6250;127;74;0.22100
2414180;-0.11500;116.5000;127;74;0.22051
2414190;-0.13500;115.2500;127;74;0.22002
2414200;-0.15000;113.8750;127;74;0.21954
2414210;-0.15500;110.4375;127;74;0.22125
2414220;-0.15500;108.5000;127;74;0.22442
2414230;-0.15500;106.3125;127;74;0.23053
2414240;-0.15500;101.5000;127;74;0.25153
2414250;-0.14500;99.0625;127;74;0.26618
2414260;-0.14500;96.9375;127;74;0.28547
2414270;-0.14500;95.2500;127;74;0.30916
2414280;-0.14000;94.2500;127;74;0.33675
2414290;-0.13500;93.6875;127;74;0.39951
2414300;-0.13000;93.8750;127;74;0.43223
2414310;-0.12500;94.1250;127;74;0.46471
2414320;-0.11500;94.5625;127;74;0.52552
2414330;-0.11500;94.8125;127;74;0.55287
2414340;-0.11000;94.9375;127;74;0.57460
2414350;-0.11000;95.0000;127;74;0.59267
2414360;-0.11000;94.8750;127;74;0.61074
2414370;-0.10500;94.2500;127;74;0.64225
2414380;-0.10500;93.7500;127;74;0.65519
2414390;-0.10500;93.1250;127;74;0.66618
2414400;-0.10000;92.5000;127;74;0.67497
2414410;-0.09500;91.1875;127;74;0.68767
2414420;-0.09500;90.5625;127;74;0.69158
2414430;-0.09500;89.9375;127;74;0.69402
2414440;-0.09000;88.7500;127;74;0.69353
2414450;-0.09500;88.1875;127;74;0.69060
2414460;-0.09500;87.6875;127;74;0.68669
2414470;-0.09500;87.1875;127;74;0.68156
2414480;-0.09000;86.6875;127;74;0.67473
2414490;-0.08500;85.8125;127;74;0.65665
2414500;-0.09000;85.3750;127;74;0.64542
2414510;-0.09000;85.0000;127;74;0.63297
2414520;-0.08500;84.3125;127;74;0.61954
2414530;-0.07500;84.0000;127;74;0.59170
2414540;-0.05500;83.6875;127;74;0.57924
2414550;-0.01500;83.3750;127;74;0.56825
2414560;0.01500;82.7500;127;74;0.54676
2414570;0.02000;82.5000;127;74;0.53724
2414580;0.02500;82.1875;127;74;0.52894
2414590;0.04000;81.9375;127;74;0.52161
2414600;0.06000;81.6875;127;74;0.51477
2414610;0.06000;81.1875;127;74;0.50281
2414620;0.02500;80.9375;127;74;0.49695
2414630;0.01000;80.7500;127;74;0.49109
2414640;-0.01500;80.5000;127;74;0.48596
2414650;-0.04000;80.0000;127;74;0.47497
2414660;-0.05500;79.8125;127;74;0.46886
2414670;-0.06000;79.5625;127;74;0.46227
2414680;-0.06000;79.1250;127;74;0.45543
2414690;-0.06000;78.8750;127;74;0.44151
2414700;-0.05500;78.6875;127;74;0.43443
2414710;-0.05500;78.5000;127;74;0.42735
2414720;-0.00500;78.1875;127;74;0.41368
2414730;0.16500;78.0625;127;74;0.40684
2414740;0.78500;77.9375;127;74;0.40147
2414750;1.16500;77.7500;127;74;0.39658
2414760;0.92000;77.6250;127;74;0.39121
2414770;0.17500;77.1875;127;74;0.37924
2414780;-0.12500;77.0000;127;74;0.37338
2414790;-0.10000;76.8125;127;74;0.36752
2414800;-0.09000;76.6250;127;74;0.36190
2414810;-0.10500;76.1875;127;74;0.35140
2414820;-0.11000;75.9375;127;74;0.34652
2414830;-0.11000;75.6875;127;74;0.34164
2414840;-0.11000;75.1250;127;74;0.33529
2414850;-0.10500;74.8750;127;74;0.33138
2414860;-0.09500;74.6250;127;74;0.32723
2414870;-0.08000;74.3750;127;74;0.32308
2414880;-0.07500;74.1875;127;74;0.31893
2414890;-0.06500;73.7500;127;74;0.33016
2414900;-0.08000;73.5000;127;74;0.33187
2414910;-0.07000;73.2500;127;74;0.33089
2414920;-0.02500;73.0000;127;74;0.32845
2414930;-0.00500;72.6875;127;74;0.32186
2414940;0.01000;72.5625;127;74;0.31941
2414950;0.02000;72.5000;127;74;0.31746
2414960;0.03500;73.1250;127;74;0.31160
2414970;0.05000;74.4375;127;74;0.30842
2414980;0.06000;76.8750;127;74;0.30549
2414990;0.07000;80.6250;127;74;0.30281
2415000;0.08000;85.6250;128;74;0.30037
2415010;0.09500;97.3125;128;74;0.29621
2415020;0.12500;103.0000;128;74;0.29426
2415030;0.14000;108.0625;128;74;0.29206
2415040;0.16500;112.5625;128;74;0.29084
2415050;0.20000;119.5625;128;74;0.28889
2415060;0.22500;122.0625;128;74;0.28718
2415070;0.26000;123.9375;128;74;0.28547
2415080;0.29500;125.8750;128;74;0.28254
2415090;0.32000;126.2500;128;74;0.28132
2415100;0.33000;126.4375;128;74;0.28034
2415110;0.32000;126.4375;128;74;0.27937
2415120;0.29500;126.3750;128;74;0.27839
2415130;0.24500;126.0000;128;74;0.27692
2415140;0.17000;125.6875;128;74;0.27717
2415150;0.11500;125.3125;128;74;0.27790
2415160;0.04000;124.1250;128;74;0.27790
2415170;0.00500;123.3750;128;74;0.27717
2415180;-0.02500;122.5000;128;74;0.27643
2415190;-0.05000;121.4375;128;74;0.27570
2415200;-0.06500;120.1875;128;74;0.27497
2415210;-0.07500;117.2500;128;74;0.27619
2415220;-0.08500;115.3750;128;74;0.27937
2415230;-0.09500;113.3125;128;74;0.28523
2415240;-0.10500;111.0000;128;74;0.29328
2415250;-0.10500;105.6875;128;74;0.31966
2415260;-0.10500;102.8125;128;74;0.33944
2415270;-0.10000;100.0000;128;74;0.36337
2415280;-0.09500;97.6875;128;74;0.39072
2415290;-0.09000;95.3125;128;74;0.45128
2415300;-0.08000;95.3125;128;74;0.48254
2415310;-0.08000;95.6250;128;74;0.51331
2415320;-0.08500;96.0625;128;74;0.54286
2415330;-0.08500;96.8750;128;74;0.59585
2415340;-0.08500;97.1875;128;74;0.61612
2415350;-0.07500;97.4375;128;74;0.63297
2415360;-0.05500;97.5625;128;74;0.66642
2415370;-0.04000;97.4375;128;74;0.68132
2415380;-0.02500;97.0625;128;74;0.69451
2415390;-0.02500;96.6250;128;74;0.70623
2415400;-0.02500;96.0625;128;74;0.71624
2415410;-0.02000;94.9375;128;74;0.73236
2415420;-0.01000;94.3750;128;74;0.73846
2415430;-0.00500;93.8125;128;74;0.74310
2415440;0.00000;93.2500;128;74;0.74505
2415450;-0.00500;92.1875;128;74;0.74579
2415460;-0.01500;91.6250;128;74;0.74481
2415470;-0.02000;91.1250;128;74;0.74261
2415480;-0.02500;90.1875;128;74;0.73382
2415490;-0.02500;89.7500;128;74;0.72674
2415500;-0.01500;89.3125;128;74;0.71795
2415510;-0.02000;88.8750;128;74;0.70769
2415520;-0.02000;88.4375;128;74;0.69597
2415530;-0.02500;87.6250;128;74;0.66984
2415540;-0.02500;87.2500;128;74;0.65763
2415550;-0.00500;86.8125;128;74;0.64615
2415560;0.01500;86.4375;128;74;0.63443
2415570;0.05000;85.6875;128;74;0.61343
2415580;0.07000;85.3750;128;74;0.60464
2415590;0.07500;85.0625;128;74;0.59731
2415600;0.09500;84.5000;128;74;0.58608
2415610;0.12500;84.2500;128;74;0.58144
2415620;0.13000;84.0000;128;74;0.57753
2415630;0.11000;83.7500;128;74;0.57411
2415640;0.08000;83.2500;128;74;0.56777
2415650;0.06000;83.0625;128;74;0.56435
2415660;0.04000;82.8750;128;74;0.56093
2415670;0.02000;82.6875;128;74;0.55702
2415680;0.01500;82.4375;128;74;0.55287
2415690;0.01000;81.9375;128;74;0.54359
2415700;0.01500;81.6875;128;74;0.53846
2415710;0.02500;81.4375;128;74;0.53333
2415720;0.02000;81.1875;128;74;0.52821
2415730;0.01500;80.7500;128;74;0.51746
2415740;0.09000;80.5625;128;74;0.51258
2415750;0.49500;80.3750;128;74;0.50842
2415760;1.25000;80.0000;128;74;0.49963
2415770;1.26000;79.8125;128;74;0.49499
2415780;0.56000;79.6250;128;74;0.49035
2415790;-0.03500;79.4375;128;74;0.48596
2415800;-0.03500;79.4375;128;74;0.48596
2415810;-0.03500;78.8750;128;74;0.47179
2415820;-0.03500;78.6875;128;74;0.46691
2415830;-0.04000;78.5000;128;74;0.46203
2415840;-0.04500;78.3125;128;74;0.45788
2415850;-0.05000;77.8125;128;74;0.45055
2415860;-0.05500;77.5000;128;74;0.44640
2415870;-0.06000;77.2500;128;74;0.44225
2415880;-0.06500;76.9375;128;74;0.43810
2415890;-0.08000;76.4375;128;74;0.43028
2415900;-0.08500;76.1875;128;74;0.42637
2415910;-0.08500;75.8750;128;74;0.42247
2415920;-0.07500;75.3125;128;74;0.41490
2415930;-0.06500;75.0625;128;74;0.41123
2415940;-0.06000;74.8750;128;74;0.40879
2415950;-0.05500;74.7500;128;74;0.40659
2415960;-0.03500;74.6250;128;74;0.40415
2415970;-0.01500;75.0625;128;74;0.39902
2415980;0.00000;76.1875;128;74;0.39658
2415990;0.01500;78.5000;128;74;0.39414
2416000;0.03000;87.2500;127;74;0.39194
2416010;0.05000;93.1875;127;74;0.38779
2416020;0.07000;99.3750;127;74;0.38632
2416030;0.08500;105.1875;127;74;0.38486
2416040;0.11000;115.2500;127;74;0.38388
2416050;0.13000;119.3750;127;74;0.38339
2416060;0.15500;122.8750;127;74;0.38266
2416070;0.18500;125.7500;127;74;0.38193
2416080;0.21000;127.8125;127;74;0.38120
2416090;0.23500;130.1250;127;74;0.37998
2416100;0.26500;130.6250;127;74;0.37900
2416110;0.28500;130.8125;127;74;0.37778
2416120;0.28500;130.8750;127;74;0.37656
2416130;0.27000;130.8125;127;74;0.37387
2416140;0.22500;130.6250;127;74;0.37338
2416150;0.17500;130.3750;127;74;0.37338
2416160;0.11000;129.5625;127;74;0.37289
2416170;0.04000;129.0625;127;74;0.37118
2416180;0.01000;128.3750;127;74;0.37021
2416190;-0.02500;127.6250;127;74;0.36923
2416200;-0.04500;125.6875;127;74;0.36728
2416210;-0.05500;124.4375;127;74;0.36679
2416220;-0.06500;123.0625;127;74;0.36703
2416230;-0.07500;121.4375;127;74;0.36874
2416240;-0.08500;117.5000;127;74;0.37778
2416250;-0.09000;115.1250;127;74;0.38706
2416260;-0.09000;112.5625;127;74;0.40049
2416270;-0.08000;109.8750;127;74;0.41856
2416280;-0.07500;107.1875;127;74;0.44078
2416290;-0.07500;102.9375;127;74;0.49475
2416300;-0.07500;101.6875;127;74;0.52430
2416310;-0.07500;101.0625;127;74;0.55433
2416320;-0.08000;100.7500;127;74;0.58364
2416330;-0.09000;100.8750;127;74;0.63736
2416340;-0.09500;101.0625;127;74;0.65763
2416350;-0.09500;101.3125;127;74;0.67424
2416360;-0.09500;101.5625;127;74;0.69109
2416370;-0.09500;101.6875;127;74;0.72063
2416380;-0.10500;101.5000;127;74;0.73309
2416390;-0.11500;101.2500;127;74;0.74408
2416400;-0.12500;100.4375;127;74;0.76166
2416410;-0.13000;99.9375;127;74;0.76850
2416420;-0.13500;99.4375;127;74;0.77411
2416430;-0.13500;98.8125;127;74;0.77851
2416440;-0.12500;97.6875;127;74;0.78120
2416450;-0.11500;97.0625;127;74;0.78193
2416460;-0.11000;96.5000;127;74;0.78217
2416470;-0.10000;95.8750;127;74;0.78144
2416480;-0.10000;95.3125;127;74;0.77973
2416490;-0.10500;94.1250;127;74;0.77167
2416500;-0.11500;93.5625;127;74;0.76508
2416510;-0.11500;93.0000;127;74;0.75702
2416520;-0.10500;91.9375;127;74;0.73675
2416530;-0.10500;91.3750;127;74;0.72576
2416540;-0.10500;90.8125;127;74;0.71453
2416550;-0.09500;90.3125;127;74;0.70256
2416560;-0.09500;89.8125;127;74;0.69060
2416570;-0.09000;88.9375;127;74;0.66740
2416580;-0.06500;88.5000;127;74;0.65690
2416590;-0.04000;88.1875;127;74;0.64762
2416600;-0.01000;87.8750;127;74;0.63980
2416610;0.00500;87.3125;127;74;0.62784
2416620;0.01000;87.0625;127;74;0.62344
2416630;0.02500;86.8125;127;74;0.61954
2416640;0.04500;86.3750;127;74;0.61221
2416650;0.03500;86.1250;127;74;0.60855
2416660;0.00000;85.9375;127;74;0.60440
2416670;-0.04500;85.7500;127;74;0.60000
2416680;-0.09500;85.3750;127;74;0.59048
2416690;-0.12500;85.1250;127;74;0.58559
2416700;-0.15500;84.9375;127;74;0.58046
2416710;-0.16000;84.7500;127;74;0.57509
2416720;-0.16000;84.5625;127;74;0.56972
2416730;-0.15500;84.0625;127;74;0.55946
2416740;-0.14000;83.8750;127;74;0.55482
2416750;-0.13500;83.6250;127;74;0.54969
2416760;-0.13500;83.3750;127;74;0.54408
2416770;0.01000;82.8750;127;74;0.53211
2416780;0.55000;82.6875;127;74;0.52601
2416790;1.26000;82.5000;127;74;0.51990
2416800;1.26000;82.5000;127;74;0.51990
2416810;0.25500;81.8750;127;74;0.50281
2416820;-0.15000;81.6250;127;74;0.49744
2416830;-0.16000;81.3750;127;74;0.49206
2416840;-0.17500;80.6875;127;74;0.48376
2416850;-0.19000;80.3125;127;74;0.47937
2416860;-0.19500;79.9375;127;74;0.47521
2416870;-0.19500;79.5625;127;74;0.47106
2416880;-0.19000;79.1250;127;74;0.46691
2416890;-0.17000;78.1250;127;74;0.45934
2416900;-0.15500;77.6250;127;74;0.45592
2416910;-0.14000;77.1875;127;74;0.45275
2416920;-0.13500;76.8125;127;74;0.44982
2416930;-0.12500;76.0625;127;74;0.43810
2416940;-0.12000;75.7500;127;74;0.42589
2416950;-0.11500;75.3750;127;74;0.41880
2416960;-0.11500;74.8750;127;74;0.41123
2416970;-0.10500;74.6875;127;74;0.40879
2416980;-0.09500;74.5625;127;74;0.40659
2416990;-0.08500;74.5000;127;74;0.40440
2417000;-0.07000;75.7500;126;74;0.40049
2417010;-0.06500;77.8125;126;74;0.39853
2417020;-0.06500;81.3750;126;74;0.39658
2417030;-0.06000;86.3750;126;74;0.39463
2417040;-0.05500;98.6875;126;74;0.39292
2417050;-0.05500;104.7500;126;74;0.39194
2417060;-0.05000;110.2500;126;74;0.39096
2417070;-0.03000;115.1875;126;74;0.38999
2417080;-0.00500;119.4375;126;74;0.38901
2417090;0.02500;126.0000;126;74;0.38657
2417100;0.04500;128.1875;126;74;0.38486
2417110;0.07500;129.6875;126;74;0.38291
2417120;0.09000;130.5625;126;74;0.38095
2417130;0.12000;131.2500;126;74;0.37656
2417140;0.14500;131.3125;126;74;0.37485
2417150;0.15500;131.2500;126;74;0.37241
2417160;0.14500;131.1250;126;74;0.36972
2417170;0.10000;130.5000;126;74;0.36484
2417180;0.06000;130.1250;126;74;0.36264
2417190;0.01000;129.6250;126;74;0.36044
2417200;-0.04500;129.0625;126;74;0.35849
2417210;-0.08500;127.5625;126;74;0.35458
2417220;-0.14000;126.5625;126;74;0.35263
2417230;-0.15000;125.3750;126;74;0.35092
2417240;-0.15500;124.0625;126;74;0.35018
2417250;-0.18500;120.8750;126;74;0.35067
2417260;-0.22000;119.0000;126;74;0.35263
2417270;-0.21500;116.8125;126;74;0.35751
2417280;-0.21000;114.3750;126;74;0.36581
2417290;-0.20000;108.8750;126;74;0.39487
2417300;-0.20000;106.0625;126;74;0.41587
2417310;-0.19000;103.5000;126;74;0.44054
2417320;-0.19000;100.0000;126;74;0.49621
2417330;-0.18500;99.1875;126;74;0.52137
2417340;-0.18000;98.8125;126;74;0.54383
2417350;-0.18000;98.7500;126;74;0.56777
2417360;-0.18000;99.0625;126;74;0.61270
2417370;-0.18000;99.3125;126;74;0.63199
2417380;-0.18000;99.6250;126;74;0.64884
2417390;-0.17000;99.8125;126;74;0.66325
2417400;-0.17000;99.8125;126;74;0.68571
2417410;-0.16500;99.6250;126;74;0.69426
2417420;-0.16500;99.2500;126;74;0.70110
2417430;-0.16000;98.8750;126;74;0.70672
2417440;-0.16000;98.3750;126;74;0.70989
2417450;-0.15500;97.1250;126;74;0.71355
2417460;-0.14500;96.5000;126;74;0.71477
2417470;-0.14500;95.8750;126;74;0.71502
2417480;-0.14000;94.6250;126;74;0.71233
2417490;-0.13500;94.0000;126;74;0.70891
2417500;-0.13500;93.4375;126;74;0.70403
2417510;-0.13500;92.8125;126;74;0.69768
2417520;-0.13500;92.2500;126;74;0.68987
2417530;-0.13500;91.0625;126;74;0.67082
2417540;-0.13000;90.5000;126;74;0.66056
2417550;-0.12500;89.9375;126;74;0.64884
2417560;-0.11500;88.8750;126;74;0.62295
2417570;-0.09500;88.3750;126;74;0.60928
2417580;-0.05000;87.8750;126;74;0.59560
2417590;-0.02500;87.3750;126;74;0.58217
2417600;-0.01500;86.8750;126;74;0.56947
2417610;0.00000;86.0000;126;74;0.54725
2417620;0.01500;85.5625;126;74;0.53773
2417630;0.02500;85.1875;126;74;0.52943
2417640;0.00500;84.3750;126;74;0.51746
2417650;-0.00500;84.0000;126;74;0.51233
2417660;-0.01500;83.6875;126;74;0.50769
2417670;-0.02500;83.4375;126;74;0.50305
2417680;-0.04500;83.1250;126;74;0.49866
2417690;-0.09500;82.5625;126;74;0.48913
2417700;-0.11500;82.3125;126;74;0.48400
2417710;-0.12500;82.1250;126;74;0.47863
2417720;-0.11000;81.7500;126;74;0.46691
2417730;-0.10000;81.5625;126;74;0.46154
2417740;-0.10500;81.3750;126;74;0.45641
2417750;-0.10000;81.1875;126;74;0.45055
2417760;0.18000;80.8125;126;74;0.43761
2417770;0.62000;80.6875;126;74;0.43101
2417780;1.06500;80.5625;126;74;0.42418
2417790;0.72500;80.3750;126;74;0.41734
2417800;0.72500;80.3750;126;74;0.41734
2417810;-0.20500;79.7500;126;74;0.39731
2417820;-0.15000;79.5625;126;74;0.39048
2417830;-0.14000;79.3125;126;74;0.38388
2417840;-0.14500;78.8125;126;74;0.37338
2417850;-0.14000;78.5000;126;74;0.36777
2417860;-0.13500;78.1875;126;74;0.36190
2417870;-0.12500;77.8125;126;74;0.35604
2417880;-0.12000;77.5000;126;74;0.35018
2417890;-0.11500;76.8750;126;74;0.33846
2417900;-0.13500;76.5000;126;74;0.33260
2417910;-0.14000;76.1875;126;74;0.32698
2417920;-0.13500;75.8750;126;74;0.32186
2417930;-0.13500;75.1875;126;74;0.31331
2417940;-0.12500;74.8750;126;74;0.31062
2417950;-0.11500;74.6250;126;74;0.30696
2417960;-0.10500;74.1875;126;74;0.30330
2417970;-0.08500;73.9375;126;74;0.29548
2417980;-0.06500;73.7500;126;74;0.29158
2417990;-0.04500;73.6250;126;74;0.28816
2418000;-0.02500;74.3750;125;73;0.28205
2418010;-0.02500;75.8750;125;73;0.27961
2418020;-0.03000;78.5625;125;73;0.27741
2418030;-0.02000;82.3750;125;73;0.27521
2418040;0.00000;87.1875;125;73;0.27424
2418050;0.02500;97.8125;125;73;0.27277
2418060;0.06000;102.8750;125;73;0.27131
2418070;0.09000;107.4375;125;73;0.26960
2418080;0.12500;115.0625;125;73;0.26813
2418090;0.15500;117.9375;125;73;0.26471
2418100;0.18500;120.1875;125;73;0.26276
2418110;0.22500;121.7500;125;73;0.26081
2418120;0.24500;122.6875;125;73;0.25885
2418130;0.26500;123.2500;125;73;0.25641
2418140;0.25500;123.1875;125;73;0.25617
2418150;0.22500;122.9375;125;73;0.25495
2418160;0.16500;122.5000;125;73;0.25348
2418170;0.07500;121.3125;125;73;0.25006
2418180;0.01500;120.5625;125;73;0.24860
2418190;-0.05000;119.6875;125;73;0.24737
2418200;-0.10500;117.6875;125;73;0.24640
2418210;-0.14500;116.4375;125;73;0.24542
2418220;-0.17000;115.1250;125;73;0.24493
2418230;-0.18500;113.5625;125;73;0.24444
2418240;-0.19000;109.8125;125;73;0.24615
2418250;-0.18000;107.5625;125;73;0.24737
2418260;-0.18000;105.1250;125;73;0.24957
2418270;-0.17000;102.5000;125;73;0.25372
2418280;-0.17000;99.8750;125;73;0.26081
2418290;-0.17000;95.2500;125;73;0.28571
2418300;-0.16000;93.7500;125;73;0.30403
2418310;-0.16000;92.8750;125;73;0.32576
2418320;-0.16000;92.6250;125;73;0.35043
2418330;-0.15500;92.8750;125;73;0.40073
2418340;-0.15500;93.1875;125;73;0.42320
2418350;-0.15000;93.4375;125;73;0.44713
2418360;-0.14500;93.7500;125;73;0.47106
2418370;-0.14000;94.2500;125;73;0.51404
2418380;-0.14000;94.3125;125;73;0.53260
2418390;-0.14500;94.2500;125;73;0.54872
2418400;-0.14500;93.7500;125;73;0.57436
2418410;-0.14500;93.3750;125;73;0.58413
2418420;-0.14500;92.9375;125;73;0.59219
2418430;-0.15000;92.4375;125;73;0.59780
2418440;-0.15000;91.3750;125;73;0.60537
2418450;-0.15000;90.8750;125;73;0.60806
2418460;-0.15000;90.3125;125;73;0.60977
2418470;-0.15000;89.8125;125;73;0.61050
2418480;-0.15000;89.3125;125;73;0.60977
2418490;-0.14500;88.2500;125;73;0.60440
2418500;-0.13500;87.7500;125;73;0.59976
2418510;-0.13500;87.2500;125;73;0.59341
2418520;-0.13500;86.7500;125;73;0.58559
2418530;-0.13000;85.8125;125;73;0.56752
2418540;-0.13000;85.3750;125;73;0.55849
2418550;-0.12500;84.9375;125;73;0.54823
2418560;-0.11500;84.0625;125;73;0.53748
2418570;-0.07500;83.6875;125;73;0.51673
2418580;-0.05500;83.3125;125;73;0.50720
2418590;-0.04000;83.0000;125;73;0.49890
2418600;-0.03500;82.3125;125;73;0.48547
2418610;-0.02000;82.0000;125;73;0.48059
2418620;0.00000;81.6875;125;73;0.47643
2418630;0.00500;81.3750;125;73;0.47350
2418640;-0.02000;81.1250;125;73;0.47131
2418650;-0.05500;80.6250;125;73;0.46667
2418660;-0.07500;80.4375;125;73;0.46422
2418670;-0.10500;80.1875;125;73;0.46178
2418680;-0.12500;80.0000;125;73;0.45910
2418690;-0.14000;79.5000;125;73;0.45275
2418700;-0.14500;79.3125;125;73;0.44908
2418710;-0.13500;79.0625;125;73;0.44518
2418720;-0.12500;78.8750;125;73;0.44103
2418730;-0.11500;78.5625;125;73;0.43297
2418740;-0.09500;78.3750;125;73;0.42979
2418750;-0.02000;78.1875;125;73;0.42564
2418760;0.39500;77.8750;125;73;0.41685
2418770;0.86000;77.6875;125;73;0.41245
2418780;1.03000;77.5625;125;73;0.40781
2418790;0.28500;77.3750;125;73;0.40317
2418800;-0.14000;77.1875;125;73;0.39853
2418810;-0.20000;76.8125;125;73;0.38950
2418820;-0.16000;76.6250;125;73;0.38510
2418830;-0.16000;76.4375;125;73;0.38169
2418840;-0.16500;76.1875;125;73;0.37875
2418850;-0.17000;75.6250;125;73;0.37143
2418860;-0.16500;75.3750;125;73;0.36728
2418870;-0.16000;75.0625;125;73;0.36337
2418880;-0.15500;74.8125;125;73;0.35946
2418890;-0.15000;74.2500;125;73;0.35189
2418900;-0.13500;74.0000;125;73;0.34847
2418910;-0.12500;73.6875;125;73;0.34530
2418920;-0.11500;73.3750;125;73;0.34237
2418930;-0.10500;72.8125;125;73;0.33748
2418940;-0.09500;72.5625;125;73;0.33578
2418950;-0.08500;72.3750;125;73;0.33309
2418960;-0.07500;72.1250;125;73;0.32674
2418970;-0.07000;71.9375;125;73;0.32357
2418980;-0.06500;71.8125;125;73;0.32332
2418990;-0.04500;71.8750;125;73;0.32454
2419000;-0.02500;73.8125;125;73;0.32259
2419010;-0.00500;76.2500;125;73;0.32063
2419020;0.00500;79.9375;125;73;0.31868
2419030;0.02000;84.6875;125;73;0.31746
2419040;0.03500;90.0625;125;73;0.31697
2419050;0.05000;100.7500;125;73;0.31404
2419060;0.06500;105.4375;125;73;0.31233
2419070;0.06500;109.5625;125;73;0.31087
2419080;0.07500;113.1875;125;73;0.30940
2419090;0.11000;118.5000;125;73;0.30647
2419100;0.14500;120.1875;125;73;0.30501
2419110;0.17500;121.1875;125;73;0.30330
2419120;0.20500;121.9375;125;73;0.30159
2419130;0.21500;121.8750;125;73;0.29939
2419140;0.20500;121.6250;125;73;0.29939
2419150;0.15500;121.3125;125;73;0.29866
2419160;0.11000;120.8750;125;73;0.29792
2419170;0.02500;119.6250;125;73;0.29597
2419180;-0.02500;118.8125;125;73;0.29524
2419190;-0.08000;117.8750;125;73;0.29475
2419200;-0.13000;115.6875;125;73;0.29402
2419210;-0.15000;114.3750;125;73;0.29353
2419220;-0.16500;112.8750;125;73;0.29328
2419230;-0.17500;111.2500;125;73;0.29377
2419240;-0.18000;107.3750;125;73;0.29646
2419250;-0.17500;105.1250;125;73;0.29890
2419260;-0.17500;102.6875;125;73;0.30330
2419270;-0.17000;100.1250;125;73;0.31038
2419280;-0.16500;97.5625;125;73;0.32112
2419290;-0.16000;93.3125;125;73;0.35507
2419300;-0.15000;92.0625;125;73;0.37802
2419310;-0.14000;91.4375;125;73;0.40415
2419320;-0.13500;91.3750;125;73;0.43248
2419330;-0.12500;91.9375;125;73;0.48816
2419340;-0.12500;92.2500;125;73;0.51209
2419350;-0.12000;92.6250;125;73;0.53773
2419360;-0.12000;93.0000;125;73;0.56288
2419370;-0.12500;93.4375;125;73;0.60757
2419380;-0.12500;93.5000;125;73;0.62686
2419390;-0.12500;93.3750;125;73;0.64371
2419400;-0.13500;92.6875;125;73;0.65812
2419410;-0.13500;92.2500;125;73;0.68059
2419420;-0.13500;91.8125;125;73;0.68913
2419430;-0.14000;91.2500;125;73;0.69475
2419440;-0.14500;90.1250;125;73;0.70208
2419450;-0.14500;89.5625;125;73;0.70501
2419460;-0.15000;89.0625;125;73;0.70720
2419470;-0.15500;88.5625;125;73;0.70842
2419480;-0.15500;88.1250;125;73;0.70818
2419490;-0.16000;87.1875;125;73;0.70330
2419500;-0.16000;86.7500;125;73;0.69817
2419510;-0.16000;86.2500;125;73;0.69158
2419520;-0.16000;85.7500;125;73;0.68327
2419530;-0.15500;84.7500;125;73;0.66349
2419540;-0.15500;84.2500;125;73;0.65324
2419550;-0.14500;83.7500;125;73;0.64200
2419560;-0.13000;83.3125;125;73;0.63028
2419570;-0.10000;82.4375;125;73;0.60757
2419580;-0.06500;82.0625;125;73;0.59756
2419590;-0.05500;81.6250;125;73;0.58877
2419600;-0.04500;81.2500;125;73;0.58144
2419610;-0.03000;80.5625;125;73;0.57045
2419620;-0.00500;80.3125;125;73;0.56654
2419630;0.01000;80.0000;125;73;0.56337
2419640;-0.01500;79.8125;125;73;0.56068
2419650;-0.05500;79.3125;125;73;0.55580
2419660;-0.07000;79.0625;125;73;0.55311
2419670;-0.08500;78.8125;125;73;0.55018
2419680;-0.11000;78.3750;125;73;0.54261
2419690;-0.11500;78.1875;125;73;0.53797
2419700;-0.11500;78.0625;125;73;0.53309
2419710;-0.10500;77.8750;125;73;0.52796
2419720;-0.10500;77.6875;125;73;0.52259
2419730;-0.09000;77.4375;125;73;0.51258
2419740;-0.07500;77.3125;125;73;0.50818
2419750;-0.03500;77.1250;125;73;0.50354
2419760;0.21500;77.0000;125;73;0.49866
2419770;0.87000;76.6875;125;73;0.48816
2419780;1.11000;76.5625;125;73;0.48254
2419790;0.65500;76.4375;125;73;0.47692
2419800;0.65500;76.4375;125;73;0.47692
2419810;-0.18000;75.9375;125;73;0.46007
2419820;-0.14000;75.7500;125;73;0.45421
2419830;-0.14500;75.5625;125;73;0.44933
2419840;-0.15500;75.0000;125;73;0.44029
2419850;-0.16000;74.6875;125;73;0.43516
2419860;-0.16000;74.3750;125;73;0.43004
2419870;-0.16000;74.1250;125;73;0.42515
2419880;-0.16000;73.8125;125;73;0.42027
2419890;-0.15500;73.1250;125;73;0.41050
2419900;-0.15000;72.8125;125;73;0.40610
2419910;-0.14000;72.4375;125;73;0.40171
2419920;-0.13500;72.1250;125;73;0.39756
2419930;-0.12000;71.4375;125;73;0.39048
2419940;-0.10500;71.1875;125;73;0.38803
2419950;-0.09500;70.9375;125;73;0.38510
2419960;-0.08500;70.5625;125;73;0.37900
2419970;-0.07500;70.4375;125;73;0.37607
2419980;-0.06500;70.3750;125;73;0.37314
2419990;-0.06000;70.5000;125;73;0.37021
2420000;-0.05000;71.0625;125;73;0.36728
2420010;-0.03500;74.8750;125;73;0.36142
2420020;-0.02500;78.6875;125;73;0.35849
2420030;-0.00500;83.5625;125;73;0.35653
2420040;0.01000;94.8125;125;73;0.35287
2420050;0.03000;100.2500;125;73;0.35092
2420060;0.05000;105.1875;125;73;0.34872
2420070;0.09000;109.5000;125;73;0.34652
2420080;0.11500;113.3125;125;73;0.34408
2420090;0.14500;118.8750;125;73;0.33944
2420100;0.18000;120.6875;125;73;0.33724
2420110;0.22000;121.7500;125;73;0.33455
2420120;0.24000;122.2500;125;73;0.33187
2420130;0.25500;122.3750;125;73;0.32869
2420140;0.24500;122.1250;125;73;0.32650
2420150;0.21500;121.7500;125;73;0.32405
2420160;0.15500;121.3125;125;73;0.32137
2420170;0.07000;120.0625;125;73;0.31673
2420180;0.01000;119.3125;125;73;0.31477
2420190;-0.05500;118.4375;125;73;0.31331
2420200;-0.10500;116.4375;125;73;0.31184
2420210;-0.15000;115.1875;125;73;0.30940
2420220;-0.16500;113.8125;125;73;0.30842
2420230;-0.18500;112.2500;125;73;0.30842
2420240;-0.19000;110.5625;125;73;0.30891
2420250;-0.19500;106.4375;125;73;0.31111
2420260;-0.20000;104.1250;125;73;0.31453
2420270;-0.20000;101.6250;125;73;0.32088
2420280;-0.20000;99.0000;125;73;0.33114
2420290;-0.19000;94.1250;125;73;0.36508
2420300;-0.19000;92.3750;125;73;0.38852
2420310;-0.19000;91.4375;125;73;0.41563
2420320;-0.19000;91.1250;125;73;0.44518
2420330;-0.19000;91.6875;125;73;0.49817
2420340;-0.18500;92.1250;125;73;0.52674
2420350;-0.18500;92.5625;125;73;0.55580
2420360;-0.18000;93.0000;125;73;0.58364
2420370;-0.17500;93.6875;125;73;0.63346
2420380;-0.17000;93.8750;125;73;0.65446
2420390;-0.17000;93.8750;125;73;0.67277
2420400;-0.17000;93.7500;125;73;0.68889
2420410;-0.17000;93.0000;125;73;0.71429
2420420;-0.17000;92.5000;125;73;0.72405
2420430;-0.17000;91.9375;125;73;0.73065
2420440;-0.16000;90.8125;125;73;0.73944
2420450;-0.15500;90.2500;125;73;0.74335
2420460;-0.15500;89.6250;125;73;0.74603
2420470;-0.15500;89.0625;125;73;0.74725
2420480;-0.15000;88.4375;125;73;0.74725
2420490;-0.14500;87.3125;125;73;0.74261
2420500;-0.14000;86.7500;125;73;0.73773
2420510;-0.13500;86.1875;125;73;0.73114
2420520;-0.13500;85.6875;125;73;0.72283
2420530;-0.13500;84.6875;125;73;0.70354
2420540;-0.13500;84.1875;125;73;0.69206
2420550;-0.13000;83.7500;125;73;0.67961
2420560;-0.12000;83.0000;125;73;0.65446
2420570;-0.10000;82.6250;125;73;0.64249
2420580;-0.07000;82.3125;125;73;0.63150
2420590;-0.04500;82.0000;125;73;0.62198
2420600;-0.04500;81.5000;125;73;0.60635
2420610;-0.04500;81.1875;125;73;0.60049
2420620;-0.03500;80.9375;125;73;0.59560
2420630;-0.01500;80.6875;125;73;0.59145
2420640;-0.03500;80.1250;125;73;0.58510
2420650;-0.06500;79.8750;125;73;0.58217
2420660;-0.10000;79.6250;125;73;0.57949
2420670;-0.11500;79.3750;125;73;0.57656
2420680;-0.14000;78.8750;125;73;0.57338
2420690;-0.16000;78.6250;125;73;0.56581
2420700;-0.17000;78.4375;125;73;0.56117
2420710;-0.17500;78.1875;125;73;0.55629
2420720;-0.18000;78.0000;125;73;0.55116
2420730;-0.17000;77.6250;125;73;0.54139
2420740;-0.16000;77.5000;125;73;0.53602
2420750;-0.14500;77.3125;125;73;0.53040
2420760;-0.04000;77.1250;125;73;0.52454
2420770;0.49500;76.8125;125;73;0.51233
2420780;0.95500;76.6875;125;73;0.50623
2420790;0.90500;76.5000;125;73;0.50012
2420800;0.90500;76.5000;125;73;0.50012
2420810;-0.23000;75.9375;125;73;0.48181
2420820;-0.20500;75.7500;125;73;0.47570
2420830;-0.18000;75.5000;125;73;0.47057
2420840;-0.18500;75.0625;125;73;0.46129
2420850;-0.18500;74.8125;125;73;0.45617
2420860;-0.18000;74.5000;125;73;0.45104
2420870;-0.17500;74.2500;125;73;0.44591
2420880;-0.17000;73.9375;125;73;0.44103
2420890;-0.16000;73.3125;125;73;0.43175
2420900;-0.15500;73.0000;125;73;0.42735
2420910;-0.15500;72.6875;125;73;0.42320
2420920;-0.14500;72.1875;125;73;0.41612
2420930;-0.14000;71.9375;125;73;0.41343
2420940;-0.13500;71.6875;125;73;0.41026
2420950;-0.12000;71.5000;125;73;0.40708
2420960;-0.10500;71.3125;125;73;0.40366
2420970;-0.09500;71.0000;125;73;0.39634
2420980;-0.08000;70.8750;125;73;0.39267
2420990;-0.07000;70.9375;125;73;0.38877
2421000;-0.06500;72.8750;126;73;0.38510
2421010;-0.05000;75.4375;126;73;0.37851
2421020;-0.03500;79.3125;126;73;0.37558
2421030;-0.02000;84.2500;126;73;0.36484
2421040;0.00500;95.5625;126;73;0.34164
2421050;0.02500;100.9375;126;73;0.33602
2421060;0.06000;105.8750;126;73;0.33187
2421070;0.08000;110.1875;126;73;0.32821
2421080;0.11000;114.0000;126;73;0.32503
2421090;0.14500;119.8125;126;73;0.31966
2421100;0.17500;121.6875;126;73;0.31746
2421110;0.22000;122.8750;126;73;0.31526
2421120;0.24500;123.5000;126;73;0.31331
2421130;0.27500;123.8125;126;73;0.31184
2421140;0.28000;123.7500;126;73;0.31062
2421150;0.27000;123.5625;126;73;0.30916
2421160;0.23500;123.2500;126;73;0.30720
2421170;0.15500;122.3750;126;73;0.30354
2421180;0.09500;121.7500;126;73;0.30208
2421190;0.02000;121.0625;126;73;0.30085
2421200;-0.01000;120.1875;126;73;0.29963
2421210;-0.05500;118.1250;126;73;0.29744
2421220;-0.08000;116.8750;126;73;0.29646
2421230;-0.10500;115.4375;126;73;0.29646
2421240;-0.12000;112.0625;126;73;0.29792
2421250;-0.12500;110.1250;126;73;0.29939
2421260;-0.13500;107.9375;126;73;0.30305
2421270;-0.14000;105.5625;126;73;0.31013
2421280;-0.14500;103.0625;126;73;0.32112
2421290;-0.14500;98.0625;126;73;0.35775
2421300;-0.14500;96.0625;126;73;0.38339
2421310;-0.15000;94.7500;126;73;0.41319
2421320;-0.15000;94.0625;126;73;0.44615
2421330;-0.14500;93.8750;126;73;0.50452
2421340;-0.14500;94.0625;126;73;0.53651
2421350;-0.14000;94.3750;126;73;0.56947
2421360;-0.14000;94.8750;126;73;0.63223
2421370;-0.14000;95.0625;126;73;0.66056
2421380;-0.13500;95.1250;126;73;0.68645
2421390;-0.13500;95.0625;126;73;0.70965
2421400;-0.13500;94.9375;126;73;0.73016
2421410;-0.13500;94.3125;126;73;0.76337
2421420;-0.13500;93.8750;126;73;0.77656
2421430;-0.13500;93.3750;126;73;0.78559
2421440;-0.12500;92.8750;126;73;0.79194
2421450;-0.12000;91.8125;126;73;0.80464
2421460;-0.11500;91.2500;126;73;0.80952
2421470;-0.11500;90.7500;126;73;0.81294
2421480;-0.11000;89.6875;126;73;0.81490
2421490;-0.11500;89.1875;126;73;0.81319
2421500;-0.11500;88.6875;126;73;0.80952
2421510;-0.12500;88.1875;126;73;0.80391
2421520;-0.13000;87.6875;126;73;0.79634
2421530;-0.13500;86.7500;126;73;0.77656
2421540;-0.13500;86.3125;126;73;0.76435
2421550;-0.13500;85.8750;126;73;0.75092
2421560;-0.12500;85.3750;126;73;0.73651
2421570;-0.11500;84.5000;126;73;0.70720
2421580;-0.08500;84.0625;126;73;0.69328
2421590;-0.06000;83.6875;126;73;0.68010
2421600;-0.04500;83.3125;126;73;0.66838
2421610;-0.03500;82.6250;126;73;0.64860
2421620;-0.02500;82.3750;126;73;0.64078
2421630;0.00000;82.1250;126;73;0.63394
2421640;0.01000;81.6250;126;73;0.62271
2421650;-0.01500;81.3750;126;73;0.61758
2421660;-0.04000;81.1250;126;73;0.61270
2421670;-0.06500;80.9375;126;73;0.60781
2421680;-0.09500;80.5625;126;73;0.59731
2421690;-0.11500;80.3750;126;73;0.59194
2421700;-0.13500;80.1250;126;73;0.58608
2421710;-0.14500;79.9375;126;73;0.57998
2421720;-0.15000;79.7500;126;73;0.57363
2421730;-0.14500;79.3750;126;73;0.56166
2421740;-0.13500;79.1875;126;73;0.55507
2421750;-0.13000;79.0000;126;73;0.54799
2421760;-0.09000;78.8750;126;73;0.54090
2421770;0.20000;78.5625;126;73;0.52650
2421780;0.92000;78.3750;126;73;0.51917
2421790;1.14500;78.2500;126;73;0.51209
2421800;0.63500;78.0625;126;73;0.50501
2421810;-0.11500;77.7500;126;73;0.49158
2421820;-0.18000;77.5625;126;73;0.48498
2421830;-0.15500;77.3750;126;73;0.47961
2421840;-0.15500;76.8750;126;73;0.46886
2421850;-0.16000;76.6250;126;73;0.46276
2421860;-0.16000;76.3750;126;73;0.45665
2421870;-0.15500;76.0625;126;73;0.45055
2421880;-0.15000;75.8125;126;73;0.44469
2421890;-0.14500;75.1875;126;73;0.43321
2421900;-0.13500;74.9375;126;73;0.42784
2421910;-0.12500;74.6875;126;73;0.42271
2421920;-0.12000;74.3750;126;73;0.41783
2421930;-0.11500;73.8750;126;73;0.41026
2421940;-0.10500;73.5625;126;73;0.40659
2421950;-0.09500;73.3750;126;73;0.40269
2421960;-0.08000;73.1875;126;73;0.39878
2421970;-0.06500;72.8125;126;73;0.39096
2421980;-0.04000;72.6875;126;73;0.38706
2421990;-0.02500;72.8125;126;73;0.38315
2422000;-0.00500;73.4375;127;74;0.37949
2422010;0.00000;77.4375;127;74;0.37289
2422020;0.01000;81.4375;127;74;0.37070
2422030;0.02500;86.5625;127;74;0.36923
2422040;0.04500;98.2500;127;74;0.36532
2422050;0.06000;103.8750;127;74;0.36337
2422060;0.08500;108.9375;127;74;0.36142
2422070;0.10000;113.4375;127;74;0.35946
2422080;0.13500;120.5625;127;74;0.35507
2422090;0.15000;123.1875;127;74;0.35287
2422100;0.17500;125.0000;127;74;0.35067
2422110;0.21500;126.2500;127;74;0.34872
2422120;0.23500;127.0000;127;74;0.34676
2422130;0.26500;127.5625;127;74;0.34530
2422140;0.27500;127.5625;127;74;0.34457
2422150;0.26500;127.5000;127;74;0.34359
2422160;0.24500;127.0000;127;74;0.34261
2422170;0.22500;126.6250;127;74;0.34017
2422180;0.19500;126.1875;127;74;0.33871
2422190;0.09000;125.6250;127;74;0.33748
2422200;-0.04500;124.1875;127;74;0.33504
2422210;-0.08500;123.3750;127;74;0.33382
2422220;-0.11500;122.3125;127;74;0.33358
2422230;-0.13500;121.1250;127;74;0.33382
2422240;-0.14500;119.7500;127;74;0.33382
2422250;-0.15500;116.3750;127;74;0.33602
2422260;-0.15500;114.3750;127;74;0.33993
2422270;-0.15500;112.1875;127;74;0.34676
2422280;-0.14500;107.1250;127;74;0.37338
2422290;-0.15000;104.5000;127;74;0.39414
2422300;-0.15500;102.0625;127;74;0.41978
2422310;-0.15500;100.1250;127;74;0.44957
2422320;-0.14500;98.8125;127;74;0.48278
2422330;-0.14500;97.8750;127;74;0.54212
2422340;-0.13500;97.8125;127;74;0.57509
2422350;-0.12500;97.9375;127;74;0.60928
2422360;-0.12000;98.0625;127;74;0.64274
2422370;-0.11500;98.4375;127;74;0.70427
2422380;-0.11500;98.6250;127;74;0.73162
2422390;-0.10500;98.6875;127;74;0.75629
2422400;-0.10500;98.3750;127;74;0.79805
2422410;-0.10500;98.0000;127;74;0.81563
2422420;-0.10500;97.5625;127;74;0.82808
2422430;-0.11500;97.0000;127;74;0.83761
2422440;-0.11500;96.5000;127;74;0.84762
2422450;-0.12000;95.3125;127;74;0.86545
2422460;-0.12000;94.6875;127;74;0.87228
2422470;-0.12000;94.1250;127;74;0.87766
2422480;-0.11500;93.5625;127;74;0.88156
2422490;-0.11500;92.4375;127;74;0.88498
2422500;-0.11000;91.8750;127;74;0.88400
2422510;-0.11000;91.3125;127;74;0.88107
2422520;-0.10500;90.3125;127;74;0.87595
2422530;-0.10000;89.8125;127;74;0.85910
2422540;-0.09500;89.3125;127;74;0.84835
2422550;-0.09000;88.8125;127;74;0.83590
2422560;-0.09000;87.8750;127;74;0.80806
2422570;-0.09000;87.4375;127;74;0.79341
2422580;-0.08500;87.0625;127;74;0.77875
2422590;-0.07500;86.6875;127;74;0.76484
2422600;-0.05000;86.3125;127;74;0.75165
2422610;-0.01500;85.6875;127;74;0.72918
2422620;0.03000;85.3750;127;74;0.71966
2422630;0.03000;85.0625;127;74;0.71136
2422640;0.04000;84.5000;127;74;0.70379
2422650;0.06000;84.2500;127;74;0.69084
2422660;0.07000;84.0000;127;74;0.68498
2422670;0.04500;83.7500;127;74;0.67912
2422680;0.01000;83.5000;127;74;0.67326
2422690;-0.01500;83.0000;127;74;0.66129
2422700;-0.06000;82.7500;127;74;0.65470
2422710;-0.09000;82.5625;127;74;0.64786
2422720;-0.11500;82.3125;127;74;0.64078
2422730;-0.12500;81.8750;127;74;0.62686
2422740;-0.13500;81.6250;127;74;0.61954
2422750;-0.13500;81.4375;127;74;0.61172
2422760;-0.09500;80.9375;127;74;0.59536
2422770;-0.06000;80.7500;127;74;0.58730
2422780;0.00000;80.5625;127;74;0.57949
2422790;0.33000;80.3750;127;74;0.57167
2422800;0.33000;80.3750;127;74;0.57167
2422810;1.33500;79.7500;127;74;0.54872
2422820;0.40000;79.5625;127;74;0.54188
2422830;0.05000;79.3750;127;74;0.53553
2422840;-0.07500;79.1875;127;74;0.52869
2422850;-0.03500;78.8750;127;74;0.51502
2422860;-0.06000;78.6250;127;74;0.50842
2422870;-0.08500;78.3750;127;74;0.50159
2422880;-0.09500;77.8125;127;74;0.49499
2422890;-0.06500;77.5625;127;74;0.48254
2422900;-0.04500;77.3125;127;74;0.47643
2422910;-0.04500;77.0625;127;74;0.47057
2422920;-0.05000;76.7500;127;74;0.46471
2422930;-0.04500;76.3125;127;74;0.45543
2422940;-0.06500;76.0625;127;74;0.45079
2422950;-0.09000;75.8125;127;74;0.44615
2422960;-0.09500;75.2500;127;74;0.44151
2422970;-0.08500;75.0000;127;74;0.43321
2422980;-0.07000;74.8125;127;74;0.42906
2422990;-0.07000;74.7500;127;74;0.42491
2423000;-0.07500;74.8750;126;74;0.41709
2423010;-0.05500;75.5625;126;74;0.41343
2423020;-0.01500;77.0625;126;74;0.41074
2423030;0.01000;79.8750;126;74;0.40855
2423040;0.01000;84.0625;126;74;0.40610
2423050;-0.01000;95.5000;126;74;0.40147
2423060;-0.02500;101.6875;126;74;0.39927
2423070;0.01000;107.4375;126;74;0.39707
2423080;0.08000;117.0625;126;74;0.35507
2423090;0.11000;120.9375;126;74;0.34188
2423100;0.13500;124.1875;126;74;0.33431
2423110;0.16500;126.6875;126;74;0.32991
2423120;0.19500;128.4375;126;74;0.32698
2423130;0.24000;130.3125;126;74;0.32454
2423140;0.24500;130.6875;126;74;0.32332
2423150;0.23500;130.8750;126;74;0.32210
2423160;0.23500;130.8750;126;74;0.32088
2423170;0.24500;130.6250;126;74;0.31844
2423180;0.24500;130.3750;126;74;0.31746
2423190;0.23000;130.0625;126;74;0.31624
2423200;0.12500;129.2500;126;74;0.31355
2423210;0.05500;128.6875;126;74;0.31233
2423220;-0.02000;128.0000;126;74;0.31160
2423230;-0.15500;127.2500;126;74;0.31111
2423240;-0.19000;126.3125;126;74;0.31013
2423250;-0.16000;123.9375;126;74;0.30842
2423260;-0.15500;122.4375;126;74;0.30842
2423270;-0.19000;120.8125;126;74;0.30989
2423280;-0.16500;118.8750;126;74;0.31355
2423290;-0.16000;114.2500;126;74;0.33016
2423300;-0.20000;111.6250;126;74;0.34408
2423310;-0.21500;108.8750;126;74;0.36239
2423320;-0.20500;104.0625;126;74;0.38462
2423330;-0.17000;102.3750;126;74;0.42833
2423340;-0.16500;101.3125;126;74;0.45519
2423350;-0.17500;100.7500;126;74;0.48449
2423360;-0.15500;100.5625;126;74;0.54481
2423370;-0.16000;100.6875;126;74;0.57363
2423380;-0.17000;100.8125;126;74;0.60073
2423390;-0.14500;101.0000;126;74;0.62564
2423400;-0.11500;101.1875;126;74;0.64835
2423410;-0.12500;101.1875;126;74;0.68645
2423420;-0.15500;100.9375;126;74;0.69963
2423430;-0.15500;100.6250;126;74;0.70965
2423440;-0.11500;100.1250;126;74;0.72088
2423450;-0.06000;99.0625;126;74;0.74139
2423460;-0.05000;98.5000;126;74;0.74994
2423470;-0.09000;97.8750;126;74;0.75702
2423480;-0.12500;97.2500;126;74;0.76288
2423490;-0.11000;96.0000;126;74;0.77021
2423500;-0.12500;95.3125;126;74;0.77167
2423510;-0.17000;94.6875;126;74;0.77167
2423520;-0.19000;94.0000;126;74;0.77021
2423530;-0.17000;92.6875;126;74;0.76093
2423540;-0.12500;92.0625;126;74;0.75482
2423550;-0.10000;91.4375;126;74;0.74725
2423560;-0.11500;90.8750;126;74;0.73797
2423570;-0.15000;89.7500;126;74;0.71526
2423580;-0.13500;89.1875;126;74;0.70232
2423590;-0.08500;88.6875;126;74;0.68864
2423600;-0.07000;87.7500;126;74;0.66129
2423610;-0.09500;87.2500;126;74;0.64835
2423620;-0.06500;86.8125;126;74;0.63663
2423630;-0.01000;86.3125;126;74;0.62589
2423640;0.02000;85.5625;126;74;0.60684
2423650;0.02000;85.1875;126;74;0.59878
2423660;-0.02500;84.8125;126;74;0.59170
2423670;-0.04500;84.5000;126;74;0.58510
2423680;-0.03500;84.1875;126;74;0.57875
2423690;-0.05000;83.5625;126;74;0.56679
2423700;-0.09000;83.3125;126;74;0.56093
2423710;-0.08500;83.0000;126;74;0.55482
2423720;-0.07000;82.7500;126;74;0.54896
2423730;-0.08500;82.1875;126;74;0.53626
2423740;-0.10000;81.9375;126;74;0.52943
2423750;-0.10500;81.6250;126;74;0.52234
2423760;-0.10500;81.4375;126;74;0.51526
2423770;-0.06500;80.9375;126;74;0.50037
2423780;0.32500;80.6875;126;74;0.49304
2423790;0.83500;80.4375;126;74;0.48571
2423800;0.83500;80.4375;126;74;0.48571
2423810;0.54000;79.7500;126;74;0.46447
2423820;-0.03000;79.5000;126;74;0.45812
2423830;-0.18000;79.3125;126;74;0.45201
2423840;-0.15500;78.8125;126;74;0.43834
2423850;-0.16500;78.5625;126;74;0.43101
2423860;-0.17000;78.2500;126;74;0.42393
2423870;-0.17000;77.9375;126;74;0.41685
2423880;-0.17000;77.6250;126;74;0.40952
2423890;-0.16000;76.9375;126;74;0.39560
2423900;-0.15500;76.5625;126;74;0.38901
2423910;-0.15000;76.2500;126;74;0.38242
2423920;-0.14000;75.6250;126;74;0.37265
2423930;-0.13500;75.3125;126;74;0.36777
2423940;-0.12500;75.0000;126;74;0.36288
2423950;-0.12500;74.6875;126;74;0.35800
2423960;-0.11500;74.3750;126;74;0.35311
2423970;-0.10500;73.8750;126;74;0.34335
2423980;-0.08500;73.6875;126;74;0.33846
2423990;-0.07500;73.5000;126;74;0.33358
2424000;-0.06000;73.4375;126;73;0.32869
2424010;-0.03500;74.1875;126;73;0.31893
2424020;-0.02500;75.7500;126;73;0.31502
2424030;-0.01000;78.5625;126;73;0.31160
2424040;0.00000;82.6875;126;73;0.30745
2424050;0.02500;93.6250;126;73;0.29866
2424060;0.04000;99.3125;126;73;0.29451
2424070;0.06500;104.6250;126;73;0.29084
2424080;0.08500;109.4375;126;73;0.28742
2424090;0.11000;117.3125;126;73;0.28107
2424100;0.14000;120.3125;126;73;0.27790
2424110;0.17000;122.5625;126;73;0.27497
2424120;0.19000;124.1875;126;73;0.27277
2424130;0.21500;125.6875;126;73;0.26911
2424140;0.23000;125.8750;126;73;0.26667
2424150;0.23500;125.8750;126;73;0.26422
2424160;0.22500;125.4375;126;73;0.26178
2424170;0.18500;125.0625;126;73;0.25714
2424180;0.14000;124.5625;126;73;0.25495
2424190;0.06000;124.0625;126;73;0.25299
2424200;0.00500;123.4375;126;73;0.25104
2424210;-0.05000;121.9375;126;73;0.24762
2424220;-0.09500;121.0000;126;73;0.24689
2424230;-0.12500;119.8750;126;73;0.24664
2424240;-0.14500;117.2500;126;73;0.24493
2424250;-0.15500;115.6250;126;73;0.24396
2424260;-0.15500;113.8125;126;73;0.24371
2424270;-0.15500;111.6875;126;73;0.24469
2424280;-0.15000;109.3750;126;73;0.24786
2424290;-0.14500;104.2500;126;73;0.26398
2424300;-0.13500;101.6875;126;73;0.27766
2424310;-0.13000;99.3750;126;73;0.29524
2424320;-0.12000;97.5625;126;73;0.31331
2424330;-0.11500;95.6875;126;73;0.35726
2424340;-0.10500;95.4375;126;73;0.38437
2424350;-0.09500;95.4375;126;73;0.41319
2424360;-0.08500;95.7500;126;73;0.47057
2424370;-0.08500;95.9375;126;73;0.49768
2424380;-0.08500;96.1250;126;73;0.52283
2424390;-0.09500;96.2500;126;73;0.54579
2424400;-0.10500;96.1875;126;73;0.58437
2424410;-0.11000;96.0000;126;73;0.60024
2424420;-0.11500;95.6250;126;73;0.61172
2424430;-0.12500;95.2500;126;73;0.62027
2424440;-0.12500;94.7500;126;73;0.62857
2424450;-0.13500;93.7500;126;73;0.64225
2424460;-0.14000;93.2500;126;73;0.64713
2424470;-0.14500;92.6875;126;73;0.65055
2424480;-0.15500;92.1250;126;73;0.65226
2424490;-0.15500;90.9375;126;73;0.65104
2424500;-0.15500;90.3750;126;73;0.64811
2424510;-0.15500;89.8750;126;73;0.64322
2424520;-0.15500;89.3125;126;73;0.63687
2424530;-0.14500;88.2500;126;73;0.62002
2424540;-0.14500;87.6875;126;73;0.60928
2424550;-0.14000;87.1875;126;73;0.59707
2424560;-0.13500;86.6875;126;73;0.58364
2424570;-0.12500;85.7500;126;73;0.55409
2424580;-0.10500;85.2500;126;73;0.53871
2424590;-0.07500;84.8125;126;73;0.52381
2424600;-0.04500;84.0625;126;73;0.49597
2424610;-0.04000;83.6875;126;73;0.48376
2424620;-0.03000;83.3125;126;73;0.47375
2424630;0.00000;83.0000;126;73;0.46520
2424640;0.01000;82.6875;126;73;0.45690
2424650;-0.00500;82.0625;126;73;0.44176
2424660;-0.04500;81.7500;126;73;0.43516
2424670;-0.06500;81.5000;126;73;0.42906
2424680;-0.09000;81.0000;126;73;0.41783
2424690;-0.11500;80.7500;126;73;0.41245
2424700;-0.13500;80.5000;126;73;0.40708
2424710;-0.14500;80.3125;126;73;0.40195
2424720;-0.15000;80.1250;126;73;0.39756
2424730;-0.15500;79.7500;126;73;0.38803
2424740;-0.15000;79.5625;126;73;0.38266
2424750;-0.14500;79.3750;126;73;0.37680
2424760;-0.11500;79.1250;126;73;0.37045
2424770;0.09500;78.6875;126;73;0.35751
2424780;0.71500;78.5625;126;73;0.35092
2424790;1.03000;78.3750;126;73;0.34457
2424800;1.03000;78.3750;126;73;0.34457
2424810;-0.01000;77.6875;126;73;0.32527
2424820;-0.24000;77.5000;126;73;0.32015
2424830;-0.19500;77.2500;126;73;0.31575
2424840;-0.18000;76.8125;126;73;0.30452
2424850;-0.18500;76.5625;126;73;0.29866
2424860;-0.18000;76.2500;126;73;0.29280
2424870;-0.17500;75.9375;126;73;0.28694
2424880;-0.16000;75.6875;126;73;0.28107
2424890;-0.15500;75.0625;126;73;0.27082
2424900;-0.13500;74.7500;126;73;0.26618
2424910;-0.12500;74.4375;126;73;0.26154
2424920;-0.11500;73.8125;126;73;0.25836
2424930;-0.10000;73.5000;126;73;0.25226
2424940;-0.08500;73.2500;126;73;0.24860
2424950;-0.07500;73.0000;126;73;0.24493
2424960;-0.06000;72.6875;126;73;0.23785
2424970;-0.05000;72.5625;126;73;0.23468
2424980;-0.03500;72.5000;126;73;0.23175
2424990;-0.02500;72.4375;126;73;0.22882
2425000;-0.01500;72.4375;125;73;0.22637
2425010;-0.01500;73.6875;125;73;0.22149
2425020;-0.00500;75.5625;125;73;0.22027
2425030;0.00500;78.5625;125;73;0.21929
2425040;0.01500;82.7500;125;73;0.21758
2425050;0.03000;93.0625;125;73;0.21368
2425060;0.04500;98.3750;125;73;0.21172
2425070;0.06500;103.3125;125;73;0.20977
2425080;0.09000;111.6250;125;73;0.20659
2425090;0.10500;114.8750;125;73;0.20537
2425100;0.13000;117.5000;125;73;0.20415
2425110;0.15500;119.4375;125;73;0.20293
2425120;0.18000;121.3750;125;73;0.20244
2425130;0.21000;121.6250;125;73;0.23272
2425140;0.22500;121.5000;125;73;0.24103
2425150;0.22500;121.2500;125;73;0.24469
2425160;0.18500;120.1875;125;73;0.24591
2425170;0.14000;119.4375;125;73;0.24542
2425180;0.06500;118.6875;125;73;0.24469
2425190;-0.02500;117.7500;125;73;0.24396
2425200;-0.07500;116.8125;125;73;0.24371
2425210;-0.12500;114.5625;125;73;0.24371
2425220;-0.16000;113.3125;125;73;0.24444
2425230;-0.17000;111.9375;125;73;0.24567
2425240;-0.18000;110.3750;125;73;0.24664
2425250;-0.19000;106.7500;125;73;0.24884
2425260;-0.19000;104.6875;125;73;0.25079
2425270;-0.19000;102.4375;125;73;0.25397
2425280;-0.18000;97.4375;125;73;0.25885
2425290;-0.17500;95.0000;125;73;0.27595
2425300;-0.17000;92.8750;125;73;0.28938
2425310;-0.16000;91.3750;125;73;0.30623
2425320;-0.15500;90.3750;125;73;0.34212
2425330;-0.15500;90.5625;125;73;0.36459
2425340;-0.14500;91.0000;125;73;0.38950
2425350;-0.13500;91.5000;125;73;0.41563
2425360;-0.13500;92.0000;125;73;0.44225
2425370;-0.13000;92.7500;125;73;0.49353
2425380;-0.13000;93.0000;125;73;0.51722
2425390;-0.13000;93.0625;125;73;0.53871
2425400;-0.13000;92.8125;125;73;0.57485
2425410;-0.12500;92.4375;125;73;0.58950
2425420;-0.12500;92.0000;125;73;0.60000
2425430;-0.12500;91.4375;125;73;0.60757
2425440;-0.13000;90.9375;125;73;0.61490
2425450;-0.14000;89.7500;125;73;0.62613
2425460;-0.14500;89.1875;125;73;0.62979
2425470;-0.14500;88.6250;125;73;0.63199
2425480;-0.14000;88.0625;125;73;0.63272
2425490;-0.13500;87.0000;125;73;0.63004
2425500;-0.13500;86.5000;125;73;0.62662
2425510;-0.13000;85.9375;125;73;0.62173
2425520;-0.12500;85.0625;125;73;0.60855
2425530;-0.12000;84.6250;125;73;0.59976
2425540;-0.11500;84.1875;125;73;0.58974
2425550;-0.11500;83.7500;125;73;0.57875
2425560;-0.11500;83.3125;125;73;0.56703
2425570;-0.10500;82.5000;125;73;0.54237
2425580;-0.09000;82.1250;125;73;0.52991
2425590;-0.06500;81.8125;125;73;0.51819
2425600;-0.04000;81.1875;125;73;0.49792
2425610;-0.03500;80.8750;125;73;0.49011
2425620;-0.02500;80.5625;125;73;0.48352
2425630;-0.00500;80.2500;125;73;0.47741
2425640;0.01000;80.0000;125;73;0.47204
2425650;-0.00500;79.5000;125;73;0.46300
2425660;-0.04500;79.2500;125;73;0.45885
2425670;-0.06500;79.0625;125;73;0.45470
2425680;-0.08500;78.5625;125;73;0.45079
2425690;-0.11000;78.3750;125;73;0.44225
2425700;-0.12500;78.1875;125;73;0.43761
2425710;-0.13000;78.0625;125;73;0.43248
2425720;-0.13500;77.8750;125;73;0.42808
2425730;-0.13000;77.5000;125;73;0.41905
2425740;-0.12500;77.3125;125;73;0.41392
2425750;-0.11500;77.1250;125;73;0.40855
2425760;-0.08500;76.7500;125;73;0.40342
2425770;0.21500;76.5625;125;73;0.39267
2425780;0.64500;76.4375;125;73;0.38730
2425790;1.07500;76.2500;125;73;0.38193
2425800;1.07500;76.2500;125;73;0.38193
2425810;-0.06000;75.6875;125;73;0.36703
2425820;-0.19000;75.5000;125;73;0.36337
2425830;-0.15500;75.3125;125;73;0.35922
2425840;-0.14000;75.0625;125;73;0.35507
2425850;-0.14000;74.6250;125;73;0.34628
2425860;-0.14000;74.3750;125;73;0.34212
2425870;-0.13500;74.1250;125;73;0.33797
2425880;-0.13000;73.5625;125;73;0.33382
2425890;-0.12500;73.3125;125;73;0.32601
2425900;-0.12000;73.0625;125;73;0.32210
2425910;-0.11000;72.7500;125;73;0.31819
2425920;-0.10500;72.2500;125;73;0.31282
2425930;-0.09500;71.9375;125;73;0.31013
2425940;-0.09500;71.6875;125;73;0.30720
2425950;-0.08500;71.5000;125;73;0.30427
2425960;-0.08000;71.3125;125;73;0.30134
2425970;-0.06500;71.0000;125;73;0.29573
2425980;-0.05500;70.8750;125;73;0.29304
2425990;-0.04000;70.7500;125;73;0.29035
2426000;-0.02500;70.8750;125;73;0.28767
2426010;-0.01500;72.8750;125;73;0.28327
2426020;0.00000;75.5000;125;73;0.28230
2426030;0.01500;79.3750;125;73;0.28059
2426040;0.03500;84.2500;125;73;0.27863
2426050;0.05000;95.3125;125;73;0.27473
2426060;0.07500;100.5625;125;73;0.27302
2426070;0.10500;105.3750;125;73;0.27131
2426080;0.14000;113.3125;125;73;0.26862
2426090;0.17000;116.3125;125;73;0.26716
2426100;0.19500;118.6250;125;73;0.26593
2426110;0.18500;120.3125;125;73;0.26471
2426120;0.21000;121.3125;125;73;0.26422
2426130;0.27500;122.0000;125;73;0.26374
2426140;0.30000;121.8750;125;73;0.26300
2426150;0.29500;121.6250;125;73;0.26227
2426160;0.26500;121.2500;125;73;0.26154
2426170;0.22000;120.2500;125;73;0.26007
2426180;0.21500;119.5625;125;73;0.25910
2426190;0.21500;118.8125;125;73;0.25836
2426200;0.11500;117.0625;125;73;0.25714
2426210;-0.02500;116.0000;125;73;0.25739
2426220;-0.10500;114.7500;125;73;0.25812
2426230;-0.12500;113.3750;125;73;0.25836
2426240;-0.14000;111.8125;125;73;0.25836
2426250;-0.14500;108.1250;125;73;0.25934
2426260;-0.15500;106.0000;125;73;0.26105
2426270;-0.16000;103.6875;125;73;0.26422
2426280;-0.16000;101.1875;125;73;0.26960
2426290;-0.15500;96.1875;125;73;0.29011
2426300;-0.16000;94.0625;125;73;0.30574
2426310;-0.15500;92.5000;125;73;0.32503
2426320;-0.15500;91.6250;125;73;0.34408
2426330;-0.14500;91.4375;125;73;0.38828
2426340;-0.14500;91.7500;125;73;0.41465
2426350;-0.13500;92.1250;125;73;0.44225
2426360;-0.13500;92.8125;125;73;0.46984
2426370;-0.13500;93.1250;125;73;0.52161
2426380;-0.13000;93.3125;125;73;0.54481
2426390;-0.13000;93.4375;125;73;0.56606
2426400;-0.13500;93.2500;125;73;0.60122
2426410;-0.13500;92.9375;125;73;0.61343
2426420;-0.13500;92.5000;125;73;0.62271
2426430;-0.13500;92.0625;125;73;0.63175
2426440;-0.13000;91.5625;125;73;0.64005
2426450;-0.12500;90.5625;125;73;0.65275
2426460;-0.13000;90.0000;125;73;0.65665
2426470;-0.13500;89.5000;125;73;0.65910
2426480;-0.13500;88.5000;125;73;0.66007
2426490;-0.13500;87.9375;125;73;0.65714
2426500;-0.13500;87.4375;125;73;0.65348
2426510;-0.13000;86.9375;125;73;0.64835
2426520;-0.13000;85.9375;125;73;0.64200
2426530;-0.13000;85.5000;125;73;0.62515
2426540;-0.13000;85.0625;125;73;0.61465
2426550;-0.12500;84.5625;125;73;0.60293
2426560;-0.12500;83.6250;125;73;0.57705
2426570;-0.12500;83.1875;125;73;0.56361
2426580;-0.10000;82.7500;125;73;0.55067
2426590;-0.07500;82.3125;125;73;0.53846
2426600;-0.05500;81.9375;125;73;0.52723
2426610;-0.03500;81.1875;125;73;0.50891
2426620;-0.03500;80.8750;125;73;0.50183
2426630;-0.01500;80.5625;125;73;0.49548
2426640;0.01000;80.2500;125;73;0.48987
2426650;0.00000;79.6875;125;73;0.48107
2426660;-0.03000;79.4375;125;73;0.47717
2426670;-0.05000;79.1250;125;73;0.47350
2426680;-0.06500;78.8750;125;73;0.46960
2426690;-0.09500;78.4375;125;73;0.46178
2426700;-0.10500;78.2500;125;73;0.45763
2426710;-0.11000;78.0625;125;73;0.45324
2426720;-0.11000;77.6250;125;73;0.44542
2426730;-0.10500;77.4375;125;73;0.44103
2426740;-0.10000;77.2500;125;73;0.43639
2426750;-0.09500;77.0625;125;73;0.43126
2426760;-0.08000;76.8750;125;73;0.42613
2426770;0.12000;76.5625;125;73;0.41587
2426780;0.49500;76.4375;125;73;0.41074
2426790;1.05500;76.2500;125;73;0.40562
2426800;1.05500;76.2500;125;73;0.40562
2426810;0.11000;75.7500;125;73;0.38999
2426820;-0.15000;75.6250;125;73;0.38559
2426830;-0.14500;75.4375;125;73;0.38046
2426840;-0.12500;75.0625;125;73;0.37045
2426850;-0.12500;74.8750;125;73;0.36557
2426860;-0.12500;74.6875;125;73;0.36068
2426870;-0.12000;74.4375;125;73;0.35580
2426880;-0.11500;74.2500;125;73;0.35116
2426890;-0.11000;73.7500;125;73;0.34188
2426900;-0.10500;73.5000;125;73;0.33748
2426910;-0.09500;73.2500;125;73;0.33309
2426920;-0.09000;73.0000;125;73;0.32967
2426930;-0.08500;72.5000;125;73;0.32308
2426940;-0.06500;72.2500;125;73;0.31917
2426950;-0.46000;72.0625;125;73;0.31526
2426960;0.10000;71.6875;125;73;0.30818
2426970;0.09000;71.5000;125;73;0.30476
2426980;0.09500;71.3750;125;73;0.30134
2426990;0.08500;71.2500;125;73;0.29841
2427000;0.09500;71.3750;125;73;0.29548
2427010;0.12000;73.5000;125;73;0.29109
2427020;0.10000;76.1875;125;73;0.28987
2427030;0.08000;80.1250;125;73;0.28816
2427040;0.08500;90.7500;125;73;0.28376
2427050;0.05000;96.3750;125;73;0.28181
2427060;0.05000;96.3750;125;73;0.28181
2427070;0.05000;96.3750;125;73;0.28181
2427080;0.05000;96.3750;125;73;0.28181
2427090;0.12500;117.7500;125;73;0.27253
2427100;0.15500;120.1250;125;73;0.27131
2427110;0.18500;121.8750;125;73;0.27009
2427120;0.22500;122.9375;125;73;0.26984
2427130;0.25500;123.7500;125;73;0.26984
2427140;0.27500;123.7500;125;73;0.26935
2427150;0.28500;123.6875;125;73;0.26886
2427160;0.26000;123.0625;125;73;0.26764
2427170;0.22500;122.6250;125;73;0.26984
2427180;0.15500;122.0625;125;73;0.27350
2427190;0.06000;121.4375;125;73;0.27521
2427200;0.01000;120.7500;125;73;0.27595
2427210;-0.04500;119.0000;125;73;0.27741
2427220;-0.09500;117.9375;125;73;0.27863
2427230;-0.11500;116.6875;125;73;0.27912
2427240;-0.13500;113.7500;125;73;0.27937
2427250;-0.14500;112.0000;125;73;0.27985
2427260;-0.16000;110.0000;125;73;0.28156
2427270;-0.16000;107.8125;125;73;0.28498
2427280;-0.16000;105.4375;125;73;0.29109
2427290;-0.16000;100.3750;125;73;0.31526
2427300;-0.15500;98.0000;125;73;0.33407
2427310;-0.15500;96.0625;125;73;0.35751
2427320;-0.15500;94.1250;125;73;0.38095
2427330;-0.15000;93.9375;125;73;0.43419
2427340;-0.14500;94.0000;125;73;0.46618
2427350;-0.14500;94.2500;125;73;0.49915
2427360;-0.14500;94.7500;125;73;0.56386
2427370;-0.14000;94.9375;125;73;0.59414
2427380;-0.13500;95.1250;125;73;0.62222
2427390;-0.12500;95.1875;125;73;0.64811
2427400;-0.12500;95.1875;125;73;0.67131
2427410;-0.12500;94.6875;125;73;0.70696
2427420;-0.12500;94.3125;125;73;0.71844
2427430;-0.12500;93.8125;125;73;0.73016
2427440;-0.12500;93.3125;125;73;0.74066
2427450;-0.12000;92.1875;125;73;0.75726
2427460;-0.12000;91.6250;125;73;0.76337
2427470;-0.11500;91.0625;125;73;0.76777
2427480;-0.11500;89.9375;125;73;0.77045
2427490;-0.11500;89.3125;125;73;0.77045
2427500;-0.11000;88.7500;125;73;0.76777
2427510;-0.10500;88.1875;125;73;0.76288
2427520;-0.10000;87.6250;125;73;0.75653
2427530;-0.09500;86.6250;125;73;0.73944
2427540;-0.09000;86.1875;125;73;0.72845
2427550;-0.09000;85.7500;125;73;0.71575
2427560;-0.09500;85.3125;125;73;0.70159
2427570;-0.09000;84.5000;125;73;0.67179
2427580;-0.08500;84.1250;125;73;0.65665
2427590;-0.06500;83.6875;125;73;0.64225
2427600;-0.03500;83.3125;125;73;0.62857
2427610;-0.01500;82.6875;125;73;0.60537
2427620;-0.01000;82.3125;125;73;0.59585
2427630;0.00000;82.0000;125;73;0.58706
2427640;0.02000;81.4375;125;73;0.57118
2427650;0.03000;81.1250;125;73;0.56435
2427660;0.01000;80.9375;125;73;0.55800
2427670;-0.03500;80.6875;125;73;0.55214
2427680;-0.05000;80.4375;125;73;0.54628
2427690;-0.07000;80.0000;125;73;0.53480
2427700;-0.10000;79.7500;125;73;0.52894
2427710;-0.11500;79.5000;125;73;0.52332
2427720;-0.11500;79.3125;125;73;0.51770
2427730;-0.11500;78.8750;125;73;0.50525
2427740;-0.07000;78.6875;125;73;0.49841
2427750;0.02000;78.5000;125;73;0.49158
2427760;0.01500;78.1875;125;73;0.47717
2427770;0.00000;77.9375;125;73;0.47009
2427780;-0.00500;77.7500;125;73;0.46300
2427790;0.08000;77.5625;125;73;0.45592
2427800;0.08000;77.5625;125;73;0.45592
2427810;0.46500;76.9375;125;73;0.43687
2427820;-0.04000;76.7500;125;73;0.43150
2427830;-0.07500;76.5000;125;73;0.42564
2427840;-0.00500;76.0000;125;73;0.41343
2427850;0.06000;75.7500;125;73;0.40733
2427860;0.09000;75.5625;125;73;0.40147
2427870;0.11000;75.3125;125;73;0.39585
2427880;0.08000;74.7500;125;73;0.39048
2427890;0.01000;74.4375;125;73;0.37973
2427900;0.04000;74.1875;125;73;0.37460
2427910;0.05000;73.8750;125;73;0.37070
2427920;0.05000;73.5625;125;73;0.36752
2427930;0.09000;73.0000;125;73;0.35922
2427940;0.06000;72.7500;125;73;0.35507
2427950;0.01000;72.5000;125;73;0.35067
2427960;-0.02000;72.3125;125;73;0.34652
2427970;-0.03500;71.9375;125;73;0.33871
2427980;-0.02500;71.8750;125;73;0.33480
2427990;0.01000;71.7500;125;73;0.33114
2428000;0.08000;71.8750;126;73;0.32772
2428010;0.13000;73.3750;126;73;0.32283
2428020;0.16000;75.5625;126;73;0.32137
2428030;0.13500;79.1250;126;73;0.31917
2428040;0.07000;89.4375;126;73;0.31429
2428050;0.04000;95.3125;126;73;0.31184
2428060;0.04000;101.0000;126;73;0.30916
2428070;0.18000;106.2500;126;73;0.30647
2428080;0.20500;110.8750;126;73;0.30379
2428090;0.24500;118.4375;126;73;0.29866
2428100;0.39000;121.1875;126;73;0.29670
2428110;0.29000;123.3125;126;73;0.29597
2428120;0.16500;125.5000;126;73;0.29573
2428130;0.25500;125.9375;126;73;0.29451
2428140;0.24500;126.0625;126;73;0.29353
2428150;0.26500;126.0000;126;73;0.29231
2428160;0.34500;125.5625;126;73;0.28938
2428170;0.25500;125.1875;126;73;0.28816
2428180;0.27000;124.6875;126;73;0.28669
2428190;0.26500;124.1875;126;73;0.28547
2428200;0.17000;123.5625;126;73;0.28425
2428210;0.02000;122.0000;126;73;0.28303
2428220;-0.21000;121.0000;126;73;0.28327
2428230;-0.24500;119.8125;126;73;0.28303
2428240;0.02000;117.1250;126;73;0.28254
2428250;-0.02500;115.5625;126;73;0.28303
2428260;-0.16000;113.7500;126;73;0.28449
2428270;-0.21000;111.6875;126;73;0.28742
2428280;-0.26000;107.0000;126;73;0.30159
2428290;-0.27000;104.4375;126;73;0.31429
2428300;-0.17500;101.8750;126;73;0.33162
2428310;-0.04000;99.5625;126;73;0.34994
2428320;-0.04000;96.5000;126;73;0.37070
2428330;-0.18000;95.9375;126;73;0.42735
2428340;-0.13500;95.8750;126;73;0.46007
2428350;0.06500;96.0000;126;73;0.49402
2428360;0.13000;96.5000;126;73;0.56142
2428370;0.09000;96.7500;126;73;0.59316
2428380;0.10000;97.0000;126;73;0.62295
2428390;0.07500;97.1250;126;73;0.65031
2428400;0.01000;97.0625;126;73;0.69695
2428410;0.01000;96.8750;126;73;0.71331
2428420;0.06000;96.5625;126;73;0.72601
2428430;0.05000;96.1250;126;73;0.73919
2428440;0.01000;95.6250;126;73;0.75140
2428450;0.00500;94.5000;126;73;0.77192
2428460;0.03000;93.9375;126;73;0.77973
2428470;0.03000;93.3750;126;73;0.78559
2428480;0.04000;92.3125;126;73;0.79194
2428490;0.08000;91.7500;126;73;0.79243
2428500;0.09000;91.2500;126;73;0.79121
2428510;0.09000;90.6875;126;73;0.78779
2428520;0.01000;89.6875;126;73;0.77607
2428530;-0.08000;89.1875;126;73;0.76801
2428540;-0.13500;88.6875;126;73;0.75800
2428550;-0.15500;88.2500;126;73;0.74652
2428560;-0.20000;87.8125;126;73;0.73358
2428570;-0.25500;87.0000;126;73;0.70427
2428580;-0.27000;86.5625;126;73;0.68889
2428590;-0.27500;86.1875;126;73;0.67350
2428600;-0.21500;85.5000;126;73;0.64542
2428610;-0.12500;85.1250;126;73;0.63370
2428620;-0.07500;84.8125;126;73;0.62344
2428630;-0.10000;84.5000;126;73;0.61392
2428640;-0.11500;84.1875;126;73;0.60537
2428650;-0.07000;83.6250;126;73;0.59096
2428660;-0.04500;83.3750;126;73;0.58486
2428670;-0.09500;83.0625;126;73;0.57900
2428680;-0.20000;82.8125;126;73;0.57363
2428690;-0.25000;82.3125;126;73;0.56313
2428700;-0.24000;82.0625;126;73;0.55775
2428710;-0.25000;81.8125;126;73;0.55238
2428720;-0.21500;81.3125;126;73;0.54164
2428730;-0.17000;81.0625;126;73;0.53578
2428740;-0.13500;80.7500;126;73;0.52991
2428750;-0.14000;80.5625;126;73;0.52381
2428760;-0.13500;80.3750;126;73;0.51746
2428770;-0.14500;80.1250;126;73;0.50452
2428780;-0.16000;79.9375;126;73;0.49792
2428790;0.11000;79.7500;126;73;0.49133
2428800;0.11000;79.7500;126;73;0.49133
2428810;1.22500;79.1875;126;73;0.47253
2428820;0.81500;79.0000;126;73;0.46764
2428830;0.15500;78.8750;126;73;0.46203
2428840;-0.18000;78.7500;126;73;0.45617
2428850;-0.20000;78.5625;126;73;0.44518
2428860;-0.21000;78.3750;126;73;0.44005
2428870;-0.19000;78.1875;126;73;0.43492
2428880;-0.15500;77.6250;126;73;0.42540
2428890;-0.12000;77.3750;126;73;0.42051
2428900;-0.13500;77.0625;126;73;0.41563
2428910;-0.17000;76.8125;126;73;0.41172
2428920;-0.17000;76.5000;126;73;0.40830
2428930;-0.12000;75.9375;126;73;0.40049
2428940;-0.10500;75.6875;126;73;0.39658
2428950;-0.10500;75.4375;126;73;0.39267
2428960;-0.13000;75.1875;126;73;0.38877
2428970;-0.17500;74.6875;126;73;0.38095
2428980;-0.19000;74.5000;126;73;0.37705
2428990;-0.18000;74.3750;126;73;0.37338
2429000;-0.13000;74.3125;126;73;0.36630
2429010;-0.08500;74.7500;126;73;0.36410
2429020;-0.05000;75.9375;126;73;0.36215
2429030;-0.05000;78.2500;126;73;0.35971
2429040;-0.04500;81.9375;126;73;0.35726
2429050;0.01000;92.8125;126;73;0.35311
2429060;0.07000;98.9375;126;73;0.35116
2429070;0.07000;104.8750;126;73;0.34945
2429080;0.06000;115.0000;126;73;0.34628
2429090;0.08000;119.1875;126;73;0.34481
2429100;0.12000;122.6875;126;73;0.34359
2429110;0.15500;125.5000;126;73;0.34335
2429120;0.18000;127.5625;126;73;0.34335
2429130;0.23000;129.8750;126;73;0.34310
2429140;0.24000;130.3750;126;73;0.34310
2429150;0.24500;130.6250;126;73;0.34286
2429160;0.29000;130.6250;126;73;0.34188
2429170;0.30000;130.5000;126;73;0.34139
2429180;0.29000;130.2500;126;73;0.34090
2429190;0.22500;129.9375;126;73;0.34042
2429200;0.15500;129.6250;126;73;0.33968
2429210;0.03000;128.6250;126;73;0.33993
2429220;-0.08000;128.0000;126;73;0.33236
2429230;-0.09500;127.2500;126;73;0.32112
2429240;-0.12500;126.3750;126;73;0.31502
2429250;-0.13500;124.1250;126;73;0.30965
2429260;-0.11500;122.8125;126;73;0.30867
2429270;-0.12500;121.1875;126;73;0.30916
2429280;-0.14500;119.3750;126;73;0.31136
2429290;-0.13500;114.8750;126;73;0.32405
2429300;-0.11500;112.2500;126;73;0.33602
2429310;-0.12500;109.3125;126;73;0.34994
2429320;-0.16000;106.3125;126;73;0.36630
2429330;-0.19500;100.8750;126;73;0.41465
2429340;-0.22000;99.0625;126;73;0.44444
2429350;-0.25000;98.1250;126;73;0.47643
2429360;-0.25000;98.1875;126;73;0.54164
2429370;-0.23000;98.6250;126;73;0.57338
2429380;-0.21000;99.0000;126;73;0.60342
2429390;-0.15500;99.3750;126;73;0.63150
2429400;-0.11500;99.7500;126;73;0.65739
2429410;-0.11000;100.2500;126;73;0.69402
2429420;-0.13500;100.2500;126;73;0.71111
2429430;-0.15500;100.0625;126;73;0.72747
2429440;-0.18000;99.6875;126;73;0.74261
2429450;-0.18500;98.6250;126;73;0.76728
2429460;-0.17500;98.0625;126;73;0.77729
2429470;-0.17000;97.4375;126;73;0.78559
2429480;-0.16500;96.1875;126;73;0.79780
2429490;-0.13500;95.6250;126;73;0.80147
2429500;-0.14000;95.0625;126;73;0.80366
2429510;-0.15000;94.5000;126;73;0.80317
2429520;-0.12000;93.9375;126;73;0.80049
2429530;-0.08500;92.8125;126;73;0.79316
2429540;-0.08500;92.3125;126;73;0.78730
2429550;-0.09000;91.8125;126;73;0.77973
2429560;-0.07500;91.3125;126;73;0.77045
2429570;-0.05500;90.3750;126;73;0.74579
2429580;-0.06500;89.8750;126;73;0.73089
2429590;-0.07500;89.4375;126;73;0.71502
2429600;-0.07500;89.0000;126;73;0.69866
2429610;-0.08000;88.1250;126;73;0.66886
2429620;-0.06500;87.7500;126;73;0.65446
2429630;-0.02500;87.3958;126;73;0.64082
2429640;0.01000;87.0625;126;73;0.62833
2429650;0.00000;86.7500;126;73;0.61734
2429660;-0.01000;86.4375;126;73;0.60781
2429670;0.02500;86.0625;126;73;0.59951
2429680;0.08000;85.8125;126;73;0.59243
2429690;0.07000;85.2500;126;73;0.58022
2429700;0.00000;85.0000;126;73;0.57485
2429710;-0.04500;84.7500;126;73;0.56923
2429720;-0.08000;84.2500;126;73;0.56410
2429730;-0.11000;84.0000;126;73;0.55360
2429740;-0.12500;83.8125;126;73;0.54799
2429750;-0.13500;83.5625;126;73;0.54212
2429760;-0.17000;83.1250;126;73;0.52967
2429770;-0.18500;82.8750;126;73;0.52308
2429780;-0.20000;82.6250;126;73;0.51648
2429790;-0.25000;82.4375;126;73;0.50965
2429800;-0.17500;82.0625;126;73;0.49548
2429810;-0.00500;81.8125;126;73;0.48913
2429820;0.62000;81.6875;126;73;0.48327
2429830;1.17000;81.5000;126;73;0.47692
2429840;1.20000;81.0625;126;73;0.46325
2429850;0.57500;80.8750;126;73;0.45665
2429860;-0.04500;80.7500;126;73;0.45031
2429870;-0.06500;80.5625;126;73;0.44420
2429880;-0.08500;80.3750;126;73;0.43810
2429890;-0.14500;79.8750;126;73;0.42637
2429900;-0.14500;79.6250;126;73;0.42051
2429910;-0.14500;79.3750;126;73;0.41465
2429920;-0.09500;79.0625;126;73;0.40977
2429930;-0.05500;78.5000;126;73;0.40049
2429940;-0.06500;78.2500;126;73;0.39585
2429950;-0.07500;78.0000;126;73;0.39121
2429960;-0.03500;77.5000;126;73;0.38266
2429970;0.00500;77.2500;126;73;0.37875
2429980;0.04000;77.0000;126;73;0.37485
