RelativeTimeMilliseconds,ECG,ART,ART (Sys),ART (Dia),PPG
3003980,-0.05500,89.2500,132,77,0.65958
3003990,-0.02500,88.8750,132,77,0.64493
3004000,-0.00500,88.5625,131,76,0.63175
3004010,-0.02000,87.9375,131,76,0.60904
3004020,-0.04000,87.6875,131,76,0.59951
3004030,-0.07000,87.3750,131,76,0.59121
3004040,-0.11500,87.1250,131,76,0.58388
3004050,-0.14500,86.6250,131,76,0.57021
3004060,-0.14000,86.3750,131,76,0.56361
3004070,-0.14500,86.0625,131,76,0.55702
3004080,-0.15000,85.8125,131,76,0.55043
3004090,-0.15500,85.2500,131,76,0.53724
3004100,-0.14500,85.0000,131,76,0.53089
3004110,-0.13500,84.7500,131,76,0.52454
3004120,-0.13500,84.3125,131,76,0.51819
3004130,0.07500,84.1250,131,76,0.50476
3004140,0.34000,83.9375,131,76,0.49841
3004150,0.48500,83.6875,131,76,0.49231
3004160,0.32500,83.3125,131,76,0.47888
3004170,0.09000,83.0625,131,76,0.47204
3004180,-0.13500,82.8750,131,76,0.46520
3004190,-0.11000,82.6875,131,76,0.45836
3004200,-0.09500,82.4375,131,76,0.45153
3004210,-0.10500,81.9375,131,76,0.43858
3004220,-0.06500,81.6875,131,76,0.43223
3004230,-0.05500,81.4375,131,76,0.42613
3004240,-0.12000,80.8125,131,76,0.41661
3004250,-0.17500,80.5000,131,76,0.41172
3004260,-0.21500,80.2500,131,76,0.40684
3004270,-0.23000,79.9375,131,76,0.40220
3004280,-0.21500,79.6875,131,76,0.39756
3004290,-0.18500,79.1250,131,76,0.38852
3004300,-0.17000,78.8750,131,76,0.38437
3004310,-0.15000,78.6250,131,76,0.38022
3004320,-0.11500,78.1875,131,76,0.37265
3004330,-0.10000,78.0000,131,76,0.36923
3004340,-0.08000,77.8750,131,76,0.36679
3004350,-0.07500,77.9375,131,76,0.36484
3004360,-0.05500,79.4375,131,76,0.35971
3004370,-0.03000,81.6250,131,76,0.35726
3004380,-0.00500,85.0000,131,76,0.35507
3004390,-0.02500,89.5000,131,76,0.35287
3004400,-0.09500,94.7500,131,76,0.35092
3004410,-0.08500,105.8125,131,76,0.34750
3004420,-0.01500,111.0625,131,76,0.34628
3004430,0.03500,115.8125,131,76,0.34505
3004440,0.04500,123.6875,131,76,0.34457
3004450,0.05000,126.6875,131,76,0.34432
3004460,0.10500,129.0625,131,76,0.34432
3004470,0.18000,130.8750,131,76,0.34432
3004480,0.20000,132.1250,131,76,0.34432
3004490,0.14000,133.6875,131,76,0.34432
3004500,0.06000,134.0625,131,76,0.34432
3004510,0.07500,134.2500,131,76,0.34408
3004520,0.11000,134.3125,131,76,0.34383
3004530,0.10000,134.0625,131,76,0.34359
3004540,0.04000,133.7500,131,76,0.34383
3004550,-0.06000,133.3750,131,76,0.34383
3004560,-0.11500,132.8750,131,76,0.34359
3004570,-0.15000,131.6250,131,76,0.34237
3004580,-0.14500,130.7500,131,76,0.34164
3004590,-0.12500,129.7500,131,76,0.34066
3004600,-0.11500,127.3750,131,76,0.33871
3004610,-0.10500,125.8125,131,76,0.33822
3004620,-0.06500,124.0625,131,76,0.33871
3004630,-0.01500,122.0000,131,76,0.34090
3004640,-0.02500,119.7500,131,76,0.34457
3004650,-0.05500,114.5000,131,76,0.35995
3004660,-0.08000,111.8125,131,76,0.37387
3004670,-0.09000,109.2500,131,76,0.39219
3004680,-0.08500,105.2500,131,76,0.41441
3004690,-0.06500,103.9375,131,76,0.46886
3004700,-0.06500,103.0000,131,76,0.48864
3004710,-0.08000,102.4375,131,76,0.50330
3004720,-0.09500,101.8750,131,76,0.54847
3004730,-0.09500,101.7500,131,76,0.56874
3004740,-0.07500,101.6875,131,76,0.58657
3004750,-0.08000,101.5625,131,76,0.60586
3004760,-0.09000,101.4375,131,76,0.62491
3004770,-0.08500,100.9375,131,76,0.65861
3004780,-0.08500,100.5000,131,76,0.67277
3004790,-0.09000,100.0625,131,76,0.68523
3004800,-0.09000,100.0625,131,76,0.68523
3004810,-0.07500,98.9375,131,76,0.70427
3004820,-0.07500,97.7500,131,76,0.71624
3004830,-0.06500,97.1875,131,76,0.71941
3004840,-0.08000,95.8750,131,76,0.71868
3004850,-0.06500,95.2500,131,76,0.71722
3004860,-0.02500,94.6250,131,76,0.71477
3004870,-0.03000,94.0000,131,76,0.71111
3004880,-0.05000,92.8125,131,76,0.69915
3004890,-0.06000,92.1875,131,76,0.69060
3004900,-0.06500,91.6250,131,76,0.68059
3004910,-0.02500,91.0625,131,76,0.66862
3004920,-0.00500,90.5000,131,76,0.65495
3004930,0.01000,89.5000,131,76,0.62540
3004940,0.02500,89.0000,131,76,0.61050
3004950,0.05500,88.5000,131,76,0.59438
3004960,0.10000,88.0625,131,76,0.57753
3004970,0.09500,87.1875,131,76,0.54432
3004980,0.05000,86.8125,131,76,0.52869
3004990,-0.06000,86.4375,131,76,0.51404
3005000,-0.17000,86.0625,131,76,0.50061
3005010,-0.24500,85.3750,131,76,0.47717
3005020,-0.22000,85.0000,131,76,0.46691
3005030,-0.11000,84.6875,131,76,0.45739
3005040,-0.07500,84.3750,131,76,0.44908
3005050,-0.07500,83.8125,131,76,0.43394
3005060,-0.08500,83.5625,131,76,0.42589
3005070,-0.08500,83.3125,131,76,0.41783
3005080,-0.06500,82.8125,131,76,0.40220
3005090,-0.06500,82.8125,131,76,0.40220
3005100,0.16000,121.8750,131,76,0.19072
3005110,0.16000,121.8750,131,76,0.19072
3005120,0.16000,121.8750,131,76,0.19072
3005130,0.16000,121.8750,131,76,0.19072
3005140,0.16000,121.8750,131,76,0.19072
3005150,0.16000,121.8750,131,76,0.19072
3005160,0.16000,121.8750,131,76,0.19072
3005170,0.16000,121.8750,131,76,0.19072
3005180,0.16000,121.8750,131,76,0.19072
3005190,0.16000,121.8750,131,76,0.19072
3005200,0.16000,121.8750,131,76,0.19072
3005210,0.16000,121.8750,131,76,0.19072
3005220,0.16000,121.8750,131,76,0.19072
3005230,0.16000,121.8750,131,76,0.19072
3005240,-0.07500,121.6875,131,76,0.19096
3005250,-0.07500,121.6875,131,76,0.19096
3005260,-0.07500,121.6875,131,76,0.19096
3005270,-0.07500,121.6875,131,76,0.19096
3005280,-0.07500,121.6875,131,76,0.19096
3005290,-0.07500,121.6875,131,76,0.19096
3005300,-0.07500,121.6875,131,76,0.19096
3005310,-0.07500,121.6875,131,76,0.19096
3005320,-0.07500,121.6875,131,76,0.19096
3005330,-0.07500,121.6875,131,76,0.19096
3005340,-0.07500,121.6875,131,76,0.19096
3005350,-0.07500,121.6875,131,76,0.19096
3005360,-0.07500,121.6875,131,76,0.19096
3005370,-0.07500,121.6875,131,76,0.19096
3005380,-0.07500,121.6875,131,76,0.19096
3005390,-0.07500,121.6875,131,76,0.19096
3005400,-0.07500,121.6875,131,76,0.19096
3005410,-0.07500,121.6875,131,76,0.19096
3005420,-0.07500,121.6875,131,76,0.19096
3005430,-0.07500,121.6875,131,76,0.19096
3005440,-0.07500,121.6875,131,76,0.19096
3005450,-0.07500,121.6875,131,76,0.19096
3005460,-0.07500,121.6875,131,76,0.19096
3005470,-0.07500,121.6875,131,76,0.19096
3005480,-0.07500,121.6875,131,76,0.19096
3005490,-0.07500,121.6875,131,76,0.19096
3005500,-0.07500,121.6875,131,76,0.19096
3005510,-0.07500,121.6875,131,76,0.19096
3005520,-0.07500,121.6875,131,76,0.19096
3005530,-0.08500,118.8750,131,76,0.19243
3005540,-0.08500,118.8750,131,76,0.19243
3005550,-0.08500,118.8750,131,76,0.19243
3005560,-0.08500,118.8750,131,76,0.19243
3005570,-0.08500,117.2500,131,76,0.19316
3005580,-0.09500,115.3750,131,76,0.19390
3005590,-0.10000,113.3125,131,76,0.19512
3005600,-0.11500,111.0625,131,76,0.19683
3005610,-0.12500,106.0000,131,76,0.20464
3005620,-0.12500,103.3750,131,76,0.21197
3005630,-0.12500,101.0000,131,76,0.22222
3005640,-0.13000,99.0625,131,76,0.23419
3005650,-0.12500,96.7500,131,76,0.26691
3005660,-0.08500,96.3125,131,76,0.28913
3005670,-0.07500,96.1250,131,76,0.31453
3005680,-0.09500,96.1250,131,76,0.34237
3005690,-0.12500,96.3750,131,76,0.40024
3005700,-0.15000,96.5625,131,76,0.42857
3005710,-0.16000,96.6250,131,76,0.45543
3005720,-0.12000,96.6250,131,76,0.50354
3005730,-0.07000,96.5000,131,76,0.52161
3005740,-0.02000,96.2500,131,76,0.53651
3005750,-0.02500,95.9375,131,76,0.55165
3005760,-0.07500,95.0625,131,76,0.57753
3005770,-0.08500,94.5625,131,76,0.58803
3005780,-0.08500,94.0000,131,76,0.59634
3005790,-0.07500,93.4375,131,76,0.60293
3005800,-0.07500,93.4375,131,76,0.60293
3005810,-0.07500,91.7500,131,76,0.61221
3005820,-0.09000,91.1875,131,76,0.61148
3005830,-0.10500,90.5625,131,76,0.60904
3005840,-0.10500,90.0000,131,76,0.60488
3005850,-0.10500,88.8125,131,76,0.59194
3005860,-0.07500,88.3125,131,76,0.58315
3005870,-0.05500,87.7500,131,76,0.57289
3005880,-0.05500,86.6875,131,76,0.56117
3005890,-0.04500,86.1875,131,76,0.53431
3005900,-0.06000,85.6875,131,76,0.51990
3005910,-0.07000,85.2500,131,76,0.50501
3005920,0.01500,84.4375,131,76,0.47619
3005930,0.14000,84.0625,131,76,0.46422
3005940,0.17000,83.7500,131,76,0.45397
3005950,0.10000,83.3750,131,76,0.44396
3005960,0.05000,82.7500,131,76,0.42613
3005970,-0.01000,82.5000,131,76,0.41880
3005980,-0.11500,82.2500,131,76,0.41221
3005990,-0.17000,82.0000,131,76,0.40635
3006000,-0.15000,81.7500,130,75,0.40122
3006010,-0.16000,81.3125,130,75,0.39219
3006020,-0.20500,81.1250,130,75,0.38779
3006030,-0.17000,80.9375,130,75,0.38339
3006040,-0.20000,80.8125,130,75,0.37949
3006050,-0.32000,80.5625,130,75,0.37143
3006060,-0.23500,80.3750,130,75,0.36679
3006070,0.38000,80.1875,130,75,0.36190
3006080,0.82000,80.0000,130,75,0.35678
3006090,0.79000,79.6875,130,75,0.34628
3006100,0.29000,79.5000,130,75,0.34090
3006110,-0.17000,79.3125,130,75,0.33529
3006120,-0.10000,78.8750,130,75,0.32943
3006130,0.04000,78.6875,130,75,0.31868
3006140,0.03500,78.4375,130,75,0.31453
3006150,0.00000,78.1875,130,75,0.30989
3006160,-0.04500,77.5625,130,75,0.29963
3006170,-0.13000,77.1875,130,75,0.29451
3006180,-0.17500,76.8750,130,75,0.28962
3006190,-0.09500,76.5625,130,75,0.28474
3006200,-0.09000,76.2500,130,75,0.28010
3006210,-0.12500,75.5625,130,75,0.27033
3006220,-0.10500,75.2500,130,75,0.26545
3006230,-0.07500,74.9375,130,75,0.26081
3006240,-0.04500,74.6250,130,75,0.25739
3006250,-0.03500,74.1250,130,75,0.25177
3006260,-0.01000,73.9375,130,75,0.24835
3006270,0.00000,73.6875,130,75,0.24493
3006280,-0.02500,73.3125,130,75,0.23883
3006290,-0.04500,73.3125,130,75,0.23590
3006300,-0.05500,73.5625,130,75,0.23321
3006310,-0.03500,74.3750,130,75,0.23053
3006320,-0.02000,76.0625,130,75,0.22784
3006330,0.00000,82.5625,130,75,0.22418
3006340,0.02000,87.1875,130,75,0.22344
3006350,0.05000,92.1875,130,75,0.22222
3006360,0.07000,97.3750,130,75,0.22100
3006370,0.09000,107.0000,130,75,0.21807
3006380,0.12000,111.1875,130,75,0.21661
3006390,0.14000,114.8750,130,75,0.21514
3006400,0.15000,120.3750,130,75,0.21392
3006410,0.15000,122.2500,130,75,0.21197
3006420,0.16000,123.5625,130,75,0.21123
3006430,0.21500,124.5000,130,75,0.21148
3006440,0.22500,125.1250,130,75,0.21245
3006450,0.18500,125.5000,130,75,0.21319
3006460,0.13000,125.3750,130,75,0.21343
3006470,0.09000,125.0625,130,75,0.21343
3006480,0.03000,124.5625,130,75,0.21343
3006490,-0.04000,123.1875,130,75,0.21392
3006500,-0.07500,122.3125,130,75,0.21441
3006510,-0.09500,121.2500,130,75,0.21490
3006520,-0.09500,118.6875,130,75,0.21563
3006530,-0.09000,117.1875,130,75,0.21783
3006540,-0.10500,115.5000,130,75,0.21929
3006550,-0.11500,113.6250,130,75,0.22051
3006560,-0.10000,109.2500,130,75,0.22149
3006570,-0.11500,106.8125,130,75,0.22564
3006580,-0.12500,104.2500,130,75,0.22979
3006590,-0.11500,101.7500,130,75,0.23663
3006600,-0.11000,99.4375,130,75,0.24664
3006610,-0.12000,96.2500,130,75,0.27839
3006620,-0.13500,95.4375,130,75,0.29988
3006630,-0.13500,95.0625,130,75,0.32112
3006640,-0.12500,95.0000,130,75,0.34286
3006650,-0.11000,95.2500,130,75,0.39707
3006660,-0.10500,95.4375,130,75,0.42613
3006670,-0.09500,95.6250,130,75,0.45495
3006680,-0.12500,95.8125,130,75,0.50867
3006690,-0.18500,95.7500,130,75,0.53284
3006700,-0.21000,95.5625,130,75,0.55507
3006710,-0.24000,95.3125,130,75,0.57509
3006720,-0.14000,94.4375,130,75,0.60781
3006730,-0.01500,93.9375,130,75,0.61856
3006740,0.03000,93.4375,130,75,0.62662
3006750,-0.04500,92.8750,130,75,0.64225
3006760,-0.09500,92.3125,130,75,0.66081
3006770,-0.09000,91.1250,130,75,0.67814
3006780,-0.23000,90.6250,130,75,0.68132
3006790,-0.40500,90.0625,130,75,0.68230
3006800,-0.40500,90.0625,130,75,0.68230
3006810,-1.20500,88.4375,130,75,0.67399
3006820,-1.38500,87.9375,130,75,0.66764
3006830,-1.34000,87.4375,130,75,0.66007
3006840,-1.28000,86.9375,130,75,0.65104
3006850,-1.26500,86.0625,130,75,0.62759
3006860,-1.19000,85.6250,130,75,0.61392
3006870,-0.90000,85.1875,130,75,0.59976
3006880,-0.45000,84.3750,130,75,0.58535
3006890,-0.30000,83.9375,130,75,0.55775
3006900,-0.26000,83.5625,130,75,0.54505
3006910,-0.15500,83.2500,130,75,0.53382
3006920,-0.06500,82.9375,130,75,0.52381
3006930,0.06500,82.3125,130,75,0.50769
3006940,0.03500,82.0000,130,75,0.50183
3006950,-0.04500,81.6875,130,75,0.49621
3006960,-0.05500,81.1875,130,75,0.49084
3006970,0.13500,80.9375,130,75,0.48107
3006980,0.31000,80.6875,130,75,0.47643
3006990,0.44500,80.5000,130,75,0.47155
3007000,0.46000,80.3125,130,75,0.46667
3007010,0.36500,80.0000,130,75,0.45690
3007020,0.23500,79.8125,130,75,0.45201
3007030,0.43500,79.6875,130,75,0.44762
3007040,0.69500,79.5000,130,75,0.44347
3007050,1.10500,79.1250,130,75,0.43394
3007060,1.13500,79.0000,130,75,0.42906
3007070,0.62000,78.8125,130,75,0.42393
3007080,0.09000,78.6250,130,75,0.41880
3007090,-0.04500,78.1875,130,75,0.40855
3007100,-0.04500,78.0000,130,75,0.40317
3007110,-0.03500,77.7500,130,75,0.39805
3007120,-0.02500,77.5000,130,75,0.39292
3007130,-0.01500,76.8750,130,75,0.38388
3007140,-0.01000,76.6250,130,75,0.38022
3007150,-0.00500,76.3125,130,75,0.37582
3007160,-0.00500,75.6875,130,75,0.36654
3007170,-0.00500,75.3750,130,75,0.36190
3007180,-0.00500,75.1250,130,75,0.35751
3007190,0.00000,74.8125,130,75,0.35311
3007200,0.00500,74.2500,130,75,0.34481
3007210,0.01500,74.0000,130,75,0.34042
3007220,0.02000,73.7500,130,75,0.33626
3007230,0.02500,73.5625,130,75,0.33333
3007240,0.03500,73.1875,130,75,0.32747
3007250,0.04500,73.0000,130,75,0.32405
3007260,0.05500,73.0000,130,75,0.32063
3007270,0.06500,73.3750,130,75,0.31722
3007280,0.07500,74.3750,130,75,0.31380
3007290,0.09000,79.4375,130,75,0.30769
3007300,0.11000,83.5000,130,75,0.30501
3007310,0.10000,88.2500,130,75,0.30232
3007320,0.12000,93.5000,130,75,0.30012
3007330,0.25500,103.6875,130,75,0.29719
3007340,0.37000,108.3750,130,75,0.29670
3007350,0.34500,112.5000,130,75,0.29597
3007360,0.28000,116.1250,130,75,0.29475
3007370,0.26500,121.6875,130,75,0.29255
3007380,0.27500,123.5000,130,75,0.29182
3007390,0.28500,124.8750,130,75,0.29133
3007400,0.30500,126.3750,130,75,0.29109
3007410,0.31000,126.6875,130,75,0.29084
3007420,0.30000,126.8750,130,75,0.29084
3007430,0.25500,126.8125,130,75,0.29133
3007440,0.17000,126.5625,130,75,0.29182
3007450,0.08500,125.6250,130,75,0.29206
3007460,0.00000,124.9375,130,75,0.29182
3007470,-0.01500,124.1250,130,75,0.29158
3007480,-0.04500,123.1250,130,75,0.29182
3007490,-0.08500,120.7500,130,75,0.29231
3007500,-0.09000,119.3125,130,75,0.29255
3007510,-0.08500,117.7500,130,75,0.29280
3007520,-0.09000,115.9375,130,75,0.29304
3007530,-0.10500,111.8125,130,75,0.29548
3007540,-0.10500,109.5000,130,75,0.29841
3007550,-0.11500,107.0000,130,75,0.30256
3007560,-0.11500,102.0000,130,75,0.31844
3007570,-0.11500,99.9375,130,75,0.33138
3007580,-0.11500,98.3750,130,75,0.34799
3007590,-0.11000,97.3750,130,75,0.36801
3007600,-0.09500,96.5000,130,75,0.41661
3007610,-0.09500,96.4375,130,75,0.44371
3007620,-0.09000,96.5625,130,75,0.47179
3007630,-0.08500,96.6875,130,75,0.49646
3007640,-0.07500,96.8125,130,75,0.51893
3007650,-0.07500,96.9375,130,75,0.56777
3007660,-0.10500,96.8750,130,75,0.59121
3007670,-0.11500,96.7500,130,75,0.61294
3007680,-0.10000,96.1250,130,75,0.64933
3007690,-0.09000,95.7500,130,75,0.66398
3007700,-0.09000,95.2500,130,75,0.67643
3007710,-0.07500,94.7500,130,75,0.68694
3007720,-0.07500,94.1875,130,75,0.69548
3007730,-0.07500,93.0000,130,75,0.70598
3007740,-0.08500,92.4375,130,75,0.70745
3007750,-0.09000,91.8125,130,75,0.70867
3007760,-0.09500,91.2500,130,75,0.70891
3007770,-0.11000,90.1250,130,75,0.70525
3007780,-0.10500,89.6250,130,75,0.70110
3007790,-0.09500,89.0625,130,75,0.69548
3007800,-0.08500,88.5000,130,75,0.68816
3007810,-0.05500,87.4375,130,75,0.66838
3007820,-0.04000,86.9375,130,75,0.65617
3007830,-0.02500,86.4375,130,75,0.64371
3007840,-0.05000,85.5625,130,75,0.61758
3007850,-0.02500,85.1250,130,75,0.60366
3007860,0.06500,84.7500,130,75,0.58974
3007870,0.11000,84.3750,130,75,0.57656
3007880,0.08000,84.0000,130,75,0.56435
3007890,0.02000,83.3125,130,75,0.54310
3007900,-0.01000,83.0000,130,75,0.53407
3007910,-0.04000,82.7500,130,75,0.52601
3007920,-0.08500,82.4375,130,75,0.51868
3007930,-0.11000,81.9375,130,75,0.50647
3007940,-0.11500,81.6875,130,75,0.50159
3007950,-0.12500,81.4375,130,75,0.49695
3007960,-0.11500,81.1875,130,75,0.49206
3007970,-0.10500,80.7500,130,75,0.48230
3007980,-0.10500,80.5625,130,75,0.47717
3007990,-0.08500,80.3750,130,75,0.47179
3008000,0.13500,80.1250,130,75,0.46642
3008010,0.72500,79.8125,130,75,0.45519
3008020,0.96000,79.6875,130,75,0.44957
3008030,0.53500,79.5000,130,75,0.44469
3008040,-0.19000,79.1250,130,75,0.43541
3008050,-0.24000,78.8750,130,75,0.43028
3008060,-0.17000,78.6875,130,75,0.42515
3008070,-0.14500,78.4375,130,75,0.42002
3008080,-0.14500,77.9375,130,75,0.41490
3008090,-0.14500,77.6250,130,75,0.40464
3008100,-0.14000,77.3750,130,75,0.39951
3008110,-0.11500,77.0625,130,75,0.39438
3008120,-0.09500,76.7500,130,75,0.38950
3008130,-0.09500,76.1250,130,75,0.38193
3008140,-0.10500,75.7500,130,75,0.37753
3008150,-0.10500,75.4375,130,75,0.37289
3008160,-0.09500,75.1250,130,75,0.36801
3008170,-0.09000,74.4375,130,75,0.35897
3008180,-0.05500,74.1875,130,75,0.35458
3008190,-0.04500,73.9375,130,75,0.35043
3008200,-0.04500,73.5625,130,75,0.34628
3008210,-0.03000,73.3750,130,75,0.33822
3008220,-0.01500,73.3125,130,75,0.33431
3008230,0.00000,73.5000,130,75,0.33162
3008240,0.02500,75.7500,130,75,0.32625
3008250,0.03000,78.3750,130,75,0.32308
3008260,0.03000,82.1250,130,75,0.31990
3008270,0.04000,86.6875,130,75,0.31673
3008280,0.07000,91.8750,130,75,0.31355
3008290,0.09500,102.4375,130,75,0.30794
3008300,0.11000,107.3750,130,75,0.30549
3008310,0.13500,111.8125,130,75,0.30330
3008320,0.16000,119.1250,130,75,0.30159
3008330,0.20000,121.8125,130,75,0.30037
3008340,0.23000,123.8750,130,75,0.29963
3008350,0.25500,125.4375,130,75,0.29890
3008360,0.27500,127.2500,130,75,0.29744
3008370,0.28000,127.6875,130,75,0.29695
3008380,0.26000,127.8750,130,75,0.29646
3008390,0.21000,127.9375,130,75,0.29621
3008400,0.16000,127.8125,130,75,0.29597
3008410,0.09500,127.2500,130,75,0.29548
3008420,0.03000,126.7500,130,75,0.29524
3008430,-0.03000,126.0625,130,75,0.29573
3008440,-0.06000,125.2500,130,75,0.29670
3008450,-0.08500,123.1875,130,75,0.29768
3008460,-0.10500,121.9375,130,75,0.29792
3008470,-0.11500,120.5000,130,75,0.29817
3008480,-0.12500,117.1875,130,75,0.29866
3008490,-0.13500,115.1875,130,75,0.30012
3008500,-0.13500,113.0000,130,75,0.30208
3008510,-0.13500,110.5000,130,75,0.30549
3008520,-0.13500,105.3125,130,75,0.31868
3008530,-0.13000,102.8750,130,75,0.32845
3008540,-0.13000,100.8125,130,75,0.34237
3008550,-0.12500,99.2500,130,75,0.36020
3008560,-0.12000,98.2500,130,75,0.38169
3008570,-0.11000,97.2500,130,75,0.43272
3008580,-0.10500,97.1250,130,75,0.46081
3008590,-0.10000,97.1250,130,75,0.48913
3008600,-0.10000,97.1875,130,75,0.51697
3008610,-0.10000,97.4375,130,75,0.56947
3008620,-0.10000,97.4375,130,75,0.59316
3008630,-0.09500,97.3125,130,75,0.61172
3008640,-0.10000,97.1250,130,75,0.62686
3008650,-0.10000,96.4375,130,75,0.65739
3008660,-0.10000,96.0000,130,75,0.67057
3008670,-0.10500,95.5000,130,75,0.68205
3008680,-0.10500,94.3750,130,75,0.69939
3008690,-0.10500,93.8125,130,75,0.70525
3008700,-0.10000,93.1875,130,75,0.70965
3008710,-0.10500,92.5625,130,75,0.71258
3008720,-0.10500,91.9375,130,75,0.71380
3008730,-0.10000,90.7500,130,75,0.71038
3008740,-0.09500,90.0625,130,75,0.70696
3008750,-0.09000,89.5000,130,75,0.70232
3008760,-0.08500,88.3125,130,75,0.69646
3008770,-0.07500,87.7500,130,75,0.67985
3008780,-0.05500,87.2500,130,75,0.66911
3008790,-0.02500,86.7500,130,75,0.65665
3008800,-0.00500,85.7500,130,75,0.63932
3008810,0.00000,85.3125,130,75,0.62637
3008820,0.03000,84.8125,130,75,0.61148
3008830,0.07000,84.4375,130,75,0.59731
3008840,0.09000,83.6875,130,75,0.57021
3008850,0.07000,83.3750,130,75,0.55727
3008860,0.03500,83.1250,130,75,0.54530
3008870,0.00000,82.8125,130,75,0.53480
3008880,-0.03500,82.5625,130,75,0.52527
3008890,-0.07500,82.0625,130,75,0.50891
3008900,-0.10500,81.8125,130,75,0.50159
3008910,-0.11000,81.6250,130,75,0.49475
3008920,-0.10500,81.3750,130,75,0.48816
3008930,-0.09500,81.0000,130,75,0.47643
3008940,-0.08500,80.8125,130,75,0.47009
3008950,-0.07500,80.6250,130,75,0.46349
3008960,-0.04500,80.2500,130,75,0.45690
3008970,0.15500,80.0625,130,75,0.44371
3008980,0.53500,79.8750,130,75,0.43687
3008990,1.04500,79.6875,130,75,0.43004
3009000,0.76000,79.3750,130,76,0.41563
3009010,0.17000,79.1250,130,76,0.40830
3009020,-0.18000,78.9375,130,76,0.40098
3009030,-0.12500,78.7500,130,76,0.39463
3009040,-0.11500,78.4375,130,76,0.38877
3009050,-0.13500,77.8750,130,76,0.37534
3009060,-0.13500,77.6250,130,76,0.36825
3009070,-0.12500,77.3125,130,76,0.36117
3009080,-0.12000,77.0000,130,76,0.35433
3009090,-0.11000,76.3125,130,76,0.34090
3009100,-0.10000,75.9375,130,76,0.33431
3009110,-0.09500,75.5625,130,76,0.32796
3009120,-0.09500,74.8125,130,76,0.31722
3009130,-0.09000,74.5625,130,76,0.31331
3009140,-0.09000,74.2500,130,76,0.30891
3009150,-0.09000,73.9375,130,76,0.30403
3009160,-0.08500,73.6875,130,76,0.29915
3009170,-0.08500,73.3125,130,76,0.28987
3009180,-0.07500,73.1250,130,76,0.28523
3009190,-0.06500,73.0000,130,76,0.28107
3009200,-0.05500,73.1250,130,76,0.27692
3009210,-0.03000,75.1875,130,76,0.26960
3009220,-0.01500,77.7500,130,76,0.26618
3009230,-0.00500,81.4375,130,76,0.26398
3009240,0.01000,91.3750,130,76,0.26056
3009250,0.03500,96.8125,130,76,0.25836
3009260,0.05000,102.1875,130,76,0.25617
3009270,0.07500,107.2500,130,76,0.25421
3009280,0.11000,116.0625,130,76,0.25104
3009290,0.13500,119.6250,130,76,0.24957
3009300,0.16500,122.5625,130,76,0.24811
3009310,0.19500,124.8750,130,76,0.24664
3009320,0.22500,127.9375,130,76,0.24518
3009330,0.25500,128.8750,130,76,0.24469
3009340,0.26500,129.5625,130,76,0.24396
3009350,0.25500,129.9375,130,76,0.24322
3009360,0.21500,130.1250,130,76,0.24176
3009370,0.17500,129.9375,130,76,0.24103
3009380,0.11500,129.6875,130,76,0.24054
3009390,0.04500,129.2500,130,76,0.23980
3009400,0.00000,128.7500,130,76,0.23907
3009410,-0.05000,127.2500,130,76,0.23785
3009420,-0.07000,126.3125,130,76,0.23736
3009430,-0.09000,125.2500,130,76,0.23785
3009440,-0.10500,122.6250,130,76,0.23907
3009450,-0.11000,121.0000,130,76,0.23932
3009460,-0.11500,119.1875,130,76,0.23980
3009470,-0.12500,117.1250,130,76,0.24127
3009480,-0.12500,112.2500,130,76,0.25006
3009490,-0.12500,109.5000,130,76,0.25934
3009500,-0.12000,106.6875,130,76,0.27253
3009510,-0.12000,104.1250,130,76,0.29035
3009520,-0.11500,100.3750,130,76,0.33626
3009530,-0.11500,99.3125,130,76,0.36068
3009540,-0.11000,98.7500,130,76,0.39048
3009550,-0.10000,98.4375,130,76,0.42295
3009560,-0.09500,98.3125,130,76,0.45714
3009570,-0.09000,98.4375,130,76,0.52503
3009580,-0.09000,98.5625,130,76,0.55702
3009590,-0.08500,98.6250,130,76,0.58681
3009600,-0.08500,98.6250,130,76,0.61441
3009610,-0.08500,98.3125,130,76,0.66227
3009620,-0.08500,98.0000,130,76,0.68254
3009630,-0.08500,97.5625,130,76,0.69744
3009640,-0.08500,97.1250,130,76,0.70891
3009650,-0.08500,96.1250,130,76,0.73162
3009660,-0.09000,95.5625,130,76,0.74115
3009670,-0.09500,95.0000,130,76,0.74896
3009680,-0.09500,93.7500,130,76,0.75873
3009690,-0.09500,93.1875,130,76,0.76093
3009700,-0.09500,92.5625,130,76,0.76142
3009710,-0.09500,91.9375,130,76,0.75995
3009720,-0.09000,91.3750,130,76,0.75678
3009730,-0.08500,90.3125,130,76,0.74383
3009740,-0.08000,89.7500,130,76,0.73480
3009750,-0.06500,89.1875,130,76,0.72405
3009760,-0.04500,88.6875,130,76,0.71136
3009770,-0.00500,87.6875,130,76,0.68059
3009780,0.01000,87.3125,130,76,0.66325
3009790,0.02500,86.8750,130,76,0.64567
3009800,0.05000,86.4375,130,76,0.62784
3009810,0.09000,85.6875,130,76,0.59414
3009820,0.09000,85.3125,130,76,0.58022
3009830,0.07500,85.0000,130,76,0.56801
3009840,0.05000,84.4375,130,76,0.55604
3009850,0.02000,84.1875,130,76,0.53504
3009860,-0.02500,83.8750,130,76,0.52601
3009870,-0.06500,83.6250,130,76,0.51770
3009880,-0.07500,83.3750,130,76,0.51013
3009890,-0.08500,82.9375,130,76,0.49646
3009900,-0.08500,82.6875,130,76,0.48987
3009910,-0.08500,82.4375,130,76,0.48352
3009920,-0.08500,82.2500,130,76,0.47717
3009930,-0.08500,81.8125,130,76,0.46593
3009940,-0.03500,81.6250,130,76,0.45983
3009950,0.28000,81.4375,130,76,0.45372
3009960,0.77500,81.0625,130,76,0.44713
3009970,1.16500,80.8750,130,76,0.43394
3009980,0.70000,80.6875,130,76,0.42759
3009990,-0.02500,80.5000,130,76,0.42125
3010000,-0.19000,80.1250,130,75,0.40855
3010010,-0.16000,79.9375,130,75,0.40220
3010020,-0.15500,79.7500,130,75,0.39683
3010030,-0.16500,79.5000,130,75,0.39194
3010040,-0.16500,79.1875,130,75,0.38632
3010050,-0.16000,78.5625,130,75,0.37460
3010060,-0.15500,78.2500,130,75,0.36874
3010070,-0.14000,77.9375,130,75,0.36337
3010080,-0.13500,77.6250,130,75,0.35800
3010090,-0.13000,77.0625,130,75,0.34799
3010100,-0.12500,76.7500,130,75,0.34310
3010110,-0.11500,76.4375,130,75,0.33822
3010120,-0.11000,76.1875,130,75,0.33333
3010130,-0.10500,75.6250,130,75,0.32650
3010140,-0.09000,75.3750,130,75,0.32283
3010150,-0.08000,75.1875,130,75,0.31893
3010160,-0.07000,75.0625,130,75,0.31502
3010170,-0.05500,75.6250,130,75,0.30794
3010180,-0.04500,76.8125,130,75,0.30452
3010190,-0.03500,79.0000,130,75,0.30134
3010200,-0.01500,87.0000,130,75,0.29548
3010210,-0.00500,92.3125,130,75,0.29304
3010220,0.01500,97.9375,130,75,0.29158
3010230,0.03000,103.6250,130,75,0.29060
3010240,0.05000,109.0000,130,75,0.28938
3010250,0.07500,118.4375,130,75,0.28718
3010260,0.09500,122.3125,130,75,0.28620
3010270,0.12000,125.5625,130,75,0.28547
3010280,0.15000,130.1875,130,75,0.28474
3010290,0.18000,131.6875,130,75,0.28400
3010300,0.21000,132.7500,130,75,0.28376
3010310,0.23500,133.5625,130,75,0.28352
3010320,0.23500,134.4375,130,75,0.28352
3010330,0.22500,134.6250,130,75,0.28400
3010340,0.18000,134.6875,130,75,0.28376
3010350,0.11000,134.5625,130,75,0.28352
3010360,0.05500,134.3125,130,75,0.28352
3010370,-0.00500,133.5000,130,75,0.28352
3010380,-0.06500,132.9375,130,75,0.28352
3010390,-0.09500,132.3125,130,75,0.28352
3010400,-0.11500,131.5625,130,75,0.28352
3010410,-0.13500,129.5000,130,75,0.28352
3010420,-0.14500,128.2500,130,75,0.28400
3010430,-0.14500,126.8125,130,75,0.28523
3010440,-0.15000,123.1875,130,75,0.28645
3010450,-0.15500,120.9375,130,75,0.29280
3010460,-0.15500,118.5000,130,75,0.29988
3010470,-0.16000,115.8750,130,75,0.31062
3010480,-0.16000,110.6875,130,75,0.34628
3010490,-0.16000,108.4375,130,75,0.37118
3010500,-0.15500,106.6875,130,75,0.40024
3010510,-0.15500,105.3750,130,75,0.43223
3010520,-0.14500,104.4375,130,75,0.46642
3010530,-0.14500,103.4375,130,75,0.52479
3010540,-0.14000,103.1875,130,75,0.55604
3010550,-0.13500,103.0000,130,75,0.58779
3010560,-0.13500,102.8750,130,75,0.61856
3010570,-0.12500,102.6875,130,75,0.67399
3010580,-0.12500,102.5000,130,75,0.69817
3010590,-0.12500,102.1875,130,75,0.71990
3010600,-0.12500,101.8125,130,75,0.73919
3010610,-0.12500,100.8750,130,75,0.77118
3010620,-0.12500,100.3125,130,75,0.78120
3010630,-0.12500,99.8125,130,75,0.78828
3010640,-0.12500,99.1875,130,75,0.79609
3010650,-0.12500,98.0000,130,75,0.80904
3010660,-0.12500,97.3750,130,75,0.81368
3010670,-0.12500,96.6875,130,75,0.81685
3010680,-0.12000,95.4375,130,75,0.81807
3010690,-0.11500,94.8125,130,75,0.81587
3010700,-0.11000,94.2500,130,75,0.81172
3010710,-0.10500,93.6250,130,75,0.80537
3010720,-0.09500,93.0625,130,75,0.79683
3010730,-0.08000,92.0000,130,75,0.77485
3010740,-0.05000,91.5000,130,75,0.76142
3010750,-0.02500,91.0000,130,75,0.74652
3010760,-0.01000,90.0625,130,75,0.73040
3010770,0.00000,89.6250,130,75,0.69646
3010780,0.03500,89.1875,130,75,0.67961
3010790,0.06000,88.8125,130,75,0.66325
3010800,0.06000,88.8125,130,75,0.66325
3010810,0.02000,87.6875,130,75,0.62002
3010820,-0.01500,87.3750,130,75,0.60830
3010830,-0.05500,87.1250,130,75,0.59780
3010840,-0.10500,86.5000,130,75,0.56972
3010850,-0.12500,86.1875,130,75,0.54847
3010860,-0.13000,85.9375,130,75,0.53431
3010870,-0.13500,85.6875,130,75,0.52405
3010880,-0.13500,85.1875,130,75,0.50842
3010890,-0.13500,84.9375,130,75,0.50159
3010900,-0.13500,84.6875,130,75,0.49499
3010910,-0.13500,84.4375,130,75,0.48864
3010920,-0.04000,84.2500,130,75,0.48254
3010930,0.54000,83.8125,130,75,0.47179
3010940,1.07500,83.5625,130,75,0.46593
3010950,1.07500,83.3750,130,75,0.45983
3010960,0.17000,82.9375,130,75,0.44762
3010970,-0.17000,82.8125,130,75,0.44151
3010980,-0.19000,82.6250,130,75,0.43541
3010990,-0.16500,82.3750,130,75,0.42955
3011000,-0.17000,82.1250,129,75,0.42369
3011010,-0.17500,81.5625,129,75,0.41245
3011020,-0.17000,81.2500,129,75,0.40757
3011030,-0.16500,80.9375,129,75,0.40317
3011040,-0.16000,80.5625,129,75,0.39805
3011050,-0.15000,79.8750,129,75,0.38779
3011060,-0.14000,79.5625,129,75,0.38291
3011070,-0.13000,79.2500,129,75,0.37802
3011080,-0.12000,78.5625,129,75,0.36874
3011090,-0.11000,78.1875,129,75,0.36435
3011100,-0.09500,77.8750,129,75,0.36020
3011110,-0.08500,77.5000,129,75,0.35604
3011120,-0.07000,76.8750,129,75,0.34896
3011130,-0.06500,76.6250,129,75,0.34628
3011140,-0.05500,76.6250,129,75,0.34310
3011150,-0.04000,77.0625,129,75,0.33993
3011160,-0.02500,78.2500,129,75,0.33675
3011170,-0.01000,84.0625,129,75,0.33089
3011180,0.01000,88.6875,129,75,0.32845
3011190,0.02000,94.0000,129,75,0.32601
3011200,0.04000,105.1875,129,75,0.32259
3011210,0.06000,110.5000,129,75,0.32112
3011220,0.09000,115.3125,129,75,0.32039
3011230,0.11000,119.6250,129,75,0.32015
3011240,0.14000,126.5000,129,75,0.31868
3011250,0.15500,128.9375,129,75,0.31795
3011260,0.18500,130.8125,129,75,0.31746
3011270,0.21500,132.1875,129,75,0.31697
3011280,0.23500,133.1875,129,75,0.31673
3011290,0.24500,134.3750,129,75,0.31648
3011300,0.23500,134.6875,129,75,0.31648
3011310,0.20500,134.8750,129,75,0.31648
3011320,0.15500,134.7500,129,75,0.31624
3011330,0.08000,134.5625,129,75,0.31697
3011340,0.03000,134.1875,129,75,0.31697
3011350,-0.02500,133.7500,129,75,0.31673
3011360,-0.06000,133.1250,129,75,0.31648
3011370,-0.09000,131.5625,129,75,0.31551
3011380,-0.10500,130.6250,129,75,0.31502
3011390,-0.12000,129.5000,129,75,0.31429
3011400,-0.13000,128.1875,129,75,0.31355
3011410,-0.14000,124.8750,129,75,0.31282
3011420,-0.14500,122.8125,129,75,0.31380
3011430,-0.14500,120.5625,129,75,0.31624
3011440,-0.14500,118.0000,129,75,0.32088
3011450,-0.14500,112.4375,129,75,0.34017
3011460,-0.14000,109.7500,129,75,0.35580
3011470,-0.14000,107.3750,129,75,0.37534
3011480,-0.13500,104.1250,129,75,0.42344
3011490,-0.13500,103.0625,129,75,0.45055
3011500,-0.13000,102.3750,129,75,0.47839
3011510,-0.13500,101.8750,129,75,0.50598
3011520,-0.13500,101.5625,129,75,0.53309
3011530,-0.13000,101.3125,129,75,0.57436
3011540,-0.13000,101.1875,129,75,0.59438
3011550,-0.13000,101.0625,129,75,0.61392
3011560,-0.12500,100.5625,129,75,0.64811
3011570,-0.12500,100.1250,129,75,0.66227
3011580,-0.12500,99.6875,129,75,0.67448
3011590,-0.12500,99.1250,129,75,0.68449
3011600,-0.11500,98.0625,129,75,0.69939
3011610,-0.11500,97.4375,129,75,0.70452
3011620,-0.11500,96.8125,129,75,0.70672
3011630,-0.11500,96.1250,129,75,0.70696
3011640,-0.11000,94.8125,129,75,0.70672
3011650,-0.11000,94.1875,129,75,0.70525
3011660,-0.10500,93.5625,129,75,0.70232
3011670,-0.10500,92.8750,129,75,0.69792
3011680,-0.10500,91.6250,129,75,0.68474
3011690,-0.09500,91.0000,129,75,0.67570
3011700,-0.08000,90.4375,129,75,0.66520
3011710,-0.06000,89.8750,129,75,0.65299
3011720,-0.03500,88.8750,129,75,0.62735
3011730,-0.02500,88.3750,129,75,0.61270
3011740,-0.01000,87.8750,129,75,0.59683
3011750,0.02000,87.3750,129,75,0.58046
3011760,0.05000,86.5000,129,75,0.54823
3011770,0.03000,86.1250,129,75,0.53309
3011780,0.00000,85.6875,129,75,0.51893
3011790,-0.03000,85.3125,129,75,0.50574
3011800,-0.03000,85.3125,129,75,0.50574
3011810,-0.10500,84.3125,129,75,0.47204
3011820,-0.10500,84.3125,129,75,0.47204
3011830,-0.13500,83.6875,129,75,0.45568
3011840,-0.14000,83.0625,129,75,0.44005
3011850,-0.14000,82.7500,129,75,0.43248
3011860,-0.13500,82.5000,129,75,0.42491
3011870,-0.13500,82.2500,129,75,0.41758
3011880,-0.13500,81.8125,129,75,0.41050
3011890,0.03500,81.5625,129,75,0.39658
3011900,0.39500,81.3750,129,75,0.38950
3011910,0.93500,81.1250,129,75,0.38266
3011920,0.74000,80.6875,129,75,0.37143
3011930,0.15500,80.5000,129,75,0.36508
3011940,-0.25000,80.2500,129,75,0.35849
3011950,-0.21000,80.0000,129,75,0.35189
3011960,-0.18000,79.7500,129,75,0.34505
3011970,-0.18000,79.1875,129,75,0.33138
3011980,-0.18000,78.8750,129,75,0.32479
3011990,-0.18000,78.5000,129,75,0.31844
3012000,-0.17000,78.1875,129,75,0.31209
3012010,-0.17000,77.5000,129,75,0.30012
3012020,-0.16000,77.1250,129,75,0.29548
3012030,-0.15500,76.7500,129,75,0.29182
3012040,-0.15000,76.0625,129,75,0.28718
3012050,-0.14500,75.7500,129,75,0.27766
3012060,-0.13500,75.4375,129,75,0.27302
3012070,-0.13000,75.1250,129,75,0.26838
3012080,-0.12000,74.5625,129,75,0.25958
3012090,-0.11500,74.3125,129,75,0.25543
3012100,-0.09500,74.1250,129,75,0.25128
3012110,-0.08500,73.9375,129,75,0.24737
3012120,-0.07500,73.8750,129,75,0.24469
3012130,-0.06000,74.8750,129,75,0.24005
3012140,-0.04000,76.5625,129,75,0.23687
3012150,-0.02500,79.2500,129,75,0.23370
3012160,-0.00500,83.0625,129,75,0.23077
3012170,0.01000,92.7500,129,75,0.22540
3012180,0.04000,98.0000,129,75,0.22295
3012190,0.06000,103.1250,129,75,0.22076
3012200,0.09000,112.3125,129,75,0.21880
3012210,0.12000,116.1875,129,75,0.21538
3012220,0.15000,119.4375,129,75,0.21490
3012230,0.18000,122.1250,129,75,0.21490
3012240,0.21500,125.6875,129,75,0.21343
3012250,0.23500,126.7500,129,75,0.21270
3012260,0.25000,127.5000,129,75,0.21172
3012270,0.24500,128.0000,129,75,0.21099
3012280,0.21500,128.1875,129,75,0.21050
3012290,0.14500,128.0000,129,75,0.20928
3012300,0.09000,127.6250,129,75,0.20879
3012310,0.02000,127.1875,129,75,0.20855
3012320,-0.04500,125.8125,129,75,0.21001
3012330,-0.07500,124.9375,129,75,0.21050
3012340,-0.10500,123.8750,129,75,0.21074
3012350,-0.12500,122.6875,129,75,0.21099
3012360,-0.13500,121.3125,129,75,0.21148
3012370,-0.14500,118.0625,129,75,0.21245
3012380,-0.15500,116.1250,129,75,0.21319
3012390,-0.15500,113.9375,129,75,0.21441
3012400,-0.15500,111.5000,129,75,0.21661
3012410,-0.16000,106.3125,129,75,0.22637
3012420,-0.16000,103.7500,129,75,0.23419
3012430,-0.16000,101.5000,129,75,0.24420
3012440,-0.15500,98.4375,129,75,0.27619
3012450,-0.15500,97.6250,129,75,0.29792
3012460,-0.15000,97.1875,129,75,0.32283
3012470,-0.14500,96.9375,129,75,0.35018
3012480,-0.14000,96.9375,129,75,0.37875
3012490,-0.13500,97.0625,129,75,0.43687
3012500,-0.12500,97.1250,129,75,0.46496
3012510,-0.11500,97.1250,129,75,0.49133
3012520,-0.10500,97.1250,129,75,0.51282
3012530,-0.10000,96.7500,129,75,0.54994
3012540,-0.10000,96.3750,129,75,0.56777
3012550,-0.10000,96.0000,129,75,0.58388
3012560,-0.10500,95.0000,129,75,0.61026
3012570,-0.10500,94.4375,129,75,0.62051
3012580,-0.10500,93.8125,129,75,0.62882
3012590,-0.10500,93.1875,129,75,0.63541
3012600,-0.10500,92.5625,129,75,0.64029
3012610,-0.10000,91.3125,129,75,0.64518
3012620,-0.10000,90.6875,129,75,0.64444
3012630,-0.10500,90.0625,129,75,0.64200
3012640,-0.11000,89.4375,129,75,0.63858
3012650,-0.12000,88.2500,129,75,0.62735
3012660,-0.12500,87.6875,129,75,0.61929
3012670,-0.12000,87.1250,129,75,0.60952
3012680,-0.11000,86.6250,129,75,0.59829
3012690,-0.10500,85.6875,129,75,0.57216
3012700,-0.09500,85.2500,129,75,0.55800
3012710,-0.10000,84.8125,129,75,0.54383
3012720,-0.08500,84.4375,129,75,0.53089
3012730,-0.04000,83.7500,129,75,0.50672
3012740,-0.02500,83.4375,129,75,0.49475
3012750,-0.04500,83.1875,129,75,0.48352
3012760,-0.08500,82.6250,129,75,0.46398
3012770,-0.10500,82.3125,129,75,0.45568
3012780,-0.13500,82.0625,129,75,0.44860
3012790,-0.17500,81.8125,129,75,0.44200
3012800,-0.17500,81.8125,129,75,0.44200
3012810,-0.19000,81.0625,129,75,0.42491
3012820,-0.18500,80.8125,129,75,0.42027
3012830,-0.18000,80.5625,129,75,0.41612
3012840,-0.17000,80.1250,129,75,0.40610
3012850,-0.16000,79.9375,129,75,0.40073
3012860,-0.15000,79.6875,129,75,0.39512
3012870,0.04000,79.5000,129,75,0.38926
3012880,0.51500,79.0000,129,75,0.38339
3012890,0.98500,78.8125,129,75,0.38169
3012900,0.66000,78.6250,129,75,0.39096
3012910,-0.04500,78.4375,129,75,0.39267
3012920,-0.28000,77.9375,129,75,0.38901
3012930,-0.23000,77.6875,129,75,0.38486
3012940,-0.20500,77.3750,129,75,0.37998
3012950,-0.20500,77.1250,129,75,0.37485
3012960,-0.21000,76.8125,129,75,0.36996
3012970,-0.20500,76.2500,129,75,0.36020
3012980,-0.19500,75.9375,129,75,0.35556
3012990,-0.19000,75.6250,129,75,0.35092
3013000,-0.18500,75.2500,129,75,0.34652
3013010,-0.18000,74.5625,129,75,0.33822
3013020,-0.16500,74.2500,129,75,0.33529
3013030,-0.15500,73.9375,129,75,0.33284
3013040,-0.14500,73.6250,129,75,0.32967
3013050,-0.13500,73.1250,129,75,0.32283
3013060,-0.13000,72.9375,129,75,0.31941
3013070,-0.11500,72.7500,129,75,0.31600
3013080,-0.10000,72.4375,129,75,0.30965
3013090,-0.08500,72.4375,129,75,0.30672
3013100,-0.07000,72.6875,129,75,0.30379
3013110,-0.05000,73.5625,129,75,0.30085
3013120,-0.03500,75.1875,129,75,0.29890
3013130,-0.02000,81.7500,129,75,0.29573
3013140,0.00000,86.4375,129,75,0.29377
3013150,0.02000,91.5625,129,75,0.29182
3013160,0.04000,101.9375,129,75,0.28987
3013170,0.06500,106.8125,129,75,0.28596
3013180,0.10000,111.1875,129,75,0.28425
3013190,0.11500,115.0625,129,75,0.28230
3013200,0.13000,120.9375,129,75,0.28059
3013210,0.14500,123.0000,129,75,0.27741
3013220,0.16500,124.5000,129,75,0.27717
3013230,0.18500,125.5625,129,75,0.27741
3013240,0.21000,126.6875,129,75,0.27668
3013250,0.21500,126.8750,129,75,0.27643
3013260,0.18500,126.8750,129,75,0.27619
3013270,0.14500,126.6875,129,75,0.27595
3013280,0.09500,126.3750,129,75,0.27546
3013290,0.04000,125.3750,129,75,0.27473
3013300,-0.00500,124.6875,129,75,0.27448
3013310,-0.02500,123.8750,129,75,0.27448
3013320,-0.04500,122.9375,129,75,0.27546
3013330,-0.07000,120.5625,129,75,0.27741
3013340,-0.09500,119.1250,129,75,0.27790
3013350,-0.10500,117.5000,129,75,0.27863
3013360,-0.11500,113.5000,129,75,0.28034
3013370,-0.12000,111.1875,129,75,0.28230
3013380,-0.12000,108.6875,129,75,0.28547
3013390,-0.11500,106.0625,129,75,0.29109
3013400,-0.11500,103.4375,129,75,0.29963
3013410,-0.11500,98.9375,129,75,0.32723
3013420,-0.11500,97.5000,129,75,0.34383
3013430,-0.12000,96.5625,129,75,0.36239
3013440,-0.12000,96.1250,129,75,0.38559
3013450,-0.11500,95.8750,129,75,0.43980
3013460,-0.11500,95.8750,129,75,0.46886
3013470,-0.11000,95.9375,129,75,0.49792
3013480,-0.10500,96.0000,129,75,0.55336
3013490,-0.10500,95.9375,129,75,0.57851
3013500,-0.10500,95.8125,129,75,0.60171
3013510,-0.11500,95.6250,129,75,0.62271
3013520,-0.12000,95.3125,129,75,0.63883
3013530,-0.11500,94.4375,129,75,0.66496
3013540,-0.11500,93.9375,129,75,0.67741
3013550,-0.12000,93.3750,129,75,0.68864
3013560,-0.13000,92.8125,129,75,0.69817
3013570,-0.13500,91.6875,129,75,0.71282
3013580,-0.13500,91.1250,129,75,0.71770
3013590,-0.13500,90.5625,129,75,0.72112
3013600,-0.13000,89.4375,129,75,0.72259
3013610,-0.11500,88.8750,129,75,0.72015
3013620,-0.10500,88.3125,129,75,0.71600
3013630,-0.09500,87.7500,129,75,0.71038
3013640,-0.09000,87.2500,129,75,0.70330
3013650,-0.07500,86.1875,129,75,0.68376
3013660,-0.05500,85.6875,129,75,0.67131
3013670,-0.02500,85.2500,129,75,0.65788
3013680,0.03000,84.3125,129,75,0.62857
3013690,0.06000,83.8750,129,75,0.61392
3013700,0.08000,83.5000,129,75,0.59951
3013710,0.10500,83.1250,129,75,0.58608
3013720,0.11000,82.8125,129,75,0.57436
3013730,0.08000,82.1875,129,75,0.55433
3013740,0.03500,81.8750,129,75,0.54505
3013750,-0.00500,81.5625,129,75,0.53626
3013760,-0.05500,81.3125,129,75,0.52821
3013770,-0.10500,80.8125,129,75,0.51380
3013780,-0.13500,80.6250,129,75,0.50720
3013790,-0.15000,80.4375,129,75,0.50085
3013800,-0.15500,80.0625,129,75,0.48864
3013810,-0.15000,79.9375,129,75,0.48327
3013820,-0.13500,79.7500,129,75,0.47839
3013830,-0.12500,79.5625,129,75,0.47302
3013840,-0.10000,79.3125,129,75,0.46740
3013850,0.05500,78.9375,129,75,0.45568
3013860,0.52000,78.6875,129,75,0.44982
3013870,1.05500,78.5000,129,75,0.44420
3013880,0.83500,78.2500,129,75,0.43858
3013890,0.12000,77.7500,129,75,0.42735
3013900,-0.20000,77.5000,129,75,0.42173
3013910,-0.16000,77.1875,129,75,0.41612
3013920,-0.15500,76.8125,129,75,0.41172
3013930,-0.16500,76.1250,129,75,0.40317
3013940,-0.17000,75.8125,129,75,0.39829
3013950,-0.17000,75.5000,129,75,0.39341
3013960,-0.16000,75.1875,129,75,0.38852
3013970,-0.15000,74.5000,129,75,0.37875
3013980,-0.14500,74.1875,129,75,0.37387
3013990,-0.13500,73.8750,129,75,0.36923
3014000,-0.13000,73.5625,130,75,0.36459
3014010,-0.12500,73.1250,130,75,0.35702
3014020,-0.11500,72.8750,130,75,0.35409
3014030,-0.10500,72.6875,130,75,0.35043
3014040,-0.10000,72.4375,130,75,0.34652
3014050,-0.09000,72.1250,130,75,0.33846
3014060,-0.08000,72.0625,130,75,0.33455
3014070,-0.07500,72.0625,130,75,0.33114
3014080,-0.05500,73.1250,130,75,0.32454
3014090,-0.04500,74.8125,130,75,0.32161
3014100,-0.03000,77.5000,130,75,0.31893
3014110,-0.01500,81.3125,130,75,0.31648
3014120,0.00000,86.0000,130,75,0.31502
3014130,0.02000,96.6250,130,75,0.31233
3014140,0.04000,101.8750,130,75,0.31038
3014150,0.07000,106.7500,130,75,0.30818
3014160,0.09500,111.2500,130,75,0.30598
3014170,0.12500,118.5625,130,75,0.30159
3014180,0.15000,121.3125,130,75,0.29939
3014190,0.18500,123.4375,130,75,0.29744
3014200,0.20500,125.0625,130,75,0.29548
3014210,0.23000,126.9375,130,75,0.29304
3014220,0.24000,127.4375,130,75,0.29280
3014230,0.23500,127.6875,130,75,0.29182
3014240,0.20500,127.7500,130,75,0.29060
3014250,0.14500,127.5000,130,75,0.28864
3014260,0.08000,127.1250,130,75,0.28767
3014270,0.03000,126.6250,130,75,0.28694
3014280,-0.03000,125.0625,130,75,0.28596
3014290,-0.06000,124.1250,130,75,0.28571
3014300,-0.08500,123.0625,130,75,0.28571
3014310,-0.10000,121.8750,130,75,0.28596
3014320,-0.11000,120.5000,130,75,0.28694
3014330,-0.12000,117.2500,130,75,0.28889
3014340,-0.12500,115.3125,130,75,0.28987
3014350,-0.13000,113.1875,130,75,0.29158
3014360,-0.13000,108.1875,130,75,0.29963
3014370,-0.13500,105.5625,130,75,0.30769
3014380,-0.13500,102.9375,130,75,0.31917
3014390,-0.13000,100.6250,130,75,0.33431
3014400,-0.12500,98.8125,130,75,0.35360
3014410,-0.12500,96.7500,130,75,0.39878
3014420,-0.11500,96.3125,130,75,0.42149
3014430,-0.11500,96.1875,130,75,0.44835
3014440,-0.11500,96.1875,130,75,0.47741
3014450,-0.11500,96.4375,130,75,0.53626
3014460,-0.11500,96.5000,130,75,0.56410
3014470,-0.11500,96.5625,130,75,0.59023
3014480,-0.11000,96.5000,130,75,0.61416
3014490,-0.11000,96.1250,130,75,0.65543
3014500,-0.11500,95.7500,130,75,0.67277
3014510,-0.11500,95.3750,130,75,0.68791
3014520,-0.11500,94.8750,130,75,0.69866
3014530,-0.11500,93.7500,130,75,0.71502
3014540,-0.12000,93.1875,130,75,0.72234
3014550,-0.12000,92.6250,130,75,0.72845
3014560,-0.11500,92.0000,130,75,0.73309
3014570,-0.11500,90.7500,130,75,0.73748
3014580,-0.11000,90.1875,130,75,0.73724
3014590,-0.10500,89.5625,130,75,0.73529
3014600,-0.10500,89.0000,130,75,0.73162
3014610,-0.11000,87.8750,130,75,0.71990
3014620,-0.10500,87.3750,130,75,0.71184
3014630,-0.09500,86.9375,130,75,0.70208
3014640,-0.07500,85.9375,130,75,0.69084
3014650,-0.04500,85.5000,130,75,0.66422
3014660,-0.03500,85.0625,130,75,0.64933
3014670,-0.02500,84.6250,130,75,0.63419
3014680,0.00000,84.1875,130,75,0.61880
3014690,0.03000,83.5000,130,75,0.58974
3014700,0.04000,83.1875,130,75,0.57656
3014710,0.01000,82.8750,130,75,0.56459
3014720,-0.03000,82.2500,130,75,0.54628
3014730,-0.05000,82.0000,130,75,0.53822
3014740,-0.09500,81.6875,130,75,0.53065
3014750,-0.13500,81.3750,130,75,0.52381
3014760,-0.14000,81.1250,130,75,0.51746
3014770,-0.14500,80.6250,130,75,0.50525
3014780,-0.14500,80.3750,130,75,0.49939
3014790,-0.14500,80.1250,130,75,0.49353
3014800,-0.13500,79.9375,130,75,0.48742
3014810,-0.12500,79.5625,130,75,0.47595
3014820,-0.07500,79.4375,130,75,0.47082
3014830,0.14500,79.2500,130,75,0.46520
3014840,0.67000,79.0625,130,75,0.45958
3014850,1.02000,78.7500,130,75,0.44786
3014860,0.54000,78.5625,130,75,0.44151
3014870,-0.17500,78.3750,130,75,0.43516
3014880,-0.24500,78.1875,130,75,0.42906
3014890,-0.19000,77.8125,130,75,0.41661
3014900,-0.18000,77.6250,130,75,0.41074
3014910,-0.18000,77.4375,130,75,0.40513
3014920,-0.18000,76.8750,130,75,0.40049
3014930,-0.18000,76.5625,130,75,0.39194
3014940,-0.18000,76.2500,130,75,0.38266
3014950,-0.17000,75.9375,130,75,0.37118
3014960,-0.16000,75.6875,130,75,0.36264
3014970,-0.15500,75.1250,130,75,0.34945
3014980,-0.14500,74.8125,130,75,0.34408
3014990,-0.14500,74.5000,130,75,0.33895
3015000,-0.13500,74.1875,130,75,0.33407
3015010,-0.12000,73.6875,130,75,0.32625
3015020,-0.11000,73.5000,130,75,0.32357
3015030,-0.10000,73.3125,130,75,0.32015
3015040,-0.08500,73.1250,130,75,0.31258
3015050,-0.07500,73.3750,130,75,0.30867
3015060,-0.06500,74.1250,130,75,0.30501
3015070,-0.04500,75.8125,130,75,0.30159
3015080,-0.02500,78.5000,130,75,0.29841
3015090,-0.00500,87.0625,130,75,0.29304
3015100,0.02000,92.2500,130,75,0.29084
3015110,0.03500,97.6875,130,75,0.28889
3015120,0.06000,107.9375,130,75,0.28767
3015130,0.08000,112.4375,130,75,0.28669
3015140,0.11000,116.4375,130,75,0.28547
3015150,0.14000,119.8125,130,75,0.28425
3015160,0.17500,124.7500,130,75,0.28230
3015170,0.20500,126.3750,130,75,0.28156
3015180,0.24000,127.5000,130,75,0.28107
3015190,0.26000,128.2500,130,75,0.28083
3015200,0.27000,128.7500,130,75,0.28083
3015210,0.25000,129.1250,130,75,0.28132
3015220,0.22000,129.1250,130,75,0.28205
3015230,0.16500,128.8750,130,75,0.28230
3015240,0.10000,128.5625,130,75,0.28230
3015250,0.03000,127.4375,130,75,0.28278
3015260,-0.00500,126.7500,130,75,0.28303
3015270,-0.04500,125.8750,130,75,0.28352
3015280,-0.07000,124.9375,130,75,0.28400
3015290,-0.09000,122.5000,130,75,0.28498
3015300,-0.10500,121.0000,130,75,0.28547
3015310,-0.11000,119.3125,130,75,0.28596
3015320,-0.11500,115.2500,130,75,0.28962
3015330,-0.12500,112.8750,130,75,0.29231
3015340,-0.12500,112.8750,130,75,0.29231
3015350,-0.12500,112.8750,130,75,0.29231
3015360,-0.12500,112.8750,130,75,0.29231
3015370,-0.12000,101.1250,130,75,0.34969
3015380,-0.12000,99.8125,130,75,0.37338
3015390,-0.11500,99.0000,130,75,0.40049
3015400,-0.11500,98.5000,130,75,0.43053
3015410,-0.10500,98.1250,130,75,0.49035
3015420,-0.10000,98.1250,130,75,0.51648
3015430,-0.09500,98.1250,130,75,0.54530
3015440,-0.09000,98.1875,130,75,0.57460
3015450,-0.08500,98.0625,130,75,0.62906
3015460,-0.08500,97.8750,130,75,0.65324
3015470,-0.08500,97.5625,130,75,0.67521
3015480,-0.08500,97.1875,130,75,0.69475
3015490,-0.09000,96.3125,130,75,0.72674
3015500,-0.09000,95.7500,130,75,0.73968
3015510,-0.08500,95.2500,130,75,0.74847
3015520,-0.08500,94.6250,130,75,0.75458
3015530,-0.08000,93.5000,130,75,0.76630
3015540,-0.08000,92.9375,130,75,0.77045
3015550,-0.08000,92.3750,130,75,0.77289
3015560,-0.08000,91.7500,130,75,0.77387
3015570,-0.08500,90.6250,130,75,0.77070
3015580,-0.08500,90.0625,130,75,0.76630
3015590,-0.08000,89.5000,130,75,0.75995
3015600,-0.07000,88.9375,130,75,0.75165
3015610,-0.05000,87.9375,130,75,0.73040
3015620,-0.03000,87.4375,130,75,0.71819
3015630,-0.00500,87.0000,130,75,0.70427
3015640,0.00500,86.1250,130,75,0.67375
3015650,0.02000,85.6875,130,75,0.65812
3015660,0.05500,85.3125,130,75,0.64274
3015670,0.09000,84.9375,130,75,0.62808
3015680,0.07500,84.5625,130,75,0.61441
3015690,0.04000,83.8125,130,75,0.59072
3015700,0.00500,83.5000,130,75,0.58046
3015710,-0.02500,83.1250,130,75,0.57167
3015720,-0.07500,82.4375,130,75,0.55629
3015730,-0.09000,82.1250,130,75,0.54921
3015740,-0.10000,81.8125,130,75,0.54237
3015750,-0.10500,81.5000,130,75,0.53578
3015760,-0.10500,81.1875,130,75,0.52943
3015770,-0.10500,80.6250,130,75,0.51722
3015780,-0.10000,80.4375,130,75,0.51111
3015790,-0.09500,80.1875,130,75,0.50501
3015800,-0.09500,80.1875,130,75,0.50501
3015810,0.41500,79.5625,130,75,0.48694
3015820,0.96500,79.4375,130,75,0.48156
3015830,0.78500,79.2500,130,75,0.47570
3015840,0.05500,78.9375,130,75,0.46374
3015850,-0.22000,78.7500,130,75,0.45739
3015860,-0.19500,78.5625,130,75,0.45104
3015870,-0.17000,78.4375,130,75,0.44469
3015880,-0.17000,78.1875,130,75,0.43834
3015890,-0.17000,77.7500,130,75,0.42564
3015900,-0.16500,77.5000,130,75,0.41929
3015910,-0.16000,77.2500,130,75,0.41392
3015920,-0.15000,76.6250,130,75,0.40317
3015930,-0.14500,76.3125,130,75,0.39756
3015940,-0.14000,76.0000,130,75,0.39170
3015950,-0.13000,75.7500,130,75,0.38608
3015960,-0.12500,75.4375,130,75,0.38022
3015970,-0.12000,74.8125,130,75,0.36899
3015980,-0.11500,74.5000,130,75,0.36337
3015990,-0.10500,74.2500,130,75,0.35775
3016000,-0.09000,74.0625,130,75,0.35263
3016010,-0.07500,73.6875,130,75,0.34359
3016020,-0.06500,73.7500,130,75,0.34042
3016030,-0.05000,74.1250,130,75,0.33675
3016040,-0.03500,77.2500,130,75,0.33284
3016050,-0.01500,80.4375,130,75,0.32479
3016060,-0.00500,84.6250,130,75,0.32112
3016070,0.01500,89.6250,130,75,0.31770
3016080,0.04000,100.5625,130,75,0.31136
3016090,0.05500,105.8125,130,75,0.30842
3016100,0.07500,110.6875,130,75,0.30574
3016110,0.10500,115.1250,130,75,0.30403
3016120,0.13500,122.1250,130,75,0.30183
3016130,0.15500,124.7500,130,75,0.30061
3016140,0.18500,126.7500,130,75,0.29939
3016150,0.21000,128.1875,130,75,0.29866
3016160,0.23500,130.0000,130,75,0.29744
3016170,0.24500,130.5000,130,75,0.29719
3016180,0.24000,130.7500,130,75,0.29719
3016190,0.20000,130.8750,130,75,0.29719
3016200,0.15500,130.7500,130,75,0.29719
3016210,0.09000,130.1875,130,75,0.29744
3016220,0.01000,129.6875,130,75,0.29817
3016230,-0.03500,129.0625,130,75,0.29866
3016240,-0.07500,128.3125,130,75,0.29890
3016250,-0.10500,126.5000,130,75,0.29890
3016260,-0.12500,125.3750,130,75,0.29890
3016270,-0.14500,124.0625,130,75,0.29915
3016280,-0.15500,120.8750,130,75,0.30012
3016290,-0.15500,119.0000,130,75,0.30110
3016300,-0.15500,116.8750,130,75,0.30330
3016310,-0.15500,114.5000,130,75,0.30672
3016320,-0.15500,111.9375,130,75,0.31184
3016330,-0.16000,106.8125,130,75,0.33187
3016340,-0.15500,104.5625,130,75,0.34774
3016350,-0.15500,102.8125,130,75,0.36777
3016360,-0.16000,101.5000,130,75,0.39170
3016370,-0.16000,100.0625,130,75,0.44884
3016380,-0.15500,99.7500,130,75,0.48034
3016390,-0.15500,99.5625,130,75,0.51233
3016400,-0.15000,99.4375,130,75,0.54432
3016410,-0.14500,99.4375,130,75,0.60073
3016420,-0.14000,99.3750,130,75,0.62271
3016430,-0.13500,99.2500,130,75,0.64591
3016440,-0.13500,98.7500,130,75,0.68864
3016450,-0.13500,98.3750,130,75,0.70745
3016460,-0.14000,98.0000,130,75,0.72405
3016470,-0.14500,97.5000,130,75,0.73822
3016480,-0.14000,97.0000,130,75,0.75043
3016490,-0.14000,95.8750,130,75,0.76874
3016500,-0.14000,95.2500,130,75,0.77509
3016510,-0.13500,94.6875,130,75,0.77802
3016520,-0.13500,94.0625,130,75,0.77875
3016530,-0.13000,92.8750,130,75,0.77875
3016540,-0.12500,92.3125,130,75,0.77729
3016550,-0.12500,91.6875,130,75,0.77436
3016560,-0.12000,90.6250,130,75,0.76313
3016570,-0.11500,90.0625,130,75,0.75482
3016580,-0.11500,89.5625,130,75,0.74432
3016590,-0.09500,89.0000,130,75,0.73187
3016600,-0.08000,88.5625,130,75,0.71795
3016610,-0.05000,87.6250,130,75,0.68791
3016620,-0.02500,87.1875,130,75,0.67350
3016630,-0.02000,86.7500,130,75,0.65812
3016640,0.00500,86.3750,130,75,0.64274
3016650,0.04500,85.6250,130,75,0.61368
3016660,0.04500,85.3125,130,75,0.60073
3016670,0.02000,85.0000,130,75,0.58901
3016680,-0.01500,84.3750,130,75,0.56899
3016690,-0.04500,84.0625,130,75,0.56020
3016700,-0.09000,83.8125,130,75,0.55214
3016710,-0.12000,83.5000,130,75,0.54505
3016720,-0.13000,83.0000,130,75,0.53260
3016730,-0.13000,82.7500,130,75,0.52650
3016740,-0.13000,82.5000,130,75,0.52015
3016750,-0.12500,82.2500,130,75,0.51380
3016760,-0.12000,81.7500,130,75,0.50134
3016770,-0.12500,81.5625,130,75,0.49499
3016780,-0.08500,81.3750,130,75,0.48864
3016790,0.32500,81.1875,130,75,0.48205
3016800,0.32500,81.1875,130,75,0.48205
3016810,1.15500,80.6250,130,75,0.46374
3016820,0.40000,80.5000,130,75,0.45836
3016830,-0.10500,80.3125,130,75,0.45275
3016840,-0.20000,80.1250,130,75,0.44689
3016850,-0.16500,79.6875,130,75,0.43541
3016860,-0.16500,79.5000,130,75,0.42955
3016870,-0.17000,79.2500,130,75,0.42344
3016880,-0.17000,78.9375,130,75,0.41734
3016890,-0.17000,78.3750,130,75,0.40586
3016900,-0.16500,78.0625,130,75,0.40024
3016910,-0.15500,77.7500,130,75,0.39560
3016920,-0.14500,77.0625,130,75,0.38681
3016930,-0.13500,76.8125,130,75,0.38217
3016940,-0.13500,76.5000,130,75,0.37753
3016950,-0.12500,76.2500,130,75,0.37289
3016960,-0.12000,75.9375,130,75,0.36850
3016970,-0.11000,75.4375,130,75,0.36020
3016980,-0.10000,75.2500,130,75,0.35629
3016990,-0.08500,75.1250,130,75,0.34481
3017000,-0.07000,75.0625,130,75,0.32943
3017010,-0.05500,76.0000,130,75,0.31453
3017020,-0.04500,77.6250,130,75,0.31111
3017030,-0.02500,80.3750,130,75,0.30818
3017040,-0.01500,89.0625,130,75,0.30549
3017050,0.00500,94.5000,130,75,0.30012
3017060,0.02000,100.0625,130,75,0.29768
3017070,0.05000,105.5000,130,75,0.29548
3017080,0.08000,115.1875,130,75,0.29182
3017090,0.10000,119.3125,130,75,0.29035
3017100,0.13500,122.8750,130,75,0.28938
3017110,0.15500,125.8125,130,75,0.28913
3017120,0.18500,128.1250,130,75,0.28938
3017130,0.22500,131.2500,130,75,0.28913
3017140,0.24500,132.1875,130,75,0.28913
3017150,0.26000,132.8750,130,75,0.28913
3017160,0.26500,133.6250,130,75,0.28913
3017170,0.24500,133.7500,130,75,0.28913
3017180,0.19500,133.6875,130,75,0.28889
3017190,0.13500,133.5000,130,75,0.28864
3017200,0.07000,133.1875,130,75,0.28840
3017210,0.00500,132.1875,130,75,0.28913
3017220,-0.04000,131.5000,130,75,0.28913
3017230,-0.07000,130.7500,130,75,0.28913
3017240,-0.09500,129.8125,130,75,0.28889
3017250,-0.11000,127.6250,130,75,0.28840
3017260,-0.12000,126.2500,130,75,0.28816
3017270,-0.12500,124.6250,130,75,0.28816
3017280,-0.13000,120.6875,130,75,0.28889
3017290,-0.13500,118.3125,130,75,0.29548
3017300,-0.13500,115.7500,130,75,0.30281
3017310,-0.13000,113.0000,130,75,0.31209
3017320,-0.13000,107.8125,130,75,0.34066
3017330,-0.12500,105.7500,130,75,0.36190
3017340,-0.12500,104.1875,130,75,0.38706
3017350,-0.12000,103.0625,130,75,0.41514
3017360,-0.11500,102.3750,130,75,0.44518
3017370,-0.10500,101.6250,130,75,0.50769
3017380,-0.10000,101.5000,130,75,0.53846
3017390,-0.10000,101.5000,130,75,0.56801
3017400,-0.09500,101.3750,130,75,0.61856
3017410,-0.09500,101.2500,130,75,0.63736
3017420,-0.09500,101.0625,130,75,0.65690
3017430,-0.09000,100.7500,130,75,0.67570
3017440,-0.08500,99.9375,130,75,0.70842
3017450,-0.08500,99.4375,130,75,0.72186
3017460,-0.09000,98.8750,130,75,0.73358
3017470,-0.09000,98.3125,130,75,0.74335
3017480,-0.09000,97.7500,130,75,0.75116
3017490,-0.08500,96.5625,130,75,0.76166
3017500,-0.08500,95.9375,130,75,0.76459
3017510,-0.08500,95.3125,130,75,0.76484
3017520,-0.08000,94.6875,130,75,0.76288
3017530,-0.08000,93.5625,130,75,0.75775
3017540,-0.08000,93.0000,130,75,0.75311
3017550,-0.07500,92.4375,130,75,0.74701
3017560,-0.07500,91.8750,130,75,0.73919
3017570,-0.07500,90.8750,130,75,0.71795
3017580,-0.07500,90.3750,130,75,0.70476
3017590,-0.06000,89.8750,130,75,0.69011
3017600,-0.03000,89.0000,130,75,0.65885
3017610,-0.00500,88.5625,130,75,0.64371
3017620,0.02000,88.1875,130,75,0.62808
3017630,0.02000,87.8125,130,75,0.61270
3017640,0.04500,87.4375,130,75,0.59780
3017650,0.07500,86.8125,130,75,0.57094
3017660,0.07500,86.5000,130,75,0.55922
3017670,0.06000,86.1875,130,75,0.54872
3017680,0.03000,85.8750,130,75,0.53919
3017690,0.00000,85.5625,130,75,0.53040
3017700,-0.04500,85.3125,130,75,0.52234
3017710,-0.09000,85.0625,130,75,0.51502
3017720,-0.10000,84.7500,130,75,0.50842
3017730,-0.10500,84.3125,130,75,0.49597
3017740,-0.10500,84.0625,130,75,0.48962
3017750,-0.11000,83.7500,130,75,0.48303
3017760,-0.10500,83.1250,130,75,0.47643
3017770,-0.10500,82.8750,130,75,0.46374
3017780,-0.09500,82.5625,130,75,0.45739
3017790,0.22500,82.2500,130,75,0.45128
3017800,0.72000,81.9375,130,75,0.44493
3017810,1.19000,81.3125,130,75,0.43346
3017820,0.62000,81.0000,130,75,0.42833
3017830,0.03000,80.6875,130,75,0.42271
3017840,-0.19000,80.3750,130,75,0.41709
3017850,-0.15500,79.7500,130,75,0.40586
3017860,-0.15500,79.4375,130,75,0.40024
3017870,-0.16500,79.1250,130,75,0.39463
3017880,-0.16000,78.4375,130,75,0.38388
3017890,-0.15500,78.1250,130,75,0.37851
3017900,-0.14500,77.7500,130,75,0.37338
3017910,-0.14000,77.4375,130,75,0.36850
3017920,-0.12500,76.6875,130,75,0.36093
3017930,-0.12500,76.3125,130,75,0.35678
3017940,-0.12000,76.0000,130,75,0.35238
3017950,-0.11500,75.6875,130,75,0.34799
3017960,-0.10500,75.3750,130,75,0.34383
3017970,-0.09500,74.6875,130,75,0.33602
3017980,-0.08500,74.4375,130,75,0.33260
3017990,-0.07500,74.1875,130,75,0.32918
3018000,-0.06000,73.9375,129,75,0.32601
3018010,-0.04500,74.0000,129,75,0.32112
3018020,-0.03000,74.5625,129,75,0.31966
3018030,-0.01500,76.0000,129,75,0.31770
3018040,0.00000,78.5000,129,75,0.31575
3018050,0.01500,86.8750,129,75,0.31160
3018060,0.03000,92.1875,129,75,0.30965
3018070,0.05000,97.7500,129,75,0.30769
3018080,0.07000,103.1875,129,75,0.30598
3018090,0.09000,113.0000,129,75,0.30305
3018100,0.12000,117.2500,129,75,0.30183
3018110,0.14000,120.8750,129,75,0.30110
3018120,0.17000,123.8125,129,75,0.30085
3018130,0.20000,127.9375,129,75,0.30085
3018140,0.22000,129.3125,129,75,0.30037
3018150,0.24000,130.2500,129,75,0.29988
3018160,0.25000,131.3750,129,75,0.29866
3018170,0.23500,131.6250,129,75,0.29817
3018180,0.20000,131.6875,129,75,0.29768
3018190,0.13500,131.5625,129,75,0.29744
3018200,0.08500,131.3750,129,75,0.29695
3018210,0.01000,130.6250,129,75,0.29695
3018220,-0.02500,130.0625,129,75,0.29719
3018230,-0.06000,129.3750,129,75,0.29695
3018240,-0.08500,127.6250,129,75,0.29573
3018250,-0.10000,126.5000,129,75,0.29499
3018260,-0.11000,125.2500,129,75,0.29402
3018270,-0.11500,123.7500,129,75,0.29280
3018280,-0.12000,122.1250,129,75,0.29182
3018290,-0.12000,118.0625,129,75,0.29182
3018300,-0.12000,115.6875,129,75,0.29426
3018310,-0.11500,113.1250,129,75,0.29939
3018320,-0.11500,107.8750,129,75,0.31624
3018330,-0.11500,105.5000,129,75,0.33065
3018340,-0.10500,103.4375,129,75,0.34969
3018350,-0.10500,101.9375,129,75,0.37241
3018360,-0.10000,100.8125,129,75,0.39829
3018370,-0.10000,99.5000,129,75,0.45568
3018380,-0.09500,99.2500,129,75,0.48523
3018390,-0.09500,99.0625,129,75,0.51404
3018400,-0.09500,98.8750,129,75,0.56703
3018410,-0.09000,98.7500,129,75,0.58706
3018420,-0.09000,98.6250,129,75,0.60366
3018430,-0.09500,98.3750,129,75,0.62051
3018440,-0.09500,98.0625,129,75,0.63663
3018450,-0.10000,97.2500,129,75,0.66349
3018460,-0.10000,96.7500,129,75,0.67424
3018470,-0.10500,96.1875,129,75,0.68303
3018480,-0.10500,95.6250,129,75,0.69011
3018490,-0.10500,94.4375,129,75,0.69915
3018500,-0.11000,93.8750,129,75,0.70110
3018510,-0.11000,93.2500,129,75,0.70159
3018520,-0.10500,92.0625,129,75,0.69988
3018530,-0.10500,91.4375,129,75,0.69231
3018540,-0.11000,90.8125,129,75,0.68694
3018550,-0.11000,90.2500,129,75,0.68010
3018560,-0.11000,89.1250,129,75,0.67179
3018570,-0.10500,88.5625,129,75,0.65006
3018580,-0.08500,88.0000,129,75,0.63687
3018590,-0.05500,87.4375,129,75,0.62198
3018600,-0.03500,86.9375,129,75,0.60611
3018610,-0.02500,86.0625,129,75,0.57338
3018620,-0.01500,85.6250,129,75,0.55824
3018630,0.02500,85.1875,129,75,0.54237
3018640,0.05000,84.7500,129,75,0.52650
3018650,0.04000,83.9375,129,75,0.49670
3018660,0.01500,83.5625,129,75,0.48327
3018670,-0.01500,83.1875,129,75,0.47106
3018680,-0.05500,82.5625,129,75,0.44957
3018690,-0.08500,82.2500,129,75,0.44029
3018700,-0.11000,81.9375,129,75,0.43175
3018710,-0.12000,81.6875,129,75,0.42393
3018720,-0.12500,81.3750,129,75,0.41734
3018730,-0.12500,80.8125,129,75,0.40513
3018740,-0.12500,80.5625,129,75,0.39878
3018750,-0.12000,80.3125,129,75,0.39243
3018760,-0.11500,80.1250,129,75,0.38608
3018770,-0.04000,79.6875,129,75,0.37314
3018780,0.41000,79.5000,129,75,0.36654
3018790,0.85000,79.3125,129,75,0.35995
3018800,0.85000,79.3125,129,75,0.35995
3018810,0.27500,78.6875,129,75,0.34066
3018820,-0.22500,78.5000,129,75,0.33553
3018830,-0.22500,78.3125,129,75,0.32967
3018840,-0.17000,77.8750,129,75,0.31697
3018850,-0.17000,77.6250,129,75,0.31062
3018860,-0.16500,77.4375,129,75,0.30452
3018870,-0.16000,77.1250,129,75,0.29866
3018880,-0.15500,76.8750,129,75,0.29280
3018890,-0.15000,76.2500,129,75,0.28107
3018900,-0.14000,75.9375,129,75,0.27521
3018910,-0.13500,75.6250,129,75,0.26984
3018920,-0.12500,75.0000,129,75,0.26569
3018930,-0.11500,74.6250,129,75,0.25836
3018940,-0.10500,74.3125,129,75,0.25372
3018950,-0.10500,74.0000,129,75,0.24908
3018960,-0.09500,73.4375,129,75,0.23956
3018970,-0.09000,73.1875,129,75,0.23492
3018980,-0.08000,72.9375,129,75,0.23053
3018990,-0.06500,72.7500,129,75,0.22637
3019000,-0.05500,72.5625,129,74,0.22247
3019010,-0.04000,72.6875,129,74,0.21661
3019020,-0.02500,73.3750,129,74,0.21514
3019030,-0.00500,74.9375,129,74,0.21319
3019040,0.01000,77.5625,129,74,0.21099
3019050,0.04000,85.6250,129,74,0.23297
3019060,0.06000,90.5000,129,74,0.23907
3019070,0.09000,95.5625,129,74,0.24151
3019080,0.13000,105.0625,129,74,0.24176
3019090,0.15500,109.3125,129,74,0.24103
3019100,0.19500,113.0625,129,74,0.24029
3019110,0.22500,116.3125,129,74,0.24029
3019120,0.26000,118.9375,129,74,0.24078
3019130,0.28500,122.3750,129,74,0.24029
3019140,0.31000,123.3750,129,74,0.24005
3019150,0.31500,124.0625,129,74,0.23980
3019160,0.30500,124.4375,129,74,0.23956
3019170,0.24000,124.4375,129,74,0.23956
3019180,0.17500,124.1250,129,74,0.23956
3019190,0.08500,123.6875,129,74,0.23980
3019200,0.04000,123.0625,129,74,0.24005
3019210,-0.00500,121.4375,129,74,0.24127
3019220,-0.04500,120.3750,129,74,0.24249
3019230,-0.06000,119.1875,129,74,0.24347
3019240,-0.07500,117.8750,129,74,0.24444
3019250,-0.08500,114.6875,129,74,0.24567
3019260,-0.09000,112.8750,129,74,0.24615
3019270,-0.09500,110.8750,129,74,0.24664
3019280,-0.10000,108.6875,129,74,0.24737
3019290,-0.10000,103.7500,129,74,0.25128
3019300,-0.10000,101.2500,129,74,0.25568
3019310,-0.09500,98.9375,129,74,0.26178
3019320,-0.09000,97.0000,129,74,0.26984
3019330,-0.09000,94.6250,129,74,0.29646
3019340,-0.09000,94.0625,129,74,0.31526
3019350,-0.09000,93.8125,129,74,0.33724
3019360,-0.07500,93.7500,129,74,0.38852
3019370,-0.06500,93.8750,129,74,0.41612
3019380,-0.06000,94.0000,129,74,0.44371
3019390,-0.07000,94.1250,129,74,0.47057
3019400,-0.09000,94.1250,129,74,0.52039
3019410,-0.10000,94.0000,129,74,0.53993
3019420,-0.11500,93.7500,129,74,0.55604
3019430,-0.12000,93.5000,129,74,0.57241
3019440,-0.12500,93.1250,129,74,0.58779
3019450,-0.12500,92.2500,129,74,0.61392
3019460,-0.12000,91.7500,129,74,0.62418
3019470,-0.12000,91.2500,129,74,0.63590
3019480,-0.12500,90.6875,129,74,0.64176
3019490,-0.13500,89.5000,129,74,0.64884
3019500,-0.13500,88.9375,129,74,0.64811
3019510,-0.14000,88.3750,129,74,0.64567
3019520,-0.14000,87.1875,129,74,0.63736
3019530,-0.14000,86.5625,129,74,0.63101
3019540,-0.14000,86.0000,129,74,0.62320
3019550,-0.14000,85.4375,129,74,0.61343
3019560,-0.14000,84.9375,129,74,0.60220
3019570,-0.13500,83.9375,129,74,0.57631
3019580,-0.11500,83.4375,129,74,0.56239
3019590,-0.09500,83.0000,129,74,0.54823
3019600,-0.07500,82.1875,129,74,0.52259
3019610,-0.07000,81.8125,129,74,0.51184
3019620,-0.05000,81.4375,129,74,0.50110
3019630,-0.00500,81.1250,129,74,0.49109
3019640,0.00000,80.8125,129,74,0.48181
3019650,-0.02500,80.2500,129,74,0.46642
3019660,-0.05500,79.9375,129,74,0.46007
3019670,-0.08000,79.6875,129,74,0.45421
3019680,-0.12000,79.1875,129,74,0.44322
3019690,-0.14500,79.0000,129,74,0.43834
3019700,-0.16000,78.8125,129,74,0.43419
3019710,-0.16000,78.6250,129,74,0.43053
3019720,-0.16000,78.4375,129,74,0.42613
3019730,-0.16500,78.0625,129,74,0.41685
3019740,-0.16000,77.8750,129,74,0.41197
3019750,-0.16000,77.7500,129,74,0.40708
3019760,-0.13000,77.6250,129,74,0.40195
3019770,0.18500,77.3750,129,74,0.39170
3019780,0.61500,77.2500,129,74,0.38632
3019790,0.93000,77.1250,129,74,0.38095
3019800,0.93000,77.1250,129,74,0.38095
3019810,-0.15500,76.6875,129,74,0.36679
3019820,-0.25500,76.5625,129,74,0.36215
3019830,-0.21000,76.3750,129,74,0.35702
3019840,-0.20000,75.9375,129,74,0.34725
3019850,-0.20000,75.6875,129,74,0.34261
3019860,-0.19500,75.5000,129,74,0.33797
3019870,-0.19500,75.2500,129,74,0.33358
3019880,-0.19000,75.0000,129,74,0.32918
3019890,-0.18000,74.5000,129,74,0.32039
3019900,-0.17000,74.1875,129,74,0.31697
3019910,-0.16000,73.9375,129,74,0.31429
3019920,-0.15000,73.4375,129,74,0.31087
3019930,-0.14000,73.1875,129,74,0.30354
3019940,-0.13000,72.8750,129,74,0.29988
3019950,-0.11000,72.6250,129,74,0.29621
3019960,-0.09000,72.2500,129,74,0.28938
3019970,-0.08500,72.0625,129,74,0.28596
3019980,-0.07500,71.8750,129,74,0.28278
3019990,-0.05500,71.8125,129,74,0.28010
3020000,-0.04500,71.8750,130,74,0.27741
3020010,-0.03500,73.3750,130,74,0.27473
3020020,-0.01500,75.3750,130,74,0.27326
3020030,0.00500,78.3750,130,74,0.27179
3020040,0.03000,87.1250,130,74,0.26862
3020050,0.04500,92.2500,130,74,0.26716
3020060,0.07000,97.5000,130,74,0.26593
3020070,0.08500,102.5000,130,74,0.26471
3020080,0.11000,107.1875,130,74,0.26349
3020090,0.14500,115.0625,130,74,0.26178
3020100,0.16500,118.1875,130,74,0.26178
3020110,0.19500,120.6250,130,74,0.26227
3020120,0.22500,123.9375,130,74,0.26252
3020130,0.24500,124.9375,130,74,0.26252
3020140,0.26500,125.5625,130,74,0.26276
3020150,0.25000,125.9375,130,74,0.26276
3020160,0.22000,126.0625,130,74,0.26300
3020170,0.16000,125.7500,130,74,0.26398
3020180,0.08000,125.3750,130,74,0.26471
3020190,0.03000,124.8125,130,74,0.26545
3020200,-0.01500,123.2500,130,74,0.26642
3020210,-0.05500,122.1875,130,74,0.27009
3020220,-0.08000,121.0000,130,74,0.27155
3020230,-0.09500,119.7500,130,74,0.27277
3020240,-0.10000,118.3125,130,74,0.27375
3020250,-0.10500,115.0000,130,74,0.27619
3020260,-0.10500,113.0625,130,74,0.27766
3020270,-0.10500,110.8750,130,74,0.27961
3020280,-0.10500,106.2500,130,74,0.28303
3020290,-0.10500,103.8125,130,74,0.29670
3020300,-0.10500,101.6250,130,74,0.30672
3020310,-0.10500,99.7500,130,74,0.31893
3020320,-0.09500,98.3125,130,74,0.33553
3020330,-0.09500,96.6875,130,74,0.38022
3020340,-0.09500,96.2500,130,74,0.40659
3020350,-0.13000,96.0625,130,74,0.43468
3020360,-0.15000,96.0000,130,74,0.46349
3020370,-0.13500,96.0000,130,74,0.52015
3020380,-0.11500,96.0000,130,74,0.54652
3020390,-0.10500,95.8750,130,74,0.57143
3020400,-0.09500,95.4375,130,74,0.61197
3020410,-0.08500,95.1875,130,74,0.62637
3020420,-0.08000,94.8125,130,74,0.64127
3020430,-0.07500,94.4375,130,74,0.65543
3020440,-0.07500,93.9375,130,74,0.66813
3020450,-0.07500,92.8750,130,74,0.69206
3020460,-0.07500,92.3750,130,74,0.69866
3020470,-0.07500,91.8125,130,74,0.70354
3020480,-0.07500,91.2500,130,74,0.70818
3020490,-0.08000,90.0625,130,74,0.70745
3020500,-0.07500,89.5000,130,74,0.70427
3020510,-0.07500,89.0625,130,74,0.70037
3020520,-0.08000,88.5625,130,74,0.69524
3020530,-0.08000,87.6250,130,74,0.68034
3020540,-0.07500,87.1875,130,74,0.67082
3020550,-0.07500,86.7500,130,74,0.65983
3020560,-0.06000,85.8125,130,74,0.63492
3020570,-0.04500,85.3750,130,74,0.62173
3020580,-0.01500,84.9375,130,74,0.60879
3020590,-0.00500,84.5625,130,74,0.59609
3020600,0.00000,83.8750,130,74,0.57485
3020610,0.02500,83.5000,130,74,0.56508
3020620,0.06500,83.1875,130,74,0.55556
3020630,0.07500,82.8125,130,74,0.54701
3020640,0.05000,82.5000,130,74,0.53919
3020650,0.00500,81.8750,130,74,0.52552
3020660,-0.01500,81.5625,130,74,0.51941
3020670,-0.05500,81.3125,130,74,0.51380
3020680,-0.09500,80.6875,130,74,0.50842
3020690,-0.11500,80.3750,130,74,0.49841
3020700,-0.12000,80.1250,130,74,0.49402
3020710,-0.12000,79.8125,130,74,0.48938
3020720,-0.12000,79.5000,130,74,0.48449
3020730,-0.11500,79.0000,130,74,0.47424
3020740,-0.11500,78.8125,130,74,0.46911
3020750,-0.08500,78.5625,130,74,0.46398
3020760,0.20500,78.1875,130,74,0.45372
3020770,0.61500,78.0000,130,74,0.44835
3020780,0.95000,77.8125,130,74,0.44298
3020790,0.42000,77.6250,130,74,0.43785
3020800,0.42000,77.6250,130,74,0.43785
3020810,-0.23000,77.1250,130,74,0.42442
3020820,-0.18000,77.0000,130,74,0.41929
3020830,-0.16000,76.8125,130,74,0.41416
3020840,-0.16000,76.6250,130,74,0.40904
3020850,-0.15500,76.1875,130,74,0.39878
3020860,-0.14000,75.9375,130,74,0.39365
3020870,-0.13000,75.7500,130,74,0.38852
3020880,-0.11500,75.2500,130,74,0.37802
3020890,-0.10500,75.0000,130,74,0.37363
3020900,-0.09500,74.7500,130,74,0.36996
3020910,-0.09000,74.5000,130,74,0.36557
3020920,-0.08000,74.2500,130,74,0.36093
3020930,-0.07000,73.7500,130,74,0.35140
3020940,-0.06500,73.5625,130,74,0.34628
3020950,-0.06000,73.3750,130,74,0.34139
3020960,-0.05000,73.1875,130,74,0.33651
3020970,-0.03500,72.8125,130,74,0.32772
3020980,-0.02500,72.7500,130,74,0.32357
3020990,-0.01500,72.8750,130,74,0.32063
3021000,-0.03500,73.4375,130,75,0.31819
3021010,-0.06000,76.8750,130,75,0.31209
3021020,-0.05000,80.1250,130,75,0.30916
3021030,-0.03500,84.3750,130,75,0.30623
3021040,0.02000,94.3750,130,75,0.30134
3021050,0.06000,99.5000,130,75,0.29915
3021060,0.10000,104.3750,130,75,0.29744
3021070,0.12000,108.8750,130,75,0.29573
3021080,0.16000,116.3750,130,75,0.30183
3021090,0.18500,119.2500,130,75,0.30379
3021100,0.21500,121.5000,130,75,0.30501
3021110,0.25500,123.1875,130,75,0.30525
3021120,0.27500,124.3750,130,75,0.30501
3021130,0.29000,125.5625,130,75,0.30452
3021140,0.28000,125.7500,130,75,0.30452
3021150,0.25500,125.8125,130,75,0.30476
3021160,0.20500,125.6250,130,75,0.30525
3021170,0.13000,124.9375,130,75,0.30647
3021180,0.08500,124.3750,130,75,0.30769
3021190,0.03000,123.6875,130,75,0.30940
3021200,-0.01500,121.9375,130,75,0.31258
3021210,-0.03500,120.8750,130,75,0.31380
3021220,-0.05000,119.6875,130,75,0.31502
3021230,-0.06500,118.3125,130,75,0.31624
3021240,-0.06500,116.7500,130,75,0.31746
3021250,-0.07500,113.1875,130,75,0.32063
3021260,-0.08000,111.1250,130,75,0.32405
3021270,-0.08000,108.8750,130,75,0.32943
3021280,-0.08500,104.0000,130,75,0.34969
3021290,-0.08000,101.5625,130,75,0.36313
3021300,-0.08500,99.4375,130,75,0.37851
3021310,-0.08500,97.8125,130,75,0.39878
3021320,-0.09000,96.6250,130,75,0.42295
3021330,-0.09000,95.5625,130,75,0.47766
3021340,-0.09500,95.3125,130,75,0.50647
3021350,-0.09500,95.2500,130,75,0.53480
3021360,-0.09000,95.3125,130,75,0.56215
3021370,-0.08500,95.4375,130,75,0.61148
3021380,-0.08500,95.4375,130,75,0.63272
3021390,-0.08500,95.3750,130,75,0.64908
3021400,-0.09500,95.0000,130,75,0.67473
3021410,-0.09500,94.7500,130,75,0.68669
3021420,-0.09500,94.3750,130,75,0.69719
3021430,-0.10500,93.9375,130,75,0.70598
3021440,-0.10500,92.9375,130,75,0.71868
3021450,-0.10500,92.3750,130,75,0.72283
3021460,-0.10500,91.7500,130,75,0.72552
3021470,-0.10500,91.1875,130,75,0.72674
3021480,-0.10000,90.0000,130,75,0.72454
3021490,-0.10000,89.3750,130,75,0.72088
3021500,-0.10500,88.7500,130,75,0.71551
3021510,-0.10500,88.1875,130,75,0.70867
3021520,-0.10500,87.5625,130,75,0.70037
3021530,-0.10000,86.4375,130,75,0.67863
3021540,-0.10000,85.9375,130,75,0.66545
3021550,-0.09500,85.4375,130,75,0.65153
3021560,-0.09000,84.9375,130,75,0.63687
3021570,-0.06500,84.1250,130,75,0.60757
3021580,-0.04500,83.6875,130,75,0.59365
3021590,-0.02500,83.3125,130,75,0.58144
3021600,-0.01500,83.0000,130,75,0.57070
3021610,0.00000,82.4375,130,75,0.54994
3021620,0.03500,82.1250,130,75,0.54066
3021630,0.06500,81.8750,130,75,0.53211
3021640,0.04500,81.6250,130,75,0.52430
3021650,0.00000,81.1250,130,75,0.51038
3021660,-0.03000,80.8750,130,75,0.50403
3021670,-0.05500,80.6875,130,75,0.49768
3021680,-0.10000,80.4375,130,75,0.49158
3021690,-0.12500,79.9375,130,75,0.48034
3021700,-0.13000,79.6875,130,75,0.47546
3021710,-0.13500,79.5000,130,75,0.47009
3021720,-0.12500,79.0000,130,75,0.45861
3021730,-0.12000,78.8125,130,75,0.45275
3021740,-0.11500,78.5625,130,75,0.44689
3021750,-0.09000,78.3750,130,75,0.44103
3021760,0.03000,78.1875,130,75,0.43492
3021770,0.57000,77.8750,130,75,0.42271
3021780,0.98000,77.8125,130,75,0.41685
3021790,0.65500,77.6875,130,75,0.41172
3021800,0.08000,77.5625,130,75,0.40733
3021810,-0.22000,77.2500,130,75,0.39658
3021820,-0.17500,77.0625,130,75,0.39096
3021830,-0.15500,76.8125,130,75,0.38535
3021840,-0.15500,76.6250,130,75,0.37998
3021850,-0.16000,76.1250,130,75,0.36947
3021860,-0.15500,75.8125,130,75,0.36435
3021870,-0.14000,75.5000,130,75,0.35946
3021880,-0.13500,75.1875,130,75,0.35482
3021890,-0.13000,74.5000,130,75,0.34701
3021900,-0.12500,74.1250,130,75,0.34432
3021910,-0.12000,73.8125,130,75,0.34090
3021920,-0.11500,73.4375,130,75,0.33724
3021930,-0.11000,72.8125,130,75,0.33040
3021940,-0.10500,72.5000,130,75,0.32723
3021950,-0.09500,72.1875,130,75,0.32405
3021960,-0.07500,71.9375,130,75,0.32112
3021970,-0.06500,71.5625,130,75,0.31502
3021980,-0.05500,71.4375,130,75,0.31209
3021990,-0.03500,71.5625,130,75,0.31013
3022000,-0.01500,73.1875,130,75,0.30696
3022010,-0.00500,75.3125,130,75,0.30476
3022020,0.01000,78.5000,130,75,0.30281
3022030,0.03000,82.7500,130,75,0.30110
3022040,0.04500,87.6875,130,75,0.29988
3022050,0.07000,98.2500,130,75,0.29817
3022060,0.10000,103.2500,130,75,0.29768
3022070,0.13000,107.8750,130,75,0.29744
3022080,0.15500,112.0625,130,75,0.29719
3022090,0.18500,118.6875,130,75,0.29719
3022100,0.21500,121.1250,130,75,0.29792
3022110,0.24500,123.0000,130,75,0.29817
3022120,0.27000,124.3125,130,75,0.29841
3022130,0.28500,125.9375,130,75,0.29866
3022140,0.28500,126.3750,130,75,0.29890
3022150,0.25500,126.6250,130,75,0.29939
3022160,0.19500,126.5000,130,75,0.30110
3022170,0.14500,126.2500,130,75,0.30208
3022180,0.08000,125.8750,130,75,0.30281
3022190,0.00500,125.3125,130,75,0.30379
3022200,-0.03000,124.6250,130,75,0.30501
3022210,-0.06500,122.6875,130,75,0.30623
3022220,-0.08500,121.5625,130,75,0.30647
3022230,-0.09500,120.2500,130,75,0.30696
3022240,-0.10000,118.8125,130,75,0.30720
3022250,-0.10500,115.3750,130,75,0.30916
3022260,-0.10500,113.3125,130,75,0.31184
3022270,-0.10500,111.1250,130,75,0.31697
3022280,-0.10750,106.1875,130,75,0.33675
3022290,-0.11000,103.6250,130,75,0.34969
3022300,-0.11000,101.2500,130,75,0.36508
3022310,-0.10500,99.2500,130,75,0.38510
3022320,-0.10500,97.6875,130,75,0.40879
3022330,-0.10500,96.0000,130,75,0.46374
3022340,-0.10500,95.6250,130,75,0.49280
3022350,-0.10500,95.4375,130,75,0.52161
3022360,-0.10500,95.3750,130,75,0.54945
3022370,-0.10500,95.4375,130,75,0.60073
3022380,-0.10500,95.5000,130,75,0.62320
3022390,-0.10500,95.5000,130,75,0.64078
3022400,-0.10500,95.3750,130,75,0.65519
3022410,-0.10500,95.0625,130,75,0.68376
3022420,-0.10500,94.7500,130,75,0.69621
3022430,-0.11000,94.4375,130,75,0.70720
3022440,-0.11500,94.0000,130,75,0.71648
3022450,-0.12500,93.0000,130,75,0.72967
3022460,-0.13500,92.5000,130,75,0.73382
3022470,-0.15000,91.9375,130,75,0.73602
3022480,-0.14500,90.9375,130,75,0.73529
3022490,-0.14500,90.4375,130,75,0.73211
3022500,-0.14000,89.9375,130,75,0.72747
3022510,-0.14000,89.3750,130,75,0.72161
3022520,-0.13500,88.8750,130,75,0.71429
3022530,-0.13500,87.9375,130,75,0.69475
3022540,-0.13000,87.4375,130,75,0.68254
3022550,-0.13000,87.0000,130,75,0.66911
3022560,-0.12000,86.6250,130,75,0.65470
3022570,-0.09500,85.8750,130,75,0.62491
3022580,-0.07000,85.5000,130,75,0.61026
3022590,-0.06500,85.1875,130,75,0.59707
3022600,-0.05500,84.5625,130,75,0.58510
3022610,-0.02500,84.3125,130,75,0.56190
3022620,0.00000,84.0000,130,75,0.55140
3022630,0.00000,83.6875,130,75,0.54164
3022640,-0.03500,83.4375,130,75,0.53284
3022650,-0.06500,82.8125,130,75,0.51770
3022660,-0.09500,82.5000,130,75,0.51087
3022670,-0.13500,82.1875,130,75,0.50476
3022680,-0.16500,81.8750,130,75,0.49890
3022690,-0.18000,81.3125,130,75,0.48938
3022700,-0.18000,81.0625,130,75,0.48449
3022710,-0.18000,80.8125,130,75,0.47937
3022720,-0.18000,80.5625,130,75,0.47399
3022730,-0.17500,80.1875,130,75,0.46325
3022740,-0.17000,79.9375,130,75,0.45788
3022750,-0.06500,79.8125,130,75,0.45250
3022760,0.21500,79.6250,130,75,0.44737
3022770,0.79500,79.3125,130,75,0.43712
3022780,0.97000,79.1875,130,75,0.43175
3022790,0.20500,79.0625,130,75,0.42735
3022800,0.20500,79.0625,130,75,0.42735
3022810,-0.26000,78.6250,130,75,0.41441
3022820,-0.26000,78.6250,130,75,0.41441
3022830,-0.20000,78.3125,130,75,0.40537
3022840,-0.19500,77.7500,130,75,0.39707
3022850,-0.19000,77.4375,130,75,0.39341
3022860,-0.18000,77.1250,130,75,0.38974
3022870,-0.17000,76.7500,130,75,0.38608
3022880,-0.17000,76.3750,130,75,0.38266
3022890,-0.16000,75.6875,130,75,0.37753
3022900,-0.15500,75.3750,130,75,0.37460
3022910,-0.15000,75.0625,130,75,0.37143
3022920,-0.14000,74.7500,130,75,0.36801
3022930,-0.13000,74.1875,130,75,0.36117
3022940,-0.12000,74.0000,130,75,0.35800
3022950,-0.11000,73.8125,130,75,0.35507
3022960,-0.09500,73.5625,130,75,0.34969
3022970,-0.08500,73.6250,130,75,0.34725
3022980,-0.06500,73.8750,130,75,0.34505
3022990,-0.05000,74.6875,130,75,0.34383
3023000,-0.03500,76.3125,129,74,0.34286
3023010,-0.01500,82.9375,129,74,0.34017
3023020,0.00500,87.6875,129,74,0.33871
3023030,0.02000,92.9375,129,74,0.33748
3023040,0.04500,98.3750,129,74,0.33651
3023050,0.07000,108.5625,129,74,0.33529
3023060,0.09500,113.0625,129,74,0.33480
3023070,0.12500,117.0000,129,74,0.33455
3023080,0.15500,123.1875,129,74,0.33504
3023090,0.18500,125.3750,129,74,0.33578
3023100,0.21500,127.0625,129,74,0.33626
3023110,0.24500,128.3125,129,74,0.33651
3023120,0.26500,129.2500,129,74,0.33651
3023130,0.27500,130.3125,129,74,0.31087
3023140,0.25500,130.5625,129,74,0.30305
3023150,0.21000,130.6875,129,74,0.29915
3023160,0.14500,130.6875,129,74,0.29719
3023170,0.07500,130.2500,129,74,0.29573
3023180,0.00000,129.8750,129,74,0.29548
3023190,-0.04000,129.3125,129,74,0.29573
3023200,-0.08000,127.8125,129,74,0.29670
3023210,-0.11000,126.8750,129,74,0.29695
3023220,-0.13500,125.6875,129,74,0.29719
3023230,-0.15000,124.3750,129,74,0.29744
3023240,-0.16000,122.8125,129,74,0.29841
3023250,-0.17000,119.1250,129,74,0.30427
3023260,-0.18000,116.8750,129,74,0.31087
3023270,-0.18000,114.4375,129,74,0.32088
3023280,-0.18000,111.8125,129,74,0.33529
3023290,-0.18000,106.5625,129,74,0.36947
3023300,-0.17500,104.3125,129,74,0.39341
3023310,-0.17000,102.5625,129,74,0.42149
3023320,-0.16500,101.3125,129,74,0.45250
3023330,-0.15500,99.8750,129,74,0.51795
3023340,-0.14500,99.5625,129,74,0.55043
3023350,-0.14000,99.4375,129,74,0.58193
3023360,-0.13500,99.5625,129,74,0.61148
3023370,-0.13500,99.6875,129,74,0.66374
3023380,-0.13500,99.6875,129,74,0.68620
3023390,-0.14000,99.6250,129,74,0.70305
3023400,-0.14500,99.5000,129,74,0.71624
3023410,-0.14000,99.0000,129,74,0.74310
3023420,-0.14000,98.6250,129,74,0.75507
3023430,-0.14000,98.1250,129,74,0.76532
3023440,-0.14500,97.6250,129,74,0.77436
3023450,-0.14500,96.5000,129,74,0.78779
3023460,-0.14000,95.9375,129,74,0.79219
3023470,-0.13500,95.3125,129,74,0.79512
3023480,-0.13500,94.6875,129,74,0.79609
3023490,-0.13000,93.3750,129,74,0.79048
3023500,-0.12500,92.8125,129,74,0.78535
3023510,-0.12500,92.2500,129,74,0.77875
3023520,-0.11500,91.1250,129,74,0.76020
3023530,-0.11000,90.5625,129,74,0.74847
3023540,-0.10500,90.0625,129,74,0.73504
3023550,-0.10500,89.5625,129,74,0.72015
3023560,-0.08000,88.5625,129,74,0.68864
3023570,-0.05500,88.1250,129,74,0.67253
3023580,-0.03000,87.6875,129,74,0.65714
3023590,-0.01500,87.2500,129,74,0.64322
3023600,0.00000,86.8750,129,74,0.63077
3023610,0.02500,86.1250,129,74,0.60757
3023620,0.05500,85.7500,129,74,0.59780
3023630,0.05000,85.4375,129,74,0.58926
3023640,0.02500,84.7500,129,74,0.58169
3023650,0.00000,84.4375,129,74,0.56874
3023660,-0.02500,84.1250,129,74,0.56288
3023670,-0.06500,83.8750,129,74,0.55727
3023680,-0.10500,83.3750,129,74,0.54579
3023690,-0.11500,83.1250,129,74,0.54017
3023700,-0.12500,82.9375,129,74,0.53431
3023710,-0.12500,82.8125,129,74,0.52796
3023720,-0.11500,82.6250,129,74,0.51477
3023730,-0.11500,82.5625,129,74,0.50794
3023740,-0.13000,82.5625,129,74,0.50134
3023750,-0.01500,82.4375,129,74,0.49475
3023760,0.31500,82.3750,129,74,0.48816
3023770,0.93500,82.1250,129,74,0.47546
3023780,0.99000,82.0000,129,74,0.46911
3023790,0.27500,81.8750,129,74,0.46325
3023800,0.27500,81.8750,129,74,0.46325
3023810,-0.27000,81.5000,129,74,0.45153
3023820,-0.22000,81.0000,129,74,0.43810
3023830,-0.21500,80.6875,129,74,0.43126
3023840,-0.21000,79.9375,129,74,0.41783
3023850,-0.20000,79.5000,129,74,0.41123
3023860,-0.18500,79.0000,129,74,0.40488
3023870,-0.17000,78.5625,129,74,0.39878
3023880,-0.16000,78.1875,129,74,0.39292
3023890,-0.14500,77.4375,129,74,0.38388
3023900,-0.14500,77.1250,129,74,0.37900
3023910,-0.13500,76.8125,129,74,0.37436
3023920,-0.12500,76.2500,129,74,0.36972
3023930,-0.11500,76.0000,129,74,0.36068
3023940,-0.10500,75.7500,129,74,0.35653
3023950,-0.09500,75.6250,129,74,0.35263
3023960,-0.08500,75.4375,129,74,0.34628
3023970,-0.07500,75.5625,129,74,0.34383
3023980,-0.05500,76.1250,129,74,0.34212
3023990,-0.04000,77.3125,129,74,0.34115
3024000,-0.02500,82.9375,129,74,0.34042
3024010,-0.01500,87.4375,129,74,0.33993
3024020,0.00500,92.6250,129,74,0.33968
3024030,0.02500,98.0625,129,74,0.33944
3024040,0.04500,103.5625,129,74,0.33944
3024050,0.07000,113.5625,129,74,0.33944
3024060,0.10000,117.8750,129,74,0.33944
3024070,0.13000,121.6250,129,74,0.33919
3024080,0.16500,127.3125,129,74,0.33895
3024090,0.19500,129.3125,129,74,0.33919
3024100,0.21500,130.7500,129,74,0.33919
3024110,0.24000,131.8750,129,74,0.33871
3024120,0.25500,132.6875,129,74,0.33797
3024130,0.25500,133.5625,129,74,0.33651
3024140,0.23500,133.6875,129,74,0.33529
3024150,0.19500,133.6875,129,74,0.33407
3024160,0.14500,133.5625,129,74,0.33284
3024170,0.09000,132.8125,129,74,0.33040
3024180,0.02000,132.2500,129,74,0.32918
3024190,-0.01500,131.6250,129,74,0.32845
3024200,-0.05500,130.0000,129,74,0.32796
3024210,-0.09500,129.1250,129,74,0.32601
3024220,-0.11500,128.0625,129,74,0.32503
3024230,-0.13500,126.8750,129,74,0.32405
3024240,-0.16000,123.8125,129,74,0.32527
3024250,-0.17000,121.9375,129,74,0.32894
3024260,-0.18500,119.8125,129,74,0.33553
3024270,-0.19000,117.5000,129,74,0.34628
3024280,-0.19000,112.3125,129,74,0.36142
3024290,-0.18000,109.7500,129,74,0.39634
3024300,-0.18000,107.4375,129,74,0.42027
3024310,-0.17000,105.6250,129,74,0.44786
3024320,-0.16500,103.3750,129,74,0.50891
3024330,-0.15500,102.7500,129,74,0.54017
3024340,-0.14500,102.3750,129,74,0.57045
3024350,-0.13500,102.1250,129,74,0.59927
3024360,-0.12500,101.8750,129,74,0.65006
3024370,-0.12500,101.8125,129,74,0.67179
3024380,-0.12000,101.6250,129,74,0.69109
3024390,-0.12000,101.4375,129,74,0.70501
3024400,-0.12500,101.1875,129,74,0.71575
3024410,-0.12000,100.4375,129,74,0.74115
3024420,-0.12000,100.0000,129,74,0.74921
3024430,-0.12000,99.4375,129,74,0.75580
3024440,-0.12000,98.8750,129,74,0.76386
3024450,-0.12000,97.6875,129,74,0.76972
3024460,-0.11500,97.0000,129,74,0.77070
3024470,-0.11500,96.3750,129,74,0.77045
3024480,-0.11500,95.0000,129,74,0.76435
3024490,-0.11000,94.2500,129,74,0.75995
3024500,-0.10500,93.5625,129,74,0.75458
3024510,-0.09500,92.8750,129,74,0.74750
3024520,-0.09500,92.2500,129,74,0.73871
3024530,-0.08500,90.8750,129,74,0.71526
3024540,-0.08500,90.2500,129,74,0.70085
3024550,-0.08000,89.6875,129,74,0.68523
3024560,-0.06500,89.1250,129,74,0.66862
3024570,-0.03500,88.0625,129,74,0.63687
3024580,0.00000,87.5625,129,74,0.62320
3024590,0.01500,87.1250,129,74,0.60952
3024600,0.02500,86.6875,129,74,0.59658
3024610,0.06000,85.8125,129,74,0.57436
3024620,0.08000,85.5000,129,74,0.56508
3024630,0.08000,85.1250,129,74,0.55727
3024640,0.05000,84.7500,129,74,0.55018
3024650,0.03000,84.0625,129,74,0.53748
3024660,0.00000,83.7500,129,74,0.53162
3024670,-0.04000,83.4375,129,74,0.52576
3024680,-0.08000,82.7500,129,74,0.51453
3024690,-0.09000,82.4375,129,74,0.50842
3024700,-0.10000,82.1875,129,74,0.50183
3024710,-0.10500,81.9375,129,74,0.49475
3024720,-0.10500,81.6875,129,74,0.48742
3024730,-0.10500,81.3125,129,74,0.47253
3024740,-0.11000,81.1250,129,74,0.46496
3024750,-0.04500,80.9375,129,74,0.45739
3024760,0.31500,80.8125,129,74,0.44982
3024770,0.90000,80.5000,129,74,0.43614
3024780,0.88000,80.3125,129,74,0.43053
3024790,0.28500,80.0625,129,74,0.42466
3024800,-0.24000,79.5625,129,74,0.41197
3024810,-0.21000,79.3125,129,74,0.40586
3024820,-0.18500,79.0000,129,74,0.39951
3024830,-0.19000,78.7500,129,74,0.39316
3024840,-0.18500,78.1250,129,74,0.37924
3024850,-0.17500,77.6875,129,74,0.37216
3024860,-0.16000,77.2500,129,74,0.36484
3024870,-0.15500,76.8125,129,74,0.35775
3024880,-0.14500,76.4375,129,74,0.35214
3024890,-0.13500,75.6875,129,74,0.34115
3024900,-0.12500,75.3125,129,74,0.33480
3024910,-0.11500,74.9375,129,74,0.32845
3024920,-0.11000,74.2500,129,74,0.32210
3024930,-0.09500,73.9375,129,74,0.31013
3024940,-0.08500,73.6875,129,74,0.30452
3024950,-0.07500,73.4375,129,74,0.29915
3024960,-0.06500,73.0625,129,74,0.28987
3024970,-0.05500,73.0000,129,74,0.28694
3024980,-0.04000,73.1250,129,74,0.28498
3024990,-0.02500,73.6875,129,74,0.28254
3025000,-0.01000,75.0000,129,74,0.27985
3025010,0.00500,80.9375,129,74,0.27473
3025020,0.02500,85.3750,129,74,0.27204
3025030,0.05000,90.4375,129,74,0.26960
3025040,0.08000,101.0625,129,74,0.26447
3025050,0.10000,106.0625,129,74,0.26154
3025060,0.12500,110.6250,129,74,0.25861
3025070,0.15500,114.7500,129,74,0.25592
3025080,0.18000,118.3125,129,74,0.25446
3025090,0.21000,123.5625,129,74,0.25201
3025100,0.23500,125.3125,129,74,0.25055
3025110,0.26000,126.6250,129,74,0.24908
3025120,0.28000,128.1250,129,74,0.24689
3025130,0.27500,128.4375,129,74,0.24615
3025140,0.25500,128.5625,129,74,0.24591
3025150,0.20500,128.4375,129,74,0.24567
3025160,0.13500,127.7500,129,74,0.24664
3025170,0.09000,127.1875,129,74,0.24908
3025180,0.03500,126.5000,129,74,0.25079
3025190,-0.01500,125.6875,129,74,0.25128
3025200,-0.04500,124.7500,129,74,0.25128
3025210,-0.07000,122.5000,129,74,0.25079
3025220,-0.09500,121.2500,129,74,0.25079
3025230,-0.10500,119.8750,129,74,0.25079
3025240,-0.11500,118.3125,129,74,0.25250
3025250,-0.11500,114.6875,129,74,0.26178
3025260,-0.12500,112.5000,129,74,0.27619
3025270,-0.12500,110.1875,129,74,0.28864
3025280,-0.13000,105.2500,129,74,0.30330
3025290,-0.12500,103.0000,129,74,0.34481
3025300,-0.12500,101.0000,129,74,0.36996
3025310,-0.12500,99.5000,129,74,0.39634
3025320,-0.13000,98.4375,129,74,0.42320
3025330,-0.13000,97.3125,129,74,0.47473
3025340,-0.13000,97.1250,129,74,0.49841
3025350,-0.12500,97.0000,129,74,0.51990
3025360,-0.12500,97.0000,129,74,0.53919
3025370,-0.12500,96.8750,129,74,0.56557
3025380,-0.12500,96.7500,129,74,0.57680
3025390,-0.12500,96.5625,129,74,0.58681
3025400,-0.12500,96.2500,129,74,0.59536
3025410,-0.12000,95.5625,129,74,0.60806
3025420,-0.11500,95.0625,129,74,0.61197
3025430,-0.10500,94.6250,129,74,0.61441
3025440,-0.09500,94.1250,129,74,0.61538
3025450,-0.09000,93.0625,129,74,0.61392
3025460,-0.08500,92.5625,129,74,0.61148
3025470,-0.08500,92.0000,129,74,0.60757
3025480,-0.08500,90.8750,129,74,0.59731
3025490,-0.08500,90.3125,129,74,0.59048
3025500,-0.08500,89.8125,129,74,0.58242
3025510,-0.08500,89.2500,129,74,0.57289
3025520,-0.08500,88.6875,129,74,0.56190
3025530,-0.08500,87.5625,129,74,0.53602
3025540,-0.07500,87.0000,129,74,0.52186
3025550,-0.06500,86.4375,129,74,0.50745
3025560,-0.04500,85.5000,129,74,0.49304
3025570,-0.02000,85.0000,129,74,0.46935
3025580,-0.01500,84.6250,129,74,0.45788
3025590,-0.00500,84.2500,129,74,0.44713
3025600,0.04000,83.6250,129,74,0.42906
3025610,0.06000,83.3125,129,74,0.42173
3025620,0.04000,83.0000,129,74,0.41538
3025630,0.00500,82.7500,129,74,0.40952
3025640,-0.02500,82.5000,129,74,0.40391
3025650,-0.06500,82.0625,129,74,0.39365
3025660,-0.09500,81.8125,129,74,0.38852
3025670,-0.12500,81.6250,129,74,0.38413
3025680,-0.13500,81.4375,129,74,0.37998
3025690,-0.13500,80.9375,129,74,0.37021
3025700,-0.13500,80.6875,129,74,0.36459
3025710,-0.12500,80.5000,129,74,0.35897
3025720,-0.12500,80.2500,129,74,0.35311
3025730,-0.11000,79.8125,129,74,0.34212
3025740,-0.01000,79.5625,129,74,0.33675
3025750,0.37000,79.3750,129,74,0.33162
3025760,0.87500,79.1250,129,74,0.32674
3025770,0.81000,78.6250,129,74,0.31941
3025780,0.00000,78.4375,129,74,0.31526
3025790,-0.24500,78.1875,129,74,0.31087
3025800,-0.24500,78.1875,129,74,0.31087
3025810,-0.16000,77.4375,129,74,0.29695
3025820,-0.15500,77.1875,129,74,0.29206
3025830,-0.15500,76.9375,129,74,0.28718
3025840,-0.14500,76.6875,129,74,0.28254
3025850,-0.13500,76.1875,129,74,0.27399
3025860,-0.13000,75.8750,129,74,0.27009
3025870,-0.12500,75.6250,129,74,0.26740
3025880,-0.11500,75.0000,129,74,0.26300
3025890,-0.11500,74.6875,129,74,0.26032
3025900,-0.10500,74.4375,129,74,0.25739
3025910,-0.09500,74.1250,129,74,0.25446
3025920,-0.09000,73.8125,129,74,0.25153
3025930,-0.08000,73.3125,129,74,0.24542
3025940,-0.06500,73.1250,129,74,0.24249
3025950,-0.06000,72.8750,129,74,0.23980
3025960,-0.04500,72.6875,129,74,0.23712
3025970,-0.02500,72.5000,129,74,0.23443
3025980,-0.01500,72.8750,129,74,0.23297
3025990,0.00000,73.8750,129,74,0.23126
3026000,0.02500,78.6250,128,74,0.22930
3026010,0.05000,82.5000,128,74,0.22564
3026020,0.07000,87.0625,128,74,0.22442
3026030,0.09500,92.0000,128,74,0.22344
3026040,0.12000,96.9375,128,74,0.22271
3026050,0.14500,106.2500,128,74,0.22198
3026060,0.18500,110.2500,128,74,0.22198
3026070,0.20500,113.8125,128,74,0.22271
3026080,0.23500,116.8125,128,74,0.22369
3026090,0.26500,121.0625,128,74,0.22491
3026100,0.29500,122.4375,128,74,0.22564
3026110,0.31000,123.3750,128,74,0.22637
3026120,0.31000,124.2500,128,74,0.22735
3026130,0.28500,124.2500,128,74,0.22906
3026140,0.24500,124.0625,128,74,0.22979
3026150,0.18500,123.7500,128,74,0.23077
3026160,0.11000,123.2500,128,74,0.23175
3026170,0.05000,121.8125,128,74,0.23516
3026180,-0.00500,120.9375,128,74,0.23663
3026190,-0.03500,119.8750,128,74,0.23785
3026200,-0.06500,117.2500,128,74,0.23907
3026210,-0.08500,115.7500,128,74,0.24151
3026220,-0.09500,114.0625,128,74,0.24347
3026230,-0.10500,112.2500,128,74,0.24640
3026240,-0.10500,110.2500,128,74,0.25079
3026250,-0.10500,105.6875,128,74,0.26716
3026260,-0.10500,103.2500,128,74,0.27839
3026270,-0.10500,100.8125,128,74,0.29182
3026280,-0.10500,98.5625,128,74,0.30965
3026290,-0.10500,95.3125,128,74,0.35556
3026300,-0.10500,94.4375,128,74,0.38169
3026310,-0.10500,93.9375,128,74,0.40855
3026320,-0.10500,93.6875,128,74,0.43541
3026330,-0.10500,93.6250,128,74,0.48596
3026340,-0.10500,93.7500,128,74,0.50891
3026350,-0.10500,93.8125,128,74,0.52991
3026360,-0.11500,93.9375,128,74,0.56313
3026370,-0.11500,93.9375,128,74,0.57436
3026380,-0.11500,93.8125,128,74,0.58559
3026390,-0.11500,93.6250,128,74,0.59560
3026400,-0.12000,93.0000,128,74,0.61123
3026410,-0.12500,92.6250,128,74,0.61661
3026420,-0.12000,92.1875,128,74,0.62027
3026430,-0.12000,91.6875,128,74,0.62247
3026440,-0.12000,91.1875,128,74,0.62320
3026450,-0.12500,90.1250,128,74,0.62027
3026460,-0.12500,89.6250,128,74,0.61661
3026470,-0.12500,89.1250,128,74,0.61148
3026480,-0.12500,88.0000,128,74,0.59731
3026490,-0.12500,87.5000,128,74,0.58803
3026500,-0.12500,87.0000,128,74,0.57729
3026510,-0.12500,86.4375,128,74,0.56532
3026520,-0.12500,85.9375,128,74,0.55238
3026530,-0.12500,84.9375,128,74,0.52527
3026540,-0.10500,84.5000,128,74,0.51160
3026550,-0.08500,84.1250,128,74,0.49866
3026560,-0.06500,83.6875,128,74,0.48645
3026570,-0.05500,83.0000,128,74,0.46740
3026580,-0.04000,82.6875,128,74,0.45885
3026590,-0.01500,82.3750,128,74,0.45104
3026600,0.01000,82.0625,128,74,0.44420
3026610,-0.01000,81.5000,128,74,0.43272
3026620,-0.04500,81.2500,128,74,0.42759
3026630,-0.07000,80.9375,128,74,0.42295
3026640,-0.10500,80.4375,128,74,0.41416
3026650,-0.13500,80.1875,128,74,0.40977
3026660,-0.16000,80.0000,128,74,0.40610
3026670,-0.17000,79.7500,128,74,0.40269
3026680,-0.17500,79.5625,128,74,0.39878
3026690,-0.18000,79.1250,128,74,0.38999
3026700,-0.17500,78.8750,128,74,0.38559
3026710,-0.16500,78.6875,128,74,0.38095
3026720,-0.16000,78.4375,128,74,0.37631
3026730,-0.07500,78.0625,128,74,0.36679
3026740,0.26000,77.8750,128,74,0.36215
3026750,0.78500,77.7500,128,74,0.35751
3026760,0.85500,77.5625,128,74,0.35287
3026770,0.21000,77.1875,128,74,0.34579
3026780,-0.27000,77.0625,128,74,0.34188
3026790,-0.24500,76.8750,128,74,0.33773
3026800,-0.19000,76.6875,128,74,0.33358
3026810,-0.17000,76.2500,128,74,0.32552
3026820,-0.16500,76.0000,128,74,0.32137
3026830,-0.16000,75.7500,128,74,0.31722
3026840,-0.14500,75.1250,128,74,0.30891
3026850,-0.12500,74.8125,128,74,0.30501
3026860,-0.11500,74.5625,128,74,0.30208
3026870,-0.11000,74.2500,128,74,0.29988
3026880,-0.09500,73.6250,128,74,0.29451
3026890,-0.08500,73.3750,128,74,0.29158
3026900,-0.07500,73.0625,128,74,0.28864
3026910,-0.06000,72.8125,128,74,0.28547
3026920,-0.04500,72.5625,128,74,0.28254
3026930,-0.03500,72.0625,128,74,0.27668
3026940,-0.02000,71.8750,128,74,0.27375
3026950,-0.01000,71.6875,128,74,0.27082
3026960,0.00500,71.7500,128,74,0.26642
3026970,0.02000,72.3750,128,74,0.26520
3026980,0.03500,73.7500,128,74,0.26349
3026990,0.05000,76.1875,128,74,0.26154
3027000,0.06500,84.1250,129,74,0.25836
3027010,0.07500,89.1250,129,74,0.25690
3027020,0.06000,94.2500,129,74,0.25592
3027030,0.04000,99.3750,129,74,0.25495
3027040,0.06000,104.1250,129,74,0.25421
3027050,0.11000,112.3750,129,74,0.25372
3027060,0.17500,115.6250,129,74,0.25421
3027070,0.20000,118.3750,129,74,0.25519
3027080,0.22500,120.5000,129,74,0.25592
3027090,0.25000,123.3125,129,74,0.25641
3027100,0.27500,124.0625,129,74,0.25665
3027110,0.27500,124.5625,129,74,0.25690
3027120,0.25000,124.8125,129,74,0.25714
3027130,0.19500,124.6250,129,74,0.25812
3027140,0.14500,124.2500,129,74,0.25861
3027150,0.07500,123.8125,129,74,0.25910
3027160,0.01000,122.3750,129,74,0.25958
3027170,-0.04500,121.3750,129,74,0.26227
3027180,-0.07500,120.3125,129,74,0.26325
3027190,-0.10000,119.0625,129,74,0.26398
3027200,-0.11500,116.1250,129,74,0.27595
3027210,-0.12500,114.4375,129,74,0.29255
3027220,-0.13000,112.5625,129,74,0.30354
3027230,-0.13000,110.5625,129,74,0.31331
3027240,-0.12500,108.3750,129,74,0.32503
3027250,-0.12500,103.6875,129,74,0.35946
3027260,-0.12500,101.3125,129,74,0.37949
3027270,-0.12500,99.1875,129,74,0.40147
3027280,-0.12500,97.4375,129,74,0.42857
3027290,-0.12500,95.3750,129,74,0.49133
3027300,-0.11500,94.8750,129,74,0.52405
3027310,-0.11500,94.6250,129,74,0.55653
3027320,-0.11500,94.5000,129,74,0.58755
3027330,-0.11500,94.4375,129,74,0.64347
3027340,-0.11000,94.4375,129,74,0.66789
3027350,-0.10500,94.4375,129,74,0.68987
3027360,-0.10500,94.1875,129,74,0.72357
3027370,-0.10500,94.0000,129,74,0.73455
3027380,-0.10500,93.7500,129,74,0.74579
3027390,-0.10500,93.4375,129,74,0.75604
3027400,-0.10500,93.0625,129,74,0.76484
3027410,-0.11000,92.2500,129,74,0.77705
3027420,-0.11500,91.7500,129,74,0.78022
3027430,-0.11500,91.2500,129,74,0.78168
3027440,-0.11500,90.2500,129,74,0.77827
3027450,-0.11500,89.6875,129,74,0.77363
3027460,-0.11500,89.1875,129,74,0.76728
3027470,-0.11500,88.6875,129,74,0.75922
3027480,-0.11500,88.1875,129,74,0.74969
3027490,-0.11000,87.1875,129,74,0.72576
3027500,-0.10500,86.6875,129,74,0.71160
3027510,-0.10500,86.1875,129,74,0.69646
3027520,-0.09500,85.3125,129,74,0.68059
3027530,-0.06000,84.8750,129,74,0.64811
3027540,-0.03500,84.4375,129,74,0.63272
3027550,-0.01500,84.0000,129,74,0.61807
3027560,-0.00500,83.1875,129,74,0.59341
3027570,0.03000,82.8750,129,74,0.58388
3027580,0.06000,82.5000,129,74,0.57460
3027590,0.06500,82.1875,129,74,0.56581
3027600,0.02500,81.5625,129,74,0.55043
3027610,0.00000,81.3125,129,74,0.54359
3027620,-0.03500,81.0625,129,74,0.53724
3027630,-0.07000,80.8750,129,74,0.53114
3027640,-0.10000,80.6250,129,74,0.52503
3027650,-0.11000,80.1875,129,74,0.51355
3027660,-0.11500,80.0000,129,74,0.50842
3027670,-0.11500,79.7500,129,74,0.50379
3027680,-0.11500,79.5000,129,74,0.49841
3027690,-0.10500,79.0625,129,74,0.48742
3027700,-0.10500,78.8125,129,74,0.48156
3027710,-0.04000,78.6250,129,74,0.47570
3027720,0.35500,78.1875,129,74,0.46398
3027730,0.78500,78.0000,129,74,0.45812
3027740,0.95000,77.8125,129,74,0.45226
3027750,0.19000,77.6250,129,74,0.44664
3027760,-0.20000,77.3750,129,74,0.44103
3027770,-0.22500,76.9375,129,74,0.43248
3027780,-0.16500,76.7500,129,74,0.42759
3027790,-0.16000,76.5000,129,74,0.42247
3027800,-0.15500,76.2500,129,74,0.41709
3027810,-0.15000,75.7500,129,74,0.40635
3027820,-0.14000,75.5000,129,74,0.40073
3027830,-0.13500,75.2500,129,74,0.39487
3027840,-0.12500,74.6875,129,74,0.38339
3027850,-0.12000,74.3750,129,74,0.37778
3027860,-0.11500,74.0625,129,74,0.37338
3027870,-0.10500,73.7500,129,74,0.36996
3027880,-0.09500,73.0625,129,74,0.36190
3027890,-0.08500,72.8125,129,74,0.35775
3027900,-0.07500,72.5625,129,74,0.35360
3027910,-0.06000,72.3125,129,74,0.34945
3027920,-0.05000,72.0625,129,74,0.34554
3027930,-0.04000,71.6875,129,74,0.33748
3027940,-0.02500,71.6875,129,74,0.33382
3027950,-0.01000,72.0625,129,74,0.33040
3027960,0.00000,73.1250,129,74,0.32698
3027970,0.02000,78.1875,129,74,0.32332
3027980,0.04000,82.3125,129,74,0.32137
3027990,0.06000,87.1250,129,74,0.31917
3028000,0.08000,97.4375,129,74,0.31697
3028010,0.11000,102.4375,129,74,0.31306
3028020,0.13000,107.0000,129,74,0.31136
3028030,0.15500,111.1875,129,74,0.30965
3028040,0.18500,114.8125,129,74,0.30794
3028050,0.20500,120.3125,129,74,0.30549
3028060,0.24500,122.2500,129,74,0.30525
3028070,0.27500,123.6250,129,74,0.30574
3028080,0.29000,124.6250,129,74,0.30598
3028090,0.29500,125.6875,129,74,0.30623
3028100,0.27500,125.8750,129,74,0.30647
3028110,0.22500,125.8750,129,74,0.30672
3028120,0.17500,125.6875,129,74,0.30720
3028130,0.09000,124.8750,129,74,0.30745
3028140,0.04000,124.2500,129,74,0.30745
3028150,-0.01500,123.5000,129,74,0.30745
3028160,-0.05000,122.5625,129,74,0.30842
3028170,-0.07500,120.3125,129,74,0.31013
3028180,-0.09000,118.8750,129,74,0.31062
3028190,-0.10500,117.3125,129,74,0.31184
3028200,-0.11000,113.6875,129,74,0.31429
3028210,-0.11500,111.6250,129,74,0.32601
3028220,-0.11500,109.3125,129,74,0.33724
3028230,-0.12000,106.8750,129,74,0.35287
3028240,-0.12500,101.7500,129,74,0.39805
3028250,-0.12500,99.3750,129,74,0.42662
3028260,-0.13000,97.4375,129,74,0.45372
3028270,-0.13000,96.0625,129,74,0.48034
3028280,-0.12500,95.2500,129,74,0.51087
3028290,-0.12500,94.6250,129,74,0.57411
3028300,-0.12500,94.5625,129,74,0.60415
3028310,-0.12500,94.6875,129,74,0.63223
3028320,-0.12000,94.8125,129,74,0.65812
3028330,-0.11500,94.9375,129,74,0.70232
3028340,-0.11500,94.9375,129,74,0.72063
3028350,-0.12500,94.8125,129,74,0.73675
3028360,-0.13500,94.3125,129,74,0.75678
3028370,-0.14000,93.9375,129,74,0.76557
3028380,-0.14000,93.5000,129,74,0.77338
3028390,-0.14500,93.0625,129,74,0.77949
3028400,-0.14500,92.5000,129,74,0.78413
3028410,-0.14500,91.3750,129,74,0.78828
3028420,-0.13500,90.8125,129,74,0.78730
3028430,-0.13500,90.2500,129,74,0.78437
3028440,-0.13000,89.0625,129,74,0.77314
3028450,-0.12500,88.5625,129,74,0.76435
3028460,-0.12500,88.0000,129,74,0.75433
3028470,-0.12500,87.5000,129,74,0.74335
3028480,-0.12500,87.0000,129,74,0.73040
3028490,-0.12500,86.1250,129,74,0.70037
3028500,-0.11500,85.6250,129,74,0.68400
3028510,-0.10500,85.1875,129,74,0.66740
3028520,-0.07000,84.7500,129,74,0.65079
3028530,-0.04500,83.8750,129,74,0.62027
3028540,-0.03500,83.5000,129,74,0.60684
3028550,-0.02500,83.1250,129,74,0.59487
3028560,0.02000,82.4375,129,74,0.57680
3028570,0.03500,82.0625,129,74,0.56899
3028580,0.02000,81.8125,129,74,0.56166
3028590,-0.02000,81.5625,129,74,0.55531
3028600,-0.04000,81.3125,129,74,0.54945
3028610,-0.07500,80.8125,129,74,0.53846
3028620,-0.11500,80.5625,129,74,0.53309
3028630,-0.13500,80.3750,129,74,0.52772
3028640,-0.13500,80.1250,129,74,0.52234
3028650,-0.14000,79.7500,129,74,0.51111
3028660,-0.14000,79.5000,129,74,0.50574
3028670,-0.13500,79.3125,129,74,0.50061
3028680,-0.12500,78.8750,129,74,0.49475
3028690,-0.10500,78.6875,129,74,0.48181
3028700,0.02000,78.5000,129,74,0.47546
3028710,0.45500,78.3125,129,74,0.46935
3028720,0.97500,77.8750,129,74,0.45763
3028730,0.75000,77.6875,129,74,0.45177
3028740,0.05500,77.5000,129,74,0.44615
3028750,-0.24000,77.3125,129,74,0.44078
3028760,-0.19000,77.1250,129,74,0.43639
3028770,-0.16000,76.6875,129,74,0.42711
3028780,-0.16000,76.4375,129,74,0.42149
3028790,-0.16000,76.1875,129,74,0.41563
3028800,-0.15500,75.5625,129,74,0.40977
3028810,-0.14500,75.2500,129,74,0.39780
3028820,-0.13500,74.9375,129,74,0.39219
3028830,-0.12500,74.6250,129,74,0.38681
3028840,-0.11500,73.9375,129,74,0.37680
3028850,-0.11000,73.6250,129,74,0.37192
3028860,-0.10000,73.3750,129,74,0.36850
3028870,-0.09000,73.1250,129,74,0.36581
3028880,-0.08500,72.8750,129,74,0.36239
3028890,-0.07500,72.5625,129,74,0.35507
3028900,-0.06000,72.5000,129,74,0.35116
3028910,-0.05500,72.4375,129,74,0.34725
3028920,-0.04000,72.4375,129,74,0.34359
3028930,-0.03000,73.1250,129,74,0.33602
3028940,-0.02500,74.3750,129,74,0.33260
3028950,-0.01500,76.5625,129,74,0.32918
3028960,-0.00500,84.1250,129,74,0.32527
3028970,0.01000,89.0000,129,74,0.32308
3028980,0.02500,94.1250,129,74,0.32088
3028990,0.06000,99.2500,129,74,0.31868
3029000,0.08000,104.1250,129,74,0.31697
3029010,0.11000,112.8125,129,74,0.31380
3029020,0.14000,116.4375,129,74,0.31233
3029030,0.16500,119.4375,129,74,0.31111
3029040,0.19500,121.9375,129,74,0.31013
3029050,0.23000,125.3750,129,74,0.30940
3029060,0.25500,126.4375,129,74,0.30989
3029070,0.27500,127.2500,129,74,0.31062
3029080,0.27500,127.7500,129,74,0.31062
3029090,0.24500,128.1875,129,74,0.30989
3029100,0.18500,128.1250,129,74,0.30965
3029110,0.11500,127.8750,129,74,0.30940
3029120,0.06000,127.5000,129,74,0.30940
3029130,0.00000,126.1250,129,74,0.31013
3029140,-0.05500,125.2500,129,74,0.31111
3029150,-0.08000,124.1250,129,74,0.31258
3029160,-0.09500,122.9375,129,74,0.31477
3029170,-0.11500,120.1250,129,74,0.32039
3029180,-0.11500,118.4375,129,74,0.32454
3029190,-0.12000,116.6250,129,74,0.33040
3029200,-0.12000,112.5625,129,74,0.35116
3029210,-0.12000,110.1875,129,74,0.36752
3029220,-0.12500,107.7500,129,74,0.38828
3029230,-0.12500,105.2500,129,74,0.41319
3029240,-0.13000,101.0000,129,74,0.47326
3029250,-0.13500,99.5000,129,74,0.49499
3029260,-0.13000,98.4375,129,74,0.50720
3029270,-0.12500,97.8125,129,74,0.52625
3029280,-0.12000,97.2500,129,74,0.58169
3029290,-0.12000,97.1875,129,74,0.61074
3029300,-0.12000,97.1875,129,74,0.63834
3029310,-0.11500,97.1875,129,74,0.66349
3029320,-0.11000,97.1875,129,74,0.68645
3029330,-0.11500,96.9375,129,74,0.72454
3029340,-0.11500,96.7500,129,74,0.74017
3029350,-0.11500,96.4375,129,74,0.75360
3029360,-0.11500,96.0625,129,74,0.76264
3029370,-0.11500,95.1875,129,74,0.77509
3029380,-0.10500,94.6875,129,74,0.78046
3029390,-0.10500,94.1250,129,74,0.78437
3029400,-0.10500,93.6250,129,74,0.78681
3029410,-0.10500,92.5625,129,74,0.78608
3029420,-0.10500,92.0000,129,74,0.78291
3029430,-0.10500,91.5000,129,74,0.77827
3029440,-0.10500,90.5000,129,74,0.76337
3029450,-0.10500,90.0625,129,74,0.75311
3029460,-0.11000,89.6875,129,74,0.74164
3029470,-0.10500,89.3125,129,74,0.72918
3029480,-0.10000,88.8750,129,74,0.71477
3029490,-0.08500,88.0625,129,74,0.68278
3029500,-0.06500,87.6875,129,74,0.66593
3029510,-0.05500,87.2500,129,74,0.64957
3029520,-0.04500,86.8750,129,74,0.63394
3029530,-0.00500,86.0625,129,74,0.60684
3029540,0.01000,85.6875,129,74,0.59512
3029550,-0.00500,85.2500,129,74,0.58462
3029560,-0.04500,84.4375,129,74,0.56777
3029570,-0.06500,84.1250,129,74,0.56020
3029580,-0.09500,83.7500,129,74,0.55287
3029590,-0.12500,83.4375,129,74,0.54603
3029600,-0.15000,82.7500,129,74,0.53284
3029610,-0.15000,82.5000,129,74,0.52650
3029620,-0.14500,82.2500,129,74,0.52039
3029630,-0.14000,82.0000,129,74,0.51429
3029640,-0.13500,81.7500,129,74,0.50818
3029650,-0.13000,81.4375,129,74,0.49621
3029660,-0.12000,81.2500,129,74,0.49060
3029670,-0.01000,81.1250,129,74,0.48523
3029680,0.41000,81.0000,129,74,0.47961
3029690,0.98000,80.7500,129,74,0.46789
3029700,0.77500,80.6250,129,74,0.46227
3029710,0.17500,80.4375,129,74,0.45690
3029720,-0.23000,80.3125,129,74,0.45177
3029730,-0.19000,79.9375,129,74,0.44200
3029740,-0.17000,79.6875,129,74,0.43712
3029750,-0.17000,79.5000,129,74,0.43175
3029760,-0.17500,78.9375,129,74,0.42271
3029770,-0.17500,78.6250,129,74,0.41758
3029780,-0.17000,78.3125,129,74,0.41197
3029790,-0.16500,78.0000,129,74,0.40610
3029800,-0.16500,78.0000,129,74,0.40610
3029810,-0.15500,77.1250,129,74,0.38974
3029820,-0.15500,76.8125,129,74,0.38462
3029830,-0.14500,76.5625,129,74,0.37973
3029840,-0.13500,76.3125,129,74,0.37485
3029850,-0.12000,75.8750,129,74,0.36532
3029860,-0.11000,75.6875,129,74,0.36166
3029870,-0.10500,75.5000,129,74,0.35849
3029880,-0.09000,75.3125,129,74,0.35043
3029890,-0.07500,75.5000,129,74,0.34628
3029900,-0.05500,76.0625,129,74,0.34237
3029910,-0.03500,77.4375,129,74,0.33895
3029920,-0.02500,79.8125,129,74,0.33578
3029930,-0.00500,87.9375,129,74,0.32991
3029940,0.02000,93.0625,129,74,0.32772
3029950,0.04000,98.5000,129,74,0.32601
3029960,0.06500,103.8125,129,74,0.32552
3029970,0.10000,113.5625,129,74,0.32527
3029980,0.12000,117.7500,129,74,0.32503
3029990,0.14500,121.3750,129,74,0.32479
3030000,0.17500,126.9375,129,74,0.32454
3030010,0.20500,128.8125,129,74,0.32430
3030020,0.24000,130.2500,129,74,0.32430
3030030,0.26500,131.2500,129,74,0.32430
3030040,0.28000,132.0000,129,74,0.32454
3030050,0.27500,132.6875,129,74,0.32552
3030060,0.24500,132.8125,129,74,0.32650
3030070,0.20500,132.7500,129,74,0.32674
3030080,0.13500,132.5000,129,74,0.32674
3030090,0.05000,131.6875,129,74,0.32650
3030100,0.00000,131.0625,129,74,0.32625
3030110,-0.04500,130.3750,129,74,0.32601
3030120,-0.08500,128.6875,129,74,0.32552
3030130,-0.10500,127.6250,129,74,0.32576
3030140,-0.12000,126.3750,129,74,0.32698
3030150,-0.13500,125.0000,129,74,0.32991
3030160,-0.13500,121.5625,129,74,0.34188
3030170,-0.14000,119.5625,129,74,0.35311
3030180,-0.14500,117.2500,129,74,0.36899
3030190,-0.14500,114.8125,129,74,0.38974
3030200,-0.15000,112.3125,129,74,0.41490
3030210,-0.15000,107.6875,129,74,0.47595
3030220,-0.15500,105.9375,129,74,0.50989
3030230,-0.15500,104.5625,129,74,0.54432
3030240,-0.15000,102.8750,129,74,0.61148
3030250,-0.14500,102.4375,129,74,0.63858
3030260,-0.14500,102.1250,129,74,0.66154
3030270,-0.14500,101.8750,129,74,0.68596
3030280,-0.13500,101.6250,129,74,0.73187
3030290,-0.13500,101.5000,129,74,0.75189
3030300,-0.13500,101.3125,129,74,0.76972
3030310,-0.14000,101.0625,129,74,0.78510
3030320,-0.14500,100.3125,129,74,0.79829
3030330,-0.14000,99.8750,129,74,0.81880
3030340,-0.13500,99.3750,129,74,0.82637
3030350,-0.13500,98.8750,129,74,0.83223
3030360,-0.12000,97.6250,129,74,0.83541
3030370,-0.11500,97.0625,129,74,0.83590
3030380,-0.10500,96.4375,129,74,0.83614
3030390,-0.10500,95.8125,129,74,0.83516
3030400,-0.10000,95.1875,129,74,0.83272
3030410,-0.09500,94.0000,129,74,0.82247
3030420,-0.09500,93.4375,129,74,0.81441
3030430,-0.09000,92.8750,129,74,0.80415
3030440,-0.09000,91.8125,129,74,0.77802
3030450,-0.09000,91.3125,129,74,0.76386
3030460,-0.07000,90.8750,129,74,0.74945
3030470,-0.04500,90.4375,129,74,0.73455
3030480,-0.01500,90.0000,129,74,0.71966
3030490,-0.00500,89.1875,129,74,0.69084
3030500,0.00500,88.7500,129,74,0.67790
3030510,0.02500,88.3750,129,74,0.66593
3030520,0.05000,88.0000,129,74,0.65519
3030530,0.04500,87.3125,129,74,0.63639
3030540,0.02000,87.0000,129,74,0.62833
3030550,-0.01500,86.6875,129,74,0.62051
3030560,-0.05000,86.4375,129,74,0.61343
3030570,-0.09500,85.9375,129,74,0.59976
3030580,-0.13500,85.6875,129,74,0.59267
3030590,-0.14500,85.4375,129,74,0.58559
3030600,-0.14500,84.9375,129,74,0.57070
3030610,-0.14500,84.7500,129,74,0.56288
3030620,-0.14000,84.5625,129,74,0.55507
3030630,-0.13000,84.3750,129,74,0.54701
3030640,-0.13000,84.1875,129,74,0.53895
3030650,-0.08000,83.8125,129,74,0.52308
3030660,0.37500,83.6250,129,74,0.51624
3030670,0.89000,83.3750,129,74,0.50891
3030680,1.12000,83.1875,129,74,0.50134
3030690,0.30000,82.7500,129,74,0.48669
3030700,-0.14500,82.5000,129,74,0.47937
3030710,-0.19000,82.2500,129,74,0.47204
3030720,-0.16000,81.7500,129,74,0.45788
3030730,-0.16000,81.5000,129,74,0.45128
3030740,-0.15500,81.1875,129,74,0.44469
3030750,-0.15000,80.8750,129,74,0.43834
3030760,-0.13500,80.1875,129,74,0.42833
3030770,-0.12500,79.8750,129,74,0.42344
3030780,-0.11500,79.5625,129,74,0.41832
3030790,-0.10500,79.3125,129,74,0.41319
3030800,-0.10500,79.3125,129,74,0.41319
3030810,-0.10000,78.4375,129,74,0.39829
3030820,-0.09500,78.1250,129,74,0.39390
3030830,-0.09500,77.8750,129,74,0.38974
3030840,-0.09000,77.6875,129,74,0.38584
3030850,-0.08500,77.3750,129,74,0.37900
3030860,-0.07500,77.3125,129,74,0.37680
3030870,-0.07000,77.3750,129,74,0.37411
3030880,-0.06000,78.7500,129,74,0.36947
3030890,-0.05500,80.6875,129,74,0.36728
3030900,-0.04500,83.8125,129,74,0.36532
3030910,-0.03500,88.0625,129,74,0.36337
3030920,-0.02500,93.2500,129,74,0.36166
3030930,-0.00500,104.3750,129,74,0.35946
3030940,0.01000,109.7500,129,74,0.35873
3030950,0.03000,114.6875,129,74,0.35824
3030960,0.06000,119.1875,129,74,0.35849
3030970,0.09500,126.3750,129,74,0.35873
3030980,0.11000,129.0625,129,74,0.35849
3030990,0.13000,131.1875,129,74,0.35800
3031000,0.15500,133.8750,129,74,0.35726
3031010,0.17500,134.7500,129,74,0.35653
3031020,0.19500,135.3125,129,74,0.35580
3031030,0.19500,135.6875,129,74,0.35507
3031040,0.18000,135.8125,129,74,0.35385
3031050,0.14500,135.6250,129,74,0.35165
3031060,0.08000,135.3125,129,74,0.35116
3031070,0.03000,134.8125,129,74,0.35018
3031080,-0.02500,134.2500,129,74,0.34896
3031090,-0.07500,132.5625,129,74,0.34701
3031100,-0.10000,131.5625,129,74,0.34628
3031110,-0.11500,130.3750,129,74,0.34579
3031120,-0.12500,127.5625,129,74,0.34725
3031130,-0.12500,125.9375,129,74,0.35067
3031140,-0.12500,124.1875,129,74,0.35702
3031150,-0.12000,122.2500,129,74,0.36728
3031160,-0.11500,117.6875,129,74,0.39463
3031170,-0.11000,115.1875,129,74,0.41563
3031180,-0.10500,112.6250,129,74,0.44151
3031190,-0.10500,110.1250,129,74,0.47106
3031200,-0.10500,107.8750,129,74,0.50330
3031210,-0.11000,104.6250,129,74,0.57045
3031220,-0.11500,103.5625,129,74,0.60342
3031230,-0.11500,102.8125,129,74,0.63516
3031240,-0.11500,102.3125,129,74,0.66496
3031250,-0.11500,101.8125,129,74,0.71404
3031260,-0.12000,101.6875,129,74,0.73162
3031270,-0.12000,101.5625,129,74,0.74994
3031280,-0.12000,101.1250,129,74,0.78388
3031290,-0.12500,100.8125,129,74,0.79829
3031300,-0.12500,100.4375,129,74,0.78803
3031310,-0.12500,100.0625,129,74,0.76459
3031320,-0.12500,99.5625,129,74,0.75580
3031330,-0.12500,98.4375,129,74,0.75336
3031340,-0.12000,97.8125,129,74,0.75385
3031350,-0.11500,97.1875,129,74,0.75336
3031360,-0.11500,95.9375,129,74,0.74628
3031370,-0.11000,95.2500,129,74,0.74164
3031380,-0.10500,94.6250,129,74,0.73626
3031390,-0.10000,94.0000,129,74,0.72967
3031400,-0.10000,93.4375,129,74,0.72137
3031410,-0.10000,92.1875,129,74,0.70012
3031420,-0.09500,91.5625,129,74,0.68694
3031430,-0.08500,91.0000,129,74,0.67204
3031440,-0.06500,90.4375,129,74,0.65592
3031450,-0.03500,89.3750,129,74,0.62295
3031460,-0.00500,88.8750,129,74,0.60757
3031470,0.00500,88.3750,129,74,0.59121
3031480,0.02000,87.8750,129,74,0.57509
3031490,0.06500,86.9375,129,74,0.54554
3031500,0.08000,86.5000,129,74,0.53236
3031510,0.06000,86.0625,129,74,0.52015
3031520,0.03000,85.6250,129,74,0.50891
3031530,-0.00500,84.8125,129,74,0.48913
3031540,-0.03500,84.4375,129,74,0.48034
3031550,-0.07500,84.1250,129,74,0.47179
3031560,-0.10500,83.4375,129,74,0.45690
3031570,-0.10500,83.1875,129,74,0.44933
3031580,-0.11000,82.8750,129,74,0.44151
3031590,-0.11500,82.6250,129,74,0.43346
3031600,-0.10500,82.1250,129,74,0.41685
3031610,-0.10000,81.8750,129,74,0.40830
3031620,-0.08000,81.6875,129,74,0.39951
3031630,0.06000,81.4375,129,74,0.39023
3031640,0.51500,81.1875,129,74,0.38095
3031650,1.03000,80.7500,129,74,0.36386
3031660,0.76500,80.5000,129,74,0.35653
3031670,0.04500,80.3125,129,74,0.34847
3031680,-0.22000,79.8750,129,74,0.33162
3031690,-0.16500,79.6250,129,74,0.32308
3031700,-0.14000,79.3750,129,74,0.31477
3031710,-0.13500,79.0625,129,74,0.30647
3031720,-0.12500,78.5000,129,74,0.28987
3031730,-0.12000,78.1250,129,74,0.28156
3031740,-0.11500,77.7500,129,74,0.27350
3031750,-0.10000,77.3750,129,74,0.26691
3031760,-0.09500,77.0000,129,74,0.26105
3031770,-0.08500,76.2500,129,74,0.24689
3031780,-0.07500,75.8750,129,74,0.23980
3031790,-0.06500,75.5625,129,74,0.23272
3031800,-0.06500,75.5625,129,74,0.23272
3031810,-0.04500,74.6250,129,74,0.21245
3031820,-0.03500,74.3125,129,74,0.20611
3031830,-0.02500,74.0625,129,74,0.20000
3031840,-0.02000,73.8125,129,74,0.19414
3031850,-0.00500,73.5625,129,74,0.18510
3031860,0.00000,73.8125,129,74,0.18217
3031870,0.01000,74.5625,129,74,0.17827
3031880,0.02000,76.2500,129,74,0.17411
3031890,0.04000,82.6875,129,74,0.16581
3031900,0.06500,87.3125,129,74,0.16215
3031910,0.08000,92.3125,129,74,0.15873
3031920,0.10500,102.5625,129,74,0.15214
3031930,0.12000,107.3125,129,74,0.14921
3031940,0.14000,111.6875,129,74,0.14652
3031950,0.16500,115.5625,129,74,0.14530
3031960,0.19000,118.8125,129,74,0.14481
3031970,0.22000,123.3750,129,74,0.14212
3031980,0.25500,124.8125,129,74,0.14066
3031990,0.28000,125.8750,129,74,0.13919
3032000,0.29500,126.8750,128,74,0.13797
3032010,0.29500,126.9375,128,74,0.13578
3032020,0.27000,126.8750,128,74,0.13504
3032030,0.20500,126.5625,128,74,0.13455
3032040,0.15000,126.1250,128,74,0.13431
3032050,0.07000,124.8125,128,74,0.13529
3032060,0.03000,123.9375,128,74,0.13700
3032070,-0.01000,122.9375,128,74,0.13773
3032080,-0.04500,120.4375,128,74,0.13846
3032090,-0.06000,119.0000,128,74,0.13846
3032100,-0.07500,117.3750,128,74,0.13895
3032110,-0.08500,115.6250,128,74,0.14042
3032120,-0.08500,113.6250,128,74,0.14359
3032130,-0.08500,109.1875,128,74,0.15873
3032140,-0.09000,106.6875,128,74,0.17216
3032150,-0.08500,104.1250,128,74,0.18730
3032160,-0.08500,99.4375,128,74,0.22906
3032170,-0.08500,97.6875,128,74,0.25690
3032180,-0.08500,96.3750,128,74,0.28742
3032190,-0.08500,95.5625,128,74,0.31941
3032200,-0.08500,95.1250,128,74,0.35189
3032210,-0.08000,94.8125,128,74,0.41416
3032220,-0.08500,94.8125,128,74,0.44298
3032230,-0.08500,94.9375,128,74,0.46960
3032240,-0.09000,95.0625,128,74,0.49377
3032250,-0.09500,95.0625,128,74,0.53162
3032260,-0.09500,95.0000,128,74,0.54457
3032270,-0.10000,94.8750,128,74,0.55727
3032280,-0.10000,94.2500,128,74,0.57851
3032290,-0.10500,93.8750,128,74,0.58608
3032300,-0.11500,93.4375,128,74,0.59194
3032310,-0.11500,92.9375,128,74,0.59585
3032320,-0.12500,91.9375,128,74,0.59780
3032330,-0.12500,91.3750,128,74,0.59560
3032340,-0.12500,90.8125,128,74,0.59145
3032350,-0.12500,90.1875,128,74,0.58559
3032360,-0.12500,89.6250,128,74,0.57827
3032370,-0.12500,88.4375,128,74,0.55849
3032380,-0.12500,87.9375,128,74,0.54603
3032390,-0.12500,87.3750,128,74,0.53187
3032400,-0.11500,86.8125,128,74,0.51648
3032410,-0.09000,85.8125,128,74,0.48352
3032420,-0.06500,85.3125,128,74,0.46667
3032430,-0.04500,84.8125,128,74,0.44982
3032440,-0.04500,84.3750,128,74,0.43346
3032450,-0.02500,83.6250,128,74,0.40513
3032460,0.02000,83.2500,128,74,0.39414
3032470,0.03000,82.8750,128,74,0.38315
3032480,0.00000,82.5000,128,74,0.37314
3032490,-0.04500,81.8750,128,74,0.35629
3032500,-0.07500,81.5625,128,74,0.34921
3032510,-0.11000,81.2500,128,74,0.34286
3032520,-0.14500,80.9375,128,74,0.33700
3032530,-0.16500,80.4375,128,74,0.32576
3032540,-0.17000,80.1875,128,74,0.32015
3032550,-0.17000,79.9375,128,74,0.31551
3032560,-0.16000,79.5625,128,74,0.30696
3032570,-0.16000,79.3750,128,74,0.30183
3032580,-0.16000,79.1875,128,74,0.29670
3032590,-0.13500,79.0000,128,74,0.29133
3032600,0.09500,78.8750,128,74,0.28571
3032610,0.58500,78.5625,128,74,0.27375
3032620,0.91500,78.4375,128,74,0.26789
3032630,0.50500,78.2500,128,74,0.26178
3032640,-0.21000,77.8750,128,74,0.24957
3032650,-0.27000,77.7500,128,74,0.24469
3032660,-0.20000,77.6250,128,74,0.24054
3032670,-0.17500,77.4375,128,74,0.23541
3032680,-0.17500,77.2500,128,74,0.23004
3032690,-0.17000,76.8125,128,74,0.21905
3032700,-0.16000,76.5625,128,74,0.21368
3032710,-0.16000,76.3125,128,74,0.20855
3032720,-0.15000,75.7500,128,74,0.20342
3032730,-0.14000,75.3750,128,74,0.19292
3032740,-0.13500,75.0625,128,74,0.18779
3032750,-0.12500,74.6875,128,74,0.18437
3032760,-0.12000,74.0000,128,74,0.17802
3032770,-0.11500,73.6875,128,74,0.17411
3032780,-0.10500,73.4375,128,74,0.16996
3032790,-0.09500,73.1875,128,74,0.16581
3032800,-0.09500,73.1875,128,74,0.16581
3032810,-0.07500,72.5000,128,74,0.15458
3032820,-0.06500,72.3750,128,74,0.15140
3032830,-0.04500,72.4375,128,74,0.14847
3032840,-0.03500,73.0625,128,74,0.14579
3032850,-0.01500,76.7500,128,74,0.14188
3032860,0.00000,80.0625,128,74,0.14139
3032870,0.01500,84.3125,128,74,0.14017
3032880,0.04000,94.0625,128,74,0.13773
3032890,0.06000,99.0000,128,74,0.13675
3032900,0.08500,103.6875,128,74,0.13602
3032910,0.12000,108.0000,128,74,0.13578
3032920,0.14000,111.8125,128,74,0.13578
3032930,0.17000,117.8750,128,74,0.13651
3032940,0.20500,120.0000,128,74,0.13724
3032950,0.23000,121.6250,128,74,0.13895
3032960,0.26500,123.5625,128,74,0.14212
3032970,0.27500,124.0000,128,74,0.14310
3032980,0.26000,124.1875,128,74,0.14408
3032990,0.23000,124.1250,128,74,0.14481
3033000,0.17000,123.9375,128,73,0.14554
3033010,0.08500,122.9375,128,73,0.14676
3033020,0.03000,122.2500,128,73,0.14750
3033030,-0.02000,121.4375,128,73,0.14823
3033040,-0.06500,119.2500,128,73,0.15018
3033050,-0.08500,117.8750,128,73,0.15214
3033060,-0.10000,116.3750,128,73,0.15433
3033070,-0.11500,114.7500,128,73,0.15604
3033080,-0.12500,112.8750,128,73,0.15800
3033090,-0.13500,108.7500,128,73,0.16606
3033100,-0.14000,106.4375,128,73,0.17411
3033110,-0.14500,103.9375,128,73,0.18584
3033120,-0.15000,99.0000,128,73,0.22271
3033130,-0.15000,96.9375,128,73,0.24786
3033140,-0.14500,95.3125,128,73,0.27668
3033150,-0.13500,94.2500,128,73,0.30403
3033160,-0.13500,93.3750,128,73,0.36166
3033170,-0.13500,93.3125,128,73,0.39390
3033180,-0.13000,93.4375,128,73,0.42637
3033190,-0.13000,93.5625,128,73,0.45788
3033200,-0.13000,93.7500,128,73,0.48742
3033210,-0.13000,94.0625,128,73,0.53993
3033220,-0.13500,94.1250,128,73,0.56215
3033230,-0.14000,94.0625,128,73,0.58169
3033240,-0.14500,93.9375,128,73,0.59878
3033250,-0.14500,93.4375,128,73,0.62320
3033260,-0.14500,93.0625,128,73,0.63028
3033270,-0.14500,92.6875,128,73,0.63712
3033280,-0.14000,91.8125,128,73,0.64737
3033290,-0.14500,91.3125,128,73,0.65006
3033300,-0.14500,90.7500,128,73,0.65055
3033310,-0.14000,90.2500,128,73,0.64884
3033320,-0.14000,89.6875,128,73,0.64518
3033330,-0.13500,88.6250,128,73,0.63126
3033340,-0.13500,88.1250,128,73,0.62125
3033350,-0.12500,87.6250,128,73,0.61685
3033360,-0.12500,87.1250,128,73,0.61514
3033370,-0.10500,86.1250,128,73,0.59731
3033380,-0.07500,85.6250,128,73,0.58486
3033390,-0.05500,85.1250,128,73,0.57167
3033400,-0.04500,84.6875,128,73,0.55849
3033410,-0.04000,83.8125,128,73,0.53407
3033420,-0.01500,83.3750,128,73,0.52332
3033430,0.01500,83.0000,128,73,0.51380
3033440,0.00000,82.6875,128,73,0.50574
3033450,-0.03500,82.0000,128,73,0.49328
3033460,-0.05500,81.6875,128,73,0.48864
3033470,-0.08500,81.3750,128,73,0.48449
3033480,-0.11500,80.8750,128,73,0.48059
3033490,-0.14000,80.6250,128,73,0.47326
3033500,-0.14500,80.3750,128,73,0.46960
3033510,-0.14500,80.1250,128,73,0.46593
3033520,-0.14500,79.7500,128,73,0.45861
3033530,-0.14000,79.5625,128,73,0.45495
3033540,-0.13000,79.3750,128,73,0.45104
3033550,-0.11500,79.2500,128,73,0.44762
3033560,0.01000,79.0000,128,73,0.44054
3033570,0.33000,78.8750,128,73,0.43663
3033580,0.85500,78.7500,128,73,0.43272
3033590,0.74500,78.6250,128,73,0.42857
3033600,0.19500,78.4375,128,73,0.42418
3033610,-0.24000,78.0625,128,73,0.41514
3033620,-0.21000,77.9375,128,73,0.41026
3033630,-0.16000,77.7500,128,73,0.40562
3033640,-0.15500,77.3750,128,73,0.39658
3033650,-0.15500,77.1250,128,73,0.39292
3033660,-0.15000,76.8750,128,73,0.38877
3033670,-0.14500,76.6250,128,73,0.38413
3033680,-0.13000,76.0000,128,73,0.37509
3033690,-0.12000,75.6875,128,73,0.37070
3033700,-0.11000,75.3125,128,73,0.36630
3033710,-0.10000,74.9375,128,73,0.36215
3033720,-0.09500,74.6250,128,73,0.35800
3033730,-0.08500,73.9375,128,73,0.34969
3033740,-0.08000,73.6250,128,73,0.34579
3033750,-0.06500,73.3750,128,73,0.34286
3033760,-0.05500,73.1250,128,73,0.34042
3033770,-0.04000,72.6875,128,73,0.33504
3033780,-0.03000,72.5625,128,73,0.33211
3033790,-0.01500,72.6250,128,73,0.32943
3033800,0.00500,74.3125,128,73,0.32479
3033810,0.02000,76.5000,128,73,0.32259
3033820,0.03000,79.8125,128,73,0.32063
3033830,0.04500,84.0625,128,73,0.31868
3033840,0.07000,94.1250,128,73,0.31673
3033850,0.08500,99.3125,128,73,0.31648
3033860,0.11000,104.1875,128,73,0.31575
3033870,0.13500,108.6875,128,73,0.31526
3033880,0.16500,116.1875,128,73,0.31404
3033890,0.18500,119.0625,128,73,0.31355
3033900,0.22000,121.3750,128,73,0.31331
3033910,0.24500,123.1250,128,73,0.31306
3033920,0.27000,125.1875,128,73,0.31282
3033930,0.29000,125.6875,128,73,0.31209
