RelativeTimeMilliseconds;ECG;ART;ART (Sys);ART (Dia);PPG
3600000;-0.12000;76.1250;126;73;0.52967
3600010;-0.12000;76.1250;126;73;0.55018
3600020;-0.12000;76.1875;126;73;0.56484
3600030;-0.12500;76.1875;126;73;0.57998
3600040;-0.13000;76.0000;126;73;0.61001
3600050;-0.13500;75.8750;126;73;0.61978
3600060;-0.13500;75.6250;126;73;0.62833
3600070;-0.13000;75.3750;126;73;0.63370
3600080;-0.13000;75.0625;126;73;0.63639
3600090;-0.12500;74.3125;126;73;0.63492
3600100;-0.12000;73.8750;126;73;0.63248
3600110;-0.12000;73.4375;126;73;0.62906
3600120;-0.11500;72.6250;126;73;0.62442
3600130;-0.11000;72.1875;126;73;0.61074
3600140;-0.10500;71.8125;126;73;0.60171
3600150;-0.10000;71.5000;126;73;0.59170
3600160;-0.08500;70.8125;126;73;0.58046
3600170;-0.05500;70.5000;126;73;0.55482
3600180;-0.03500;70.2500;126;73;0.54115
3600190;-0.02500;69.9375;126;73;0.52845
3600200;-0.02000;69.6875;126;73;0.51624
3600210;0.02000;69.2500;126;73;0.49011
3600220;0.05000;69.0000;126;73;0.47717
3600230;0.05000;69.0000;126;73;0.47717
3600240;0.05000;69.0000;126;73;0.47717
3600250;0.05000;69.0000;126;73;0.47717
3600260;-0.02500;67.8750;126;73;0.42637
3600270;-0.07500;67.6250;126;73;0.41954
3600280;-0.10000;67.4375;126;73;0.41343
3600290;-0.12000;67.0000;126;73;0.40488
3600300;-0.12500;66.7500;126;73;0.40073
3600310;-0.13500;66.5000;126;73;0.39683
3600320;-0.13500;66.0000;126;73;0.39292
3600330;-0.13000;65.7500;126;73;0.38559
3600340;-0.12000;65.5625;126;73;0.38193
3600350;-0.04000;65.3125;126;73;0.37802
3600360;0.38500;64.9375;126;73;0.37070
3600370;0.81000;64.8125;126;73;0.36703
3600380;0.89500;64.6250;126;73;0.36361
3600390;0.11500;64.5000;126;73;0.36068
3600400;-0.22000;64.3125;126;73;0.35824
3600410;-0.21000;64.0625;126;73;0.35214
3600420;-0.16500;63.8750;126;73;0.34896
3600430;-0.17000;63.7500;126;73;0.34603
3600440;-0.17000;63.3750;126;73;0.34286
3600450;-0.17000;63.2500;126;73;0.33651
3600460;-0.17000;63.0625;126;73;0.33358
3600470;-0.17000;62.9375;126;73;0.33040
3600480;-0.17000;62.5000;126;73;0.32454
3600490;-0.16500;62.3125;126;73;0.32234
3600500;-0.15500;62.1250;126;73;0.31966
3600510;-0.14500;61.9375;126;73;0.31673
3600520;-0.13500;61.7500;126;73;0.31355
3600530;-0.12500;61.4375;126;73;0.30696
3600540;-0.11500;61.2500;126;73;0.30354
3600550;-0.10500;61.1250;126;73;0.29988
3600560;-0.09000;61.0000;126;73;0.29597
3600570;-0.07500;60.7500;126;73;0.28767
3600580;-0.06500;60.7500;126;73;0.28352
3600590;-0.05500;61.0000;126;73;0.28034
3600600;-0.04000;61.6875;126;73;0.27766
3600610;-0.02000;64.9375;126;73;0.27082
3600620;-0.00500;67.5625;126;73;0.26716
3600630;0.01000;70.6875;126;73;0.27863
3600640;0.03500;77.7500;126;73;0.29768
3600650;0.06000;81.3750;126;73;0.30818
3600660;0.08000;84.8750;126;73;0.30818
3600670;0.10000;88.1875;126;73;0.30720
3600680;0.14000;93.9375;126;73;0.30574
3600690;0.16500;96.3125;126;73;0.30598
3600700;0.20500;98.1875;126;73;0.30574
3600710;0.24500;99.7500;126;73;0.30574
3600720;0.26500;100.9375;126;73;0.30574
3600730;0.28000;102.2500;126;73;0.30623
3600740;0.26500;102.5000;126;73;0.30647
3600750;0.23500;102.5625;126;73;0.30696
3600760;0.17500;102.4375;126;73;0.30745
3600770;0.09500;101.6250;126;73;0.30916
3600780;0.02500;101.0000;126;73;0.31038
3600790;-0.02500;100.3125;126;73;0.31258
3600800;-0.05500;99.4375;126;73;0.31526
3600810;-0.07000;97.4375;126;73;0.31966
3600820;-0.07000;97.4375;126;73;0.31966
3600830;-0.09500;95.0625;126;73;0.32357
3600840;-0.10000;93.8125;126;73;0.32576
3600850;-0.10500;90.9375;126;73;0.33138
3600860;-0.10500;89.3750;126;73;0.33675
3600870;-0.11500;87.8125;126;73;0.34505
3600880;-0.11500;86.1250;126;73;0.35678
3600890;-0.11500;82.9375;126;73;0.38608
3600900;-0.10500;81.5000;126;73;0.40757
3600910;-0.09500;80.3750;126;73;0.43346
3600920;-0.10000;79.4375;126;73;0.46300
3600930;-0.10000;78.3125;126;73;0.52796
3600940;-0.09500;78.0000;126;73;0.56117
3600950;-0.10000;77.7500;126;73;0.59365
3600960;-0.10000;77.5000;126;73;0.62466
3600970;-0.10000;77.5000;126;73;0.68010
3600980;-0.10000;77.4375;126;73;0.70403
3600990;-0.10500;77.3750;126;73;0.72210
3601000;-0.10000;77.2500;126;73;0.75043
3601010;-0.09500;77.0625;126;73;0.76337
3601020;-0.09000;76.8750;126;73;0.77436
3601030;-0.07500;76.6250;126;73;0.78339
3601040;-0.07500;76.3750;126;73;0.78999
3601050;-0.08000;75.7500;126;73;0.79780
3601060;-0.07500;75.3750;126;73;0.79878
3601070;-0.07500;75.0000;126;73;0.79805
3601080;-0.07500;74.6250;126;73;0.79536
3601090;-0.07500;73.8750;126;73;0.78437
3601100;-0.07500;73.5000;126;73;0.77680
3601110;-0.07500;73.1875;126;73;0.76801
3601120;-0.07000;72.8125;126;73;0.75751
3601130;-0.05500;72.1250;126;73;0.73162
3601140;-0.02500;71.8125;126;73;0.71673
3601150;-0.00500;71.5000;126;73;0.70085
3601160;0.00500;71.1875;126;73;0.68449
3601170;0.01000;70.5625;126;73;0.65177
3601180;0.05000;70.3125;126;73;0.63614
3601190;0.07500;70.0000;126;73;0.62247
3601200;0.07000;69.7500;126;73;0.61026
3601210;0.04000;69.1875;126;73;0.58681
3601220;0.00500;68.8750;126;73;0.57680
3601230;-0.02000;68.6250;126;73;0.56777
3601240;-0.07000;68.1250;126;73;0.55238
3601250;-0.09500;67.8125;126;73;0.54579
3601260;-0.11000;67.5625;126;73;0.53968
3601270;-0.11500;67.3750;126;73;0.53382
3601280;-0.10500;67.1875;126;73;0.52845
3601290;-0.09000;66.7500;126;73;0.51990
3601300;-0.08500;66.5625;126;73;0.51551
3601310;-0.07500;66.4375;126;73;0.51087
3601320;0.10500;66.1250;126;73;0.50183
3601330;0.55500;66.0000;126;73;0.49744
3601340;0.94000;65.8750;126;73;0.49328
3601350;0.75500;65.7500;126;73;0.48938
3601360;0.06000;65.5000;126;73;0.48132
3601370;-0.24000;65.3750;126;73;0.47717
3601380;-0.20500;65.3125;126;73;0.47277
3601390;-0.15500;65.1875;126;73;0.46886
3601400;-0.15500;64.8125;126;73;0.46129
3601410;-0.15500;64.6875;126;73;0.45665
3601420;-0.15000;64.5000;126;73;0.45201
3601430;-0.14500;64.2500;126;73;0.44713
3601440;-0.14000;64.0625;126;73;0.44225
3601450;-0.13500;63.5625;126;73;0.43272
3601460;-0.13500;63.3125;126;73;0.42784
3601470;-0.12500;63.0625;126;73;0.42295
3601480;-0.12500;62.7500;126;73;0.41783
3601490;-0.11500;62.2500;126;73;0.41050
3601500;-0.10500;62.0000;126;73;0.40635
3601510;-0.09500;61.7500;126;73;0.40171
3601520;-0.08500;61.3750;126;73;0.39683
3601530;-0.07000;61.2500;126;73;0.38706
3601540;-0.06500;61.1250;126;73;0.38217
3601550;-0.05000;61.1875;126;73;0.37753
3601560;-0.03500;62.3750;126;73;0.36874
3601570;-0.02500;63.9375;126;73;0.36484
3601580;-0.00500;66.1875;126;73;0.36215
3601590;0.01000;69.0000;126;73;0.35995
3601600;0.02500;72.3750;126;73;0.35751
3601610;0.05000;79.6875;126;73;0.35238
3601620;0.06500;83.3750;126;73;0.34994
3601630;0.09000;86.8750;126;73;0.34774
3601640;0.11000;90.1875;126;73;0.34579
3601650;0.14500;95.8125;126;73;0.34237
3601660;0.17000;98.1250;126;73;0.34115
3601670;0.20500;100.0000;126;73;0.34017
3601680;0.24000;102.6875;126;73;0.33968
3601690;0.26000;103.5000;126;73;0.34017
3601700;0.27000;104.0625;126;73;0.34042
3601710;0.26500;104.3125;126;73;0.34066
3601720;0.22500;104.4375;126;73;0.34090
3601730;0.16000;104.1250;126;73;0.34139
3601740;0.08000;103.6875;126;73;0.34164
3601750;0.03000;103.1875;126;73;0.34212
3601760;-0.02000;101.6250;126;73;0.34237
3601770;-0.06500;100.6875;126;73;0.34310
3601780;-0.08000;99.6875;126;73;0.34408
3601790;-0.09500;98.5000;126;73;0.34530
3601800;-0.10500;95.9375;126;73;0.34750
3601810;-0.11000;94.5000;126;73;0.34921
3601820;-0.11000;93.0625;126;73;0.35214
3601830;-0.10500;91.4375;126;73;0.35726
3601840;-0.10000;89.8125;126;73;0.36532
3601850;-0.08500;86.3750;126;73;0.39292
3601860;-0.07000;84.6250;126;73;0.41319
3601870;-0.05500;83.0625;126;73;0.43761
3601880;-0.06000;81.7500;126;73;0.46545
3601890;-0.07500;79.9375;126;73;0.51722
3601900;-0.08000;79.3750;126;73;0.54676
3601910;-0.08500;79.0625;126;73;0.57778
3601920;-0.08500;78.7500;126;73;0.63810
3601930;-0.08500;78.6875;126;73;0.66593
3601940;-0.09500;78.6875;126;73;0.69182
3601950;-0.10000;78.6875;126;73;0.71502
3601960;-0.10500;78.7500;126;73;0.73553
3601970;-0.11000;78.7500;126;73;0.76874
3601980;-0.12000;78.6875;126;73;0.77924
3601990;-0.13000;78.5625;126;73;0.78632
3602000;-0.13500;78.3750;127;73;0.79316
3602010;-0.13500;77.8750;127;73;0.80244
3602020;-0.13500;77.5625;127;73;0.80440
3602030;-0.13500;77.1875;127;73;0.80440
3602040;-0.13500;76.8125;127;73;0.80269
3602050;-0.13500;76.0000;127;73;0.79316
3602060;-0.13500;75.6250;127;73;0.78559
3602070;-0.12500;75.2500;127;73;0.77656
3602080;-0.11500;74.8750;127;73;0.76606
3602090;-0.10000;74.1250;127;73;0.74310
3602100;-0.07500;73.7500;127;73;0.72991
3602110;-0.04500;73.4375;127;73;0.71526
3602120;-0.02500;72.7500;127;73;0.68303
3602130;-0.00500;72.4375;127;73;0.66618
3602140;0.03500;72.0625;127;73;0.64933
3602150;0.07000;71.7500;127;73;0.63321
3602160;0.04500;71.2500;127;73;0.60366
3602170;0.01500;71.0000;127;73;0.59072
3602180;-0.01500;70.7500;127;73;0.58022
3602190;-0.05500;70.5625;127;73;0.57143
3602200;-0.10500;70.3750;127;73;0.56337
3602210;-0.13500;70.0000;127;73;0.54994
3602220;-0.15000;69.8750;127;73;0.54432
3602230;-0.16000;69.6875;127;73;0.53944
3602240;-0.17500;69.3750;127;73;0.53480
3602250;-0.17500;69.2500;127;73;0.52650
3602260;-0.17500;69.0625;127;73;0.52234
3602270;-0.15500;68.8750;127;73;0.51844
3602280;0.12000;68.5625;127;73;0.51111
3602290;0.55500;68.3750;127;73;0.50769
3602300;0.99500;68.3125;127;73;0.50403
3602310;0.49500;68.1250;127;73;0.50012
3602320;-0.06000;67.8750;127;73;0.49621
3602330;-0.25500;67.8125;127;73;0.48840
3602340;-0.20500;67.6875;127;73;0.48449
3602350;-0.19000;67.5625;127;73;0.48059
3602360;-0.19000;67.3125;127;73;0.47204
3602370;-0.18500;67.1875;127;73;0.46789
3602380;-0.18000;67.0000;127;73;0.46422
3602390;-0.17000;66.8125;127;73;0.46081
3602400;-0.16000;66.6250;127;73;0.45690
3602410;-0.14500;66.1875;127;73;0.44860
3602420;-0.14000;66.0000;127;73;0.44444
3602430;-0.13500;65.8125;127;73;0.44054
3602440;-0.13500;65.6250;127;73;0.43663
3602450;-0.13000;65.3125;127;73;0.42955
3602460;-0.12000;65.1250;127;73;0.42637
3602470;-0.10500;64.9375;127;73;0.42320
3602480;-0.09500;64.6875;127;73;0.42002
3602490;-0.08500;64.6250;127;73;0.41538
3602500;-0.07500;64.8125;127;73;0.41294
3602510;-0.07000;65.2500;127;73;0.41001
3602520;-0.06500;66.3125;127;73;0.40684
3602530;-0.05500;70.5625;127;73;0.40049
3602540;-0.03000;73.7500;127;73;0.39756
3602550;0.00000;77.3125;127;73;0.39487
3602560;0.02000;81.1875;127;73;0.39243
3602570;0.05000;88.8750;127;73;0.38901
3602580;0.08000;92.5000;127;73;0.38852
3602590;0.11000;95.8125;127;73;0.38877
3602600;0.14000;101.3125;127;73;0.38901
3602610;0.17500;103.4375;127;73;0.38974
3602620;0.20000;105.2500;127;73;0.39048
3602630;0.23500;106.6250;127;73;0.39145
3602640;0.25500;107.6875;127;73;0.39267
3602650;0.27500;109.0000;127;73;0.39512
3602660;0.28500;109.2500;127;73;0.39634
3602670;0.26500;109.3750;127;73;0.39756
3602680;0.21000;109.1250;127;73;0.36557
3602690;0.15500;108.8125;127;73;0.35653
3602700;0.09000;108.3750;127;73;0.35263
3602710;0.02000;107.8125;127;73;0.35116
3602720;-0.01500;107.1250;127;73;0.35067
3602730;-0.04500;105.4375;127;73;0.35067
3602740;-0.07000;104.4375;127;73;0.35116
3602750;-0.08500;103.3750;127;73;0.35189
3602760;-0.10000;102.1875;127;73;0.35311
3602770;-0.11500;99.5000;127;73;0.35873
3602780;-0.12000;98.0000;127;73;0.36386
3602790;-0.12500;96.4375;127;73;0.37118
3602800;-0.12500;96.4375;127;73;0.37118
3602810;-0.12500;91.2500;127;73;0.41807
3602820;-0.12000;89.5625;127;73;0.44176
3602830;-0.11500;88.0000;127;73;0.46886
3602840;-0.11000;85.5625;127;73;0.52918
3602850;-0.10500;84.7500;127;73;0.55995
3602860;-0.10000;84.1875;127;73;0.59023
3602870;-0.09500;83.6875;127;73;0.61905
3602880;-0.09000;83.3125;127;73;0.64615
3602890;-0.08500;82.7500;127;73;0.68523
3602900;-0.08500;82.5625;127;73;0.70403
3602910;-0.07500;82.3750;127;73;0.72210
3602920;-0.07000;81.9375;127;73;0.75360
3602930;-0.07000;81.6875;127;73;0.76679
3602940;-0.07000;81.3750;127;73;0.77802
3602950;-0.07000;81.0625;127;73;0.78730
3602960;-0.07500;80.7500;127;73;0.79487
3602970;-0.07500;80.0625;127;73;0.80391
3602980;-0.08500;79.6875;127;73;0.80415
3602990;-0.09000;79.3750;127;73;0.80244
3603000;-0.09500;79.0000;127;73;0.80024
3603010;-0.09500;78.3750;127;73;0.79316
3603020;-0.10000;78.0000;127;73;0.78779
3603030;-0.10000;77.6875;127;73;0.78120
3603040;-0.10000;77.1250;127;73;0.76435
3603050;-0.10000;76.8125;127;73;0.75385
3603060;-0.08500;76.5625;127;73;0.74212
3603070;-0.06500;76.3125;127;73;0.72894
3603080;-0.03500;76.0625;127;73;0.71477
3603090;-0.01500;75.5625;127;73;0.68669
3603100;0.00000;75.3125;127;73;0.67179
3603110;0.02000;75.0625;127;73;0.65665
3603120;0.07000;74.6250;127;73;0.62686
3603130;0.09000;74.3750;127;73;0.61294
3603140;0.08000;74.1875;127;73;0.59976
3603150;0.06000;73.9375;127;73;0.58730
3603160;0.03000;73.6875;127;73;0.57582
3603170;-0.01500;73.1875;127;73;0.55580
3603180;-0.06500;72.9375;127;73;0.54750
3603190;-0.07500;72.6875;127;73;0.54042
3603200;-0.08500;72.4375;127;73;0.53358
3603210;-0.08500;71.9375;127;73;0.52088
3603220;-0.08500;71.7500;127;73;0.51502
3603230;-0.08500;71.5000;127;73;0.50940
3603240;-0.09000;71.3125;127;73;0.50403
3603250;-0.07500;70.8750;127;73;0.49304
3603260;0.29000;70.6875;127;73;0.48718
3603270;0.79000;70.5625;127;73;0.48132
3603280;1.08000;70.4375;127;73;0.47521
3603290;0.35000;70.3125;127;73;0.46471
3603300;-0.14000;70.2500;127;73;0.45910
3603310;-0.24000;70.1250;127;73;0.45372
3603320;-0.18000;70.0000;127;73;0.44322
3603330;-0.18000;69.8750;127;73;0.43858
3603340;-0.19500;69.7500;127;73;0.43419
3603350;-0.22000;69.6875;127;73;0.42979
3603360;-0.22500;69.4375;127;73;0.42100
3603370;-0.22000;69.2500;127;73;0.41661
3603380;-0.21500;69.0625;127;73;0.41319
3603390;-0.21000;68.8750;127;73;0.40977
3603400;-0.20000;68.6875;127;73;0.40586
3603410;-0.18500;68.3125;127;73;0.39731
3603420;-0.17000;68.1250;127;73;0.39267
3603430;-0.15500;67.8750;127;73;0.38828
3603440;-0.13500;67.3750;127;73;0.37998
3603450;-0.12500;67.1875;127;73;0.37656
3603460;-0.11000;67.0000;127;73;0.37338
3603470;-0.09500;66.9375;127;73;0.37094
3603480;-0.08500;67.0625;127;73;0.36923
3603490;-0.07000;68.7500;127;73;0.36703
3603500;-0.06000;70.6875;127;73;0.36606
3603510;-0.04500;73.3750;127;73;0.36532
3603520;-0.03500;80.3125;127;73;0.36459
3603530;-0.01500;84.3125;127;73;0.36459
3603540;0.01000;88.3125;127;73;0.36459
3603550;0.04000;92.1875;127;73;0.36484
3603560;0.06000;99.2500;127;73;0.36606
3603570;0.07000;102.2500;127;73;0.36679
3603580;0.09500;104.8125;127;73;0.36777
3603590;0.11000;106.9375;127;73;0.36899
3603600;0.14000;108.6875;127;73;0.37021
3603610;0.16500;110.9375;127;73;0.37289
3603620;0.18500;111.5625;127;73;0.37411
3603630;0.19500;111.9375;127;73;0.37534
3603640;0.19000;112.0625;127;73;0.37656
3603650;0.16500;111.8750;127;73;0.37924
3603660;0.11000;111.5000;127;73;0.38046
3603670;0.03000;111.0000;127;73;0.38144
3603680;-0.01500;110.3125;127;73;0.38242
3603690;-0.05500;108.7500;127;73;0.38339
3603700;-0.08500;107.7500;127;73;0.38291
3603710;-0.10000;106.6875;127;73;0.38193
3603720;-0.11000;104.2500;127;73;0.38071
3603730;-0.11500;102.8750;127;73;0.37802
3603740;-0.10500;101.4375;127;73;0.37778
3603750;-0.09500;99.8750;127;73;0.37924
3603760;-0.09500;98.3125;127;73;0.38339
3603770;-0.10000;94.8750;127;73;0.40317
3603780;-0.10000;93.0625;127;73;0.41661
3603790;-0.10000;91.2500;127;73;0.43223
3603800;-0.10000;91.2500;127;73;0.43223
3603810;-0.08500;86.7500;127;73;0.50647
3603820;-0.07500;85.7500;127;73;0.53578
3603830;-0.06500;84.9375;127;73;0.56532
3603840;-0.06000;84.3125;127;73;0.59414
3603850;-0.05500;83.4375;127;73;0.64689
3603860;-0.06000;83.1250;127;73;0.67033
3603870;-0.06500;82.9375;127;73;0.69133
3603880;-0.07500;82.6250;127;73;0.70720
3603890;-0.08000;82.4375;127;73;0.73187
3603900;-0.08000;82.1875;127;73;0.74335
3603910;-0.07500;81.9375;127;73;0.75336
3603920;-0.08500;81.6250;127;73;0.76190
3603930;-0.08500;80.8750;127;73;0.77314
3603940;-0.08500;80.5000;127;73;0.77607
3603950;-0.08500;80.0625;127;73;0.77729
3603960;-0.08000;79.1250;127;73;0.77436
3603970;-0.07500;78.6250;127;73;0.77045
3603980;-0.07500;78.1250;127;73;0.76459
3603990;-0.07500;77.6875;127;73;0.75726
3604000;-0.07500;76.8125;126;73;0.73944
3604010;-0.07500;76.3125;126;73;0.72894
3604020;-0.07000;75.8750;126;73;0.71722
3604030;-0.06500;75.5000;126;73;0.70427
3604040;-0.05000;75.1250;126;73;0.69035
3604050;-0.02500;74.3750;126;73;0.65983
3604060;0.00000;74.0625;126;73;0.64371
3604070;0.02000;73.6875;126;73;0.62735
3604080;0.02000;73.3750;126;73;0.61245
3604090;0.04000;72.7500;126;73;0.58339
3604100;0.11500;72.4375;126;73;0.56850
3604110;0.12000;72.1250;126;73;0.55433
3604120;0.05500;71.5000;126;73;0.52772
3604130;0.01000;71.2500;126;73;0.51551
3604140;-0.02500;71.0000;126;73;0.50403
3604150;-0.07500;70.7500;126;73;0.49328
3604160;-0.11500;70.2500;126;73;0.47350
3604170;-0.12500;70.0625;126;73;0.46447
3604180;-0.13500;69.8125;126;73;0.45665
3604190;-0.14500;69.6250;126;73;0.44957
3604200;-0.14500;69.3750;126;73;0.44200
3604210;-0.14000;68.8750;126;73;0.42613
3604220;-0.13500;68.7500;126;73;0.41807
3604230;-0.08500;68.5625;126;73;0.40952
3604240;0.30000;68.1875;126;73;0.39243
3604250;0.74000;68.0000;126;73;0.38364
3604260;0.90500;67.7500;126;73;0.37509
3604270;0.16000;67.5000;126;73;0.36679
3604280;-0.26000;67.1875;126;73;0.35995
3604290;-0.30500;66.6875;126;73;0.34750
3604300;-0.25500;66.4375;126;73;0.34066
3604310;-0.25500;66.1875;126;73;0.33407
3604320;-0.26000;65.7500;126;73;0.32088
3604330;-0.26000;65.5625;126;73;0.31453
3604340;-0.24000;65.3125;126;73;0.30842
3604350;-0.22000;65.0625;126;73;0.30232
3604360;-0.21000;64.7500;126;73;0.29621
3604370;-0.18500;64.0000;126;73;0.28474
3604380;-0.16000;63.6250;126;73;0.28059
3604390;-0.13500;63.2500;126;73;0.27717
3604400;-0.12500;62.8750;126;73;0.27302
3604410;-0.11500;62.1875;126;73;0.26374
3604420;-0.11000;61.8750;126;73;0.25910
3604430;-0.10500;61.6250;126;73;0.25446
3604440;-0.09000;61.1250;126;73;0.24567
3604450;-0.08000;60.9375;126;73;0.24151
3604460;-0.06500;60.8750;126;73;0.23761
3604470;-0.04500;61.0000;126;73;0.23394
3604480;-0.03500;61.5625;126;73;0.23175
3604490;-0.01500;64.5625;126;73;0.22759
3604500;0.00500;67.1250;126;73;0.22466
3604510;0.02000;70.1875;126;73;0.22173
3604520;0.04000;73.6875;126;73;0.21905
3604530;0.06500;81.0000;126;73;0.21441
3604540;0.09000;84.6250;126;73;0.21245
3604550;0.11000;88.0000;126;73;0.21074
3604560;0.14500;93.8750;126;73;0.20830
3604570;0.17000;96.3125;126;73;0.20733
3604580;0.20500;98.3125;126;73;0.20733
3604590;0.23500;99.9375;126;73;0.20806
3604600;0.27000;102.0625;126;73;0.20781
3604610;0.28500;102.6250;126;73;0.20757
3604620;0.28000;102.8125;126;73;0.20733
3604630;0.24000;102.7500;126;73;0.20708
3604640;0.19500;102.5000;126;73;0.20684
3604650;0.11500;101.5000;126;73;0.20684
3604660;0.07000;100.7500;126;73;0.20708
3604670;0.02000;99.8750;126;73;0.20733
3604680;-0.02000;97.8125;126;73;0.20879
3604690;-0.04500;96.6250;126;73;0.21221
3604700;-0.06000;95.3750;126;73;0.21368
3604710;-0.07000;94.0625;126;73;0.21490
3604720;-0.08000;91.2500;126;73;0.22808
3604730;-0.08500;89.7500;126;73;0.24567
3604740;-0.08000;88.1250;126;73;0.25641
3604750;-0.08000;86.5000;126;73;0.26496
3604760;-0.08000;84.8125;126;73;0.27375
3604770;-0.08000;81.5625;126;73;0.29890
3604780;-0.07500;80.1250;126;73;0.31380
3604790;-0.07500;78.9375;126;73;0.33016
3604800;-0.07500;78.9375;126;73;0.33016
3604810;-0.06500;76.8750;126;73;0.39829
3604820;-0.06500;76.5625;126;73;0.42369
3604830;-0.06500;76.3750;126;73;0.44884
3604840;-0.06500;76.1250;126;73;0.49548
3604850;-0.06000;76.1250;126;73;0.51600
3604860;-0.06000;76.1250;126;73;0.53431
3604870;-0.06500;76.1250;126;73;0.55043
3604880;-0.06500;76.0625;126;73;0.56239
3604890;-0.07000;75.8750;126;73;0.57998
3604900;-0.07500;75.6875;126;73;0.58730
3604910;-0.08000;75.5000;126;73;0.59292
3604920;-0.08500;75.0000;126;73;0.59683
3604930;-0.09000;74.6250;126;73;0.59902
3604940;-0.09500;74.3125;126;73;0.59756
3604950;-0.09500;73.9375;126;73;0.59487
3604960;-0.10000;73.1875;126;73;0.58486
3604970;-0.10500;72.8125;126;73;0.57802
3604980;-0.10500;72.4375;126;73;0.57094
3604990;-0.09500;72.0625;126;73;0.56313
3605000;-0.08500;71.6875;126;73;0.55409
3605010;-0.06000;71.0000;126;73;0.53260
3605020;-0.02000;70.6250;126;73;0.52063
3605030;-0.00500;70.3125;126;73;0.50794
3605040;0.00000;69.6875;126;73;0.49475
3605050;0.02000;69.3750;126;73;0.46838
3605060;0.05500;69.0625;126;73;0.45568
3605070;0.08000;68.8125;126;73;0.44371
3605080;0.05000;68.2500;126;73;0.42540
3605090;0.02000;67.9375;126;73;0.41685
3605100;-0.00500;67.6875;126;73;0.40879
3605110;-0.06500;67.4375;126;73;0.40147
3605120;-0.09500;67.1875;126;73;0.39512
3605130;-0.12000;66.7500;126;73;0.38462
3605140;-0.14000;66.5625;126;73;0.38046
3605150;-0.14500;66.3750;126;73;0.37680
3605160;-0.13500;65.9375;126;73;0.37338
3605170;-0.12500;65.8125;126;73;0.36777
3605180;-0.11500;65.6250;126;73;0.36557
3605190;-0.07500;65.5000;126;73;0.36288
3605200;0.26000;65.1250;126;73;0.35653
3605210;0.68000;64.9375;126;73;0.35311
3605220;0.94000;64.8125;126;73;0.34969
3605230;0.29000;64.6875;126;73;0.34628
3605240;-0.16500;64.5625;126;73;0.34286
3605250;-0.23000;64.3125;126;73;0.33651
3605260;-0.17500;64.1250;126;73;0.33333
3605270;-0.15500;64.0000;126;73;0.33016
3605280;-0.15500;63.8750;126;73;0.32772
3605290;-0.16000;63.5625;126;73;0.32357
3605300;-0.16000;63.3750;126;73;0.32088
3605310;-0.15500;63.1875;126;73;0.31819
3605320;-0.15000;63.0000;126;73;0.31551
3605330;-0.14500;62.5625;126;73;0.30965
3605340;-0.14000;62.3125;126;73;0.30647
3605350;-0.13500;62.1250;126;73;0.30330
3605360;-0.13000;61.8750;126;73;0.30012
3605370;-0.11500;61.4375;126;73;0.29475
3605380;-0.11000;61.1875;126;73;0.29304
3605390;-0.10000;61.0000;126;73;0.29084
3605400;-0.09000;60.6250;126;73;0.28571
3605410;-0.08500;60.5000;126;73;0.28303
3605420;-0.07500;60.4375;126;73;0.28059
3605430;-0.06000;60.5000;126;73;0.27790
3605440;-0.05000;60.8750;126;73;0.27546
3605450;-0.03500;63.3125;126;73;0.27106
3605460;-0.01500;65.5000;126;73;0.26886
3605470;-0.00500;68.2500;126;73;0.26667
3605480;0.01000;71.4375;126;73;0.26569
3605490;0.04000;78.3750;126;73;0.26447
3605500;0.06500;81.8750;126;73;0.26325
3605510;0.09000;85.2500;126;73;0.26203
3605520;0.11500;88.3750;126;73;0.26105
3605530;0.15000;93.6250;126;73;0.25910
3605540;0.17500;95.6875;126;73;0.25836
3605550;0.21500;97.3125;126;73;0.25788
3605560;0.26000;99.5000;126;73;0.25763
3605570;0.28000;100.0625;126;73;0.25836
3605580;0.28000;100.3750;126;73;0.25934
3605590;0.24000;100.4375;126;73;0.26007
3605600;0.17000;99.9375;126;73;0.26129
3605610;0.11000;99.5000;126;73;0.26203
3605620;0.02500;98.8750;126;73;0.26300
3605630;-0.00500;98.0625;126;73;0.26398
3605640;-0.05500;96.1875;126;73;0.26618
3605650;-0.07500;95.0625;126;73;0.26740
3605660;-0.10500;93.9375;126;73;0.26862
3605670;-0.11500;92.6875;126;73;0.27033
3605680;-0.12500;91.3750;126;73;0.27253
3605690;-0.13500;88.5000;126;73;0.27741
3605700;-0.14500;87.0000;126;73;0.28059
3605710;-0.14500;85.4479;126;73;0.28514
3605720;-0.15000;83.8750;126;73;0.29182
3605730;-0.15000;82.3125;126;73;0.30134
3605740;-0.14500;80.8750;126;73;0.31429
3605750;-0.14000;79.6250;126;73;0.33065
3605760;-0.13500;78.6250;126;73;0.35018
3605770;-0.13500;77.1875;126;73;0.39756
3605780;-0.13500;76.6875;126;73;0.42076
3605790;-0.13500;76.3750;126;73;0.44274
3605800;-0.13500;75.9375;126;73;0.49304
3605810;-0.12500;75.8125;126;73;0.51795
3605820;-0.12500;75.7500;126;73;0.54164
3605830;-0.12500;75.6875;126;73;0.56337
3605840;-0.12500;75.6250;126;73;0.58315
3605850;-0.13000;75.5000;126;73;0.61538
3605860;-0.13000;75.3750;126;73;0.62808
3605870;-0.13500;75.2500;126;73;0.63858
3605880;-0.14000;74.8125;126;73;0.65226
3605890;-0.14500;74.5625;126;73;0.65495
3605900;-0.14500;74.3125;126;73;0.65714
3605910;-0.14500;74.0625;126;73;0.65836
3605920;-0.14500;73.7500;126;73;0.65788
3605930;-0.14500;73.1875;126;73;0.65299
3605940;-0.13500;72.8750;126;73;0.64811
3605950;-0.13500;72.5000;126;73;0.64176
3605960;-0.13500;71.8125;126;73;0.62540
3605970;-0.13000;71.5000;126;73;0.61563
3605980;-0.11000;71.1875;126;73;0.60562
3605990;-0.08000;70.8125;126;73;0.59512
3606000;-0.06500;70.5000;126;73;0.58364
3606010;-0.06000;69.8750;126;73;0.55849
3606020;-0.04000;69.5625;126;73;0.54554
3606030;-0.01500;69.2500;126;73;0.53284
3606040;0.02000;68.6875;126;73;0.50916
3606050;0.00500;68.3750;126;73;0.49841
3606060;-0.02000;68.1250;126;73;0.48864
3606070;-0.05500;67.8750;126;73;0.48010
3606080;-0.10000;67.3750;126;73;0.46642
3606090;-0.13500;67.1250;126;73;0.46129
3606100;-0.16000;66.8750;126;73;0.45641
3606110;-0.17000;66.6250;126;73;0.45177
3606120;-0.17000;66.4375;126;73;0.44713
3606130;-0.17000;66.0625;126;73;0.43883
3606140;-0.16000;65.8750;126;73;0.43492
3606150;-0.15500;65.6875;126;73;0.43101
3606160;-0.14000;65.4375;126;73;0.42735
3606170;0.10000;65.3750;126;73;0.42002
3606180;0.47500;65.2500;126;73;0.41734
3606190;0.88500;65.1875;126;73;0.41490
3606200;0.59500;65.0625;126;73;0.41197
3606210;-0.08500;64.8750;126;73;0.40513
3606220;-0.31000;64.6875;126;73;0.40171
3606230;-0.24000;64.5625;126;73;0.39829
3606240;-0.22000;64.4375;126;73;0.39487
3606250;-0.22500;64.2500;126;73;0.38779
3606260;-0.22000;64.0625;126;73;0.38437
3606270;-0.21500;63.8750;126;73;0.38095
3606280;-0.21000;63.6875;126;73;0.37753
3606290;-0.20500;63.1875;126;73;0.37265
3606300;-0.19500;62.9375;126;73;0.36972
3606310;-0.19000;62.6875;126;73;0.36654
3606320;-0.18000;62.1250;126;73;0.36020
3606330;-0.17500;61.8125;126;73;0.35702
3606340;-0.16500;61.5000;126;73;0.35385
3606350;-0.16000;61.1875;126;73;0.35067
3606360;-0.14500;60.8750;126;73;0.34750
3606370;-0.13500;60.3750;126;73;0.34139
3606380;-0.11000;60.1875;126;73;0.33919
3606390;-0.09500;60.0625;126;73;0.33748
3606400;-0.08000;60.0625;126;73;0.33529
3606410;-0.05500;60.4375;126;73;0.33089
3606420;-0.04500;61.3125;126;73;0.32869
3606430;-0.03500;62.8750;126;73;0.32650
3606440;-0.01500;68.1250;126;73;0.32259
3606450;0.00000;71.5000;126;73;0.32088
3606460;0.02500;75.1250;126;73;0.31941
3606470;0.04500;78.8125;126;73;0.31795
3606480;0.07000;82.4375;126;73;0.31648
3606490;0.10000;89.0625;126;73;0.31575
3606500;0.13500;92.0000;126;73;0.31502
3606510;0.16500;94.5000;126;73;0.31429
3606520;0.20500;98.4375;126;73;0.31331
3606530;0.24500;99.8125;126;73;0.31136
3606540;0.26000;100.8750;126;73;0.31062
3606550;0.25500;101.5625;126;73;0.30989
3606560;0.23500;101.9375;126;73;0.30965
3606570;0.18500;102.0000;126;73;0.30916
3606580;0.12000;101.7500;126;73;0.30940
3606590;0.05000;101.3125;126;73;0.31013
3606600;-0.01000;100.6875;126;73;0.31013
3606610;-0.05500;99.0625;126;73;0.30940
3606620;-0.08500;98.0625;126;73;0.30891
3606630;-0.09500;97.0000;126;73;0.30867
3606640;-0.10000;94.5625;126;73;0.30842
3606650;-0.11500;93.1875;126;73;0.30842
3606660;-0.11500;91.8125;126;73;0.30867
3606670;-0.12000;90.3125;126;73;0.30989
3606680;-0.11500;87.1875;126;73;0.31600
3606690;-0.11000;85.5625;126;73;0.32161
3606700;-0.10500;83.8125;126;73;0.33016
3606710;-0.09500;82.1250;126;73;0.34212
3606720;-0.09000;80.4375;126;73;0.35775
3606730;-0.08500;77.5625;126;73;0.39951
3606740;-0.07500;76.6250;126;73;0.42442
3606750;-0.06500;76.0000;126;73;0.45128
3606760;-0.06000;75.5625;126;73;0.47888
3606770;-0.05500;75.0625;126;73;0.53333
3606780;-0.05500;75.0000;126;73;0.57314
3606790;-0.06000;75.0000;126;73;0.61978
3606800;-0.06000;75.0000;126;73;0.61978
3606810;-0.06500;74.9375;126;73;0.70940
3606820;-0.07000;74.8750;126;73;0.72943
3606830;-0.07500;74.8125;126;73;0.74603
3606840;-0.07500;74.7500;126;73;0.75971
3606850;-0.08500;74.4375;126;73;0.77827
3606860;-0.08500;74.1875;126;73;0.78339
3606870;-0.08500;73.9375;126;73;0.78608
3606880;-0.08500;73.3125;126;73;0.78486
3606890;-0.08500;73.0000;126;73;0.78095
3606900;-0.08500;72.6875;126;73;0.77607
3606910;-0.08000;72.3750;126;73;0.76996
3606920;-0.07500;72.0000;126;73;0.76239
3606930;-0.07500;71.3125;126;73;0.74212
3606940;-0.06000;71.0000;126;73;0.72943
3606950;-0.04500;70.6250;126;73;0.71551
3606960;-0.01500;70.3750;126;73;0.70012
3606970;0.01500;69.7500;126;73;0.66569
3606980;0.02500;69.4375;126;73;0.64908
3606990;0.03000;69.1875;126;73;0.63297
3607000;0.05000;68.8750;127;74;0.61563
3607010;0.09000;68.2500;127;74;0.58095
3607020;0.08500;68.0000;127;74;0.56459
3607030;0.04000;67.6875;127;74;0.54945
3607040;0.02000;67.4375;127;74;0.53578
3607050;-0.01000;66.9375;127;74;0.51233
3607060;-0.06500;66.6250;127;74;0.50256
3607070;-0.09500;66.3750;127;74;0.49402
3607080;-0.10000;66.1250;127;74;0.48718
3607090;-0.10500;65.6250;127;74;0.47595
3607100;-0.10500;65.4375;127;74;0.47057
3607110;-0.10500;65.1875;127;74;0.46520
3607120;-0.09500;64.8125;127;74;0.45495
3607130;-0.08500;64.6250;127;74;0.44982
3607140;0.07500;64.4375;127;74;0.44493
3607150;0.40500;64.3125;127;74;0.44005
3607160;0.92500;64.1875;127;74;0.43492
3607170;0.85500;63.9375;127;74;0.42466
3607180;0.05500;63.8125;127;74;0.42027
3607190;-0.22000;63.6875;127;74;0.41636
3607200;-0.20000;63.5000;127;74;0.41172
3607210;-0.17000;63.3750;127;74;0.40171
3607220;-0.17000;63.2500;127;74;0.39683
3607230;-0.17000;63.1250;127;74;0.39170
3607240;-0.17000;62.8125;127;74;0.38193
3607250;-0.16500;62.5625;127;74;0.37729
3607260;-0.16500;62.3750;127;74;0.37241
3607270;-0.16500;62.1875;127;74;0.36752
3607280;-0.16000;62.0000;127;74;0.36386
3607290;-0.15000;61.5625;127;74;0.35702
3607300;-0.14000;61.3125;127;74;0.35263
3607310;-0.13000;61.1250;127;74;0.34799
3607320;-0.12000;60.6250;127;74;0.33871
3607330;-0.11500;60.4375;127;74;0.33407
3607340;-0.09500;60.2500;127;74;0.32918
3607350;-0.08500;60.1250;127;74;0.32454
3607360;-0.07500;59.8750;127;74;0.31575
3607370;-0.06000;59.8750;127;74;0.31160
3607380;-0.04500;60.1250;127;74;0.30867
3607390;-0.02500;60.8750;127;74;0.30647
3607400;-0.01500;62.2500;127;74;0.30330
3607410;0.00500;67.1875;127;74;0.29695
3607420;0.02000;70.4375;127;74;0.29377
3607430;0.03500;74.0000;127;74;0.29084
3607440;0.06000;81.4375;127;74;0.28571
3607450;0.07500;85.0625;127;74;0.28327
3607460;0.10000;88.4375;127;74;0.28132
3607470;0.12500;91.5625;127;74;0.27985
3607480;0.14500;94.2500;127;74;0.27937
3607490;0.17500;98.5625;127;74;0.27937
3607500;0.21000;100.1875;127;74;0.27912
3607510;0.23500;101.3750;127;74;0.27888
3607520;0.25000;102.3125;127;74;0.27888
3607530;0.24000;103.2500;127;74;0.27888
3607540;0.18500;103.3750;127;74;0.27888
3607550;0.14000;103.3125;127;74;0.27912
3607560;0.07000;102.6875;127;74;0.27961
3607570;-0.00500;102.1875;127;74;0.28059
3607580;-0.04000;101.5625;127;74;0.28181
3607590;-0.07500;100.7500;127;74;0.28352
3607600;-0.09500;99.8750;127;74;0.28498
3607610;-0.10500;97.7500;127;74;0.28742
3607620;-0.11500;96.5625;127;74;0.28840
3607630;-0.11500;95.2500;127;74;0.28938
3607640;-0.12000;92.3750;127;74;0.29084
3607650;-0.12500;90.7500;127;74;0.29768
3607660;-0.12500;89.1250;127;74;0.30476
3607670;-0.12500;87.4375;127;74;0.31551
3607680;-0.12000;83.9375;127;74;0.34432
3607690;-0.11500;82.2500;127;74;0.36581
3607700;-0.11500;80.6875;127;74;0.39219
3607710;-0.11500;79.4375;127;74;0.42271
3607720;-0.11000;78.4375;127;74;0.45592
3607730;-0.11000;77.2500;127;74;0.52650
3607740;-0.10500;76.9375;127;74;0.56142
3607750;-0.10500;76.7500;127;74;0.59487
3607760;-0.10500;76.6250;127;74;0.62662
3607770;-0.11000;76.6250;127;74;0.68205
3607780;-0.11500;76.6250;127;74;0.70256
3607790;-0.11500;76.6250;127;74;0.70256
3607800;-0.11000;76.5625;127;74;0.75116
3607810;-0.11000;76.5000;127;74;0.76508
3607820;-0.11000;76.3750;127;74;0.77680
3607830;-0.11500;76.1875;127;74;0.78608
3607840;-0.11500;76.0000;127;74;0.79316
3607850;-0.11500;75.3750;127;74;0.80122
3607860;-0.11500;75.0625;127;74;0.80195
3607870;-0.11500;74.7500;127;74;0.80073
3607880;-0.11000;74.3750;127;74;0.79707
3607890;-0.11000;73.7500;127;74;0.78510
3607900;-0.11000;73.3750;127;74;0.77705
3607910;-0.11000;73.0625;127;74;0.76728
3607920;-0.10000;72.3750;127;74;0.74335
3607930;-0.08500;72.0000;127;74;0.72894
3607940;-0.06000;71.6875;127;74;0.71306
3607950;-0.03500;71.3750;127;74;0.69597
3607960;-0.02500;70.7500;127;74;0.65983
3607970;-0.01500;70.4375;127;74;0.64127
3607980;0.02000;70.1250;127;74;0.62491
3607990;0.05000;69.8750;127;74;0.61001
3608000;0.04000;69.5625;128;74;0.59512
3608010;0.01000;69.0000;128;74;0.56728
3608020;-0.02000;68.7500;128;74;0.55507
3608030;-0.06500;68.5000;128;74;0.54432
3608040;-0.10000;68.2500;128;74;0.53455
3608050;-0.12500;67.7500;128;74;0.51819
3608060;-0.13500;67.5625;128;74;0.51136
3608070;-0.14000;67.3750;128;74;0.50501
3608080;-0.14000;67.0000;128;74;0.49988
3608090;-0.13500;66.8125;128;74;0.48987
3608100;-0.13500;66.6875;128;74;0.48474
3608110;-0.12500;66.5625;128;74;0.47961
3608120;0.01000;66.4375;128;74;0.47448
3608130;0.46500;66.1875;128;74;0.46471
3608140;1.01500;66.0625;128;74;0.46007
3608150;0.79500;65.9375;128;74;0.45543
3608160;0.07500;65.8750;128;74;0.45079
3608170;-0.25000;65.6875;128;74;0.44176
3608180;-0.21000;65.5625;128;74;0.43810
3608190;-0.19000;65.5000;128;74;0.43468
3608200;-0.19000;65.3125;128;74;0.43053
3608210;-0.19000;65.1875;128;74;0.42173
3608220;-0.19000;65.0000;128;74;0.41734
3608230;-0.18500;64.8750;128;74;0.41294
3608240;-0.18000;64.6875;128;74;0.40855
3608250;-0.17500;64.3125;128;74;0.40000
3608260;-0.16500;64.0625;128;74;0.39609
3608270;-0.16000;63.8125;128;74;0.39219
3608280;-0.15500;63.3125;128;74;0.38926
3608290;-0.14500;63.1250;128;74;0.38339
3608300;-0.13500;62.8125;128;74;0.37973
3608310;-0.12000;62.5625;128;74;0.37607
3608320;-0.10500;62.3125;128;74;0.37241
3608330;-0.09000;62.0000;128;74;0.36557
3608340;-0.07500;61.8750;128;74;0.36215
3608350;-0.06000;61.9375;128;74;0.35873
3608360;-0.04500;62.3125;128;74;0.35556
3608370;-0.03000;65.0000;128;74;0.35043
3608380;-0.00500;67.4375;128;74;0.34872
3608390;0.01000;70.5625;128;74;0.34774
3608400;0.03000;77.9375;128;74;0.34628
3608410;0.04500;81.8750;128;74;0.34310
3608420;0.07000;85.7500;128;74;0.34188
3608430;0.09000;89.5000;128;74;0.34090
3608440;0.10500;93.0000;128;74;0.34017
3608450;0.12500;98.9375;128;74;0.33895
3608460;0.15500;101.3750;128;74;0.33895
3608470;0.18500;103.4375;128;74;0.33919
3608480;0.21500;105.1250;128;74;0.34017
3608490;0.25000;107.4375;128;74;0.34212
3608500;0.26000;108.1250;128;74;0.34286
3608510;0.24500;108.5625;128;74;0.34335
3608520;0.19500;108.8750;128;74;0.34408
3608530;0.11000;108.7500;128;74;0.34408
3608540;0.05500;108.4375;128;74;0.34408
3608550;-0.00500;108.0000;128;74;0.34408
3608560;-0.05000;106.6875;128;74;0.34359
3608570;-0.07500;105.8125;128;74;0.34335
3608580;-0.08500;104.8125;128;74;0.34359
3608590;-0.10000;103.6875;128;74;0.34408
3608600;-0.11000;102.4375;128;74;0.34408
3608610;-0.11500;99.7500;128;74;0.34432
3608620;-0.11500;98.2500;128;74;0.34603
3608630;-0.11500;96.6875;128;74;0.35018
3608640;-0.11500;95.0000;128;74;0.35751
3608650;-0.11500;91.4375;128;74;0.38462
3608660;-0.11500;89.5000;128;74;0.40537
3608670;-0.11500;87.5000;128;74;0.43077
3608680;-0.11500;83.6875;128;74;0.48132
3608690;-0.11500;82.1250;128;74;0.51209
3608700;-0.11500;80.9375;128;74;0.54554
3608710;-0.11500;80.1250;128;74;0.58022
3608720;-0.11000;79.6250;128;74;0.61465
3608730;-0.10500;79.1250;128;74;0.67961
3608740;-0.10500;79.0625;128;74;0.70891
3608750;-0.10500;79.0625;128;74;0.73602
3608760;-0.10000;79.2500;128;74;0.78315
3608770;-0.10000;79.3125;128;74;0.80269
3608780;-0.10000;79.3750;128;74;0.81661
3608790;-0.10000;79.3750;128;74;0.82711
3608800;-0.10000;79.3750;128;74;0.82711
3608810;-0.09500;78.9375;128;74;0.85568
3608820;-0.09500;78.6875;128;74;0.86178
3608830;-0.09500;78.3750;128;74;0.83614
3608840;-0.09500;77.7500;128;74;0.77143
3608850;-0.09000;77.4375;128;74;0.75873
3608860;-0.09500;77.0625;128;74;0.74994
3608870;-0.09000;76.7500;128;74;0.74237
3608880;-0.08500;76.3750;128;74;0.73455
3608890;-0.08500;75.6250;128;74;0.71722
3608900;-0.06000;75.2500;128;74;0.70720
3608910;-0.02500;74.9375;128;74;0.69597
3608920;-0.01000;74.5625;128;74;0.68376
3608930;0.00000;73.8750;128;74;0.65592
3608940;0.03000;73.5000;128;74;0.64078
3608950;0.06000;73.1875;128;74;0.62515
3608960;0.08000;72.8750;128;74;0.60904
3608970;0.05500;72.1875;128;74;0.57973
3608980;0.03000;71.9375;128;74;0.56728
3608990;-0.00500;71.6250;128;74;0.55507
3609000;-0.06500;71.0000;128;74;0.53407
3609010;-0.10000;70.6875;128;74;0.52552
3609020;-0.12000;70.4375;128;74;0.51795
3609030;-0.12000;70.1875;128;74;0.51160
3609040;-0.12000;69.9375;128;74;0.50598
3609050;-0.11500;69.4375;128;74;0.49646
3609060;-0.11000;69.1875;128;74;0.49206
3609070;-0.10500;69.0000;128;74;0.48791
3609080;-0.09500;68.6875;128;74;0.48400
3609090;0.20500;68.5000;128;74;0.47643
3609100;0.69000;68.3750;128;74;0.47253
3609110;1.15500;68.2500;128;74;0.46838
3609120;0.59500;68.0625;128;74;0.45958
3609130;0.01000;67.9375;128;74;0.45495
3609140;-0.20000;67.8125;128;74;0.45031
3609150;-0.16500;67.7500;128;74;0.44567
3609160;-0.16500;67.5000;128;74;0.43590
3609170;-0.17500;67.3750;128;74;0.43175
3609180;-0.18000;67.3125;128;74;0.42784
3609190;-0.17000;67.1250;128;74;0.42369
3609200;-0.16500;67.0000;128;74;0.41929
3609210;-0.16000;66.5625;128;74;0.41050
3609220;-0.15500;66.3750;128;74;0.40586
3609230;-0.15000;66.1250;128;74;0.40122
3609240;-0.14500;65.9375;128;74;0.39658
3609250;-0.14500;65.4375;128;74;0.38779
3609260;-0.13000;65.2500;128;74;0.38339
3609270;-0.12500;65.0000;128;74;0.37924
3609280;-0.11500;64.7500;128;74;0.37582
3609290;-0.10000;64.3750;128;74;0.36899
3609300;-0.08500;64.2500;128;74;0.36532
3609310;-0.07000;64.2500;128;74;0.36190
3609320;-0.05500;65.1250;128;74;0.35507
3609330;-0.04500;66.4375;128;74;0.35189
3609340;-0.02500;68.5625;128;74;0.34896
3609350;-0.01000;71.4375;128;74;0.34603
3609360;0.00000;74.9375;128;74;0.34335
3609370;0.02000;82.7500;128;74;0.33944
3609380;0.04000;86.8125;128;74;0.33846
3609390;0.07000;90.6875;128;74;0.33724
3609400;0.09000;94.3750;128;74;0.33602
3609410;0.11500;100.7500;128;74;0.33455
3609420;0.15000;103.3125;128;74;0.33431
3609430;0.17500;105.5625;128;74;0.33431
3609440;0.20500;108.8125;128;74;0.33455
3609450;0.23000;109.8750;128;74;0.33602
3609460;0.24500;110.6875;128;74;0.33675
3609470;0.24500;111.2500;128;74;0.33724
3609480;0.22500;111.5625;128;74;0.33797
3609490;0.17500;111.7500;128;74;0.33919
3609500;0.11000;111.6250;128;74;0.33968
3609510;0.04000;111.3125;128;74;0.34017
3609520;-0.02000;110.9375;128;74;0.34042
3609530;-0.07500;109.7500;128;74;0.34066
3609540;-0.09500;108.9375;128;74;0.34066
3609550;-0.11500;108.0000;128;74;0.34042
3609560;-0.12500;105.7500;128;74;0.33993
3609570;-0.12500;104.5000;128;74;0.34017
3609580;-0.13000;103.1250;128;74;0.34115
3609590;-0.13000;101.6875;128;74;0.34310
3609600;-0.13500;100.1250;128;74;0.34701
3609610;-0.13500;96.7500;128;74;0.36361
3609620;-0.13500;94.9375;128;74;0.37729
3609630;-0.13000;93.1250;128;74;0.39463
3609640;-0.13000;91.4375;128;74;0.41563
3609650;-0.13000;88.5625;128;74;0.46618
3609660;-0.12500;87.5000;128;74;0.49377
3609670;-0.12000;86.6250;128;74;0.52161
3609680;-0.11500;85.3750;128;74;0.56654
3609690;-0.11500;84.9375;128;74;0.58926
3609700;-0.11500;84.5625;128;74;0.61197
3609710;-0.11500;84.3125;128;74;0.63321
3609720;-0.11500;84.0625;128;74;0.65275
3609730;-0.11500;83.6875;128;74;0.68571
3609740;-0.11000;83.4375;128;74;0.69915
3609750;-0.11500;83.1250;128;74;0.71111
3609760;-0.11000;82.8125;128;74;0.72112
3609770;-0.10500;82.1250;128;74;0.73431
3609780;-0.10500;81.7500;128;74;0.73700
3609790;-0.10500;81.3125;128;74;0.73944
3609800;-0.10500;81.3125;128;74;0.73944
3609810;-0.10000;79.8750;128;74;0.74090
3609820;-0.09500;79.3750;128;74;0.73871
3609830;-0.09500;78.8750;128;74;0.73529
3609840;-0.09000;77.8750;128;74;0.72405
3609850;-0.08500;77.3750;128;74;0.71648
3609860;-0.08000;76.9375;128;74;0.70769
3609870;-0.06500;76.4375;128;74;0.69768
3609880;-0.04000;76.0000;128;74;0.68694
3609890;-0.01500;75.1875;128;74;0.66325
3609900;-0.00500;74.7500;128;74;0.65031
3609910;0.01000;74.3125;128;74;0.63687
3609920;0.03500;73.9375;128;74;0.62320
3609930;0.07000;73.1250;128;74;0.59683
3609940;0.08000;72.7500;128;74;0.58462
3609950;0.05000;72.4375;128;74;0.57289
3609960;0.02000;72.0625;128;74;0.56215
3609970;-0.01500;71.3750;128;74;0.54359
3609980;-0.07500;71.0625;128;74;0.53578
3609990;-0.09500;70.7500;128;74;0.52821
3610000;-0.10500;70.1875;128;74;0.52112
3610010;-0.11000;69.8750;128;74;0.50818
3610020;-0.11500;69.6250;128;74;0.50208
3610030;-0.11500;69.3750;128;74;0.49621
3610040;-0.11500;68.8750;128;74;0.48449
3610050;-0.11000;68.6875;128;74;0.47888
3610060;0.11000;68.4375;128;74;0.47302
3610070;0.50500;68.2500;128;74;0.46716
3610080;1.06500;68.0625;128;74;0.46154
3610090;0.78500;67.6875;128;74;0.45055
3610100;0.17000;67.5000;128;74;0.44444
3610110;-0.16000;67.3750;128;74;0.43834
3610120;-0.12000;67.0625;128;74;0.42613
3610130;-0.10500;66.9375;128;74;0.42027
3610140;-0.11000;66.7500;128;74;0.41392
3610150;-0.11500;66.5625;128;74;0.40757
3610160;-0.11500;66.1875;128;74;0.39463
3610170;-0.11500;65.9375;128;74;0.38901
3610180;-0.11500;65.7500;128;74;0.38388
3610190;-0.11500;65.5000;128;74;0.37802
3610200;-0.11500;65.2500;128;74;0.37192
3610210;-0.11000;64.6875;128;74;0.35946
3610220;-0.10500;64.4375;128;74;0.35311
3610230;-0.10500;64.1875;128;74;0.34676
3610240;-0.10000;63.9375;128;74;0.34066
3610250;-0.09000;63.3750;128;74;0.32845
3610260;-0.07500;63.1250;128;74;0.32259
3610270;-0.06500;62.8750;128;74;0.31697
3610280;-0.05500;62.6875;128;74;0.31258
3610290;-0.04000;62.6250;128;74;0.30452
3610300;-0.02000;63.0625;128;74;0.29988
3610310;-0.00500;64.0000;128;74;0.29524
3610320;0.00917;68.0000;128;74;0.28596
3610330;0.02500;71.0625;128;74;0.28156
3610340;0.04500;74.5625;128;74;0.27717
3610350;0.06500;78.3750;128;74;0.27326
3610360;0.08000;82.1875;128;74;0.26960
3610370;0.11000;89.5000;128;74;0.26374
3610380;0.14000;92.8750;128;74;0.26227
3610390;0.15500;95.9375;128;74;0.26007
3610400;0.18500;98.6250;128;74;0.25788
3610410;0.21500;102.8125;128;74;0.25372
3610420;0.23500;104.3125;128;74;0.25226
3610430;0.26500;105.5000;128;74;0.25079
3610440;0.27500;106.8125;128;74;0.24884
3610450;0.26500;107.1250;128;74;0.24811
3610460;0.22500;107.1875;128;74;0.24762
3610470;0.14500;107.0625;128;74;0.24713
3610480;0.08000;106.3750;128;74;0.24835
3610490;0.03000;105.8125;128;74;0.24884
3610500;-0.01500;105.0625;128;74;0.24908
3610510;-0.04500;104.2500;128;74;0.24957
3610520;-0.07500;103.2500;128;74;0.25006
3610530;-0.09000;101.0000;128;74;0.25104
3610540;-0.09500;99.6875;128;74;0.25177
3610550;-0.09500;98.2500;128;74;0.25250
3610560;-0.09500;95.2500;128;74;0.25617
3610570;-0.09500;93.6250;128;74;0.26007
3610580;-0.08500;91.9375;128;74;0.26593
3610590;-0.08000;90.1875;128;74;0.27448
3610600;-0.07500;88.3750;128;74;0.28620
3610610;-0.06500;85.0000;128;74;0.32088
3610620;-0.06000;83.5625;128;74;0.34335
3610630;-0.05000;82.3750;128;74;0.36825
3610640;-0.04500;81.5000;128;74;0.39512
3610650;-0.04500;80.3750;128;74;0.45031
3610660;-0.04500;80.0625;128;74;0.47717
3610670;-0.04500;79.8125;128;74;0.49939
3610680;-0.04500;79.6250;128;74;0.53846
3610690;-0.04000;79.6250;128;74;0.55751
3610700;-0.03500;79.5625;128;74;0.57509
3610710;-0.03000;79.5625;128;74;0.59096
3610720;-0.02500;79.4375;128;74;0.60464
3610730;-0.02000;79.1250;128;74;0.62589
3610740;-0.02000;78.9375;128;74;0.63346
3610750;-0.02000;78.6875;128;74;0.63907
3610760;-0.02500;78.4375;128;74;0.64274
3610770;-0.03000;77.9375;128;74;0.64420
3610780;-0.03000;77.5625;128;74;0.64225
3610790;-0.02500;77.1875;128;74;0.63956
3610800;-0.02500;77.1875;128;74;0.63956
3610810;-0.00500;76.0625;128;74;0.62393
3610820;0.00000;75.6875;128;74;0.61587
3610830;0.00000;75.3125;128;74;0.60659
3610840;0.00000;74.5625;128;74;0.58437
3610850;0.01000;74.1875;128;74;0.57167
3610860;0.04500;73.8750;128;74;0.55800
3610870;0.07000;73.5000;128;74;0.54530
3610880;0.08000;73.1875;128;74;0.53309
3610890;0.09000;72.5625;128;74;0.50598
3610900;0.12000;72.2500;128;74;0.49206
3610910;0.14500;71.9375;128;74;0.47888
3610920;0.14500;71.3125;128;74;0.46642
3610930;0.11000;71.0000;128;74;0.44469
3610940;0.07000;70.7500;128;74;0.43541
3610950;0.02500;70.4375;128;74;0.42711
3610960;-0.01000;70.1875;128;74;0.42002
3610970;-0.04000;69.6250;128;74;0.40879
3610980;-0.05500;69.3750;128;74;0.40464
3610990;-0.06500;69.1250;128;74;0.40073
3611000;-0.06500;68.6250;128;74;0.39683
3611010;-0.06500;68.3750;128;74;0.38974
3611020;-0.06000;68.1875;128;74;0.38657
3611030;-0.04500;67.9375;128;74;0.38364
3611040;0.10000;67.5625;128;74;0.37778
3611050;0.41000;67.3750;128;74;0.37485
3611060;0.97000;67.1250;128;74;0.37192
3611070;0.85500;66.9375;128;74;0.36947
3611080;0.17500;66.7500;128;74;0.36728
3611090;-0.21500;66.3750;128;74;0.36190
3611100;-0.17000;66.1875;128;74;0.35922
3611110;-0.12500;66.0000;128;74;0.35653
3611120;-0.12000;65.6250;128;74;0.35116
3611130;-0.12000;65.4375;128;74;0.34847
3611140;-0.11500;65.2500;128;74;0.34603
3611150;-0.11000;65.0000;128;74;0.34359
3611160;-0.10500;64.5000;128;74;0.33871
3611170;-0.10500;64.3125;128;74;0.33675
3611180;-0.10000;64.0625;128;74;0.33504
3611190;-0.09500;63.8125;128;74;0.33260
3611200;-0.09000;63.5625;128;74;0.32991
3611210;-0.08000;63.1250;128;74;0.32430
3611220;-0.07500;62.8750;128;74;0.32112
3611230;-0.06500;62.6250;128;74;0.31795
3611240;-0.06500;62.2500;128;74;0.31453
3611250;-0.05500;62.0625;128;74;0.30769
3611260;-0.04500;61.9375;128;74;0.30452
3611270;-0.03000;61.8750;128;74;0.30232
3611280;-0.02000;62.3750;128;74;0.29817
3611290;-0.01000;63.3125;128;74;0.29573
3611300;0.00500;64.9375;128;74;0.29304
3611310;0.02000;67.1875;128;74;0.29060
3611320;0.03000;70.0625;128;74;0.28816
3611330;0.05000;76.8750;128;74;0.28303
3611340;0.07000;80.5000;128;74;0.28083
3611350;0.10000;84.0625;128;74;0.27888
3611360;0.12500;87.5000;128;74;0.27692
3611370;0.15500;93.4375;128;74;0.27497
3611380;0.19000;95.8750;128;74;0.27497
3611390;0.21500;98.0000;128;74;0.27473
3611400;0.25500;99.6875;128;74;0.27473
3611410;0.28500;101.9375;128;74;0.27546
3611420;0.29000;102.5000;128;74;0.27595
3611430;0.27000;102.8125;128;74;0.27692
3611440;0.23500;102.8750;128;74;0.27790
3611450;0.17000;102.3750;128;74;0.28034
3611460;0.10000;101.8750;128;74;0.28156
3611470;0.03000;101.2500;128;74;0.28327
3611480;-0.00500;100.5000;128;74;0.28498
3611490;-0.03500;98.6250;128;74;0.28767
3611500;-0.05500;97.5000;128;74;0.28889
3611510;-0.06500;96.3125;128;74;0.28987
3611520;-0.07500;95.0000;128;74;0.29084
3611530;-0.08500;92.2500;128;74;0.29280
3611540;-0.08500;90.8125;128;74;0.29426
3611550;-0.08500;89.3125;128;74;0.29646
3611560;-0.08500;86.1250;128;74;0.30647
3611570;-0.08000;84.4375;128;74;0.31404
3611580;-0.07500;82.8125;128;74;0.32405
3611590;-0.07000;81.3125;128;74;0.33797
3611600;-0.06500;79.0000;128;74;0.37705
3611610;-0.06000;78.2500;128;74;0.40073
3611620;-0.06000;77.6875;128;74;0.42613
3611630;-0.05500;77.3125;128;74;0.45226
3611640;-0.05500;77.1250;128;74;0.47814
3611650;-0.05500;76.9375;128;74;0.52698
3611660;-0.05500;76.9375;128;74;0.54896
3611670;-0.05500;76.9375;128;74;0.56630
3611680;-0.06000;76.8125;128;74;0.58046
3611690;-0.06500;76.7500;128;74;0.60830
3611700;-0.06500;76.5625;128;74;0.62002
3611710;-0.07000;76.4375;128;74;0.62979
3611720;-0.07500;76.0000;128;74;0.64347
3611730;-0.07500;75.7500;128;74;0.64762
3611740;-0.08000;75.4375;128;74;0.65006
3611750;-0.08500;75.1250;128;74;0.65055
3611760;-0.08500;74.8125;128;74;0.64933
3611770;-0.09500;74.1875;128;74;0.64225
3611780;-0.10500;73.8125;128;74;0.63687
3611790;-0.11000;73.4375;128;74;0.63028
3611800;-0.11000;73.4375;128;74;0.63028
3611810;-0.11000;72.4375;128;74;0.60440
3611820;-0.09500;72.1250;128;74;0.59341
3611830;-0.06500;71.7500;128;74;0.58120
3611840;-0.05500;71.1250;128;74;0.55433
3611850;-0.05500;70.7500;128;74;0.53993
3611860;-0.04000;70.4375;128;74;0.52552
3611870;-0.01500;70.1250;128;74;0.51282
3611880;0.00000;69.8125;128;74;0.50134
3611890;-0.03500;69.1875;128;74;0.47839
3611900;-0.06500;68.9375;128;74;0.46789
3611910;-0.09000;68.6250;128;74;0.45861
3611920;-0.12500;68.1250;128;74;0.45031
3611930;-0.16000;67.8125;128;74;0.43663
3611940;-0.17000;67.5625;128;74;0.43077
3611950;0.05000;81.3750;128;74;0.27497
3611960;0.05000;81.3750;128;74;0.27497
3611970;0.05000;81.3750;128;74;0.27497
3611980;0.05000;81.3750;128;74;0.27497
3611990;0.05000;81.3750;128;74;0.27497
3612000;0.05000;81.3750;128;74;0.27497
3612010;0.05000;81.3750;128;74;0.27497
3612020;0.05000;81.3750;128;74;0.27497
3612030;0.05000;81.3750;128;74;0.27497
3612040;0.12500;101.8125;128;74;0.26935
3612050;0.12500;101.8125;128;74;0.26935
3612060;0.12500;101.8125;128;74;0.26935
3612070;0.12500;101.8125;128;74;0.26935
3612080;0.12500;101.8125;128;74;0.26935
3612090;0.12500;101.8125;128;74;0.26935
3612100;0.12500;101.8125;128;74;0.26935
3612110;0.12500;101.8125;128;74;0.26935
3612120;0.12500;101.8125;128;74;0.26935
3612130;0.12500;101.8125;128;74;0.26935
3612140;0.12500;101.8125;128;74;0.26935
3612150;0.12500;101.8125;128;74;0.26935
3612160;0.12500;101.8125;128;74;0.26935
3612170;0.12500;101.8125;128;74;0.26935
3612180;0.12500;101.8125;128;74;0.26935
3612190;0.12500;101.8125;128;74;0.26935
3612200;0.12500;101.8125;128;74;0.26935
3612210;0.12500;101.8125;128;74;0.26935
3612220;0.12500;101.8125;128;74;0.26935
3612230;0.12500;101.8125;128;74;0.26935
3612240;0.12500;101.8125;128;74;0.26935
3612250;0.12500;101.8125;128;74;0.26935
3612260;0.12500;101.8125;128;74;0.26935
3612270;0.12500;101.8125;128;74;0.26935
3612280;0.12500;101.8125;128;74;0.26935
3612290;0.12500;101.8125;128;74;0.26935
3612300;0.12500;101.8125;128;74;0.26935
3612310;0.12500;101.8125;128;74;0.26935
3612320;0.12500;101.8125;128;74;0.26935
3612330;0.12500;101.8125;128;74;0.26935
3612340;0.12500;101.8125;128;74;0.26935
3612350;0.12500;101.8125;128;74;0.26935
3612360;0.12500;101.8125;128;74;0.26935
3612370;0.12500;101.8125;128;74;0.26935
3612380;0.12500;101.8125;128;74;0.26935
3612390;0.12500;101.8125;128;74;0.26935
3612400;0.12500;101.8125;128;74;0.26935
3612410;0.05000;101.4375;128;74;0.26960
3612420;0.05000;101.4375;128;74;0.26960
3612430;-0.01500;100.9375;128;74;0.27009
3612440;-0.07000;99.5000;128;74;0.27131
3612450;-0.10000;98.5625;128;74;0.27204
3612460;-0.12500;97.5625;128;74;0.27302
3612470;-0.14500;96.5000;128;74;0.27424
3612480;-0.15500;95.2500;128;74;0.27595
3612490;-0.15500;92.6875;128;74;0.27863
3612500;-0.16000;91.1875;128;74;0.28010
3612510;-0.16500;89.6875;128;74;0.28181
3612520;-0.16500;88.1250;128;74;0.28474
3612530;-0.16000;84.9375;128;74;0.29719
3612540;-0.15500;83.3750;128;74;0.30794
3612550;-0.15000;81.8750;128;74;0.32210
3612560;-0.14500;80.5625;128;74;0.34017
3612570;-0.13500;78.6875;128;74;0.37778
3612580;-0.12500;78.1250;128;74;0.40122
3612590;-0.11500;77.6875;128;74;0.42711
3612600;-0.11000;77.1250;128;74;0.45421
3612610;-0.10500;76.9375;128;74;0.50769
3612620;-0.10500;76.8125;128;74;0.53260
3612630;-0.10500;76.6875;128;74;0.55556
3612640;-0.11500;76.6250;128;74;0.57656
3612650;-0.11500;76.5625;128;74;0.61148
3612660;-0.12000;76.5000;128;74;0.62564
3612670;-0.12000;76.4375;128;74;0.63565
3612680;-0.12500;76.0625;128;74;0.64298
3612690;-0.13500;75.8750;128;74;0.65592
3612700;-0.14500;75.5625;128;74;0.66032
3612710;-0.14500;75.3125;128;74;0.66325
3612720;-0.14500;75.0000;128;74;0.66447
3612730;-0.14500;74.3750;128;74;0.66178
3612740;-0.14500;74.0625;128;74;0.65788
3612750;-0.14500;73.7500;128;74;0.65250
3612760;-0.14000;73.4375;128;74;0.64567
3612770;-0.13000;72.7500;128;74;0.62955
3612780;-0.11500;72.3750;128;74;0.61978
3612790;-0.09500;72.0000;128;74;0.60904
3612800;-0.09500;72.0000;128;74;0.60904
3612810;-0.06000;71.3125;128;74;0.58535
3612820;-0.04000;70.6875;128;74;0.55946
3612830;-0.01000;70.3750;128;74;0.54603
3612840;0.02000;70.0625;128;74;0.53284
3612850;0.03500;69.4375;128;74;0.50818
3612860;-0.00500;69.1875;128;74;0.49695
3612870;-0.05000;68.8750;128;74;0.48742
3612880;-0.07500;68.6250;128;74;0.47937
3612890;-0.12500;68.1250;128;74;0.46422
3612900;-0.17000;67.8750;128;74;0.45763
3612910;-0.18500;67.6250;128;74;0.45177
3612920;-0.19500;67.1875;128;74;0.44664
3612930;-0.20000;67.0000;128;74;0.45348
3612940;-0.19500;66.8125;128;74;0.45397
3612950;-0.18000;66.6250;128;74;0.45201
3612960;-0.16000;66.3125;128;74;0.44567
3612970;-0.10000;66.1250;128;74;0.44249
3612980;0.20500;66.0000;128;74;0.43858
3612990;0.80500;65.8750;128;74;0.43443
3613000;0.87000;65.7500;128;74;0.43028
3613010;0.28500;65.5000;128;74;0.42173
3613020;-0.27000;65.3750;128;74;0.41709
3613030;-0.24500;65.2500;128;74;0.41270
3613040;-0.18000;65.1875;128;74;0.40830
3613050;-0.17000;64.9375;128;74;0.39902
3613060;-0.16500;64.8125;128;74;0.39438
3613070;-0.16000;64.6875;128;74;0.39048
3613080;-0.15500;64.3750;128;74;0.38291
3613090;-0.14500;64.1875;128;74;0.37851
3613100;-0.14000;64.0000;128;74;0.37411
3613110;-0.12500;63.8125;128;74;0.36947
3613120;-0.12000;63.5625;128;74;0.36459
3613130;-0.11000;63.0625;128;74;0.35458
3613140;-0.10000;62.7500;128;74;0.34969
3613150;-0.08500;62.5000;128;74;0.34481
3613160;-0.07500;62.2500;128;74;0.33993
3613170;-0.06500;61.7500;128;74;0.33260
3613180;-0.05000;61.5625;128;74;0.32845
3613190;-0.03500;61.3750;128;74;0.32405
3613200;-0.01500;61.2500;128;74;0.31990
3613210;0.00000;61.5000;128;74;0.31184
3613220;0.01000;62.3125;128;74;0.30794
3613230;0.02000;63.6875;128;74;0.30427
3613240;0.04000;68.5625;128;74;0.29817
3613250;0.05000;71.6875;128;74;0.29548
3613260;0.06500;75.1875;128;74;0.29328
3613270;0.08000;78.8125;128;74;0.29206
3613280;0.10000;82.3750;128;74;0.29133
3613290;0.13000;89.1250;128;74;0.28864
3613300;0.15500;92.0625;128;74;0.28718
3613310;0.18500;94.6875;128;74;0.28596
3613320;0.21500;98.8125;128;74;0.28523
3613330;0.25500;100.2500;128;74;0.28449
3613340;0.27500;101.3750;128;74;0.28474
3613350;0.29500;102.1250;128;74;0.28547
3613360;0.29000;102.6875;128;74;0.28620
3613370;0.26500;102.9375;128;74;0.28913
3613380;0.20500;102.8125;128;74;0.29035
3613390;0.13500;102.4375;128;74;0.29133
3613400;0.07000;101.9375;128;74;0.29206
3613410;0.01000;100.6250;128;74;0.29353
3613420;-0.01500;99.8125;128;74;0.29402
3613430;-0.05000;98.8125;128;74;0.29451
3613440;-0.07500;96.5000;128;74;0.29475
3613450;-0.09000;95.1875;128;74;0.29524
3613460;-0.09500;93.8750;128;74;0.29573
3613470;-0.10000;92.4375;128;74;0.29670
3613480;-0.10000;89.4375;128;74;0.30159
3613490;-0.10000;87.8125;128;74;0.30672
3613500;-0.10000;86.1250;128;74;0.31502
3613510;-0.10000;84.4375;128;74;0.32723
3613520;-0.10000;82.7500;128;74;0.34408
3613530;-0.09500;80.0625;128;74;0.39121
3613540;-0.09500;79.1250;128;74;0.42051
3613550;-0.09500;78.4375;128;74;0.45250
3613560;-0.09500;77.5625;128;74;0.48596
3613570;-0.09500;77.2500;128;74;0.54212
3613580;-0.10000;77.0625;128;74;0.57118
3613590;-0.10500;76.9375;128;74;0.60024
3613600;-0.11000;76.8750;128;74;0.62784
3613610;-0.11500;76.8125;128;74;0.67643
3613620;-0.12000;76.7500;128;74;0.69670
3613630;-0.12500;76.6875;128;74;0.71429
3613640;-0.13000;76.5625;128;74;0.72918
3613650;-0.13500;76.1875;128;74;0.75165
3613660;-0.14000;75.9375;128;74;0.75946
3613670;-0.14500;75.6875;128;74;0.76337
3613680;-0.15000;75.3750;128;74;0.76435
3613690;-0.15000;74.7500;128;74;0.76361
3613700;-0.15500;74.4375;128;74;0.76068
3613710;-0.15500;74.1250;128;74;0.75604
3613720;-0.15500;73.8125;128;74;0.74969
3613730;-0.15500;73.1875;128;74;0.73138
3613740;-0.14500;72.8750;128;74;0.71966
3613750;-0.12500;72.5625;128;74;0.70647
3613760;-0.10500;72.2500;128;74;0.69182
3613770;-0.08500;71.6875;128;74;0.66252
3613780;-0.08000;71.3750;128;74;0.64567
3613790;-0.05500;71.1250;128;74;0.62808
3613800;-0.05500;71.1250;128;74;0.62808
3613810;0.00000;70.3125;128;74;0.57460
3613820;-0.02500;70.0625;128;74;0.55824
3613830;-0.05000;69.8125;128;74;0.54310
3613840;-0.07500;69.2500;128;74;0.51673
3613850;-0.11500;69.0000;128;74;0.50549
3613860;-0.14500;68.7500;128;74;0.49548
3613870;-0.16000;68.5625;128;74;0.48718
3613880;-0.16000;68.1250;128;74;0.47302
3613890;-0.16000;67.8750;128;74;0.46618
3613900;-0.15500;67.6875;128;74;0.45983
3613910;-0.14500;67.5000;128;74;0.45372
3613920;-0.13500;67.3125;128;74;0.44811
3613930;-0.10000;67.0625;128;74;0.43761
3613940;0.14500;66.9375;128;74;0.43248
3613950;0.66000;66.8125;128;74;0.42759
3613960;0.95500;66.5625;128;74;0.42271
3613970;0.31000;66.4375;128;74;0.41514
3613980;-0.16500;66.3750;128;74;0.41099
3613990;-0.27000;66.3125;128;74;0.40635
3614000;-0.20000;66.1250;128;74;0.39683
3614010;-0.19000;66.0000;128;74;0.39194
3614020;-0.19500;65.8750;128;74;0.38706
3614030;-0.19500;65.6875;128;74;0.38217
3614040;-0.19500;65.5625;128;74;0.37705
3614050;-0.19500;65.1875;128;74;0.36703
3614060;-0.19000;65.0000;128;74;0.36215
3614070;-0.18500;64.8125;128;74;0.35849
3614080;-0.17500;64.4375;128;74;0.35116
3614090;-0.17000;64.1875;128;74;0.34676
3614100;-0.17000;63.9375;128;74;0.34237
3614110;-0.16000;63.6875;128;74;0.33773
3614120;-0.15500;63.5000;128;74;0.33309
3614130;-0.14500;63.0625;128;74;0.32430
3614140;-0.13500;62.8750;128;74;0.32015
3614150;-0.12500;62.6875;128;74;0.31600
3614160;-0.11000;62.5625;128;74;0.31184
3614170;-0.09500;62.9375;128;74;0.30647
3614180;-0.07500;63.7500;128;74;0.30379
3614190;-0.05500;65.2500;128;74;0.30110
3614200;-0.03500;70.3125;128;74;0.29621
3614210;-0.02000;73.6250;128;74;0.29426
3614220;0.00000;77.2500;128;74;0.29255
3614230;0.02500;81.0000;128;74;0.29109
3614240;0.04000;84.6875;128;74;0.28987
3614250;0.06500;91.6875;128;74;0.28791
3614260;0.09000;94.6875;128;74;0.28816
3614270;0.11500;97.3750;128;74;0.28913
3614280;0.14500;101.5625;128;74;0.29060
3614290;0.17000;103.0625;128;74;0.29109
3614300;0.19500;104.2500;128;74;0.29182
3614310;0.21500;105.0625;128;74;0.29280
3614320;0.21500;105.6250;128;74;0.29402
3614330;0.19500;106.0000;128;74;0.29646
3614340;0.13000;105.8750;128;74;0.29768
3614350;0.08000;105.5625;128;74;0.29890
3614360;0.01500;104.6250;128;74;0.30012
3614370;-0.04500;103.8750;128;74;0.30354
3614380;-0.07500;103.0000;128;74;0.30501
3614390;-0.09500;102.0625;128;74;0.30598
3614400;-0.11500;99.6875;128;74;0.30720
3614410;-0.12500;98.4375;128;74;0.30769
3614420;-0.13500;97.0625;128;74;0.30818
3614430;-0.14500;95.6250;128;74;0.30916
3614440;-0.15500;94.1875;128;74;0.31087
3614450;-0.15500;90.9375;128;74;0.32088
3614460;-0.15500;89.1875;128;74;0.32918
3614470;-0.15000;87.4375;128;74;0.34042
3614480;-0.13500;85.6875;128;74;0.35678
3614490;-0.12000;82.5625;128;74;0.40440
3614500;-0.11500;81.3750;128;74;0.43419
3614510;-0.10500;80.5000;128;74;0.46691
3614520;-0.10000;79.4375;128;74;0.53675
3614530;-0.09500;79.1875;128;74;0.57143
3614540;-0.09500;79.0000;128;74;0.60488
3614550;-0.10500;79.0000;128;74;0.63663
3614560;-0.11000;79.0625;128;74;0.66593
3614570;-0.12000;79.3125;128;74;0.70745
3614580;-0.13500;79.3750;128;74;0.72674
3614590;-0.14500;79.4375;128;74;0.74481
3614600;-0.16000;79.4375;128;74;0.76093
3614610;-0.17000;79.3125;128;74;0.78608
3614620;-0.18000;79.1250;128;74;0.79536
3614630;-0.19000;78.8750;128;74;0.80220
3614640;-0.19500;78.6250;128;74;0.80659
3614650;-0.20000;77.9375;128;74;0.80879
3614660;-0.20500;77.6250;128;74;0.80610
3614670;-0.20000;77.2500;128;74;0.80122
3614680;-0.19500;76.4375;128;74;0.79560
3614690;-0.19000;76.0625;128;74;0.78046
3614700;-0.17500;75.6250;128;74;0.77045
3614710;-0.16500;75.1875;128;74;0.75897
3614720;-0.14000;74.3125;128;74;0.73187
3614730;-0.11500;73.9375;128;74;0.71624
3614740;-0.08500;73.5625;128;74;0.69963
3614750;-0.05500;73.1250;128;74;0.68205
3614760;-0.04500;72.7500;128;74;0.66374
3614770;-0.01000;72.1250;128;74;0.63126
3614780;0.03000;71.8125;128;74;0.61514
3614790;0.04000;71.5000;128;74;0.59951
3614800;0.04000;71.5000;128;74;0.59951
3614810;0.00000;70.5625;128;74;0.56142
3614820;-0.02500;70.3125;128;74;0.55238
3614830;-0.07000;70.0000;128;74;0.54505
3614840;-0.10500;69.4375;128;74;0.53407
3614850;-0.11000;69.1875;128;74;0.53016
3614860;-0.10500;68.9375;128;74;0.52650
3614870;-0.10500;68.6875;128;74;0.52308
3614880;-0.10000;68.2500;128;74;0.51526
3614890;-0.09500;68.1250;128;74;0.51087
3614900;-0.08500;67.9375;128;74;0.50623
3614910;-0.03500;67.7500;128;74;0.50159
3614920;0.22500;67.6250;128;74;0.49670
3614930;0.84000;67.4375;128;74;0.48694
3614940;0.95500;67.3750;128;74;0.48230
3614950;0.40000;67.3750;128;74;0.47814
3614960;-0.21500;67.3125;128;74;0.47033
3614970;-0.21500;67.3125;128;74;0.45592
3614980;-0.19000;67.2500;128;74;0.43590
3614990;-0.20000;67.2500;128;74;0.42344
3615000;-0.21000;67.1250;129;74;0.40757
3615010;-0.21000;67.0625;129;74;0.40122
3615020;-0.21500;67.0000;129;74;0.39487
3615030;-0.21000;66.8750;129;74;0.38828
3615040;-0.20500;66.6875;129;74;0.38193
3615050;-0.20000;66.3750;129;74;0.36996
3615060;-0.19000;66.1250;129;74;0.36532
3615070;-0.18000;65.8750;129;74;0.36117
3615080;-0.16000;65.4375;129;74;0.35214
3615090;-0.14500;65.1875;129;74;0.34750
3615100;-0.12500;65.0000;129;74;0.34310
3615110;-0.11500;64.8125;129;74;0.33895
3615120;-0.10000;64.4375;129;74;0.33114
3615130;-0.08500;64.4375;129;74;0.32723
3615140;-0.07500;64.6250;129;74;0.32332
3615150;-0.05000;65.3125;129;74;0.31966
3615160;-0.03500;66.6250;129;74;0.31624
3615170;-0.02000;71.6250;129;74;0.31184
3615180;0.00000;75.0000;129;74;0.30940
3615190;0.02000;78.7500;129;74;0.30696
3615200;0.04000;82.6875;129;74;0.30476
3615210;0.06000;90.3125;129;74;0.30134
3615220;0.09000;93.7500;129;74;0.30012
3615230;0.10500;96.9375;129;74;0.29963
3615240;0.13500;102.3750;129;74;0.29963
3615250;0.16500;104.4375;129;74;0.30159
3615260;0.19000;106.1875;129;74;0.30330
3615270;0.22500;107.5625;129;74;0.30549
3615280;0.25500;109.3750;129;74;0.30989
3615290;0.26500;109.9375;129;74;0.31184
3615300;0.25500;110.2500;129;74;0.31355
3615310;0.20500;110.3750;129;74;0.31526
3615320;0.15500;110.3125;129;74;0.31673
3615330;0.09000;109.8125;129;74;0.31893
3615340;0.01000;109.3750;129;74;0.31966
3615350;-0.03000;108.7500;129;74;0.32015
3615360;-0.07000;108.0000;129;74;0.32039
3615370;-0.10500;106.0625;129;74;0.32137
3615380;-0.12500;104.9375;129;74;0.32137
3615390;-0.13500;103.7500;129;74;0.32088
3615400;-0.13500;102.4375;129;74;0.32063
3615410;-0.14500;99.5625;129;74;0.32283
3615420;-0.14500;98.0000;129;74;0.32674
3615430;-0.14500;96.3750;129;74;0.33382
3615440;-0.14000;93.0625;129;74;0.36044
3615450;-0.14000;91.4375;129;74;0.38022
3615460;-0.14500;90.0000;129;74;0.40024
3615470;-0.14000;88.7500;129;74;0.42149
3615480;-0.14000;87.6875;129;74;0.44786
3615490;-0.13500;86.1875;129;74;0.50818
3615500;-0.13500;85.6250;129;74;0.53944
3615510;-0.13500;85.1250;129;74;0.56996
3615520;-0.13500;84.5625;129;74;0.62613
3615530;-0.13000;84.3750;129;74;0.65128
3615540;-0.13000;84.1875;129;74;0.67399
3615550;-0.12500;84.0000;129;74;0.69426
3615560;-0.12500;83.8125;129;74;0.71233
3615570;-0.12500;83.4375;129;74;0.73480
3615580;-0.12000;83.2500;129;74;0.74457
3615590;-0.11500;82.9375;129;74;0.75360
3615600;-0.11500;82.6250;129;74;0.76117
3615610;-0.11500;81.9375;129;74;0.77118
3615620;-0.11500;81.5625;129;74;0.77363
3615630;-0.11000;81.1875;129;74;0.77436
3615640;-0.11000;80.5000;129;74;0.77045
3615650;-0.11000;80.0625;129;74;0.76606
3615660;-0.10500;79.6875;129;74;0.75971
3615670;-0.09500;79.3125;129;74;0.75189
3615680;-0.09000;78.9375;129;74;0.74310
3615690;-0.08000;78.0625;129;74;0.72234
3615700;-0.04500;77.6250;129;74;0.71038
3615710;-0.02500;77.1875;129;74;0.69744
3615720;0.00000;76.7500;129;74;0.68352
3615730;0.01500;75.8750;129;74;0.65372
3615740;0.04000;75.4375;129;74;0.63883
3615750;0.07000;75.0000;129;74;0.62418
3615760;0.07500;74.0625;129;74;0.59780
3615770;0.05500;73.6875;129;74;0.58632
3615780;0.03000;73.2500;129;74;0.57509
3615790;-0.00500;72.8750;129;74;0.56435
3615800;-0.00500;72.8750;129;74;0.56435
3615810;-0.08500;71.7500;129;74;0.53675
3615820;-0.09500;71.3750;129;74;0.52894
3615830;-0.10000;71.0625;129;74;0.52186
3615840;-0.10000;70.4375;129;74;0.50867
3615850;-0.09500;70.1875;129;74;0.50232
3615860;-0.09000;69.8750;129;74;0.49646
3615870;-0.08500;69.6875;129;74;0.49109
3615880;-0.02500;69.2500;129;74;0.48523
3615890;0.32000;69.0625;129;74;0.47350
3615900;0.90500;68.8750;129;74;0.46764
3615910;1.00000;68.6875;129;74;0.46178
3615920;0.34500;68.5625;129;74;0.45592
3615930;-0.20500;68.3125;129;74;0.44420
3615940;-0.18500;68.1875;129;74;0.43858
3615950;-0.15000;68.0625;129;74;0.43297
3615960;-0.15500;67.7500;129;74;0.42247
3615970;-0.15500;67.5625;129;74;0.41783
3615980;-0.15000;67.3750;129;74;0.41245
3615990;-0.14000;67.1250;129;74;0.40684
3616000;-0.13500;66.8750;128;74;0.40122
3616010;-0.12500;66.3750;128;74;0.39023
3616020;-0.11500;66.0625;128;74;0.38462
3616030;-0.11500;65.7500;128;74;0.37900
3616040;-0.10500;65.4375;128;74;0.37338
3616050;-0.10000;64.8750;128;74;0.36215
3616060;-0.08500;64.5625;128;74;0.35751
3616070;-0.07500;64.2500;128;74;0.35336
3616080;-0.06000;63.6875;128;74;0.34359
3616090;-0.04500;63.5000;128;74;0.33846
3616100;-0.03000;63.3750;128;74;0.33333
3616110;-0.02500;63.3750;128;74;0.32845
3616120;-0.01000;63.6875;128;74;0.32357
3616130;0.00000;66.0000;128;74;0.31380
3616140;0.01000;68.3125;128;74;0.30940
3616150;0.02000;71.2500;128;74;0.30501
3616160;0.03500;78.5000;128;74;0.29890
3616170;0.05000;82.3125;128;74;0.29573
3616180;0.06500;86.1250;128;74;0.29255
3616190;0.09000;89.7500;128;74;0.28962
3616200;0.11000;93.1875;128;74;0.28718
3616210;0.14000;98.8750;128;74;0.28303
3616220;0.16000;101.1875;128;74;0.28107
3616230;0.19500;103.1250;128;74;0.27937
3616240;0.23500;105.7500;128;74;0.27619
3616250;0.25500;106.5625;128;74;0.27497
3616260;0.26500;107.0000;128;74;0.27448
3616270;0.24500;107.2500;128;74;0.27448
3616280;0.21500;107.2500;128;74;0.27399
3616290;0.15000;106.6875;128;74;0.27253
3616300;0.08500;106.1250;128;74;0.27179
3616310;0.01000;105.4375;128;74;0.27106
3616320;-0.02500;104.6250;128;74;0.27057
3616330;-0.05500;102.6875;128;74;0.26960
3616340;-0.07000;101.5625;128;74;0.26935
3616350;-0.08500;100.3125;128;74;0.26886
3616360;-0.10000;97.6250;128;74;0.26886
3616370;-0.10000;96.1250;128;74;0.26886
3616380;-0.10500;94.6250;128;74;0.26911
3616390;-0.10500;93.0625;128;74;0.27057
3616400;-0.10500;91.4375;128;74;0.27424
3616410;-0.10500;87.8750;128;74;0.29109
3616420;-0.10500;86.0000;128;74;0.30549
3616430;-0.10000;84.1250;128;74;0.32405
3616440;-0.10000;80.8125;128;74;0.37265
3616450;-0.10000;79.6250;128;74;0.40073
3616460;-0.10000;78.7500;128;74;0.42589
3616470;-0.10000;78.1875;128;74;0.44957
3616480;-0.09500;77.8125;128;74;0.47595
3616490;-0.10000;77.4375;128;74;0.52821
3616500;-0.10000;77.3750;128;74;0.55189
3616510;-0.09500;77.4375;128;74;0.57314
3616520;-0.09500;77.5000;128;74;0.59170
3616530;-0.09500;77.5625;128;74;0.62149
3616540;-0.09500;77.5625;128;74;0.63248
3616550;-0.09500;77.5000;128;74;0.64127
3616560;-0.09500;77.1875;128;74;0.64884
3616570;-0.09500;77.0000;128;74;0.65055
3616580;-0.09500;76.7500;128;74;0.65104
3616590;-0.09000;76.4375;128;74;0.64957
3616600;-0.08500;75.6875;128;74;0.64200
3616610;-0.08000;75.3125;128;74;0.63565
3616620;-0.07500;74.8750;128;74;0.62759
3616630;-0.07000;74.5000;128;74;0.61807
3616640;-0.06500;73.7500;128;74;0.59536
3616650;-0.05500;73.3125;128;74;0.58242
3616660;-0.02500;72.8750;128;74;0.56972
3616670;0.01000;72.5000;128;74;0.55653
3616680;0.05000;72.1250;128;74;0.54164
3616690;0.06000;71.4375;128;74;0.50794
3616700;0.05500;71.0625;128;74;0.48987
3616710;0.08000;70.6875;128;74;0.47155
3616720;0.11000;70.3125;128;74;0.45324
3616730;0.08000;69.6875;128;74;0.41856
3616740;0.03000;69.4375;128;74;0.40293
3616750;0.00500;69.1875;128;74;0.38877
3616760;-0.04500;68.6250;128;74;0.36777
3616770;-0.07500;68.3750;128;74;0.35849
3616780;-0.09000;68.1875;128;74;0.34994
3616790;-0.09500;67.9375;128;74;0.34261
3616800;-0.09500;67.9375;128;74;0.34261
3616810;-0.10500;67.3750;128;74;0.32576
3616820;-0.10000;67.1875;128;74;0.32112
3616830;-0.10000;67.0000;128;74;0.31673
3616840;-0.06500;66.8125;128;74;0.31233
3616850;0.16500;66.5000;128;74;0.30330
3616860;0.74000;66.3750;128;74;0.29963
3616870;0.92000;66.2500;128;74;0.29646
3616880;0.29500;65.9375;128;74;0.28742
3616890;-0.17000;65.7500;128;74;0.28254
3616900;-0.27000;65.6875;128;74;0.27766
3616910;-0.20000;65.5625;128;74;0.27277
3616920;-0.19000;65.4375;128;74;0.26789
3616930;-0.19500;65.1875;128;74;0.25836
3616940;-0.19500;65.0000;128;74;0.25372
3616950;-0.19000;64.8750;128;74;0.24908
3616960;-0.18500;64.6875;128;74;0.24567
3616970;-0.18000;64.2500;128;74;0.23907
3616980;-0.17000;64.0000;128;74;0.23492
3616990;-0.16500;63.7500;128;74;0.23028
3617000;-0.15500;63.2500;128;74;0.22125
3617010;-0.15000;63.0000;128;74;0.21685
3617020;-0.13500;62.7500;128;74;0.22271
3617030;-0.12500;62.5000;128;74;0.23394
3617040;-0.11500;62.2500;128;74;0.23810
3617050;-0.10500;61.8750;128;74;0.23761
3617060;-0.09500;61.6875;128;74;0.23687
3617070;-0.07500;61.5000;128;74;0.23614
3617080;-0.06000;61.5000;128;74;0.23443
3617090;-0.04500;62.2500;128;74;0.23004
3617100;-0.01500;63.3750;128;74;0.22784
3617110;-0.00500;65.1875;128;74;0.22589
3617120;0.01000;67.6875;128;74;0.22418
3617130;0.03500;74.0000;128;74;0.22125
3617140;0.05000;77.5000;128;74;0.22027
3617150;0.07000;81.0000;128;74;0.21954
3617160;0.09500;87.6250;128;74;0.22051
3617170;0.11500;90.5625;128;74;0.22051
3617180;0.14500;93.1875;128;74;0.22027
3617190;0.18500;95.4375;128;74;0.22027
3617200;0.21500;97.3125;128;74;0.22027
3617210;0.25000;99.8750;128;74;0.22149
3617220;0.26500;100.5625;128;74;0.22247
3617230;0.26500;100.9375;128;74;0.22369
3617240;0.23500;101.0000;128;74;0.22515
3617250;0.16000;100.6875;128;74;0.22808
3617260;0.10000;100.2500;128;74;0.23004
3617270;0.03000;99.6250;128;74;0.23223
3617280;-0.03500;98.0000;128;74;0.23541
3617290;-0.07000;97.0625;128;74;0.23687
3617300;-0.10000;96.0000;128;74;0.23858
3617310;-0.12500;94.8125;128;74;0.24029
3617320;-0.13000;93.6250;128;74;0.24200
3617330;-0.13500;90.9375;128;74;0.24518
3617340;-0.13500;89.5000;128;74;0.24689
3617350;-0.14000;88.0000;128;74;0.24933
3617360;-0.14000;86.4375;128;74;0.25250
3617370;-0.14000;83.2500;128;74;0.26349
3617380;-0.13500;81.6250;128;74;0.27253
3617390;-0.13500;80.1250;128;74;0.28498
3617400;-0.13000;77.8125;128;74;0.32161
3617410;-0.12500;77.0625;128;74;0.34530
3617420;-0.12000;76.5000;128;74;0.37167
3617430;-0.11500;76.0625;128;74;0.39976
3617440;-0.11500;75.8125;128;74;0.42857
3617450;-0.11500;75.5625;128;74;0.48523
3617460;-0.11000;75.5000;128;74;0.50818
3617470;-0.10500;75.5000;128;74;0.52796
3617480;-0.10500;75.4375;128;74;0.56850
3617490;-0.10500;75.3750;128;74;0.58657
3617500;-0.10500;75.3125;128;74;0.60244
3617510;-0.10500;75.1875;128;74;0.61563
3617520;-0.10000;75.0000;128;74;0.62662
3617530;-0.10000;74.5000;128;74;0.64225
3617540;-0.10000;74.1875;128;74;0.64689
3617550;-0.10000;73.8750;128;74;0.64957
3617560;-0.09500;73.5625;128;74;0.64982
3617570;-0.09000;72.8125;128;74;0.64542
3617580;-0.08500;72.5000;128;74;0.64127
3617590;-0.08000;72.1250;128;74;0.63565
3617600;-0.07500;71.3750;128;74;0.62882
3617610;-0.07000;71.0625;128;74;0.61099
3617620;-0.06000;70.6875;128;74;0.60024
3617630;-0.04000;70.3125;128;74;0.58852
3617640;-0.01000;69.6250;128;74;0.56215
3617650;-0.00500;69.2500;128;74;0.54799
3617660;-0.00500;68.9375;128;74;0.53480
3617670;0.02000;68.6250;128;74;0.52259
3617680;0.04500;68.2500;128;74;0.50940
3617690;0.05000;67.6250;128;74;0.48400
3617700;0.02000;67.3125;128;74;0.47253
3617710;-0.01000;67.0000;128;74;0.46227
3617720;-0.02000;66.6875;128;74;0.45299
3617730;-0.04500;66.0625;128;74;0.43785
3617740;-0.07500;65.7500;128;74;0.43150
3617750;-0.07500;65.4375;128;74;0.42564
3617760;-0.06500;65.2500;128;74;0.42100
3617770;-0.06000;64.8750;128;74;0.41319
3617780;-0.05500;64.8125;128;74;0.40928
3617790;-0.05000;64.8125;128;74;0.40537
3617800;-0.05000;64.8125;128;74;0.40537
3617810;-0.00500;65.1250;128;74;0.39390
3617820;0.21000;65.1875;128;74;0.39023
3617830;0.69000;65.2500;128;74;0.38632
3617840;0.79000;65.2500;128;74;0.37875
3617850;0.29000;65.1875;128;74;0.37485
3617860;-0.31000;65.0625;128;74;0.37167
3617870;-0.32000;64.9375;128;74;0.36874
3617880;-0.26000;64.6250;128;74;0.36117
3617890;-0.25500;64.4375;128;74;0.35702
3617900;-0.25000;64.2500;128;74;0.35287
3617910;-0.24000;64.0625;128;74;0.34872
3617920;-0.23500;63.8125;128;74;0.34457
3617930;-0.22000;63.3125;128;74;0.33651
3617940;-0.20000;63.0625;128;74;0.33236
3617950;-0.18000;62.7500;128;74;0.32821
3617960;-0.16000;62.4375;128;74;0.32503
3617970;-0.15000;61.8125;128;74;0.31819
3617980;-0.13500;61.5000;128;74;0.31380
3617990;-0.12000;61.2500;128;74;0.30891
3618000;-0.10500;61.0000;127;74;0.30354
3618010;-0.09500;60.5625;127;74;0.29231
3618020;-0.08500;60.3750;127;74;0.28669
3618030;-0.07500;60.2500;127;74;0.28132
3618040;-0.05500;60.1250;127;74;0.27277
3618050;-0.03500;60.3125;127;74;0.27057
3618060;-0.01500;61.0000;127;74;0.26960
3618070;0.01000;62.1875;127;74;0.26862
3618080;0.03000;64.1250;127;74;0.26813
3618090;0.05500;69.6250;127;74;0.26764
3618100;0.08000;72.9375;127;74;0.26716
3618110;0.10500;76.3750;127;74;0.26642
3618120;0.13000;79.8750;127;74;0.26496
3618130;0.16000;86.4375;127;74;0.26105
3618140;0.17500;89.3750;127;74;0.25836
3618150;0.20000;92.0000;127;74;0.25568
3618160;0.22500;96.2500;127;74;0.25348
3618170;0.24500;97.8125;127;74;0.25275
3618180;0.25500;99.0000;127;74;0.25226
3618190;0.26500;99.8750;127;74;0.25226
3618200;0.25500;100.4375;127;74;0.25275
3618210;0.21500;100.8750;127;74;0.25495
3618220;0.13000;100.7500;127;74;0.25641
3618230;0.06500;100.4375;127;74;0.25763
3618240;-0.00500;99.9375;127;74;0.25861
3618250;-0.06500;98.5000;127;74;0.26007
3618260;-0.09500;97.5625;127;74;0.26081
3618270;-0.12500;96.5000;127;74;0.26081
3618280;-0.14500;94.0625;127;74;0.25910
3618290;-0.15000;92.7500;127;74;0.25812
3618300;-0.15500;91.3125;127;74;0.25714
3618310;-0.15500;89.8750;127;74;0.25665
3618320;-0.15500;86.7500;127;74;0.25861
3618330;-0.14500;85.1250;127;74;0.26252
3618340;-0.14500;83.5000;127;74;0.26935
3618350;-0.15000;81.8750;127;74;0.27937
3618360;-0.13500;79.0625;127;74;0.30525
3618370;-0.12500;77.9375;127;74;0.32430
3618380;-0.11500;77.1250;127;74;0.34725
3618390;-0.11500;76.5625;127;74;0.37338
3618400;-0.11500;76.1250;127;74;0.40147
3618410;-0.11500;75.6250;127;74;0.46007
3618420;-0.11500;75.4375;127;74;0.48864
3618430;-0.11500;75.3125;127;74;0.51600
3618440;-0.11500;75.2500;127;74;0.54164
3618450;-0.11500;75.0625;127;74;0.58291
3618460;-0.10500;75.0000;127;74;0.59756
3618470;-0.09000;74.9375;127;74;0.61221
3618480;-0.08500;74.8125;127;74;0.62564
3618490;-0.09000;74.5000;127;74;0.64713
3618500;-0.09000;74.2500;127;74;0.65519
3618510;-0.09500;74.0000;127;74;0.66129
3618520;-0.09500;73.5625;127;74;0.66764
3618530;-0.09500;73.3125;127;74;0.66789
3618540;-0.09500;73.0625;127;74;0.66618
3618550;-0.09000;72.8125;127;74;0.66252
3618560;-0.08500;72.2500;127;74;0.65031
3618570;-0.08500;71.9375;127;74;0.64225
3618580;-0.08500;71.6250;127;74;0.63272
3618590;-0.07500;71.3750;127;74;0.62198
3618600;-0.06000;71.1250;127;74;0.61026
3618610;-0.03500;70.5000;127;74;0.58388
3618620;-0.02500;70.1875;127;74;0.56972
3618630;-0.01500;69.8125;127;74;0.55531
3618640;0.02500;69.1875;127;74;0.52698
3618650;0.05000;68.8125;127;74;0.51477
3618660;0.05000;68.5000;127;74;0.50379
3618670;0.00000;68.1875;127;74;0.49280
3618680;-0.03000;67.8750;127;74;0.48254
3618690;-0.06500;67.3125;127;74;0.46398
3618700;-0.11500;67.0000;127;74;0.45617
3618710;-0.14000;66.7500;127;74;0.44908
3618720;-0.15000;66.5000;127;74;0.44274
3618730;-0.15000;66.0625;127;74;0.43199
3618740;-0.14500;65.8125;127;74;0.42759
3618750;-0.14500;65.6250;127;74;0.42344
3618760;-0.13500;65.3125;127;74;0.41709
3618770;-0.12500;65.1875;127;74;0.41416
3618780;-0.03500;65.0000;127;74;0.41123
3618790;0.43000;64.8750;127;74;0.40806
3618800;0.43000;64.8750;127;74;0.40806
3618810;0.85000;64.5000;127;74;0.39805
3618820;0.19500;64.3750;127;74;0.39438
3618830;-0.26000;64.3125;127;74;0.39096
3618840;-0.21000;64.1250;127;74;0.38364
3618850;-0.18000;64.0000;127;74;0.38046
3618860;-0.18500;63.8750;127;74;0.37778
3618870;-0.19000;63.7500;127;74;0.37436
3618880;-0.19000;63.4375;127;74;0.36703
3618890;-0.19000;63.3125;127;74;0.36337
3618900;-0.18500;63.0625;127;74;0.35946
3618910;-0.17500;62.8750;127;74;0.35556
3618920;-0.17000;62.6250;127;74;0.35165
3618930;-0.17000;62.1875;127;74;0.34359
3618940;-0.17000;61.9375;127;74;0.33944
3618950;-0.16000;61.6875;127;74;0.33529
3618960;-0.15500;61.4375;127;74;0.33187
3618970;-0.14500;60.9375;127;74;0.32576
3618980;-0.13000;60.6875;127;74;0.32186
3618990;-0.11500;60.5625;127;74;0.31770
3619000;-0.10000;60.3750;127;73;0.31380
3619010;-0.07500;60.3750;127;73;0.30598
3619020;-0.06000;60.7500;127;73;0.30232
3619030;-0.04000;61.6875;127;73;0.29866
3619040;-0.01500;63.2500;127;73;0.29524
3619050;0.00000;68.4375;127;73;0.29011
3619060;0.01500;71.7500;127;73;0.28864
3619070;0.03500;75.3125;127;73;0.29621
3619080;0.05000;82.6250;127;73;0.30818
3619090;0.08000;86.1250;127;73;0.31453
3619100;0.10000;89.3750;127;73;0.31453
3619110;0.12500;92.3125;127;73;0.31380
3619120;0.15500;94.9375;127;73;0.31306
3619130;0.19000;98.8750;127;73;0.31136
3619140;0.21500;100.2500;127;73;0.31062
3619150;0.25500;101.3750;127;73;0.30989
3619160;0.26500;102.1250;127;73;0.31013
3619170;0.25500;102.8125;127;73;0.31136
3619180;0.20500;102.8125;127;73;0.31160
3619190;0.15500;102.6250;127;73;0.31160
3619200;0.07000;101.7500;127;73;0.31160
3619210;0.01500;101.1250;127;73;0.31160
3619220;-0.03500;100.3125;127;73;0.31160
3619230;-0.07000;99.4375;127;73;0.31184
3619240;-0.09000;98.4375;127;73;0.31209
3619250;-0.10500;96.0625;127;73;0.31380
3619260;-0.11500;94.7500;127;73;0.31526
3619270;-0.11500;93.3125;127;73;0.31624
3619280;-0.11500;90.3750;127;73;0.31722
3619290;-0.11500;88.7500;127;73;0.32137
3619300;-0.11000;87.1250;127;73;0.32625
3619310;-0.10500;85.4375;127;73;0.33431
3619320;-0.09500;82.0625;127;73;0.36215
3619330;-0.09500;80.5000;127;73;0.38291
3619340;-0.09500;79.2500;127;73;0.40806
3619350;-0.08500;78.2500;127;73;0.43663
3619360;-0.08500;77.5000;127;73;0.46349
3619370;-0.08000;76.6250;127;73;0.52015
3619380;-0.07500;76.3750;127;73;0.55165
3619390;-0.07500;76.1875;127;73;0.58291
3619400;-0.08000;76.0625;127;73;0.61294
3619410;-0.09500;76.0625;127;73;0.66716
3619420;-0.10500;76.0625;127;73;0.69035
3619430;-0.10000;76.0625;127;73;0.71062
3619440;-0.09500;75.9375;127;73;0.74359
3619450;-0.09500;75.8750;127;73;0.75409
3619460;-0.10500;75.6875;127;73;0.76142
3619470;-0.11000;75.5625;127;73;0.76850
3619480;-0.11500;75.0625;127;73;0.77851
3619490;-0.11500;74.8125;127;73;0.78071
3619500;-0.12000;74.5625;127;73;0.78095
3619510;-0.12000;74.2500;127;73;0.77924
3619520;-0.12500;73.5625;127;73;0.77070
3619530;-0.12500;73.2500;127;73;0.76386
3619540;-0.12000;72.9375;127;73;0.75531
3619550;-0.10500;72.6250;127;73;0.74505
3619560;-0.08000;72.3125;127;73;0.73431
3619570;-0.05500;71.6875;127;73;0.70867
3619580;-0.03500;71.3125;127;73;0.69353
3619590;-0.02500;71.0000;127;73;0.67717
3619600;0.00000;70.6250;127;73;0.66007
3619610;0.04000;70.0000;127;73;0.62515
3619620;0.06000;69.6875;127;73;0.60806
3619630;0.03500;69.3750;127;73;0.59170
3619640;0.00000;69.0625;127;73;0.57656
3619650;-0.03000;68.5000;127;73;0.55116
3619660;-0.06500;68.2500;127;73;0.54139
3619670;-0.09500;68.0000;127;73;0.53187
3619680;-0.11000;67.4375;127;73;0.52308
3619690;-0.11000;67.1875;127;73;0.50842
3619700;-0.11000;66.9375;127;73;0.50256
3619710;-0.10500;66.7500;127;73;0.49719
3619720;-0.09500;66.4375;127;73;0.48791
3619730;-0.09000;66.3125;127;73;0.48376
3619740;-0.04000;66.2500;127;73;0.47961
3619750;0.21000;66.1250;127;73;0.47595
3619760;0.73000;66.0625;127;73;0.47253
3619770;1.00000;65.8750;127;73;0.46471
3619780;0.30000;65.7500;127;73;0.46056
3619790;-0.19500;65.6875;127;73;0.45617
3619800;-0.22000;65.6250;127;73;0.45177
3619810;-0.16000;65.5625;127;73;0.44274
3619820;-0.15500;65.5000;127;73;0.43810
3619830;-0.16000;65.3750;127;73;0.43346
3619840;-0.16000;65.3125;127;73;0.42882
3619850;-0.15500;65.0000;127;73;0.42002
3619860;-0.15000;64.8125;127;73;0.41685
3619870;-0.14000;64.6875;127;73;0.41294
3619880;-0.13500;64.5000;127;73;0.40855
3619890;-0.13000;64.0000;127;73;0.39902
3619900;-0.12500;63.7500;127;73;0.39414
3619910;-0.11500;63.5625;127;73;0.38926
3619920;-0.10500;63.3125;127;73;0.38437
3619930;-0.09500;62.8125;127;73;0.37436
3619940;-0.08500;62.6250;127;73;0.36972
3619950;-0.07500;62.3750;127;73;0.36606
3619960;-0.06500;62.2500;127;73;0.36337
3619970;-0.05000;62.3125;127;73;0.35629
3619980;-0.03500;62.7500;127;73;0.35263
3619990;-0.02500;63.8125;127;73;0.34896
3620000;-0.01500;68.0000;127;74;0.34530
3620010;0.00000;71.0625;127;74;0.33871
3620020;0.02000;74.5000;127;74;0.33578
3620030;0.04000;78.1875;127;74;0.33333
3620040;0.06500;85.6250;127;74;0.32967
3620050;0.08500;89.1250;127;74;0.32894
3620060;0.11000;92.3750;127;74;0.32894
3620070;0.14000;95.3125;127;74;0.32894
3620080;0.16000;97.8750;127;74;0.32894
3620090;0.19500;101.8125;127;74;0.32918
3620100;0.22500;103.2500;127;74;0.32967
3620110;0.25500;104.3125;127;74;0.33016
3620120;0.27500;105.0625;127;74;0.33065
3620130;0.27500;105.7500;127;74;0.33236
3620140;0.24500;105.8125;127;74;0.33333
3620150;0.17500;105.6250;127;74;0.33455
3620160;0.12000;105.3125;127;74;0.33602
3620170;0.04000;104.2500;127;74;0.33773
3620180;0.00000;103.5000;127;74;0.33822
3620190;-0.03500;102.6250;127;74;0.33871
3620200;-0.06000;101.5625;127;74;0.33919
3620210;-0.08000;99.2500;127;74;0.34017
3620220;-0.09000;97.9375;127;74;0.34066
3620230;-0.09500;96.5625;127;74;0.34139
3620240;-0.09500;93.5625;127;74;0.34432
3620250;-0.10000;91.9375;127;74;0.34774
3620260;-0.10500;90.3125;127;74;0.35263
3620270;-0.10500;88.6250;127;74;0.36068
3620280;-0.11000;86.8750;127;74;0.37265
3620290;-0.11500;83.5625;127;74;0.40977
3620300;-0.12000;82.1875;127;74;0.43468
3620310;-0.12500;81.1250;127;74;0.46300
3620320;-0.12500;79.6875;127;74;0.49402
3620330;-0.12500;79.2500;127;74;0.55946
3620340;-0.11500;78.8750;127;74;0.59219
3620350;-0.10000;78.6250;127;74;0.61929
3620360;-0.08500;78.3125;127;74;0.66838
3620370;-0.07000;78.1875;127;74;0.69304
3620380;-0.05000;78.1250;127;74;0.71624
3620390;-0.03000;78.0625;127;74;0.73724
3620400;-0.02000;78.0625;127;74;0.75580
3620410;-0.01500;78.0625;127;74;0.78535
3620420;-0.01500;78.1250;127;74;0.79658
3620430;-0.02500;78.1875;127;74;0.80562
3620440;-0.04500;78.2500;127;74;0.81245
3620450;-0.07500;78.0625;127;74;0.81832
3620460;-0.09500;77.9375;127;74;0.81734
3620470;-0.12500;77.6875;127;74;0.81563
3620480;-0.14500;77.5000;127;74;0.81221
3620490;-0.16000;76.8125;127;74;0.80147
3620500;-0.18000;76.4375;127;74;0.79365
3620510;-0.18500;76.0625;127;74;0.78437
3620520;-0.18000;75.6250;127;74;0.77387
3620530;-0.15500;74.8125;127;74;0.74872
3620540;-0.12500;74.3750;127;74;0.73431
3620550;-0.10000;73.9375;127;74;0.72015
3620560;-0.08000;73.1250;127;74;0.70623
3620570;-0.03500;72.6875;127;74;0.67521
3620580;0.01500;72.2500;127;74;0.65958
3620590;0.04000;71.8750;127;74;0.64420
3620600;0.02000;71.1250;127;74;0.61563
3620610;-0.00500;70.8125;127;74;0.60244
3620620;-0.04000;70.5000;127;74;0.58999
3620630;-0.09500;70.2500;127;74;0.57827
3620640;-0.12500;70.0000;127;74;0.56752
3620650;-0.14000;69.6250;127;74;0.54969
3620660;-0.15000;69.4375;127;74;0.54261
3620670;-0.15500;69.3125;127;74;0.53626
3620680;-0.15500;69.0625;127;74;0.53089
3620690;-0.15500;68.8750;127;74;0.52357
3620700;-0.15500;68.6875;127;74;0.52112
3620710;-0.11500;68.4375;127;74;0.51941
3620720;0.29000;68.0625;127;74;0.51624
3620730;0.79500;67.8750;127;74;0.51404
3620740;1.04000;67.6875;127;74;0.51111
3620750;0.32000;67.5000;127;74;0.50794
3620760;-0.13000;67.3125;127;74;0.50427
3620770;-0.20000;67.0625;127;74;0.49402
3620780;-0.15000;66.9375;127;74;0.48816
3620790;-0.15500;66.8125;127;74;0.48205
3620800;-0.16000;66.6875;127;74;0.47643
3620810;-0.16000;66.5000;127;74;0.46642
3620820;-0.16000;66.3750;127;74;0.46227
3620830;-0.16000;66.2500;127;74;0.45861
3620840;-0.16000;66.1250;127;74;0.45519
3620850;-0.16000;65.8750;127;74;0.44860
3620860;-0.16000;65.6875;127;74;0.44542
3620870;-0.16000;65.5000;127;74;0.44151
3620880;-0.15500;65.1250;127;74;0.43199
3620890;-0.15000;64.9375;127;74;0.42686
3620900;-0.15000;64.7500;127;74;0.42149
3620910;-0.15500;64.5625;127;74;0.41612
3620920;-0.15500;64.3750;127;74;0.41099
3620930;-0.13500;64.1875;127;74;0.40195
3620940;-0.11500;64.3750;127;74;0.39829
3620950;-0.10000;65.0625;127;74;0.39560
3620960;-0.08000;68.5625;127;74;0.39219
3620970;-0.07000;71.4375;127;74;0.39072
3620980;-0.05500;74.8750;127;74;0.38974
3620990;-0.03500;78.6875;127;74;0.38901
3621000;-0.01500;82.6250;127;74;0.38852
3621010;0.01000;90.3125;127;74;0.38779
3621020;0.04000;93.8125;127;74;0.38755
3621030;0.06000;97.0625;127;74;0.38706
3621040;0.09500;102.4375;127;74;0.38657
3621050;0.12000;104.5000;127;74;0.38681
3621060;0.15500;106.1875;127;74;0.38755
3621070;0.19500;107.5000;127;74;0.38803
3621080;0.22500;108.5000;127;74;0.38828
3621090;0.24500;109.7500;127;74;0.38877
3621100;0.24500;110.0000;127;74;0.38901
3621110;0.22500;110.0625;127;74;0.38950
3621120;0.17000;109.7500;127;74;0.37485
3621130;0.09000;109.3750;127;74;0.34139
3621140;0.04000;108.8750;127;74;0.33626
3621150;-0.01500;108.2500;127;74;0.33431
3621160;-0.06500;106.5625;127;74;0.33358
3621170;-0.08500;105.5625;127;74;0.33333
3621180;-0.10500;104.4375;127;74;0.33284
3621190;-0.11500;103.1875;127;74;0.33236
3621200;-0.12500;101.8750;127;74;0.33187
3621210;-0.13500;98.9375;127;74;0.33284
3621220;-0.13500;97.3125;127;74;0.33578
3621230;-0.14000;95.5625;127;74;0.34139
3621240;-0.14000;91.9375;127;74;0.36386
3621250;-0.13500;90.1875;127;74;0.37851
3621260;-0.13500;88.5000;127;74;0.39536
3621270;-0.13500;87.0625;127;74;0.41783
3621280;-0.13500;85.8750;127;74;0.44396
3621290;-0.13500;84.2500;127;74;0.50305
3621300;-0.13500;83.6875;127;74;0.53358
3621310;-0.13000;83.3125;127;74;0.56361
3621320;-0.12000;83.0000;127;74;0.59243
3621330;-0.11500;82.6875;127;74;0.64396
3621340;-0.10500;82.6875;127;74;0.66642
3621350;-0.10500;82.6250;127;74;0.68327
3621360;-0.10000;82.5000;127;74;0.69646
3621370;-0.10500;82.2500;127;74;0.72283
3621380;-0.10500;82.0625;127;74;0.73382
3621390;-0.10500;81.8750;127;74;0.74310
3621400;-0.10500;81.3125;127;74;0.75067
3621410;-0.10500;81.0000;127;74;0.76020
3621420;-0.10500;80.6875;127;74;0.76239
3621430;-0.10500;80.3125;127;74;0.76288
3621440;-0.10500;79.9375;127;74;0.76166
3621450;-0.10500;79.1875;127;74;0.75385
3621460;-0.10500;78.8125;127;74;0.74750
3621470;-0.10500;78.4375;127;74;0.73993
3621480;-0.11000;77.6250;127;74;0.72112
3621490;-0.10500;77.2500;127;74;0.70965
3621500;-0.08500;76.9375;127;74;0.69695
3621510;-0.04500;76.5625;127;74;0.68327
3621520;-0.01500;75.8750;127;74;0.65324
3621530;-0.01000;75.5000;127;74;0.63736
3621540;0.00000;75.1250;127;74;0.62149
3621550;0.04000;74.8125;127;74;0.60733
3621560;0.06000;74.4375;127;74;0.59414
3621570;0.04500;73.8125;127;74;0.56850
3621580;0.01500;73.4375;127;74;0.55678
3621590;-0.01000;73.1875;127;74;0.54628
3621600;-0.05500;72.8750;127;74;0.53651
3621610;-0.09500;72.3750;127;74;0.51966
3621620;-0.11500;72.1875;127;74;0.51258
3621630;-0.11500;71.9375;127;74;0.50598
3621640;-0.12000;71.7500;127;74;0.49988
3621650;-0.12000;71.3125;127;74;0.48962
3621660;-0.11500;71.1875;127;74;0.48474
3621670;-0.10500;71.0000;127;74;0.47961
3621680;-0.08500;70.6875;127;74;0.46935
3621690;0.09500;70.5625;127;74;0.46398
3621700;0.65000;70.4375;127;74;0.45861
3621710;1.12000;70.2500;127;74;0.45324
3621720;0.73500;70.1250;127;74;0.44786
3621730;-0.09500;69.7500;127;74;0.43736
3621740;-0.21500;69.5625;127;74;0.43199
3621750;-0.17500;69.3125;127;74;0.42735
3621760;-0.18000;68.8750;127;74;0.41807
3621770;-0.18000;68.6250;127;74;0.41319
3621780;-0.18000;68.3125;127;74;0.40806
3621790;-0.17000;68.0000;127;74;0.40293
3621800;-0.17000;68.0000;127;74;0.40293
3621810;-0.15000;67.0625;127;74;0.38803
3621820;-0.14000;66.7500;127;74;0.38339
3621830;-0.13000;66.3750;127;74;0.37900
3621840;-0.12500;66.0625;127;74;0.37460
3621850;-0.11000;65.3750;127;74;0.36777
3621860;-0.10500;65.0625;127;74;0.36435
3621870;-0.09000;64.6875;127;74;0.36093
3621880;-0.07000;64.1875;127;74;0.35409
3621890;-0.06000;63.9375;127;74;0.35092
3621900;-0.05500;63.8125;127;74;0.34799
3621910;-0.04000;63.8125;127;74;0.34505
3621920;-0.03500;64.1250;127;74;0.34237
3621930;-0.02000;66.6250;127;74;0.33797
3621940;-0.00500;68.9375;127;74;0.33626
3621950;0.01000;72.0000;127;74;0.33504
3621960;0.02000;75.5625;127;74;0.33455
3621970;0.04000;83.3125;127;74;0.33309
3621980;0.06000;87.1250;127;74;0.33260
3621990;0.08000;90.8750;127;74;0.33236
3622000;0.10000;94.3125;126;73;0.33236
3622010;0.13000;100.1875;126;73;0.33236
3622020;0.14500;102.5625;126;73;0.33236
3622030;0.17500;104.5625;126;73;0.33236
3622040;0.19500;106.0625;126;73;0.33236
3622050;0.22500;108.0625;126;73;0.33284
3622060;0.24500;108.6250;126;73;0.33260
3622070;0.24500;108.9375;126;73;0.33211
3622080;0.22500;109.0000;126;73;0.33114
3622090;0.17000;108.8125;126;73;0.32894
3622100;0.12000;108.3750;126;73;0.32796
3622110;0.06000;107.8750;126;73;0.32698
3622120;0.01000;107.1875;126;73;0.32576
3622130;-0.02500;105.5000;126;73;0.32283
3622140;-0.05500;104.4375;126;73;0.32112
3622150;-0.07000;103.3125;126;73;0.31966
3622160;-0.08000;102.1250;126;73;0.31868
3622170;-0.08500;99.3750;126;73;0.31575
3622180;-0.08500;97.8750;126;73;0.31453
3622190;-0.08500;96.2500;126;73;0.31453
3622200;-0.08500;94.5625;126;73;0.31648
3622210;-0.08500;90.8750;126;73;0.32967
3622220;-0.08500;89.0625;126;73;0.34237
3622230;-0.08000;87.1875;126;73;0.35922
3622240;-0.08000;84.0625;126;73;0.37998
3622250;-0.07500;82.8750;126;73;0.42100
3622260;-0.07500;81.9375;126;73;0.44591
3622270;-0.07500;81.2500;126;73;0.47277
3622280;-0.07500;80.2500;126;73;0.50037
3622290;-0.07000;80.0000;126;73;0.55311
3622300;-0.07000;79.8125;126;73;0.57680
3622310;-0.07000;79.7500;126;73;0.59829
3622320;-0.06500;79.6250;126;73;0.63370
3622330;-0.06500;79.5000;126;73;0.64762
3622340;-0.06500;79.3750;126;73;0.65910
3622350;-0.06000;79.1875;126;73;0.66642
3622360;-0.06500;78.9375;126;73;0.67082
3622370;-0.06500;78.4375;126;73;0.67790
3622380;-0.07000;78.1875;126;73;0.67912
3622390;-0.07500;77.8125;126;73;0.67888
3622400;-0.07500;77.0625;126;73;0.67717
3622410;-0.08500;76.6875;126;73;0.66886
3622420;-0.09000;76.3125;126;73;0.66227
3622430;-0.09500;75.9375;126;73;0.65421
3622440;-0.10000;75.0625;126;73;0.63492
3622450;-0.10500;74.6875;126;73;0.62418
3622460;-0.10500;74.2500;126;73;0.61197
3622470;-0.10500;73.8750;126;73;0.59829
3622480;-0.09000;73.0625;126;73;0.56752
3622490;-0.07000;72.6875;126;73;0.55067
3622500;-0.06000;72.3750;126;73;0.53309
3622510;-0.05500;72.0000;126;73;0.51502
3622520;-0.02000;71.3750;126;73;0.47961
3622530;-0.00500;71.0625;126;73;0.46276
3622540;-0.01000;70.7500;126;73;0.44664
3622550;-0.02000;70.5000;126;73;0.43346
3622560;-0.03500;70.1875;126;73;0.42222
3622570;-0.06500;69.6250;126;73;0.40024
3622580;-0.11000;69.3750;126;73;0.39023
3622590;-0.13500;69.1250;126;73;0.38071
3622600;-0.14500;68.8750;126;73;0.37192
3622610;-0.14000;68.3750;126;73;0.35629
3622620;-0.14000;68.1875;126;73;0.34921
3622630;-0.13000;67.9375;126;73;0.34261
3622640;-0.11000;67.5625;126;73;0.33651
3622650;-0.09000;67.3750;126;73;0.32747
3622660;-0.01500;67.1875;126;73;0.32234
3622670;0.39000;67.0000;126;73;0.31697
3622680;0.81000;66.8125;126;73;0.31136
3622690;0.95000;66.5000;126;73;0.30012
3622700;0.18500;66.3750;126;73;0.29451
3622710;-0.17500;66.1875;126;73;0.28864
3622720;-0.16500;66.0625;126;73;0.28278
3622730;-0.09500;65.7500;126;73;0.27179
3622740;-0.08500;65.5625;126;73;0.26642
3622750;-0.08500;65.3750;126;73;0.26252
3622760;-0.08000;65.0625;126;73;0.25519
3622770;-0.07500;64.8125;126;73;0.25079
3622780;-0.07000;64.6250;126;73;0.24615
3622790;-0.06500;64.3750;126;73;0.24151
3622800;-0.06500;64.3750;126;73;0.24151
3622810;-0.04500;63.6875;126;73;0.22735
3622820;-0.04500;63.5000;126;73;0.22295
3622830;-0.04500;63.2500;126;73;0.21856
3622840;-0.04000;62.7500;126;73;0.21148
3622850;-0.03000;62.5625;126;73;0.20952
3622860;-0.02500;62.3750;126;73;0.20659
3622870;-0.01500;62.1875;126;73;0.20317
3622880;-0.01000;61.8750;126;73;0.19658
3622890;-0.01000;61.8750;126;73;0.19341
3622900;-0.01000;62.0625;126;73;0.19048
3622910;-0.00500;62.6875;126;73;0.18755
3622920;0.00000;65.7500;126;73;0.18486
3622930;0.00500;68.2500;126;73;0.17949
3622940;0.02000;71.2500;126;73;0.17705
3622950;0.03500;74.5625;126;73;0.17607
3622960;0.05500;81.5625;126;73;0.17509
3622970;0.07000;85.0000;126;73;0.17387
3622980;0.09000;88.1875;126;73;0.17289
3622990;0.12000;91.0625;126;73;0.17241
3623000;0.15500;95.8125;125;73;0.17216
3623010;0.18000;97.6250;125;73;0.17265
3623020;0.22000;99.0625;125;73;0.17338
3623030;0.25000;100.0625;125;73;0.17460
3623040;0.26500;100.7500;125;73;0.17607
3623050;0.25500;101.1875;125;73;0.18120
3623060;0.22500;101.0625;125;73;0.18339
3623070;0.16500;100.8125;125;73;0.18559
3623080;0.08000;99.6875;125;73;0.18999
3623090;0.03000;99.0000;125;73;0.19194
3623100;-0.01500;98.1250;125;73;0.19414
3623110;-0.06500;97.1250;125;73;0.19634
3623120;-0.08500;96.0625;125;73;0.19878
3623130;-0.10000;93.7500;125;73;0.20415
3623140;-0.11000;92.5000;125;73;0.20684
3623150;-0.11500;91.1875;125;73;0.20977
3623160;-0.12000;89.8125;125;73;0.21319
3623170;-0.12500;86.8125;125;73;0.26374
3623180;-0.12500;85.1875;125;73;0.28132
3623190;-0.12500;83.5625;125;73;0.29377
3623200;-0.12000;80.4375;125;73;0.31819
3623210;-0.11500;79.1250;125;73;0.33358
3623220;-0.11000;78.1250;125;73;0.35189
3623230;-0.10500;77.3125;125;73;0.37289
3623240;-0.10500;76.8125;125;73;0.39634
3623250;-0.09500;76.1250;125;73;0.43956
3623260;-0.09500;75.9375;125;73;0.46349
3623270;-0.08500;75.8125;125;73;0.48840
3623280;-0.08500;75.6250;125;73;0.53602
3623290;-0.08500;75.6250;125;73;0.55751
3623300;-0.09000;75.5625;125;73;0.57680
3623310;-0.09000;75.5000;125;73;0.59414
3623320;-0.09500;75.3125;125;73;0.62198
3623330;-0.09500;75.1875;125;73;0.63248
3623340;-0.09500;75.0000;125;73;0.64054
3623350;-0.10500;74.7500;125;73;0.64567
3623360;-0.10500;74.5000;125;73;0.64860
3623370;-0.11500;73.8750;125;73;0.65177
3623380;-0.11500;73.5625;125;73;0.65153
3623390;-0.12500;73.3125;125;73;0.64982
3623400;-0.12500;73.0000;125;73;0.64664
3623410;-0.13000;72.3125;125;73;0.63663
3623420;-0.13000;72.0000;125;73;0.62955
3623430;-0.13000;71.6875;125;73;0.62125
3623440;-0.11500;71.0625;125;73;0.61197
3623450;-0.08000;70.7500;125;73;0.59267
3623460;-0.05500;70.4375;125;73;0.58144
3623470;-0.03500;70.1250;125;73;0.56923
3623480;-0.03000;69.8750;125;73;0.55653
3623490;0.00000;69.2500;125;73;0.53040
3623500;0.04000;69.0000;125;73;0.51795
3623510;0.04000;68.6875;125;73;0.50623
3623520;0.01500;68.5000;125;73;0.49524
3623530;-0.02500;68.0000;125;73;0.47619
3623540;-0.06500;67.7500;125;73;0.46911
3623550;-0.09500;67.5000;125;73;0.46300
3623560;-0.13500;67.2500;125;73;0.45714
3623570;-0.14500;66.7500;125;73;0.44689
3623580;-0.15500;66.5000;125;73;0.44225
3623590;-0.15500;66.3125;125;73;0.43810
3623600;-0.15500;65.8750;125;73;0.43419
3623610;-0.15500;65.6875;125;73;0.42735
3623620;-0.14500;65.5000;125;73;0.42418
3623630;-0.08500;65.3750;125;73;0.42125
3623640;0.21500;65.2500;125;73;0.41856
3623650;0.72000;65.1250;125;73;0.41612
3623660;0.88500;64.9375;125;73;0.41392
3623670;0.22000;64.8125;125;73;0.41148
3623680;-0.23500;64.7500;125;73;0.40879
3623690;-0.29000;64.5000;125;73;0.40317
3623700;-0.22000;64.3750;125;73;0.40024
3623710;-0.20500;64.2500;125;73;0.39731
3623720;-0.21000;64.1250;125;73;0.39438
3623730;-0.21000;63.8125;125;73;0.38852
3623740;-0.20500;63.5625;125;73;0.38559
3623750;-0.19500;63.3750;125;73;0.38339
3623760;-0.18000;63.1875;125;73;0.38144
3623770;-0.17000;62.7500;125;73;0.37631
3623780;-0.16000;62.5625;125;73;0.37338
3623790;-0.15000;62.3125;125;73;0.37021
3623800;-0.15000;62.3125;125;73;0.37021
3623810;-0.14500;61.8125;125;73;0.36386
3623820;-0.15000;61.3750;125;73;0.35751
3623830;-0.14500;61.1250;125;73;0.35409
3623840;-0.14000;60.9375;125;73;0.35067
3623850;-0.13500;60.5625;125;73;0.34505
3623860;-0.12500;60.4375;125;73;0.34310
3623870;-0.11500;60.4375;125;73;0.34066
3623880;-0.10500;60.6250;125;73;0.33797
3623890;-0.08500;62.3125;125;73;0.33260
3623900;-0.07500;64.1250;125;73;0.32991
3623910;-0.05500;66.6250;125;73;0.32723
3623920;-0.03500;72.8750;125;73;0.32283
3623930;-0.01000;76.3750;125;73;0.32063
3623940;0.02000;79.8125;125;73;0.31844
3623950;0.05500;83.1875;125;73;0.31722
3623960;0.08500;89.1875;125;73;0.31526
3623970;0.11000;91.6875;125;73;0.31380
3623980;0.14000;93.8125;125;73;0.31233
3623990;0.17500;95.5625;125;73;0.31111
3624000;0.20500;96.8750;125;73;0.31013
3624010;0.23000;98.5000;125;73;0.30916
3624020;0.23500;98.8750;125;73;0.30916
3624030;0.21500;98.9375;125;73;0.30940
3624040;0.15500;98.5625;125;73;0.30989
3624050;0.10000;98.1250;125;73;0.31062
3624060;0.05000;97.5625;125;73;0.31160
3624070;0.00000;96.8125;125;73;0.31233
3624080;-0.02500;96.0000;125;73;0.31282
3624090;-0.04500;94.1875;125;73;0.31404
3624100;-0.05500;93.1250;125;73;0.31477
3624110;-0.06500;92.0625;125;73;0.31575
3624120;-0.06500;90.8750;125;73;0.31673
3624130;-0.06000;88.3125;125;73;0.31893
3624140;-0.05500;86.9375;125;73;0.32063
3624150;-0.05500;85.5000;125;73;0.32308
3624160;-0.05500;82.6250;125;73;0.32650
3624170;-0.05500;81.1875;125;73;0.33797
3624180;-0.05500;79.8125;125;73;0.34774
3624190;-0.05000;78.6250;125;73;0.36068
3624200;-0.04500;76.9375;125;73;0.39609
3624210;-0.04000;76.3750;125;73;0.41807
3624220;-0.03500;75.9375;125;73;0.44176
3624230;-0.03500;75.6875;125;73;0.46667
3624240;-0.03000;75.5000;125;73;0.49182
3624250;-0.02500;75.2500;125;73;0.53724
3624260;-0.01500;75.1875;125;73;0.55507
3624270;-0.01500;75.1250;125;73;0.57387
3624280;-0.01000;74.9375;125;73;0.60855
3624290;-0.00500;74.8125;125;73;0.62320
3624300;0.00000;74.6875;125;73;0.63590
3624310;0.02000;74.5625;125;73;0.64640
3624320;0.03000;74.3750;125;73;0.65495
3624330;0.04000;73.8125;125;73;0.66545
3624340;0.06000;73.5000;125;73;0.66789
3624350;0.07500;73.1875;125;73;0.66789
3624360;0.10000;72.8750;125;73;0.66618
3624370;0.13000;72.2500;125;73;0.66032
3624380;0.14000;71.9375;125;73;0.65568
3624390;0.14500;71.5625;125;73;0.65006
3624400;0.14000;70.8750;125;73;0.63541
3624410;0.13500;70.5625;125;73;0.62662
3624420;0.13500;70.2500;125;73;0.61685
3624430;0.14000;70.0000;125;73;0.60635
3624440;0.12500;69.6875;125;73;0.59487
3624450;0.11500;69.0625;125;73;0.57118
3624460;0.13500;68.7500;125;73;0.55995
3624470;0.14500;68.4375;125;73;0.54799
3624480;0.13000;68.1875;125;73;0.53578
3624490;0.06500;67.5625;125;73;0.51233
3624500;0.03000;67.2500;125;73;0.50183
3624510;-0.00500;67.0000;125;73;0.49206
3624520;-0.07500;66.4375;125;73;0.47521
3624530;-0.10500;66.2500;125;73;0.46789
3624540;-0.13000;66.1250;125;73;0.46129
3624550;-0.14000;65.9375;125;73;0.45592
3624560;-0.14500;65.7500;125;73;0.45153
3624570;-0.13500;65.4375;125;73;0.44298
3624580;-0.13500;65.3125;125;73;0.43907
3624590;-0.12500;65.1875;125;73;0.43541
3624600;0.04500;64.9375;125;73;0.42808
3624610;0.38000;64.8125;125;73;0.42418
3624620;0.88000;64.6875;125;73;0.42027
3624630;0.61000;64.6250;125;73;0.41636
3624640;0.03000;64.5625;125;73;0.41221
3624650;-0.29500;64.3750;125;73;0.40513
3624660;-0.25000;64.3125;125;73;0.40244
3624670;-0.22000;64.1875;125;73;0.39927
3624680;-0.21500;63.9375;125;73;0.39609
3624690;-0.21000;63.6875;125;73;0.38999
3624700;-0.21000;63.5000;125;73;0.38730
3624710;-0.22000;63.3125;125;73;0.38462
3624720;-0.22000;62.8750;125;73;0.37949
3624730;-0.21000;62.6250;125;73;0.37680
3624740;-0.20000;62.4375;125;73;0.37411
3624750;-0.19000;62.1875;125;73;0.37216
3624760;-0.18000;61.9375;125;73;0.37021
3624770;-0.17500;61.4375;125;73;0.36508
3624780;-0.15500;61.1875;125;73;0.36239
3624790;-0.14500;60.9375;125;73;0.35971
3624800;-0.14500;60.9375;125;73;0.35971
3624810;-0.11000;60.3750;125;73;0.35165
3624820;-0.09500;60.2500;125;73;0.34896
3624830;-0.08500;60.1875;125;73;0.34628
3624840;-0.08000;60.2500;125;73;0.34359
3624850;-0.06500;61.5625;125;73;0.33944
3624860;-0.05500;63.1250;125;73;0.33822
3624870;-0.03500;65.4375;125;73;0.33651
3624880;-0.02000;71.5000;125;73;0.33260
3624890;-0.00500;75.0000;125;73;0.33065
3624900;0.02000;78.6250;125;73;0.32894
3624910;0.04000;82.1875;125;73;0.32698
3624920;0.07500;85.5625;125;73;0.32527
3624930;0.11000;91.4375;125;73;0.32259
3624940;0.14000;93.8750;125;73;0.32137
3624950;0.16500;96.0000;125;73;0.32112
3624960;0.21000;99.0000;125;73;0.32112
3624970;0.23500;99.9375;125;73;0.32088
3624980;0.25500;100.6250;125;73;0.32063
3624990;0.23500;101.0000;125;73;0.32039
3625000;0.19500;101.1250;125;73;0.32039
3625010;0.13000;100.8125;125;73;0.32063
3625020;0.05000;100.3750;125;73;0.32112
3625030;0.00000;99.7500;125;73;0.32161
3625040;-0.04500;99.0000;125;73;0.32234
3625050;-0.07500;97.1875;125;73;0.32430
3625060;-0.10000;96.1875;125;73;0.32576
3625070;-0.11500;95.1250;125;73;0.32698
3625080;-0.12000;92.6250;125;73;0.32772
3625090;-0.12500;91.3125;125;73;0.32918
3625100;-0.12000;89.9375;125;73;0.32991
3625110;-0.12000;88.5625;125;73;0.33138
3625120;-0.12000;85.5000;125;73;0.33748
3625130;-0.12000;83.8750;125;73;0.34359
3625140;-0.11500;82.3125;125;73;0.35263
3625150;-0.11500;80.8750;125;73;0.36313
3625160;-0.11000;79.6250;125;73;0.37558
3625170;-0.10500;77.8125;125;73;0.41343
3625180;-0.11000;77.1875;125;73;0.43687
3625190;-0.11000;76.7500;125;73;0.46252
3625200;-0.11500;76.1875;125;73;0.48913
3625210;-0.11000;76.0625;125;73;0.54164
3625220;-0.11000;76.0000;125;73;0.58071
3625230;-0.11500;75.9375;125;73;0.62686
3625240;-0.11500;75.7500;125;73;0.68742
3625250;-0.11000;75.6875;125;73;0.70647
3625260;-0.10500;75.5625;125;73;0.72454
3625270;-0.10500;75.4375;125;73;0.74066
3625280;-0.11000;75.2500;125;73;0.75458
3625290;-0.11000;74.8125;125;73;0.77509
3625300;-0.10500;74.5000;125;73;0.78193
3625310;-0.10000;74.2500;125;73;0.78632
3625320;-0.09000;73.9375;125;73;0.78877
3625330;-0.08500;73.3125;125;73;0.78706
3625340;-0.08500;72.9375;125;73;0.78291
3625350;-0.08500;72.6250;125;73;0.77705
3625360;-0.08500;71.9375;125;73;0.76117
3625370;-0.08500;71.6250;125;73;0.75116
3625380;-0.07000;71.2500;125;73;0.73968
3625390;-0.04000;70.9375;125;73;0.72650
3625400;-0.02000;70.6250;125;73;0.71209
3625410;0.00000;69.9375;125;73;0.67985
3625420;0.01000;69.6250;125;73;0.66252
3625430;0.04000;69.3125;125;73;0.64493
3625440;0.08000;68.7500;125;73;0.61221
3625450;0.07500;68.4375;125;73;0.59805
3625460;0.04000;68.1250;125;73;0.58364
3625470;0.00000;67.8750;125;73;0.56996
3625480;-0.03500;67.3750;125;73;0.54554
3625490;-0.07000;67.1250;125;73;0.53504
3625500;-0.10000;66.8750;125;73;0.52552
3625510;-0.11500;66.6250;125;73;0.51697
3625520;-0.12000;66.4375;125;73;0.50940
3625530;-0.12000;66.0625;125;73;0.49621
3625540;-0.11000;65.8750;125;73;0.49011
3625550;-0.10500;65.6875;125;73;0.48498
3625560;-0.09500;65.5625;125;73;0.48010
3625570;0.02000;65.2500;125;73;0.46984
3625580;0.50500;65.1250;125;73;0.46447
3625590;0.90000;65.0000;125;73;0.45910
3625600;0.72000;64.7500;125;73;0.44860
3625610;0.15500;64.6875;125;73;0.44322
3625620;-0.23000;64.5625;125;73;0.43785
3625630;-0.19000;64.5000;125;73;0.43248
3625640;-0.14000;64.3125;125;73;0.42198
3625650;-0.13500;64.1875;125;73;0.41758
3625660;-0.13500;64.0625;125;73;0.41270
3625670;-0.13500;63.8750;125;73;0.40757
3625680;-0.13500;63.7500;125;73;0.40244
3625690;-0.12500;63.3750;125;73;0.39243
3625700;-0.12500;63.1875;125;73;0.38730
3625710;-0.11500;63.0000;125;73;0.38217
3625720;-0.11000;62.7500;125;73;0.37705
3625730;-0.10500;62.3125;125;73;0.36654
3625740;-0.10000;62.0625;125;73;0.36142
3625750;-0.09500;61.8125;125;73;0.35751
3625760;-0.08500;61.6250;125;73;0.35409
3625770;-0.08000;61.2500;125;73;0.34505
3625780;-0.07000;61.0625;125;73;0.34042
3625790;-0.06000;61.0000;125;73;0.33578
3625800;-0.04000;61.0625;125;73;0.32723
3625810;-0.02500;61.4375;125;73;0.32332
3625820;-0.01500;62.3125;125;73;0.31966
3625830;-0.01000;63.8750;125;73;0.31624
3625840;0.00500;66.1250;125;73;0.31306
3625850;0.02000;72.4375;125;73;0.30965
3625860;0.03500;76.0625;125;73;0.30745
3625870;0.05500;79.7500;125;73;0.30501
3625880;0.07000;86.8125;125;73;0.30256
3625890;0.09500;90.0625;125;73;0.29841
3625900;0.11500;92.9375;125;73;0.29695
3625910;0.14000;95.5000;125;73;0.29548
3625920;0.18000;99.5000;125;73;0.29377
3625930;0.20500;100.8750;125;73;0.29328
3625940;0.23500;101.9375;125;73;0.29304
3625950;0.25000;102.6875;125;73;0.29377
3625960;0.23500;103.3750;125;73;0.29548
3625970;0.20000;103.4375;125;73;0.29597
3625980;0.14000;103.3750;125;73;0.29646
3625990;0.06000;103.1250;125;73;0.29719
3626000;-0.00500;102.1250;125;73;0.29890
3626010;-0.04000;101.4375;125;73;0.30012
3626020;-0.07000;100.6875;125;73;0.30159
3626030;-0.09500;99.7500;125;73;0.30305
3626040;-0.10500;98.6875;125;73;0.30452
3626050;-0.11500;96.3750;125;73;0.30818
3626060;-0.12500;95.1250;125;73;0.30989
3626070;-0.12500;93.8125;125;73;0.31136
3626080;-0.13500;90.8750;125;73;0.31551
3626090;-0.14000;89.3750;125;73;0.31990
3626100;-0.14500;87.7500;125;73;0.32723
3626110;-0.14500;86.1875;125;73;0.33846
3626120;-0.14500;84.5625;125;73;0.35409
3626130;-0.15000;81.8750;125;73;0.40024
3626140;-0.15500;80.8750;125;73;0.42979
3626150;-0.15500;80.1250;125;73;0.45763
3626160;-0.16000;79.1875;125;73;0.51770
3626170;-0.16500;78.8750;125;73;0.55214
3626180;-0.17000;78.6250;125;73;0.58681
3626190;-0.16500;78.4375;125;73;0.62051
3626200;-0.16500;78.3125;125;73;0.65226
3626210;-0.16500;78.1250;125;73;0.70867
3626220;-0.16000;78.0625;125;73;0.73284
3626230;-0.17000;78.0000;125;73;0.75409
3626240;-0.18000;77.7500;125;73;0.78584
3626250;-0.17000;77.5625;125;73;0.79536
3626260;-0.16000;77.3750;125;73;0.80488
3626270;-0.15000;77.1250;125;73;0.81294
3626280;-0.14500;76.8125;125;73;0.81954
3626290;-0.14000;76.2500;125;73;0.82637
3626300;-0.13000;75.9375;125;73;0.82686
3626310;-0.12500;75.6250;125;73;0.82540
3626320;-0.11500;75.0000;125;73;0.81685
3626330;-0.11000;74.6875;125;73;0.80977
3626340;-0.09500;74.3750;125;73;0.80122
3626350;-0.08000;74.0625;125;73;0.79145
3626360;-0.05500;73.5000;125;73;0.78046
3626370;-0.03500;73.2500;125;73;0.75409
3626380;-0.03500;73.0000;125;73;0.73871
3626390;-0.02000;72.7500;125;73;0.72234
3626400;0.01000;72.2500;125;73;0.68791
3626410;0.02000;72.0000;125;73;0.67057
3626420;0.00000;71.7500;125;73;0.65397
3626430;-0.04500;71.5000;125;73;0.63810
3626440;-0.06500;71.2500;125;73;0.62320
3626450;-0.11000;70.7500;125;73;0.59951
3626460;-0.15500;70.5000;125;73;0.58877
3626470;-0.16500;70.3125;125;73;0.57851
3626480;-0.17000;69.8750;125;73;0.56899
3626490;-0.17500;69.6250;125;73;0.55336
3626500;-0.18000;69.4375;125;73;0.54676
3626510;-0.18000;69.2500;125;73;0.54115
3626520;-0.17500;68.8750;125;73;0.53138
3626530;-0.14500;68.6875;125;73;0.52698
3626540;0.11000;68.5000;125;73;0.52283
3626550;0.68000;68.3750;125;73;0.51917
3626560;0.95000;68.0000;125;73;0.51184
3626570;0.46500;67.8750;125;73;0.50794
3626580;-0.19000;67.7500;125;73;0.50403
3626590;-0.26000;67.5625;125;73;0.50037
3626600;-0.22000;67.5000;125;73;0.49646
3626610;-0.21500;67.3125;125;73;0.48913
3626620;-0.22000;67.1875;125;73;0.48571
3626630;-0.21500;67.0625;125;73;0.48205
3626640;-0.20500;66.8750;125;73;0.47863
3626650;-0.20000;66.5625;125;73;0.47253
3626660;-0.19000;66.3750;125;73;0.46935
3626670;-0.18000;66.2500;125;73;0.46593
3626680;-0.17500;66.0625;125;73;0.46203
3626690;-0.17500;65.6875;125;73;0.45421
3626700;-0.16500;65.5000;125;73;0.45006
3626710;-0.16000;65.3750;125;73;0.44591
3626720;-0.15000;65.0000;125;73;0.44151
3626730;-0.13500;64.8125;125;73;0.43248
3626740;-0.13500;64.6875;125;73;0.42808
3626750;-0.12500;64.5625;125;73;0.42418
3626760;-0.10500;64.6875;125;73;0.41685
3626770;-0.08500;65.1875;125;73;0.41294
3626780;-0.07000;66.2500;125;73;0.40904
3626790;-0.05500;68.0625;125;73;0.40513
3626800;-0.04500;70.6250;125;73;0.40122
3626810;-0.01500;77.3750;125;73;0.39390
3626820;0.00000;81.1875;125;73;0.39072
3626830;0.02500;85.0625;125;73;0.38803
3626840;0.05500;92.4375;125;73;0.38388
3626850;0.07500;95.6875;125;73;0.38266
3626860;0.11000;98.5625;125;73;0.38144
3626870;0.13000;101.0625;125;73;0.38022
3626880;0.15500;103.1875;125;73;0.37949
3626890;0.19500;106.3125;125;73;0.37900
3626900;0.21500;107.3750;125;73;0.37924
3626910;0.23000;108.1250;125;73;0.37973
3626920;0.23500;108.8750;125;73;0.38120
3626930;0.21000;109.0000;125;73;0.38193
3626940;0.16000;108.9375;125;73;0.38291
3626950;0.08000;108.6875;125;73;0.38388
3626960;0.03000;108.3125;125;73;0.38486
3626970;-0.02000;107.2500;125;73;0.38681
3626980;-0.05500;106.5000;125;73;0.38755
3626990;-0.08000;105.6875;125;73;0.38803
3627000;-0.09500;104.7500;126;73;0.38852
3627010;-0.10500;102.6250;126;73;0.38926
3627020;-0.11500;101.3750;126;73;0.38926
3627030;-0.12500;100.0625;126;73;0.38950
3627040;-0.12500;97.2500;126;73;0.39243
3627050;-0.12500;95.6875;126;73;0.39585
3627060;-0.12500;94.0625;126;73;0.40220
3627070;-0.12500;92.4375;126;73;0.41221
3627080;-0.12500;89.3750;126;73;0.44567
3627090;-0.12000;88.0625;126;73;0.46911
3627100;-0.11000;87.0000;126;73;0.49621
3627110;-0.11500;86.1250;126;73;0.52650
3627120;-0.11500;85.3750;126;73;0.55849
3627130;-0.11500;84.3125;126;73;0.62320
3627140;-0.11000;83.9375;126;73;0.65006
3627150;-0.11000;83.6250;126;73;0.67350
3627160;-0.11500;83.1875;126;73;0.72357
3627170;-0.12000;83.0625;126;73;0.74676
3627180;-0.12000;82.8750;126;73;0.76801
3627190;-0.12000;82.6875;126;73;0.78657
3627200;-0.12000;82.2500;126;73;0.81612
3627210;-0.12000;82.0000;126;73;0.82735
3627220;-0.12000;81.6875;126;73;0.83663
3627230;-0.12000;81.3750;126;73;0.84396
3627240;-0.11500;80.6875;126;73;0.85104
3627250;-0.11500;80.2500;126;73;0.85055
3627260;-0.11500;79.8750;126;73;0.84982
3627270;-0.11500;79.4375;126;73;0.82198
3627280;-0.11000;79.0625;126;73;0.77973
3627290;-0.11000;78.1875;126;73;0.74017
3627300;-0.11000;77.6875;126;73;0.72821
3627310;-0.10500;77.2500;126;73;0.71746
3627320;-0.08500;76.4375;126;73;0.69573
3627330;-0.06500;76.0625;126;73;0.68376
3627340;-0.03500;75.6875;126;73;0.67155
3627350;-0.02500;75.3125;126;73;0.65934
3627360;-0.01500;75.0000;126;73;0.64591
3627370;0.01000;74.3125;126;73;0.61783
3627380;0.03500;74.0000;126;73;0.60391
3627390;0.05500;73.7500;126;73;0.59048
3627400;0.05000;73.2500;126;73;0.56557
3627410;0.03500;73.0000;126;73;0.55433
3627420;0.01000;72.8125;126;73;0.54408
3627430;-0.03000;72.6250;126;73;0.53455
3627440;-0.07000;72.2500;126;73;0.51868
3627450;-0.08000;72.0625;126;73;0.51233
3627460;-0.08500;71.9375;126;73;0.50598
3627470;-0.09500;71.8750;126;73;0.49988
3627480;-0.10500;71.8125;126;73;0.49402
3627490;-0.11000;71.8750;126;73;0.48230
3627500;-0.12500;71.8750;126;73;0.47668
3627510;-0.10000;71.8125;126;73;0.47082
3627520;0.19500;71.6875;126;73;0.46496
3627530;0.80500;71.5625;126;73;0.45324
3627540;1.05000;71.5000;126;73;0.44811
3627550;0.23000;71.3750;126;73;0.44298
3627560;-0.22500;71.2500;126;73;0.43761
3627570;-0.28000;70.9375;126;73;0.42613
3627580;-0.24000;70.6875;126;73;0.42051
3627590;-0.24500;70.5625;126;73;0.41514
3627600;-0.24500;70.1875;126;73;0.40977
3627610;-0.23500;70.0000;126;73;0.39902
3627620;-0.22000;69.7500;126;73;0.39390
3627630;-0.20000;69.5625;126;73;0.38877
3627640;-0.19000;69.3125;126;73;0.38388
3627650;-0.18000;68.7500;126;73;0.37582
3627660;-0.16500;68.5000;126;73;0.37118
3627670;-0.15500;68.2500;126;73;0.36581
3627680;-0.14500;67.7500;126;73;0.36020
3627690;-0.12500;67.5000;126;73;0.34847
3627700;-0.11000;67.2500;126;73;0.34286
3627710;-0.09500;67.0000;126;73;0.33748
3627720;-0.07500;66.5625;126;73;0.32845
3627730;-0.06000;66.3750;126;73;0.32527
3627740;-0.03500;66.3125;126;73;0.32332
3627750;-0.03000;66.5000;126;73;0.32234
3627760;-0.03500;67.1875;126;73;0.32137
3627770;-0.01500;70.7500;126;73;0.32063
3627780;0.01000;73.6250;126;73;0.32063
3627790;0.03500;76.9375;126;73;0.32063
3627800;0.07500;84.2500;126;73;0.32039
3627810;0.10000;87.9375;126;73;0.31990
3627820;0.12000;91.5000;126;73;0.31941
3627830;0.14000;94.8125;126;73;0.31893
3627840;0.16500;100.3750;126;73;0.31893
3627850;0.18000;102.6250;126;73;0.31990
3627860;0.20500;104.4375;126;73;0.32112
3627870;0.23000;105.9375;126;73;0.32283
3627880;0.24500;107.8125;126;73;0.32723
3627890;0.25000;108.3750;126;73;0.32943
3627900;0.24000;108.6875;126;73;0.33162
3627910;0.20500;108.7500;126;73;0.33382
3627920;0.15000;108.5625;126;73;0.33529
3627930;0.07000;108.2500;126;73;0.33602
3627940;0.01500;107.7500;126;73;0.33602
3627950;-0.04500;107.1250;126;73;0.33578
3627960;-0.07500;106.3125;126;73;0.33455
3627970;-0.10000;104.5000;126;73;0.33089
3627980;-0.12500;103.5000;126;73;0.32869
3627990;-0.13500;102.3125;126;73;0.32650
3628000;-0.15000;101.1250;126;73;0.32430
3628010;-0.15500;98.3750;126;73;0.32088
3628020;-0.15500;96.8750;126;73;0.32063
3628030;-0.15000;95.3125;126;73;0.32210
3628040;-0.14500;91.9375;126;73;0.32625
3628050;-0.13500;90.3125;126;73;0.34042
3628060;-0.13000;88.6875;126;73;0.35287
3628070;-0.13500;87.2500;126;73;0.36947
3628080;-0.13500;86.0625;126;73;0.38974
3628090;-0.12500;84.1875;126;73;0.43858
3628100;-0.11000;83.4375;126;73;0.46496
3628110;-0.10500;82.8750;126;73;0.49133
3628120;-0.10000;82.0000;126;73;0.54139
3628130;-0.09500;81.7500;126;73;0.56435
3628140;-0.09000;81.5000;126;73;0.58242
3628150;-0.08500;81.2500;126;73;0.59731
3628160;-0.08500;81.0625;126;73;0.61270
3628170;-0.08500;80.5625;126;73;0.64029
3628180;-0.08500;80.3125;126;73;0.65153
3628190;-0.08500;80.0625;126;73;0.66081
3628200;-0.08500;79.7500;126;73;0.66813
3628210;-0.10000;79.1250;126;73;0.67692
3628220;-0.10500;78.8125;126;73;0.67863
3628230;-0.10500;78.4375;126;73;0.67839
3628240;-0.11000;77.6875;126;73;0.67643
3628250;-0.12000;77.3125;126;73;0.66716
3628260;-0.12000;76.9375;126;73;0.66105
3628270;-0.11500;76.5625;126;73;0.65372
3628280;-0.10500;76.1875;126;73;0.64493
3628290;-0.08000;75.5000;126;73;0.62369
3628300;-0.04500;75.1875;126;73;0.61123
3628310;-0.02500;74.8125;126;73;0.59756
3628320;-0.01500;74.4375;126;73;0.58291
3628330;0.00000;73.6875;126;73;0.55189
3628340;0.04000;73.3125;126;73;0.53748
3628350;0.05000;73.0000;126;73;0.52357
3628360;0.01000;72.3125;126;73;0.49377
3628370;-0.02000;72.0000;126;73;0.47912
3628380;-0.05000;71.6875;126;73;0.46496
3628390;-0.10000;71.3750;126;73;0.45153
3628400;-0.13000;71.0625;126;73;0.43907
3628410;-0.14500;70.5000;126;73;0.41685
3628420;-0.15000;70.2500;126;73;0.40708
3628430;-0.14500;69.9375;126;73;0.39805
3628440;-0.12500;69.4375;126;73;0.38266
3628450;-0.11000;69.1875;126;73;0.37680
3628460;-0.10500;69.0000;126;73;0.37070
3628470;-0.06500;68.7500;126;73;0.36459
3628480;0.27500;68.3125;126;73;0.35263
3628490;0.70000;68.1250;126;73;0.34701
3628500;0.93000;67.9375;126;73;0.34139
3628510;0.41000;67.7500;126;73;0.33578
3628520;-0.17000;67.5625;126;73;0.33016
3628530;-0.23000;67.2500;126;73;0.31917
3628540;-0.15500;67.1250;126;73;0.31477
3628550;-0.13500;66.9375;126;73;0.31111
3628560;-0.13500;66.5625;126;73;0.30672
3628570;-0.13500;66.3750;126;73;0.29719
3628580;-0.13000;66.1875;126;73;0.29206
3628590;-0.12500;65.9375;126;73;0.28718
3628600;-0.11500;65.5000;126;73;0.27741
3628610;-0.11500;65.2500;126;73;0.27277
3628620;-0.11500;65.0000;126;73;0.26813
3628630;-0.11000;64.6875;126;73;0.26374
3628640;-0.10500;64.4375;126;73;0.25934
3628650;-0.09500;64.0000;126;73;0.25348
3628660;-0.09000;63.7500;126;73;0.25006
3628670;-0.07500;63.5625;126;73;0.24640
3628680;-0.06500;63.3125;126;73;0.24274
3628690;-0.05500;63.0000;126;73;0.23492
3628700;-0.03500;62.8750;126;73;0.23101
3628710;-0.02500;62.8125;126;73;0.22735
3628720;-0.01000;63.5625;126;73;0.22369
3628730;0.01000;64.6875;126;73;0.21685
3628740;0.02000;66.4375;126;73;0.21465
3628750;0.04500;68.8125;126;73;0.21343
3628760;0.06500;75.0000;126;73;0.20928
3628770;0.08000;78.4375;126;73;0.20684
3628780;0.10500;81.9375;126;73;0.20464
3628790;0.13500;85.3125;126;73;0.20293
3628800;0.16500;91.3125;126;73;0.19976
3628810;0.19500;93.8750;126;73;0.19878
3628820;0.23500;96.0625;126;73;0.19780
3628830;0.26500;97.8125;126;73;0.19731
3628840;0.31000;100.2500;126;73;0.19853
3628850;0.32500;100.9375;126;73;0.19902
3628860;0.31000;101.3750;126;73;0.19951
3628870;0.26000;101.4375;126;73;0.20000
3628880;0.21000;101.3125;126;73;0.20073
3628890;0.14000;100.4375;126;73;0.20220
3628900;0.07000;99.8125;126;73;0.20317
3628910;0.01000;99.0625;126;73;0.20440
3628920;-0.03500;98.1875;126;73;0.20562
3628930;-0.06000;96.1250;126;73;0.20904
3628940;-0.07500;95.0000;126;73;0.21123
3628950;-0.08000;93.8125;126;73;0.21368
3628960;-0.08500;91.1875;126;73;0.21758
3628970;-0.09000;89.8125;126;73;0.21954
3628980;-0.10500;88.3125;126;73;0.22149
3628990;-0.11500;86.8125;126;73;0.22393
3629000;-0.11500;83.6250;125;73;0.23297
3629010;-0.10500;82.0000;125;73;0.24078
3629020;-0.10500;80.5000;125;73;0.25153
3629030;-0.09500;79.1875;125;73;0.26593
3629040;-0.09500;78.1875;125;73;0.28156
3629050;-0.09000;76.8125;125;73;0.32137
3629060;-0.08500;76.4375;125;73;0.34676
3629070;-0.08000;76.1875;125;73;0.37411
3629080;-0.08000;76.0000;125;73;0.40244
3629090;-0.08500;75.8125;125;73;0.45788
3629100;-0.08500;75.7500;125;73;0.48352
3629110;-0.08500;75.7500;125;73;0.50720
3629120;-0.08500;75.6875;125;73;0.54701
3629130;-0.08500;75.6250;125;73;0.56337
3629140;-0.08500;75.5000;125;73;0.57534
3629150;-0.07500;75.3750;125;73;0.58388
3629160;-0.07500;74.8750;125;73;0.59853
3629170;-0.07500;74.5625;125;73;0.60342
3629180;-0.07500;74.3125;125;73;0.60635
3629190;-0.08000;74.0000;125;73;0.60757
3629200;-0.08000;73.6875;125;73;0.60708
3629210;-0.07500;73.0625;125;73;0.60098
3629220;-0.07500;72.7500;125;73;0.59560
3629230;-0.06500;72.3750;125;73;0.58877
3629240;-0.05500;72.0625;125;73;0.58120
3629250;-0.03500;71.4375;125;73;0.56313
3629260;-0.00500;71.1250;125;73;0.55189
3629270;0.01000;70.8125;125;73;0.53919
3629280;0.01000;70.5000;125;73;0.52552
3629290;0.04000;69.8750;125;73;0.49621
3629300;0.08000;69.5625;125;73;0.48107
3629310;0.10000;69.3125;125;73;0.46593
3629320;0.05000;68.7500;125;73;0.45983
3629330;0.01500;68.5000;125;73;0.45446
3629340;-0.01500;68.2500;125;73;0.44835
3629350;-0.05000;68.0000;125;73;0.44200
3629360;-0.09000;67.7500;125;73;0.43516
3629370;-0.10500;67.2500;125;73;0.42247
3629380;-0.11000;67.0625;125;73;0.41709
3629390;-0.11000;66.8750;125;73;0.41221
3629400;-0.11000;66.6250;125;73;0.40806
3629410;-0.10500;66.2500;125;73;0.40049
3629420;-0.09500;66.1250;125;73;0.39707
3629430;-0.05500;65.9375;125;73;0.39390
3629440;0.18500;65.8125;125;73;0.39121
3629450;0.75500;65.5625;125;73;0.38584
3629460;0.90000;65.4375;125;73;0.38291
3629470;0.41000;65.3125;125;73;0.37998
3629480;-0.23000;65.0000;125;73;0.37387
3629490;-0.23500;64.8750;125;73;0.37094
3629500;-0.16500;64.7500;125;73;0.36777
3629510;-0.15000;64.6250;125;73;0.36459
3629520;-0.15500;64.5000;125;73;0.36117
3629530;-0.15500;64.1875;125;73;0.35385
3629540;-0.15000;64.0000;125;73;0.35092
3629550;-0.13500;63.8125;125;73;0.34847
3629560;-0.13500;63.6875;125;73;0.34554
3629570;-0.12500;63.3125;125;73;0.33871
3629580;-0.12500;63.0625;125;73;0.33529
3629590;-0.12500;62.8125;125;73;0.33187
3629600;-0.12500;62.5625;125;73;0.32845
3629610;-0.11500;62.0625;125;73;0.32210
3629620;-0.10500;61.8750;125;73;0.31868
3629630;-0.09500;61.6250;125;73;0.31526
3629640;-0.08500;61.2500;125;73;0.31282
3629650;-0.07500;61.0625;125;73;0.30818
3629660;-0.06500;60.9375;125;73;0.30549
3629670;-0.05000;60.8750;125;73;0.30256
3629680;-0.03000;61.5000;125;73;0.29670
3629690;-0.01500;62.5625;125;73;0.29402
3629700;-0.00500;64.3125;125;73;0.29133
3629710;0.01000;66.6875;125;73;0.28889
3629720;0.02000;69.5625;125;73;0.28669
3629730;0.04500;76.1875;125;73;0.28278
3629740;0.07000;79.6875;125;73;0.28181
3629750;0.09500;83.0000;125;73;0.28132
3629760;0.13000;89.0625;125;73;0.27961
3629770;0.15500;91.6250;125;73;0.27863
3629780;0.19000;93.8750;125;73;0.27766
3629790;0.23000;95.6875;125;73;0.27692
3629800;0.23000;95.6875;125;73;0.27692
3629810;0.27000;98.8750;125;73;0.27546
3629820;0.27500;99.2500;125;73;0.27570
3629830;0.24500;99.3750;125;73;0.27619
3629840;0.16500;98.9375;125;73;0.27912
3629850;0.11000;98.4375;125;73;0.28034
3629860;0.04000;97.7500;125;73;0.28156
3629870;-0.01000;96.9375;125;73;0.28254
3629880;-0.06000;95.0625;125;73;0.28425
3629890;-0.08000;94.0000;125;73;0.28523
3629900;-0.09500;92.8750;125;73;0.28620
3629910;-0.10500;91.6875;125;73;0.28718
3629920;-0.12000;90.3750;125;73;0.28840
3629930;-0.12500;87.6875;125;73;0.29084
3629940;-0.13500;86.2500;125;73;0.29231
3629950;-0.13500;84.8125;125;73;0.29451
3629960;-0.13000;81.8125;125;73;0.30159
3629970;-0.13000;80.3750;125;73;0.30745
3629980;-0.12500;79.0000;125;73;0.31624
3629990;-0.12000;77.8750;125;73;0.32845
3630000;-0.11500;76.9375;125;73;0.34432
3630010;-0.11500;75.8125;125;73;0.38657
3630020;-0.11500;75.5000;125;73;0.41172
3630030;-0.11500;75.2500;125;73;0.43834
3630040;-0.11000;75.1250;125;73;0.46178
3630050;-0.10500;74.9375;125;73;0.50794
3630060;-0.10500;74.9375;125;73;0.53187
3630070;-0.10500;74.8750;125;73;0.55458
3630080;-0.10500;74.7500;125;73;0.57558
3630090;-0.10500;74.6875;125;73;0.61074
