RelativeTimeMilliseconds,ECG,ART,ART (Sys),ART (Dia),PPG
4200000,-0.09500,86.1875,134,76,0.43199
4200010,-0.12500,85.2500,134,76,0.40024
4200020,-0.13000,84.7500,134,76,0.38608
4200030,-0.13500,84.3750,134,76,0.37314
4200040,-0.13000,83.6250,134,76,0.35311
4200050,-0.12500,83.2500,134,76,0.34628
4200060,-0.11500,82.9375,134,76,0.33944
4200070,-0.07500,82.6875,134,76,0.33309
4200080,0.16500,82.1875,134,76,0.32747
4200090,0.75000,82.0000,134,76,0.31770
4200100,0.90500,81.8750,134,76,0.31331
4200110,0.24500,81.6875,134,76,0.30916
4200120,-0.20000,81.5000,134,76,0.30549
4200130,-0.26500,81.1250,134,76,0.29768
4200140,-0.18500,80.9375,134,76,0.29402
4200150,-0.17500,80.7500,134,76,0.29231
4200160,-0.17000,80.5625,134,76,0.29060
4200170,-0.17000,80.0625,134,76,0.28547
4200180,-0.16500,79.8125,134,76,0.28254
4200190,-0.16000,79.5000,134,76,0.27961
4200200,-0.15500,78.8750,134,76,0.27326
4200210,-0.15000,78.5625,134,76,0.26984
4200220,-0.14500,78.2500,134,76,0.26642
4200230,-0.13500,77.9375,134,76,0.26300
4200240,-0.12500,77.1875,134,76,0.25665
4200250,-0.11500,76.8125,134,76,0.25446
4200260,-0.10500,76.5000,134,76,0.25128
4200270,-0.09500,76.1875,134,76,0.24762
4200280,-0.09000,75.9375,134,76,0.24396
4200290,-0.07500,75.3750,134,76,0.23639
4200300,-0.06500,75.2500,134,76,0.23272
4200310,-0.05500,75.4375,134,76,0.22906
4200320,-0.04000,77.6250,134,76,0.22564
4200330,-0.02000,80.0000,134,76,0.21905
4200340,-0.00500,83.3125,134,76,0.21612
4200350,0.01000,87.4375,134,76,0.21416
4200360,0.04000,97.1250,134,76,0.21074
4200370,0.06000,102.2500,134,76,0.20830
4200380,0.08500,107.3750,134,76,0.20488
4200390,0.12000,112.3125,134,76,0.20171
4200400,0.14000,116.7500,134,76,0.19951
4200410,0.17500,123.8750,134,76,0.19463
4200420,0.22000,126.4375,134,76,0.19243
4200430,0.24500,128.4375,134,76,0.19048
4200440,0.26500,129.8125,134,76,0.18877
4200450,0.25500,131.1875,134,76,0.18852
4200460,0.22000,131.3125,134,76,0.18828
4200470,0.15500,131.0000,134,76,0.18779
4200480,0.07000,129.6875,134,76,0.18706
4200490,0.02000,128.6250,134,76,0.18706
4200500,-0.03500,127.4375,134,76,0.18755
4200510,-0.07000,126.0000,134,76,0.18803
4200520,-0.08500,122.7500,134,76,0.18852
4200530,-0.09500,120.8750,134,76,0.19096
4200540,-0.10500,118.9375,134,76,0.19316
4200550,-0.10500,116.8125,134,76,0.19463
4200560,-0.11500,112.3125,134,76,0.20024
4200570,-0.11500,109.8750,134,76,0.20488
4200580,-0.12000,107.3125,134,76,0.20952
4200590,-0.12000,104.7500,134,76,0.21807
4200600,-0.11500,102.3125,134,76,0.23663
4200610,-0.11500,98.1250,134,76,0.27375
4200620,-0.10500,96.6875,134,76,0.30501
4200630,-0.09500,95.6250,134,76,0.34408
4200640,-0.09000,94.8750,134,76,0.37167
4200650,-0.08500,94.1875,134,76,0.42808
4200660,-0.08000,94.0625,134,76,0.48010
4200670,-0.07500,94.0625,134,76,0.54090
4200680,-0.07500,94.1875,134,76,0.61050
4200690,-0.07500,94.2500,134,76,0.63272
4200700,-0.07500,94.3125,134,76,0.64982
4200710,-0.07500,94.2500,134,76,0.66349
4200720,-0.07500,94.1250,134,76,0.67424
4200730,-0.07500,93.7500,134,76,0.68742
4200740,-0.07500,93.5000,134,76,0.68987
4200750,-0.07500,93.1250,134,76,0.69158
4200760,-0.06000,92.7500,134,76,0.69182
4200770,-0.02500,91.8125,134,76,0.68742
4200780,-0.00500,91.3125,134,76,0.68230
4200790,0.00000,90.8125,134,76,0.67546
4200800,0.00000,90.8125,134,76,0.67546
4200810,0.05000,89.3125,134,76,0.64444
4200820,0.05000,89.3125,134,76,0.64444
4200830,0.04000,88.3125,134,76,0.61612
4200840,0.00000,87.2500,134,76,0.58828
4200850,-0.02000,86.6875,134,76,0.57289
4200860,-0.05500,86.1875,134,76,0.55678
4200870,-0.09500,85.6875,134,76,0.54066
4200880,-0.12500,84.7500,134,76,0.51111
4200890,-0.12500,84.3125,134,76,0.49841
4200900,-0.12500,83.8750,134,76,0.48694
4200910,-0.12500,83.5000,134,76,0.47692
4200920,-0.12000,83.1250,134,76,0.46813
4200930,-0.10500,82.4375,134,76,0.45446
4200940,-0.06500,82.1250,134,76,0.44982
4200950,0.16000,81.8750,134,76,0.44493
4200960,0.76500,81.4375,134,76,0.43614
4200970,0.89000,81.2500,134,76,0.43223
4200980,0.43000,81.0000,134,76,0.42882
4200990,-0.19000,80.8125,134,76,0.42564
4201000,-0.24000,80.5000,134,76,0.41954
4201010,-0.18500,80.3125,134,76,0.41661
4201020,-0.17000,80.1250,134,76,0.41392
4201030,-0.17000,79.8750,134,76,0.41123
4201040,-0.16000,79.4375,134,76,0.40757
4201050,-0.15500,79.1875,134,76,0.40562
4201060,-0.15500,78.9375,134,76,0.40342
4201070,-0.14500,78.6250,134,76,0.40098
4201080,-0.14000,78.3125,134,76,0.39829
4201090,-0.13500,77.6875,134,76,0.39243
4201100,-0.13500,77.3125,134,76,0.38950
4201110,-0.12500,77.0000,134,76,0.38608
4201120,-0.11500,76.3125,134,76,0.37900
4201130,-0.10500,76.0000,134,76,0.37607
4201140,-0.09500,75.7500,134,76,0.37338
4201150,-0.08500,75.5000,134,76,0.36996
4201160,-0.06500,75.0625,134,76,0.36215
4201170,-0.05500,75.0625,134,76,0.35800
4201180,-0.04000,75.5000,134,76,0.35409
4201190,-0.02500,76.5625,134,76,0.35018
4201200,-0.01000,78.5000,134,76,0.34628
4201210,0.01000,85.2500,134,76,0.33871
4201220,0.03000,89.8125,134,76,0.33529
4201230,0.05000,94.8125,134,76,0.33187
4201240,0.08000,105.3125,134,76,0.32796
4201250,0.10000,110.4375,134,76,0.32552
4201260,0.13000,115.2500,134,76,0.32283
4201270,0.14500,119.5625,134,76,0.32039
4201280,0.16500,123.3125,134,76,0.31819
4201290,0.20000,128.8125,134,76,0.31429
4201300,0.24000,130.5625,134,76,0.31282
4201310,0.25500,131.8750,134,76,0.31184
4201320,0.24000,132.6250,134,76,0.31111
4201330,0.19500,133.0625,134,76,0.31111
4201340,0.14500,132.7500,134,76,0.31184
4201350,0.07500,132.1875,134,76,0.31233
4201360,0.00000,130.3750,134,76,0.31306
4201370,-0.03500,129.0625,134,76,0.31355
4201380,-0.06500,127.6250,134,76,0.31404
4201390,-0.08500,126.0000,134,76,0.31453
4201400,-0.10500,124.3125,134,76,0.31502
4201410,-0.11500,120.4375,134,76,0.31648
4201420,-0.11500,118.3750,134,76,0.31819
4201430,-0.11500,116.1250,134,76,0.32112
4201440,-0.11500,113.7500,134,76,0.32552
4201450,-0.11500,108.8125,134,76,0.34164
4201460,-0.11500,106.1875,134,76,0.35556
4201470,-0.10500,103.5625,134,76,0.37363
4201480,-0.10000,98.8125,134,76,0.42100
4201490,-0.09500,97.1250,134,76,0.44884
4201500,-0.09000,95.8125,134,76,0.47790
4201510,-0.08500,95.0000,134,76,0.50745
4201520,-0.08500,94.2500,134,76,0.56386
4201530,-0.08500,94.1250,134,76,0.58632
4201540,-0.08000,94.2500,134,76,0.60513
4201550,-0.08000,94.3750,134,76,0.62418
4201560,-0.08000,94.5625,134,76,0.64200
4201570,-0.08000,94.8125,134,76,0.67228
4201580,-0.08000,94.8750,134,76,0.68425
4201590,-0.08000,94.8125,134,76,0.69402
4201600,-0.08000,94.3750,134,76,0.70696
4201610,-0.07500,94.0625,134,76,0.71038
4201620,-0.07500,93.7500,134,76,0.71160
4201630,-0.06000,93.3125,134,76,0.71111
4201640,-0.03000,92.3750,134,76,0.70403
4201650,-0.01000,91.8750,134,76,0.69841
4201660,0.00000,91.2500,134,76,0.69158
4201670,0.01500,90.6250,134,76,0.68303
4201680,0.05000,90.0625,134,76,0.67326
4201690,0.08000,88.8750,134,76,0.64908
4201700,0.06500,88.3125,134,76,0.63492
4201710,0.02500,87.7500,134,76,0.61954
4201720,-0.00500,86.6875,134,76,0.60317
4201730,-0.05000,86.1250,134,76,0.57143
4201740,-0.08500,85.6250,134,76,0.55775
4201750,-0.11000,85.1875,134,76,0.54335
4201760,-0.11500,84.3125,134,76,0.51648
4201770,-0.12000,83.9375,134,76,0.50476
4201780,-0.12500,83.6250,134,76,0.49451
4201790,-0.12500,83.3125,134,76,0.48571
4201800,-0.11000,82.6875,134,76,0.47179
4201810,-0.11000,82.6875,134,76,0.47179
4201820,0.19500,82.1875,134,76,0.46178
4201830,0.62000,82.0000,134,76,0.45763
4201840,0.96000,81.6250,134,76,0.45104
4201850,0.52500,81.4375,134,76,0.44762
4201860,-0.13500,81.2500,134,76,0.44396
4201870,-0.26000,81.0625,134,76,0.44029
4201880,-0.17500,80.6875,134,76,0.43346
4201890,-0.16000,80.5000,134,76,0.43004
4201900,-0.16000,80.2500,134,76,0.42637
4201910,-0.15500,80.0000,134,76,0.42271
4201920,-0.15500,79.7500,134,76,0.41905
4201930,-0.15000,79.1250,134,76,0.41294
4201940,-0.14500,78.7500,134,76,0.41074
4201950,-0.14000,78.3750,134,76,0.40781
4201960,-0.13000,78.0000,134,76,0.40464
4201970,-0.12000,77.2500,134,76,0.39829
4201980,-0.10500,76.9375,134,76,0.39487
4201990,-0.09500,76.5625,134,76,0.39170
4202000,-0.09000,76.2500,134,76,0.38828
4202010,-0.07500,75.6250,134,76,0.38193
4202020,-0.07000,75.3750,134,76,0.37875
4202030,-0.05500,75.1250,134,76,0.37582
4202040,-0.04500,75.2500,134,76,0.37387
4202050,-0.03500,75.9375,134,76,0.36972
4202060,-0.02000,77.4375,134,76,0.36703
4202070,0.00000,79.9375,134,76,0.36435
4202080,0.01500,83.3750,134,76,0.36142
4202090,0.03500,92.6875,134,76,0.35556
4202100,0.06000,98.0000,134,76,0.35287
4202110,0.07500,103.4375,134,76,0.35018
4202120,0.10000,114.0625,134,76,0.34481
4202130,0.12000,118.7500,134,76,0.34286
4202140,0.14500,122.9375,134,76,0.34164
4202150,0.18500,126.3750,134,76,0.33968
4202160,0.20500,129.1875,134,76,0.33748
4202170,0.24500,132.9375,134,76,0.33309
4202180,0.25500,134.0000,134,76,0.33138
4202190,0.25000,134.6250,134,76,0.32991
4202200,0.21500,134.9375,134,76,0.32845
4202210,0.16000,134.5625,134,76,0.32576
4202220,0.07500,134.0625,134,76,0.32479
4202230,0.02500,133.2500,134,76,0.32479
4202240,-0.02000,132.2500,134,76,0.32552
4202250,-0.05500,129.6875,134,76,0.32625
4202260,-0.07000,128.1875,134,76,0.32674
4202270,-0.08500,126.5625,134,76,0.32723
4202280,-0.09500,122.8125,134,76,0.32869
4202290,-0.10000,120.8125,134,76,0.33040
4202300,-0.10500,118.6875,134,76,0.33358
4202310,-0.10500,116.3750,134,76,0.33944
4202320,-0.11000,111.4375,134,76,0.36215
4202330,-0.10500,108.7500,134,76,0.37705
4202340,-0.10500,106.0000,134,76,0.39438
4202350,-0.10500,103.4375,134,76,0.41661
4202360,-0.09500,101.1250,134,76,0.44274
4202370,-0.09000,97.8750,134,76,0.50110
4202380,-0.08500,96.8750,134,76,0.53065
4202390,-0.08000,96.2500,134,76,0.55897
4202400,-0.08000,95.8125,134,76,0.61001
4202410,-0.08000,95.8125,134,76,0.63199
4202420,-0.07500,95.8750,134,76,0.65128
4202430,-0.07000,96.0000,134,76,0.66569
4202440,-0.06500,96.1875,134,76,0.68767
4202450,-0.07000,96.2500,134,76,0.69768
4202460,-0.07000,96.1875,134,76,0.70623
4202470,-0.07000,96.0625,134,76,0.71306
4202480,-0.07500,95.8125,134,76,0.71819
4202490,-0.07000,95.1250,134,76,0.72357
4202500,-0.05500,94.6875,134,76,0.72357
4202510,-0.03000,94.2500,134,76,0.72210
4202520,-0.01000,93.1875,134,76,0.71893
4202530,0.00000,92.6250,134,76,0.70745
4202540,0.02000,92.0625,134,76,0.69988
4202550,0.05000,91.5000,134,76,0.69084
4202560,0.07500,90.3750,134,76,0.66789
4202570,0.06000,89.8125,134,76,0.65421
4202580,0.02000,89.2500,134,76,0.63956
4202590,0.00000,88.6875,134,76,0.62393
4202600,-0.04000,88.1875,134,76,0.60781
4202610,-0.09000,87.3125,134,76,0.57582
4202620,-0.10500,86.8750,134,76,0.56044
4202630,-0.11000,86.4375,134,76,0.54750
4202640,-0.11500,85.6250,134,76,0.52479
4202650,-0.11000,85.2500,134,76,0.51453
4202660,-0.10500,84.9375,134,76,0.50549
4202670,-0.10000,84.6250,134,76,0.49744
4202680,-0.06500,84.3750,134,76,0.49035
4202690,0.17500,83.8750,134,76,0.47863
4202700,0.83000,83.6875,134,76,0.47350
4202710,0.95000,83.4375,134,76,0.46154
4202720,0.63000,83.2500,134,76,0.44591
4202730,-0.16000,82.8125,134,76,0.42906
4202740,-0.25000,82.6250,134,76,0.42418
4202750,-0.18500,82.4375,134,76,0.41954
4202760,-0.16500,82.2500,134,76,0.41514
4202770,-0.16500,81.8750,134,76,0.40659
4202780,-0.16000,81.6250,134,76,0.40244
4202790,-0.16000,81.3750,134,76,0.39829
4202800,-0.16000,81.3750,134,76,0.39829
4202810,-0.15500,80.5000,134,76,0.38632
4202820,-0.14500,80.1875,134,76,0.38217
4202830,-0.13500,79.8125,134,76,0.37875
4202840,-0.12500,79.1875,134,76,0.37289
4202850,-0.12000,78.8750,134,76,0.36947
4202860,-0.11000,78.5625,134,76,0.36606
4202870,-0.10000,78.2500,134,76,0.36288
4202880,-0.08500,77.7500,134,76,0.35653
4202890,-0.07500,77.5625,134,76,0.35336
4202900,-0.06000,77.3750,134,76,0.35018
4202910,-0.05000,77.3750,134,76,0.34701
4202920,-0.03500,79.1875,134,76,0.34066
4202930,-0.02000,81.4375,134,76,0.33871
4202940,-0.00500,84.7500,134,76,0.33724
4202950,0.01000,88.9375,134,76,0.33504
4202960,0.03000,93.9375,134,76,0.33236
4202970,0.05000,105.0625,134,76,0.32674
4202980,0.07000,110.6875,134,76,0.32405
4202990,0.09500,116.1250,134,76,0.32161
4203000,0.12000,121.1875,135,77,0.31941
4203010,0.15500,129.5000,135,77,0.31551
4203020,0.18000,132.5625,135,77,0.31429
4203030,0.21000,135.0000,135,77,0.31404
4203040,0.23500,138.0625,135,77,0.31404
4203050,0.24500,138.8125,135,77,0.31355
4203060,0.23500,139.1875,135,77,0.31331
4203070,0.20500,139.2500,135,77,0.31306
4203080,0.14500,138.5625,135,77,0.31306
4203090,0.08000,137.8750,135,77,0.31306
4203100,0.01500,136.9375,135,77,0.31306
4203110,-0.04500,135.8750,135,77,0.31331
4203120,-0.06500,134.6875,135,77,0.31380
4203130,-0.08500,131.8125,135,77,0.31551
4203140,-0.09500,130.2500,135,77,0.31697
4203150,-0.10500,128.5625,135,77,0.31819
4203160,-0.11500,124.6875,135,77,0.32332
4203170,-0.11500,122.5625,135,77,0.32869
4203180,-0.11500,120.3125,135,77,0.33748
4203190,-0.11500,117.8750,135,77,0.35067
4203200,-0.11500,115.3750,135,77,0.36899
4203210,-0.11500,110.3750,135,77,0.42051
4203220,-0.11000,108.1250,135,77,0.45250
4203230,-0.10000,106.2500,135,77,0.48230
4203240,-0.09500,104.6875,135,77,0.51087
4203250,-0.08500,102.5625,135,77,0.57729
4203260,-0.08500,101.9375,135,77,0.61001
4203270,-0.08000,101.5000,135,77,0.64078
4203280,-0.08000,101.1250,135,77,0.69426
4203290,-0.08000,101.1250,135,77,0.71673
4203300,-0.08500,101.0625,135,77,0.73626
4203310,-0.08500,101.0000,135,77,0.75336
4203320,-0.08500,100.8750,135,77,0.76825
4203330,-0.08500,100.5000,135,77,0.78877
4203340,-0.08500,100.1875,135,77,0.79414
4203350,-0.08500,99.8750,135,77,0.79927
4203360,-0.08000,99.0000,135,77,0.80659
4203370,-0.06500,98.5000,135,77,0.80757
4203380,-0.03500,97.9375,135,77,0.80659
4203390,-0.00500,97.3750,135,77,0.80391
4203400,0.00000,96.7500,135,77,0.79951
4203410,0.01500,95.5625,135,77,0.78535
4203420,0.06000,94.9375,135,77,0.77582
4203430,0.07500,94.3125,135,77,0.76508
4203440,0.06000,93.6875,135,77,0.75336
4203450,0.03000,92.5625,135,77,0.72503
4203460,-0.00500,92.0000,135,77,0.70916
4203470,-0.04500,91.5000,135,77,0.69280
4203480,-0.09500,90.4375,135,77,0.66032
4203490,-0.11500,89.9375,135,77,0.64469
4203500,-0.12500,89.5000,135,77,0.63004
4203510,-0.12500,89.0625,135,77,0.61661
4203520,-0.12500,88.6875,135,77,0.60464
4203530,-0.12000,88.0000,135,77,0.58535
4203540,-0.11500,87.6875,135,77,0.57802
4203550,-0.10000,87.3750,135,77,0.57118
4203560,0.10000,87.0625,135,77,0.56508
4203570,0.78000,86.5625,135,77,0.55482
4203580,1.05000,86.3125,135,77,0.55018
4203590,0.63000,86.1250,135,77,0.54603
4203600,-0.16000,85.7500,135,77,0.53748
4203610,-0.24000,85.5625,135,77,0.53309
4203620,-0.16000,85.3750,135,77,0.52869
4203630,-0.14500,85.1250,135,77,0.52454
4203640,-0.16000,84.6875,135,77,0.51575
4203650,-0.18000,84.4375,135,77,0.51087
4203660,-0.18500,84.1250,135,77,0.50598
4203670,-0.18000,83.8125,135,77,0.50110
4203680,-0.17000,83.5000,135,77,0.49597
4203690,-0.16000,82.8125,135,77,0.48571
4203700,-0.15500,82.4375,135,77,0.48059
4203710,-0.15000,82.1250,135,77,0.47546
4203720,-0.14000,81.3750,135,77,0.46545
4203730,-0.13500,81.0000,135,77,0.46129
4203740,-0.11500,80.6875,135,77,0.45739
4203750,-0.10500,80.3750,135,77,0.45299
4203760,-0.09000,79.8750,135,77,0.44396
4203770,-0.08500,79.8750,135,77,0.43956
4203780,-0.07000,80.2500,135,77,0.43541
4203790,-0.05500,81.2500,135,77,0.43150
4203800,-0.05500,81.2500,135,77,0.43150
4203810,-0.02500,90.5000,135,77,0.42051
4203820,-0.00500,95.4375,135,77,0.41709
4203830,0.02000,100.9375,135,77,0.41441
4203840,0.04000,112.5000,135,77,0.41001
4203850,0.05000,118.0625,135,77,0.40781
4203860,0.08000,123.3125,135,77,0.40562
4203870,0.10500,128.0000,135,77,0.40342
4203880,0.13500,132.0625,135,77,0.40171
4203890,0.16500,137.9375,135,77,0.39927
4203900,0.19000,139.8750,135,77,0.39878
4203910,0.21500,141.3125,135,77,0.39829
4203920,0.23000,142.2500,135,77,0.39805
4203930,0.22000,143.0000,135,77,0.39780
4203940,0.18500,142.9375,135,77,0.39805
4203950,0.13000,142.5625,135,77,0.39780
4203960,0.06000,142.0625,135,77,0.39731
4203970,-0.00500,140.3750,135,77,0.39658
4203980,-0.04500,139.3125,135,77,0.39585
4203990,-0.07500,138.1250,135,77,0.39512
4204000,-0.10000,135.3750,135,77,0.39365
4204010,-0.10500,133.8125,135,77,0.39292
4204020,-0.11500,132.1250,135,77,0.39292
4204030,-0.12000,130.2500,135,77,0.39390
4204040,-0.12000,128.1875,135,77,0.39658
4204050,-0.12500,123.6250,135,77,0.41148
4204060,-0.12500,121.1250,135,77,0.42540
4204070,-0.12500,118.5000,135,77,0.44396
4204080,-0.12500,115.8750,135,77,0.46764
4204090,-0.12500,111.0625,135,77,0.52625
4204100,-0.12500,109.1250,135,77,0.55873
4204110,-0.12000,107.5625,135,77,0.59145
4204120,-0.11500,106.3750,135,77,0.62369
4204130,-0.10500,104.7500,135,77,0.67204
4204140,-0.10000,104.3750,135,77,0.69524
4204150,-0.10000,104.0625,135,77,0.71795
4204160,-0.09500,103.8125,135,77,0.73871
4204170,-0.09500,103.6875,135,77,0.77363
4204180,-0.09500,103.5625,135,77,0.78755
4204190,-0.09500,103.3750,135,77,0.79951
4204200,-0.09500,103.1875,135,77,0.80952
4204210,-0.09500,102.6250,135,77,0.82320
4204220,-0.09000,102.2500,135,77,0.82711
4204230,-0.08500,101.8125,135,77,0.82808
4204240,-0.07500,101.3125,135,77,0.82686
4204250,-0.05500,100.2500,135,77,0.82271
4204260,-0.02500,99.6250,135,77,0.81880
4204270,-0.01500,99.0625,135,77,0.81343
4204280,-0.00500,97.8125,135,77,0.80635
4204290,0.02500,97.1875,135,77,0.78730
4204300,0.04500,96.5625,135,77,0.77534
4204310,0.03000,95.9375,135,77,0.76190
4204320,0.00000,95.3750,135,77,0.74725
4204330,-0.03000,94.1875,135,77,0.71819
4204340,-0.07500,93.6875,135,77,0.70208
4204350,-0.11500,93.1250,135,77,0.68571
4204360,-0.14500,92.6250,135,77,0.66960
4204370,-0.15500,91.7500,135,77,0.63980
4204380,-0.15500,91.3125,135,77,0.62637
4204390,-0.15500,90.8750,135,77,0.61441
4204400,-0.14000,90.0625,135,77,0.59487
4204410,-0.14000,89.6250,135,77,0.58681
4204420,-0.12500,89.3125,135,77,0.57998
4204430,0.01500,88.9375,135,77,0.57411
4204440,0.52500,88.6250,135,77,0.56899
4204450,1.06500,88.0000,135,77,0.55946
4204460,0.79500,87.6875,135,77,0.55507
4204470,0.02500,87.3750,135,77,0.55067
4204480,-0.25500,87.0625,135,77,0.54628
4204490,-0.19500,86.5000,135,77,0.53700
4204500,-0.18500,86.1250,135,77,0.53211
4204510,-0.19000,85.7500,135,77,0.52698
4204520,-0.19000,85.0000,135,77,0.51697
4204530,-0.19000,84.5625,135,77,0.51233
4204540,-0.18000,84.1250,135,77,0.50720
4204550,-0.17000,83.6875,135,77,0.50208
4204560,-0.16500,83.1875,135,77,0.49670
4204570,-0.16000,82.2500,135,77,0.48596
4204580,-0.15500,81.8750,135,77,0.48059
4204590,-0.15000,81.4375,135,77,0.47521
4204600,-0.14000,81.0000,135,77,0.46984
4204610,-0.13000,80.2500,135,77,0.45934
4204620,-0.11500,79.8750,135,77,0.45421
4204630,-0.09500,79.5625,135,77,0.45006
4204640,-0.08500,79.2500,135,77,0.44615
4204650,-0.07500,79.3750,135,77,0.43785
4204660,-0.05500,80.1875,135,77,0.43394
4204670,-0.04500,81.9375,135,77,0.43004
4204680,-0.03000,84.7500,135,77,0.42662
4204690,-0.01000,93.5000,135,77,0.42051
4204700,0.00000,98.8750,135,77,0.41758
4204710,0.02000,104.5625,135,77,0.41465
4204720,0.04500,110.3125,135,77,0.41172
4204730,0.07500,121.2500,135,77,0.40830
4204740,0.10000,126.0000,135,77,0.40635
4204750,0.12000,130.0625,135,77,0.40440
4204760,0.15000,136.1250,135,77,0.35946
4204770,0.17500,138.1250,135,77,0.34579
4204780,0.20500,139.5625,135,77,0.33846
4204790,0.22000,140.4375,135,77,0.33431
4204800,0.22000,140.4375,135,77,0.33431
4204810,0.18500,140.9375,135,77,0.32869
4204820,0.13000,140.5625,135,77,0.32723
4204830,0.06500,139.9375,135,77,0.32625
4204840,-0.00500,138.1875,135,77,0.32430
4204850,-0.04500,137.0625,135,77,0.32283
4204860,-0.07000,135.8125,135,77,0.32112
4204870,-0.09500,134.4375,135,77,0.31917
4204880,-0.11000,131.2500,135,77,0.31526
4204890,-0.12000,129.5000,135,77,0.31355
4204900,-0.12500,127.5625,135,77,0.31282
4204910,-0.12500,125.5000,135,77,0.31404
4204920,-0.12500,123.2500,135,77,0.31819
4204930,-0.12500,118.2500,135,77,0.33333
4204940,-0.12500,115.5625,135,77,0.34750
4204950,-0.12000,112.8750,135,77,0.36630
4204960,-0.12000,110.3750,135,77,0.38901
4204970,-0.11500,106.1875,135,77,0.44298
4204980,-0.10500,104.5625,135,77,0.47155
4204990,-0.10500,103.3750,135,77,0.49915
4205000,-0.10500,101.7500,134,77,0.54872
4205010,-0.10000,101.3125,134,77,0.56972
4205020,-0.09500,101.0625,134,77,0.58779
4205030,-0.09500,100.8750,134,77,0.60098
4205040,-0.09500,100.7500,134,77,0.61099
4205050,-0.09500,100.5625,134,77,0.62857
4205060,-0.09500,100.3750,134,77,0.63492
4205070,-0.09500,100.1250,134,77,0.63932
4205080,-0.09500,99.8750,134,77,0.64176
4205090,-0.08500,99.0625,134,77,0.64103
4205100,-0.06000,98.6250,134,77,0.63834
4205110,-0.04000,98.1250,134,77,0.63419
4205120,-0.02000,97.0000,134,77,0.62100
4205130,-0.01000,96.3750,134,77,0.61294
4205140,0.01500,95.7500,134,77,0.60317
4205150,0.05000,95.1250,134,77,0.59194
4205160,0.06000,94.5000,134,77,0.57949
4205170,0.01500,93.2500,134,77,0.55043
4205180,-0.01000,92.6250,134,77,0.53431
4205190,-0.04500,92.0000,134,77,0.51697
4205200,-0.08500,91.3750,134,77,0.49890
4205210,-0.12500,90.3125,134,77,0.46154
4205220,-0.14000,89.8125,134,77,0.44298
4205230,-0.14500,89.3125,134,77,0.42686
4205240,-0.14500,88.8125,134,77,0.41270
4205250,-0.14500,87.9375,134,77,0.38388
4205260,-0.13500,87.5625,134,77,0.37070
4205270,-0.13000,87.1875,134,77,0.35849
4205280,-0.04500,86.8125,134,77,0.34725
4205290,0.42000,86.1875,134,77,0.32821
4205300,0.87000,85.8750,134,77,0.31990
4205310,0.64000,85.6250,134,77,0.31258
4205320,0.06500,85.3750,134,77,0.30574
4205330,-0.29000,84.8750,134,77,0.29597
4205340,-0.24000,84.6250,134,77,0.29109
4205350,-0.19500,84.3125,134,77,0.28596
4205360,-0.19000,83.7500,134,77,0.27521
4205370,-0.19000,83.3750,134,77,0.26984
4205380,-0.19000,83.0000,134,77,0.26447
4205390,-0.18500,82.6250,134,77,0.25910
4205400,-0.18000,82.2500,134,77,0.25372
4205410,-0.17000,81.5000,134,77,0.24322
4205420,-0.16500,81.1250,134,77,0.23810
4205430,-0.16000,80.6875,134,77,0.23419
4205440,-0.15500,80.3125,134,77,0.23077
4205450,-0.14500,79.5000,134,77,0.22222
4205460,-0.13500,79.1250,134,77,0.21758
4205470,-0.12500,78.8125,134,77,0.21294
4205480,-0.11500,78.5625,134,77,0.20806
4205490,-0.10500,78.0000,134,77,0.19878
4205500,-0.09500,77.7500,134,77,0.19438
4205510,-0.08000,77.7500,134,77,0.19023
4205520,-0.06000,78.9375,134,77,0.18339
4205530,-0.05000,80.6875,134,77,0.18144
4205540,-0.03000,83.3750,134,77,0.17827
4205550,-0.01000,86.9375,134,77,0.17460
4205560,0.00500,91.2500,134,77,0.17094
4205570,0.02500,101.2500,134,77,0.16313
4205580,0.05500,106.5625,134,77,0.15946
4205590,0.07500,111.6875,134,77,0.15604
4205600,0.10500,116.5625,134,77,0.15238
4205610,0.13500,124.6875,134,77,0.14554
4205620,0.17500,127.8125,134,77,0.14237
4205630,0.19500,130.1875,134,77,0.14066
4205640,0.22000,133.1250,134,77,0.13797
4205650,0.22500,133.7500,134,77,0.13602
4205660,0.19500,134.0000,134,77,0.13407
4205670,0.13000,133.8750,134,77,0.13260
4205680,0.07000,133.3750,134,77,0.13138
4205690,0.00000,131.6875,134,77,0.13016
4205700,-0.06500,130.5000,134,77,0.13040
4205710,-0.09000,129.1250,134,77,0.13114
4205720,-0.11500,127.5625,134,77,0.13236
4205730,-0.13500,123.9375,134,77,0.13773
4205740,-0.14500,121.9375,134,77,0.14017
4205750,-0.14500,119.8125,134,77,0.14261
4205760,-0.15000,117.5625,134,77,0.14554
4205770,-0.15000,112.6875,134,77,0.15482
4205780,-0.14500,110.0625,134,77,0.16313
4205790,-0.14500,107.3125,134,77,0.17509
4205800,-0.14000,102.1250,134,77,0.21172
4205810,-0.13500,100.0000,134,77,0.23663
4205820,-0.13000,98.3750,134,77,0.26520
4205830,-0.12500,97.1250,134,77,0.29255
4205840,-0.11500,95.8125,134,77,0.35043
4205850,-0.11500,95.5625,134,77,0.38217
4205860,-0.10500,95.5625,134,77,0.41343
4205870,-0.10500,95.6250,134,77,0.44298
4205880,-0.10500,95.8750,134,77,0.49426
4205890,-0.10500,96.0000,134,77,0.51551
4205900,-0.10500,96.0625,134,77,0.53382
4205910,-0.10500,96.1250,134,77,0.54921
4205920,-0.10500,96.0625,134,77,0.56215
4205930,-0.11000,95.6875,134,77,0.57705
4205940,-0.11000,95.4375,134,77,0.58217
4205950,-0.10500,95.0625,134,77,0.58584
4205960,-0.08500,94.1875,134,77,0.58779
4205970,-0.06500,93.6875,134,77,0.58584
4205980,-0.04000,93.1250,134,77,0.58193
4205990,-0.03000,92.5000,134,77,0.57582
4206000,-0.01500,91.9375,134,77,0.56801
4206010,0.02000,90.7500,134,77,0.54652
4206020,0.04000,90.1250,134,77,0.53480
4206030,0.02500,89.5000,134,77,0.52234
4206040,-0.01500,88.9375,134,77,0.50769
4206050,-0.04500,87.8750,134,77,0.47399
4206060,-0.07500,87.3125,134,77,0.45641
4206070,-0.12000,86.7500,134,77,0.43907
4206080,-0.13500,86.2500,134,77,0.42247
4206090,-0.14500,85.3750,134,77,0.39365
4206100,-0.14500,84.9375,134,77,0.38169
4206110,-0.14500,84.6250,134,77,0.37118
4206120,-0.14000,84.2500,134,77,0.36239
4206130,-0.13500,83.6875,134,77,0.35067
4206140,-0.06500,83.3750,134,77,0.34579
4206150,0.14000,83.1875,134,77,0.34115
4206160,0.62500,82.8125,134,77,0.33675
4206170,0.85500,82.6250,134,77,0.32869
4206180,0.38000,82.4375,134,77,0.32479
4206190,-0.22500,82.3125,134,77,0.32112
4206200,-0.29500,82.1250,134,77,0.31770
4206210,-0.22000,81.8125,134,77,0.31062
4206220,-0.20000,81.6250,134,77,0.30794
4206230,-0.20000,81.4375,134,77,0.30574
4206240,-0.19500,81.1250,134,77,0.30281
4206250,-0.19000,80.5625,134,77,0.29621
4206260,-0.18000,80.2500,134,77,0.29255
4206270,-0.17500,79.9375,134,77,0.28889
4206280,-0.16500,79.2500,134,77,0.28083
4206290,-0.16000,78.8750,134,77,0.27668
4206300,-0.14500,78.5000,134,77,0.27253
4206310,-0.13500,78.1250,134,77,0.26886
4206320,-0.12500,77.6875,134,77,0.26520
4206330,-0.11500,77.0625,134,77,0.26056
4206340,-0.10500,76.7500,134,77,0.25763
4206350,-0.09500,76.5000,134,77,0.25446
4206360,-0.08500,76.2500,134,77,0.25104
4206370,-0.07500,76.0000,134,77,0.24371
4206380,-0.06000,76.4375,134,77,0.24005
4206390,-0.04000,77.5625,134,77,0.23663
4206400,-0.02500,79.5625,134,77,0.23321
4206410,-0.00500,86.3125,134,77,0.22735
4206420,0.00500,90.8750,134,77,0.22564
4206430,0.02500,95.8750,134,77,0.22442
4206440,0.06000,106.3750,134,77,0.22002
4206450,0.08000,111.5000,134,77,0.21709
4206460,0.10500,116.2500,134,77,0.21416
4206470,0.13500,120.5000,134,77,0.21148
4206480,0.16000,124.1250,134,77,0.20879
4206490,0.19500,129.3125,134,77,0.20415
4206500,0.22500,131.0000,134,77,0.20220
4206510,0.23500,132.1250,134,77,0.20073
4206520,0.23000,132.7500,134,77,0.19951
4206530,0.17000,132.8750,134,77,0.19951
4206540,0.11500,132.4375,134,77,0.19902
4206550,0.04500,131.7500,134,77,0.19853
4206560,-0.02500,129.6250,134,77,0.19780
4206570,-0.06000,128.2500,134,77,0.19805
4206580,-0.09000,126.6875,134,77,0.19853
4206590,-0.11500,125.0000,134,77,0.19927
4206600,-0.12000,123.1875,134,77,0.20000
4206610,-0.13000,119.1250,134,77,0.20220
4206620,-0.13500,116.9375,134,77,0.20415
4206630,-0.13500,114.6250,134,77,0.20733
4206640,-0.13500,109.6250,134,77,0.21197
4206650,-0.13500,107.0000,134,77,0.22930
4206660,-0.13000,104.3750,134,77,0.24420
4206670,-0.12500,101.9375,134,77,0.26398
4206680,-0.11500,98.2500,134,77,0.31673
4206690,-0.11500,97.0625,134,77,0.34774
4206700,-0.11000,96.1875,134,77,0.38071
4206710,-0.10500,95.6250,134,77,0.41416
4206720,-0.10500,95.3125,134,77,0.44713
4206730,-0.10000,95.2500,134,77,0.49817
4206740,-0.09500,95.3750,134,77,0.52283
4206750,-0.10000,95.5000,134,77,0.54628
4206760,-0.10000,95.6250,134,77,0.56777
4206770,-0.10500,95.8125,134,77,0.60269
4206780,-0.10500,95.7500,134,77,0.61636
4206790,-0.11000,95.5625,134,77,0.62759
4206800,-0.11000,95.5625,134,77,0.62759
4206810,-0.11000,94.6875,134,77,0.71062
4206820,-0.10000,94.3125,134,77,0.73114
4206830,-0.07000,93.8125,134,77,0.73993
4206840,-0.04500,93.3125,134,77,0.74286
4206850,-0.02500,92.1875,134,77,0.73748
4206860,-0.02000,91.6250,134,77,0.73114
4206870,0.01000,91.0000,134,77,0.72259
4206880,0.03500,90.3750,134,77,0.71209
4206890,0.04500,89.1875,134,77,0.68571
4206900,0.00000,88.6250,134,77,0.67009
4206910,-0.02500,88.0625,134,77,0.65348
4206920,-0.05500,87.0000,134,77,0.62051
4206930,-0.09000,86.5000,134,77,0.60586
4206940,-0.12500,86.0625,134,77,0.59072
4206950,-0.14500,85.6250,134,77,0.57582
4206960,-0.14500,85.1875,134,77,0.56166
4206970,-0.14500,84.4375,134,77,0.53773
4206980,-0.14500,84.0625,134,77,0.52796
4206990,-0.14500,83.8125,134,77,0.51941
4207000,-0.13500,83.5000,135,77,0.51209
4207010,0.01000,83.0625,135,77,0.50012
4207020,0.42500,82.8750,135,77,0.49573
4207030,0.81500,82.6875,135,77,0.49206
4207040,0.77500,82.5000,135,77,0.48791
4207050,-0.04500,82.1875,135,77,0.47961
4207060,-0.30000,82.0625,135,77,0.47546
4207070,-0.25000,81.8750,135,77,0.47155
4207080,-0.20000,81.5625,135,77,0.46325
4207090,-0.19500,81.3125,135,77,0.45910
4207100,-0.19000,81.0625,135,77,0.45495
4207110,-0.18000,80.8125,135,77,0.45079
4207120,-0.17500,80.5000,135,77,0.44689
4207130,-0.17000,79.8750,135,77,0.44103
4207140,-0.16500,79.5000,135,77,0.43785
4207150,-0.15500,79.1250,135,77,0.43443
4207160,-0.15000,78.7500,135,77,0.43077
4207170,-0.14500,78.0625,135,77,0.42320
4207180,-0.13500,77.6875,135,77,0.41954
4207190,-0.12000,77.3125,135,77,0.41587
4207200,-0.11500,77.0000,135,77,0.41245
4207210,-0.10000,76.4375,135,77,0.40513
4207220,-0.09500,76.1250,135,77,0.40244
4207230,-0.07500,75.8750,135,77,0.40024
4207240,-0.06000,76.3125,135,77,0.39731
4207250,-0.05000,77.4375,135,77,0.39048
4207260,-0.03500,79.4375,135,77,0.38706
4207270,-0.01500,82.4375,135,77,0.38388
4207280,0.00000,91.0625,135,77,0.37753
4207290,0.01500,96.1875,135,77,0.37460
4207300,0.03000,101.5625,135,77,0.37167
4207310,0.05000,107.0000,135,77,0.36874
4207320,0.08000,117.1250,135,77,0.36361
4207330,0.10000,121.4375,135,77,0.36215
4207340,0.13000,125.1250,135,77,0.36020
4207350,0.16000,128.1875,135,77,0.35800
4207360,0.20500,132.3125,135,77,0.35360
4207370,0.22500,133.5000,135,77,0.35140
4207380,0.22500,134.2500,135,77,0.34921
4207390,0.20500,134.5625,135,77,0.34725
4207400,0.16500,134.5625,135,77,0.34554
4207410,0.10000,133.6875,135,77,0.34286
4207420,0.02000,132.8125,135,77,0.34237
4207430,-0.03500,131.7500,135,77,0.34261
4207440,-0.06500,129.1250,135,77,0.34261
4207450,-0.09500,127.5000,135,77,0.34310
4207460,-0.11500,125.7500,135,77,0.34310
4207470,-0.12500,123.8750,135,77,0.34335
4207480,-0.13000,121.8750,135,77,0.34383
4207490,-0.13000,117.5000,135,77,0.34725
4207500,-0.13500,115.1250,135,77,0.35140
4207510,-0.13500,112.6250,135,77,0.35849
4207520,-0.13500,110.0000,135,77,0.36923
4207530,-0.13000,104.6875,135,77,0.39780
4207540,-0.12500,102.3125,135,77,0.41905
4207550,-0.12500,100.2500,135,77,0.44518
4207560,-0.12000,98.6875,135,77,0.47473
4207570,-0.11500,96.7500,135,77,0.53944
4207580,-0.11500,96.3125,135,77,0.57192
4207590,-0.11500,96.0625,135,77,0.60317
4207600,-0.11000,96.0000,135,77,0.63248
4207610,-0.10500,96.1875,135,77,0.68352
4207620,-0.10500,96.3125,135,77,0.70208
4207630,-0.10500,96.3750,135,77,0.71673
4207640,-0.10500,96.3125,135,77,0.74530
4207650,-0.10500,96.1875,135,77,0.75726
4207660,-0.10500,96.0000,135,77,0.76703
4207670,-0.10500,95.7500,135,77,0.77485
4207680,-0.10500,95.3750,135,77,0.78071
4207690,-0.08500,94.5000,135,77,0.78584
4207700,-0.06500,94.0000,135,77,0.78510
4207710,-0.03500,93.4375,135,77,0.78242
4207720,-0.03000,92.3750,135,77,0.77118
4207730,-0.01500,91.8125,135,77,0.76313
4207740,0.02000,91.2500,135,77,0.75336
4207750,0.04000,90.6250,135,77,0.74212
4207760,0.02000,90.0625,135,77,0.72894
4207770,-0.02500,88.8750,135,77,0.69841
4207780,-0.05000,88.3750,135,77,0.68107
4207790,-0.08500,87.8125,135,77,0.66300
4207800,-0.08500,87.8125,135,77,0.66300
4207810,-0.15500,86.3750,135,77,0.61001
4207820,-0.16000,85.9375,135,77,0.59560
4207830,-0.16000,85.5000,135,77,0.58315
4207840,-0.15500,85.1250,135,77,0.57094
4207850,-0.14500,84.3750,135,77,0.54969
4207860,-0.14500,84.0625,135,77,0.54090
4207870,-0.11000,83.8125,135,77,0.53284
4207880,0.13000,83.5000,135,77,0.52552
4207890,0.72000,83.0625,135,77,0.51331
4207900,0.91000,82.8750,135,77,0.50794
4207910,0.43500,82.6875,135,77,0.50305
4207920,-0.25000,82.3125,135,77,0.49499
4207930,-0.28000,82.1250,135,77,0.49084
4207940,-0.20500,81.9375,135,77,0.48669
4207950,-0.19000,81.7500,135,77,0.48230
4207960,-0.19000,81.5000,135,77,0.47790
4207970,-0.19000,81.0625,135,77,0.46935
4207980,-0.18500,80.7500,135,77,0.46496
4207990,-0.18000,80.4375,135,77,0.46056
4208000,-0.17500,80.0625,136,77,0.45641
4208010,-0.17000,79.3750,136,77,0.44835
4208020,-0.16500,79.0000,136,77,0.44493
4208030,-0.15500,78.6875,136,77,0.44200
4208040,-0.15000,77.9375,136,77,0.43834
4208050,-0.14000,77.5625,136,77,0.43004
4208060,-0.13000,77.2500,136,77,0.42564
4208070,-0.12000,76.9375,136,77,0.42149
4208080,-0.10500,76.3750,136,77,0.41319
4208090,-0.08500,76.1875,136,77,0.40928
4208100,-0.07500,76.3125,136,77,0.40513
4208110,-0.06000,77.0000,136,77,0.40098
4208120,-0.04500,80.8750,136,77,0.39780
4208130,-0.02500,84.2500,136,77,0.39170
4208140,-0.01000,88.5625,136,77,0.38803
4208150,0.01000,93.5000,136,77,0.38413
4208160,0.03500,104.3125,136,77,0.37631
4208170,0.06000,109.8125,136,77,0.37265
4208180,0.08000,115.0625,136,77,0.36899
4208190,0.12000,119.8750,136,77,0.36581
4208200,0.14000,124.0625,136,77,0.36288
4208210,0.17000,130.3750,136,77,0.35751
4208220,0.20500,132.5625,136,77,0.35604
4208230,0.22500,134.1875,136,77,0.35507
4208240,0.24000,135.2500,136,77,0.35360
4208250,0.22500,136.1250,136,77,0.35043
4208260,0.19000,136.0625,136,77,0.34896
4208270,0.12500,135.6875,136,77,0.34750
4208280,0.05500,134.2500,136,77,0.34505
4208290,0.00000,133.1875,136,77,0.34432
4208300,-0.04500,132.0000,136,77,0.34383
4208310,-0.08500,130.6250,136,77,0.34359
4208320,-0.10000,129.0625,136,77,0.34408
4208330,-0.11500,125.6250,136,77,0.34554
4208340,-0.12000,123.6875,136,77,0.34579
4208350,-0.12500,121.6250,136,77,0.34676
4208360,-0.12500,119.4375,136,77,0.34896
4208370,-0.12500,114.6250,136,77,0.36142
4208380,-0.12500,111.9375,136,77,0.37338
4208390,-0.12000,109.1875,136,77,0.38974
4208400,-0.11500,103.7500,136,77,0.43663
4208410,-0.11500,101.4375,136,77,0.46618
4208420,-0.11000,99.6250,136,77,0.49402
4208430,-0.10500,98.3125,136,77,0.52088
4208440,-0.10500,97.4375,136,77,0.55140
4208450,-0.10000,96.6875,136,77,0.61392
4208460,-0.09500,96.6250,136,77,0.64298
4208470,-0.09500,96.7500,136,77,0.67009
4208480,-0.09500,97.1250,136,77,0.71600
4208490,-0.09500,97.2500,136,77,0.73480
4208500,-0.09500,97.3750,136,77,0.75116
4208510,-0.10000,97.3750,136,77,0.76508
4208520,-0.10000,97.1250,136,77,0.78144
4208530,-0.10500,96.8750,136,77,0.78779
4208540,-0.10500,96.5625,136,77,0.79316
4208550,-0.09500,96.1250,136,77,0.79707
4208560,-0.07500,95.6875,136,77,0.79902
4208570,-0.04500,94.7500,136,77,0.79707
4208580,-0.03000,94.1875,136,77,0.79316
4208590,-0.02000,93.6250,136,77,0.78730
4208600,0.00000,93.0000,136,77,0.77949
4208610,0.03500,91.8750,136,77,0.75824
4208620,0.03500,91.2500,136,77,0.74603
4208630,-0.00500,90.6875,136,77,0.73284
4208640,-0.03000,90.1250,136,77,0.71746
4208650,-0.06000,89.0625,136,77,0.68205
4208660,-0.11500,88.5625,136,77,0.66325
4208670,-0.14000,88.0625,136,77,0.64444
4208680,-0.15500,87.1250,136,77,0.62613
4208690,-0.16000,86.6875,136,77,0.59267
4208700,-0.16000,86.3125,136,77,0.57827
4208710,-0.15500,85.9375,136,77,0.56581
4208720,-0.14500,85.3125,136,77,0.54725
4208730,-0.14500,85.0000,136,77,0.53944
4208740,-0.05000,84.7500,136,77,0.53236
4208750,0.32000,84.5000,136,77,0.52601
4208760,0.86000,84.2500,136,77,0.52039
4208770,0.70000,83.8750,136,77,0.51062
4208780,0.12500,83.7500,136,77,0.50623
4208790,-0.28500,83.6250,136,77,0.50183
4208800,-0.28500,83.6250,136,77,0.50183
4208810,-0.20500,83.0625,136,77,0.48889
4208820,-0.20000,82.8750,136,77,0.48523
4208830,-0.20000,82.6875,136,77,0.48181
4208840,-0.19000,82.1250,136,77,0.47424
4208850,-0.18500,81.8125,136,77,0.45031
4208860,-0.18000,81.5000,136,77,0.41612
4208870,-0.17000,81.1875,136,77,0.39683
4208880,-0.17000,80.8125,136,77,0.38535
4208890,-0.16000,80.1250,136,77,0.37167
4208900,-0.15500,79.8125,136,77,0.36679
4208910,-0.14500,79.4375,136,77,0.36239
4208920,-0.14000,78.8125,136,77,0.35604
4208930,-0.13000,78.5625,136,77,0.35287
4208940,-0.11500,78.2500,136,77,0.34945
4208950,-0.10500,78.0625,136,77,0.34603
4208960,-0.09000,78.3125,136,77,0.33919
4208970,-0.08000,79.2500,136,77,0.33578
4208980,-0.06500,81.0625,136,77,0.33236
4208990,-0.04500,83.9375,136,77,0.32869
4209000,-0.02500,87.8125,136,77,0.32527
4209010,-0.00500,97.8750,136,77,0.31917
4209020,0.01500,103.5000,136,77,0.31697
4209030,0.04000,109.2500,136,77,0.31551
4209040,0.07000,120.0625,136,77,0.31160
4209050,0.09000,124.7500,136,77,0.30965
4209060,0.12000,128.8750,136,77,0.30769
4209070,0.14000,132.2500,136,77,0.30598
4209080,0.17500,134.9375,136,77,0.30427
4209090,0.21000,138.4375,136,77,0.30208
4209100,0.22500,139.4375,136,77,0.30159
4209110,0.23000,140.0625,136,77,0.30134
4209120,0.20500,140.2500,136,77,0.30183
4209130,0.14000,139.8750,136,77,0.30256
4209140,0.08000,139.3125,136,77,0.30256
4209150,0.02000,138.5625,136,77,0.30256
4209160,-0.04500,136.5625,136,77,0.30208
4209170,-0.07500,135.3125,136,77,0.30208
4209180,-0.10500,133.9375,136,77,0.30208
4209190,-0.12500,132.3750,136,77,0.30208
4209200,-0.13000,130.7500,136,77,0.30208
4209210,-0.13500,127.0625,136,77,0.30354
4209220,-0.14500,124.9375,136,77,0.30647
4209230,-0.14500,122.7500,136,77,0.31160
4209240,-0.14500,120.3125,136,77,0.32015
4209250,-0.14500,115.1250,136,77,0.35189
4209260,-0.14500,112.4375,136,77,0.37558
4209270,-0.14000,109.9375,136,77,0.40391
4209280,-0.13500,105.9375,136,77,0.43614
4209290,-0.13000,104.5000,136,77,0.50745
4209300,-0.13000,103.5000,136,77,0.54383
4209310,-0.12500,102.7500,136,77,0.57949
4209320,-0.12500,102.3125,136,77,0.60855
4209330,-0.11500,101.8750,136,77,0.65934
4209340,-0.11500,101.8125,136,77,0.68449
4209350,-0.11500,101.8125,136,77,0.70794
4209360,-0.10500,101.8125,136,77,0.72918
4209370,-0.10500,101.5625,136,77,0.76435
4209380,-0.10500,101.3750,136,77,0.77827
4209390,-0.10500,101.1250,136,77,0.78974
4209400,-0.10500,100.4375,136,77,0.80610
4209410,-0.10500,100.0000,136,77,0.81099
4209420,-0.09500,99.5000,136,77,0.81245
4209430,-0.07500,99.0000,136,77,0.81148
4209440,-0.04000,97.8750,136,77,0.80708
4209450,-0.02500,97.2500,136,77,0.80269
4209460,-0.02000,96.6250,136,77,0.79609
4209470,0.01000,96.0000,136,77,0.78755
4209480,0.03000,95.3750,136,77,0.77729
4209490,0.04000,94.1250,136,77,0.75116
4209500,0.00500,93.5625,136,77,0.73578
4209510,-0.03500,93.0000,136,77,0.71893
4209520,-0.06000,92.4375,136,77,0.70256
4209530,-0.10500,91.3750,136,77,0.66935
4209540,-0.14000,90.8125,136,77,0.65177
4209550,-0.14500,90.3750,136,77,0.63468
4209560,-0.15000,89.9375,136,77,0.61856
4209570,-0.14500,89.0625,136,77,0.59072
4209580,-0.14000,88.6875,136,77,0.57900
4209590,-0.12500,88.3750,136,77,0.56874
4209600,-0.12500,88.0625,136,77,0.55995
4209610,0.01500,87.6250,136,77,0.54579
4209620,0.37000,87.3750,136,77,0.54017
4209630,0.97500,87.1875,136,77,0.53504
4209640,0.82500,86.7500,136,77,0.52552
4209650,0.19500,86.5625,136,77,0.52112
4209660,-0.25000,86.3750,136,77,0.51673
4209670,-0.21500,86.1875,136,77,0.51258
4209680,-0.19000,85.8750,136,77,0.50818
4209690,-0.19000,85.6250,136,77,0.49866
4209700,-0.19500,85.3750,136,77,0.49353
4209710,-0.19500,85.1250,136,77,0.48816
4209720,-0.19000,84.8125,136,77,0.48303
4209730,-0.18500,84.1250,136,77,0.47253
4209740,-0.18000,83.7500,136,77,0.46691
4209750,-0.17000,83.4375,136,77,0.46105
4209760,-0.16500,83.0625,136,77,0.45519
4209770,-0.15500,82.3125,136,77,0.44347
4209780,-0.14500,81.9375,136,77,0.43761
4209790,-0.13500,81.6250,136,77,0.43199
4209800,-0.13500,81.6250,136,77,0.43199
4209810,-0.10500,80.6250,136,77,0.41538
4209820,-0.09500,80.5000,136,77,0.41099
4209830,-0.08000,80.6250,136,77,0.40610
4209840,-0.06500,82.7500,136,77,0.39683
4209850,-0.05500,85.3125,136,77,0.39243
4209860,-0.03500,88.9375,136,77,0.38803
4209870,-0.02500,93.5625,136,77,0.38388
4209880,-0.00500,98.9375,136,77,0.38022
4209890,0.02000,110.5625,136,77,0.37387
4209900,0.04000,116.4375,136,77,0.37094
4209910,0.06500,122.0000,136,77,0.36825
4209920,0.09000,131.4375,136,77,0.36654
4209930,0.12000,135.0625,136,77,0.36410
4209940,0.14000,138.0000,136,77,0.36313
4209950,0.17000,140.1875,136,77,0.36264
4209960,0.19500,141.8750,136,77,0.36239
4209970,0.22000,143.6250,136,77,0.36215
4209980,0.22000,143.9375,136,77,0.36215
4209990,0.19500,143.9375,136,77,0.36215
4210000,0.13000,143.3125,136,77,0.36215
4210010,0.08000,142.6875,136,77,0.36215
4210020,0.01500,141.9375,136,77,0.36239
4210030,-0.03500,141.0000,136,77,0.36239
4210040,-0.07500,138.7500,136,77,0.36117
4210050,-0.09500,137.3750,136,77,0.36020
4210060,-0.11000,135.9375,136,77,0.35922
4210070,-0.12000,134.3750,136,77,0.35824
4210080,-0.13000,130.7500,136,77,0.35775
4210090,-0.13500,128.6875,136,77,0.36142
4210100,-0.13500,126.4375,136,77,0.36777
4210110,-0.13500,124.0000,136,77,0.37900
4210120,-0.13500,121.3750,136,77,0.39219
4210130,-0.13500,115.8750,136,77,0.43077
4210140,-0.13000,113.3125,136,77,0.45812
4210150,-0.12500,111.0625,136,77,0.48913
4210160,-0.12500,109.1875,136,77,0.52234
4210170,-0.12000,106.5625,136,77,0.59023
4210180,-0.11500,105.8125,136,77,0.62222
4210190,-0.11500,105.3125,136,77,0.65226
4210200,-0.12000,104.8750,136,77,0.70427
4210210,-0.12000,104.8750,136,77,0.72283
4210220,-0.12000,104.8125,136,77,0.73724
4210230,-0.11500,104.8125,136,77,0.75214
4210240,-0.11500,104.6875,136,77,0.76606
4210250,-0.11000,104.3125,136,77,0.78926
4210260,-0.11000,103.9375,136,77,0.79805
4210270,-0.11000,103.5625,136,77,0.80488
4210280,-0.10500,102.5625,136,77,0.81270
4210290,-0.10500,102.0625,136,77,0.81368
4210300,-0.09500,101.4375,136,77,0.81270
4210310,-0.06500,100.8125,136,77,0.81001
4210320,-0.03500,100.1875,136,77,0.80513
4210330,-0.01000,98.8750,136,77,0.79121
4210340,0.00000,98.2500,136,77,0.78266
4210350,0.02000,97.6250,136,77,0.77241
4210360,0.05500,97.0625,136,77,0.76020
4210370,0.06500,95.8125,136,77,0.73065
4210380,0.03000,95.2500,136,77,0.71355
4210390,0.00000,94.6875,136,77,0.69548
4210400,-0.03500,93.6250,136,77,0.67717
4210410,-0.09500,93.1250,136,77,0.64249
4210420,-0.12500,92.6250,136,77,0.62735
4210430,-0.14500,92.1250,136,77,0.61221
4210440,-0.15000,91.6250,136,77,0.59805
4210450,-0.15500,90.6875,136,77,0.57387
4210460,-0.15500,90.1875,136,77,0.56410
4210470,-0.15000,89.7500,136,77,0.55556
4210480,-0.15000,89.3750,136,77,0.54799
4210490,-0.06500,88.5625,136,77,0.53529
4210500,0.45500,88.2500,136,77,0.52943
4210510,0.94500,87.8750,136,77,0.52381
4210520,0.94000,87.5000,136,77,0.51868
4210530,0.07500,86.9375,136,77,0.50842
4210540,-0.23500,86.6250,136,77,0.50305
4210550,-0.20500,86.3750,136,77,0.49768
4210560,-0.18500,86.1250,136,77,0.49231
4210570,-0.18000,85.4375,136,77,0.48107
4210580,-0.18000,85.1250,136,77,0.47521
4210590,-0.18000,84.7500,136,77,0.46935
4210600,-0.17500,84.3750,136,77,0.46349
4210610,-0.16500,83.5625,136,77,0.45226
4210620,-0.16000,83.1250,136,77,0.44737
4210630,-0.15500,82.6875,136,77,0.44200
4210640,-0.15000,82.3125,136,77,0.43639
4210650,-0.15000,82.3125,136,77,0.43639
4210660,-0.15000,82.3125,136,77,0.43639
4210670,-0.15000,82.3125,136,77,0.43639
4210680,-0.12000,80.4375,136,77,0.40928
4210690,-0.10500,79.7500,136,77,0.39976
4210700,-0.09500,79.5000,136,77,0.39536
4210710,-0.08500,79.5000,136,77,0.39096
4210720,-0.07000,79.9375,136,77,0.38755
4210730,-0.05500,83.2500,136,77,0.38071
4210740,-0.03500,86.5000,136,77,0.37656
4210750,-0.01500,90.7500,136,77,0.37241
4210760,0.00500,101.2500,136,77,0.36410
4210770,0.02500,107.0000,136,77,0.35995
4210780,0.05000,112.7500,136,77,0.35629
4210790,0.08000,118.3750,136,77,0.35311
4210800,0.08000,118.3750,136,77,0.35311
4210810,0.13000,132.0000,136,77,0.34554
4210820,0.16500,135.1250,136,77,0.34432
4210830,0.19500,137.5625,136,77,0.34261
4210840,0.22500,140.6875,136,77,0.33968
4210850,0.24000,141.4375,136,77,0.33846
4210860,0.24000,141.8125,136,77,0.33773
4210870,0.22000,141.8750,136,77,0.33724
4210880,0.15500,141.1875,136,77,0.33626
4210890,0.11000,140.5000,136,77,0.33578
4210900,0.05000,139.6250,136,77,0.32234
4210910,-0.01000,138.6250,136,77,0.30232
4210920,-0.04000,137.4375,136,77,0.29255
4210930,-0.06500,134.6250,136,77,0.28523
4210940,-0.08500,133.0625,136,77,0.28327
4210950,-0.10000,131.3750,136,77,0.28156
4210960,-0.10500,129.5000,136,77,0.28034
4210970,-0.11000,125.3125,136,77,0.28059
4210980,-0.11500,122.9375,136,77,0.28376
4210990,-0.11000,120.4375,136,77,0.29060
4211000,-0.10500,115.0000,136,77,0.30183
4211010,-0.10500,112.2500,136,77,0.33455
4211020,-0.10500,109.6875,136,77,0.35336
4211030,-0.10000,107.5000,136,77,0.37705
4211040,-0.10000,105.6250,136,77,0.40366
4211050,-0.09000,103.1875,136,77,0.45983
4211060,-0.08500,102.4375,136,77,0.48669
4211070,-0.08500,101.8750,136,77,0.51160
4211080,-0.08000,101.5625,136,77,0.53382
4211090,-0.07500,101.3125,136,77,0.56923
4211100,-0.07500,101.2500,136,77,0.58242
4211110,-0.07500,101.1875,136,77,0.59292
4211120,-0.07000,101.1250,136,77,0.59951
4211130,-0.07000,100.7500,136,77,0.60684
4211140,-0.07000,100.4375,136,77,0.60879
4211150,-0.07000,100.0000,136,77,0.60952
4211160,-0.06000,99.1250,136,77,0.60562
4211170,-0.04500,98.6250,136,77,0.60073
4211180,-0.01500,98.0625,136,77,0.59438
4211190,0.00000,97.5000,136,77,0.58657
4211200,0.01000,96.2500,136,77,0.56728
4211210,0.03500,95.6250,136,77,0.55678
4211220,0.06000,95.0000,136,77,0.54530
4211230,0.08000,94.3125,136,77,0.53211
4211240,0.04000,93.0000,136,77,0.50061
4211250,0.01000,92.3750,136,77,0.48254
4211260,-0.02500,91.7500,136,77,0.46374
4211270,-0.06500,91.1875,136,77,0.44420
4211280,-0.11500,90.0625,136,77,0.40488
4211290,-0.13500,89.5625,136,77,0.38608
4211300,-0.14000,89.0000,136,77,0.36825
4211310,-0.14000,88.5000,136,77,0.35165
4211320,-0.13500,88.0625,136,77,0.33822
4211330,-0.12500,87.3750,136,77,0.31551
4211340,-0.11500,87.0625,136,77,0.30476
4211350,-0.06000,86.7500,136,77,0.29475
4211360,0.24500,86.1875,136,77,0.28596
4211370,0.83000,85.9375,136,77,0.27082
4211380,0.84500,85.6875,136,77,0.26447
4211390,0.22500,85.5000,136,77,0.25861
4211400,-0.28500,85.0625,136,77,0.24811
4211410,-0.24500,84.8750,136,77,0.24420
4211420,-0.19000,84.6250,136,77,0.24078
4211430,-0.18000,84.3750,136,77,0.23639
4211440,-0.17500,83.8125,136,77,0.22686
4211450,-0.17000,83.4375,136,77,0.22149
4211460,-0.16500,83.1250,136,77,0.21612
4211470,-0.16000,82.7500,136,77,0.21099
4211480,-0.15500,82.3750,136,77,0.20586
4211490,-0.14500,81.6250,136,77,0.19560
4211500,-0.14000,81.2500,136,77,0.19072
4211510,-0.12500,80.8750,136,77,0.18706
4211520,-0.12000,80.1250,136,77,0.18388
4211530,-0.11000,79.7500,136,77,0.17558
4211540,-0.10500,79.4375,136,77,0.17094
4211550,-0.09500,79.1250,136,77,0.16630
4211560,-0.08000,78.5000,136,77,0.15726
4211570,-0.06500,78.3125,136,77,0.15263
4211580,-0.05500,78.2500,136,77,0.14823
4211590,-0.03500,78.6875,136,77,0.14383
4211600,-0.02500,79.7500,136,77,0.13944
4211610,-0.00500,84.5000,136,77,0.13284
4211620,0.00500,88.2500,136,77,0.13114
4211630,0.03000,92.7500,136,77,0.12821
4211640,0.05000,102.9375,136,77,0.12161
4211650,0.07000,108.2500,136,77,0.11844
4211660,0.10000,113.3750,136,77,0.11551
4211670,0.13000,118.2500,136,77,0.11282
4211680,0.16000,122.5000,136,77,0.11038
4211690,0.18500,126.1875,136,77,0.10842
4211700,0.22000,129.1250,136,77,0.10647
4211710,0.25500,131.4375,136,77,0.10452
4211720,0.26500,133.1250,136,77,0.10403
4211730,0.24500,134.8750,136,77,0.10379
4211740,0.20500,135.0625,136,77,0.10305
4211750,0.13500,134.9375,136,77,0.10232
4211760,0.06500,134.4375,136,77,0.10183
4211770,-0.00500,132.6875,136,77,0.10159
4211780,-0.03500,131.5000,136,77,0.10183
4211790,-0.06500,130.1250,136,77,0.10281
4211800,-0.06500,130.1250,136,77,0.10281
4211810,-0.10500,124.9375,136,77,0.10769
4211820,-0.10500,124.9375,136,77,0.10769
4211830,-0.11500,120.7500,136,77,0.11453
4211840,-0.11500,116.0625,136,77,0.12186
4211850,-0.11500,113.5000,136,77,0.12698
4211860,-0.11500,110.8750,136,77,0.13455
4211870,-0.11500,108.1875,136,77,0.14505
4211880,-0.11000,105.6250,136,77,0.15971
4211890,-0.10500,101.4375,136,77,0.20244
4211900,-0.10500,99.8750,136,77,0.23004
4211910,-0.10000,98.7500,136,77,0.26081
4211920,-0.10500,97.9375,136,77,0.28962
4211930,-0.10500,97.0625,136,77,0.34774
4211940,-0.09500,96.9375,136,77,0.37900
4211950,-0.09500,96.8750,136,77,0.40952
4211960,-0.09500,96.9375,136,77,0.43810
4211970,-0.09500,97.0625,136,77,0.48840
4211980,-0.09500,97.0625,136,77,0.50940
4211990,-0.09500,97.0000,136,77,0.52723
4212000,-0.09500,96.8750,135,77,0.54212
4212010,-0.09500,96.5000,135,77,0.56313
4212020,-0.09500,96.1250,135,77,0.56874
4212030,-0.09000,95.8125,135,77,0.57167
4212040,-0.07500,94.9375,135,77,0.57363
4212050,-0.05500,94.4375,135,77,0.57192
4212060,-0.03000,93.8750,135,77,0.56850
4212070,-0.02500,93.3125,135,77,0.56313
4212080,0.00000,92.1250,135,77,0.54701
4212090,0.03000,91.5625,135,77,0.53602
4212100,0.06000,90.9375,135,77,0.52332
4212110,0.04000,90.3750,135,77,0.50891
4212120,0.01000,89.8125,135,77,0.49475
4212130,-0.02500,88.6875,135,77,0.46447
4212140,-0.07500,88.1875,135,77,0.44737
4212150,-0.10500,87.6250,135,77,0.43028
4212160,-0.14000,86.6875,135,77,0.39707
4212170,-0.14000,86.2500,135,77,0.38193
4212180,-0.14000,85.8750,135,77,0.36801
4212190,-0.13500,85.5000,135,77,0.35531
4212200,-0.13500,85.1875,135,77,0.34432
4212210,-0.12500,84.5625,135,77,0.32625
4212220,-0.09500,84.3125,135,77,0.31990
4212230,0.11500,84.1250,135,77,0.31502
4212240,0.68000,83.7500,135,77,0.30525
4212250,0.90000,83.6250,135,77,0.30085
4212260,0.32000,83.4375,135,77,0.29646
4212270,-0.17000,83.3125,135,77,0.29231
4212280,-0.28000,82.9375,135,77,0.28816
4212290,-0.19500,82.8125,135,77,0.28034
4212300,-0.18000,82.6250,135,77,0.27668
4212310,-0.17000,82.4375,135,77,0.27302
4212320,-0.17000,81.8750,135,77,0.26740
4212330,-0.16000,81.6250,135,77,0.26422
4212340,-0.15500,81.2500,135,77,0.26032
4212350,-0.14500,80.8750,135,77,0.25617
4212360,-0.14000,80.5000,135,77,0.25201
4212370,-0.13500,79.7500,135,77,0.24371
4212380,-0.12500,79.3125,135,77,0.23980
4212390,-0.12000,78.9375,135,77,0.23565
4212400,-0.10500,78.1875,135,77,0.22735
4212410,-0.10000,77.8125,135,77,0.22320
4212420,-0.09000,77.5000,135,77,0.22027
4212430,-0.07500,77.1875,135,77,0.21832
4212440,-0.07000,76.8750,135,77,0.21563
4212450,-0.06000,76.4375,135,77,0.20977
4212460,-0.05000,76.5625,135,77,0.20684
4212470,-0.03500,77.1875,135,77,0.20391
4212480,-0.02000,78.5625,135,77,0.20098
4212490,0.00000,84.2500,135,77,0.19560
4212500,0.02000,88.4375,135,77,0.19292
4212510,0.03500,93.2500,135,77,0.19048
4212520,0.06000,103.8750,135,77,0.18926
4212530,0.09000,109.3125,135,77,0.18681
4212540,0.11000,114.4375,135,77,0.18486
4212550,0.14000,119.1875,135,77,0.18266
4212560,0.16500,123.3125,135,77,0.18071
4212570,0.20000,129.5625,135,77,0.17680
4212580,0.23000,131.6875,135,77,0.17485
4212590,0.24500,133.1875,135,77,0.17289
4212600,0.23500,134.1250,135,77,0.17094
4212610,0.19500,134.7500,135,77,0.16752
4212620,0.12000,134.5625,135,77,0.16728
4212630,0.06500,134.0000,135,77,0.16752
4212640,0.00500,133.1875,135,77,0.16728
4212650,-0.03500,130.8750,135,77,0.16703
4212660,-0.07500,129.4375,135,77,0.16703
4212670,-0.09000,127.8125,135,77,0.16728
4212680,-0.10000,126.0625,135,77,0.16752
4212690,-0.11000,122.1250,135,77,0.16874
4212700,-0.11500,120.0000,135,77,0.16972
4212710,-0.12000,117.7500,135,77,0.17143
4212720,-0.11500,112.8750,135,77,0.17949
4212730,-0.11500,110.3125,135,77,0.18657
4212740,-0.11500,107.6875,135,77,0.19731
4212750,-0.11500,105.1875,135,77,0.21245
4212760,-0.11000,101.0000,135,77,0.25739
4212770,-0.10500,99.5000,135,77,0.28645
4212780,-0.10000,98.3750,135,77,0.31868
4212790,-0.09500,97.6250,135,77,0.35287
4212800,-0.09500,97.6250,135,77,0.35287
4212810,-0.08500,96.9375,135,77,0.45446
4212820,-0.08000,96.9375,135,77,0.48132
4212830,-0.08000,97.0000,135,77,0.50379
4212840,-0.08000,97.1250,135,77,0.54847
4212850,-0.08000,97.1875,135,77,0.56801
4212860,-0.08500,97.1250,135,77,0.58535
4212870,-0.08500,97.0000,135,77,0.60000
4212880,-0.08000,96.8125,135,77,0.61197
4212890,-0.08000,96.1875,135,77,0.62906
4212900,-0.08000,95.8125,135,77,0.63370
4212910,-0.07000,95.3750,135,77,0.63614
4212920,-0.05000,94.8750,135,77,0.63590
4212930,-0.02500,93.7500,135,77,0.62979
4212940,-0.00500,93.1875,135,77,0.62418
4212950,0.00000,92.5625,135,77,0.61685
4212960,0.02500,91.3750,135,77,0.66813
4212970,0.06000,90.8125,135,77,0.67717
4212980,0.07000,90.1875,135,77,0.67424
4212990,0.04000,89.5625,135,77,0.66496
4213000,-0.00500,88.4375,136,77,0.63663
4213010,-0.02500,87.8750,136,77,0.62076
4213020,-0.08000,87.3750,136,77,0.60635
4213030,-0.10500,86.8750,136,77,0.59292
4213040,-0.12500,86.3750,136,77,0.57900
4213050,-0.13000,85.5625,136,77,0.55311
4213060,-0.12500,85.1250,136,77,0.54188
4213070,-0.12000,84.8125,136,77,0.53211
4213080,-0.11500,84.1875,136,77,0.52357
4213090,-0.09500,83.9375,136,77,0.50989
4213100,-0.00500,83.7500,136,77,0.50403
4213110,0.45500,83.5625,136,77,0.49890
4213120,0.85500,83.3125,136,77,0.49475
4213130,0.78000,82.9375,136,77,0.48742
4213140,-0.02000,82.7500,136,77,0.48352
4213150,-0.28000,82.5625,136,77,0.47961
4213160,-0.23000,82.2500,136,77,0.47570
4213170,-0.18000,82.0000,136,77,0.46813
4213180,-0.17500,81.8125,136,77,0.46422
4213190,-0.17500,81.5000,136,77,0.46032
4213200,-0.17000,81.0000,136,77,0.45250
4213210,-0.17000,80.6875,136,77,0.44908
4213220,-0.17000,80.4375,136,77,0.44591
4213230,-0.16000,80.0625,136,77,0.44225
4213240,-0.15500,79.6875,136,77,0.43834
4213250,-0.14500,78.9375,136,77,0.43053
4213260,-0.13500,78.6250,136,77,0.42662
4213270,-0.13500,78.2500,136,77,0.42295
4213280,-0.12500,77.9375,136,77,0.41929
4213290,-0.11000,77.2500,136,77,0.41172
4213300,-0.10000,77.0000,136,77,0.40781
4213310,-0.08500,76.6875,136,77,0.40391
4213320,-0.07500,76.4375,136,77,0.40122
4213330,-0.05500,76.4375,136,77,0.39560
4213340,-0.04000,77.0625,136,77,0.39194
4213350,-0.02500,78.4375,136,77,0.38828
4213360,-0.00500,80.8125,136,77,0.38437
4213370,0.02000,88.4375,136,77,0.37680
4213380,0.03500,93.3750,136,77,0.37314
4213390,0.05500,98.6875,136,77,0.36972
4213400,0.08000,104.1875,136,77,0.36630
4213410,0.10500,114.8750,136,77,0.36068
4213420,0.14000,119.6250,136,77,0.35897
4213430,0.16000,123.8750,136,77,0.35678
4213440,0.19500,127.4375,136,77,0.35458
4213450,0.23000,132.5000,136,77,0.35018
4213460,0.24500,134.0625,136,77,0.34799
4213470,0.24500,135.1250,136,77,0.34603
4213480,0.21000,135.9375,136,77,0.34261
4213490,0.16500,135.7500,136,77,0.34115
4213500,0.10000,135.3750,136,77,0.33993
4213510,0.03500,134.6875,136,77,0.33895
4213520,-0.02500,132.6250,136,77,0.33993
4213530,-0.05500,131.3750,136,77,0.34017
4213540,-0.08500,129.8750,136,77,0.34066
4213550,-0.10000,128.2500,136,77,0.34164
4213560,-0.10500,124.6250,136,77,0.34261
4213570,-0.11500,122.6250,136,77,0.34530
4213580,-0.11500,120.5000,136,77,0.34701
4213590,-0.11500,118.2500,136,77,0.34969
4213600,-0.11500,115.8750,136,77,0.35433
4213610,-0.11500,110.7500,136,77,0.37045
4213620,-0.11500,108.1250,136,77,0.38217
4213630,-0.10500,105.6250,136,77,0.39902
4213640,-0.10500,103.4375,136,77,0.42051
4213650,-0.10500,100.0625,136,77,0.47570
4213660,-0.10000,99.0000,136,77,0.50720
4213670,-0.09500,98.3125,136,77,0.53968
4213680,-0.09000,97.6250,136,77,0.57167
4213690,-0.09000,97.5000,136,77,0.63077
4213700,-0.09000,97.5625,136,77,0.65690
4213710,-0.09000,97.6250,136,77,0.68034
4213720,-0.08500,97.6875,136,77,0.71209
4213730,-0.08500,97.6875,136,77,0.72601
4213740,-0.08000,97.5625,136,77,0.73871
4213750,-0.08000,97.3750,136,77,0.74994
4213760,-0.08500,97.1250,136,77,0.75897
4213770,-0.08500,96.4375,136,77,0.77118
4213780,-0.08500,96.0000,136,77,0.77436
4213790,-0.08000,95.5000,136,77,0.77534
4213800,-0.08000,95.5000,136,77,0.77534
4213810,-0.03000,93.8125,136,77,0.76703
4213820,-0.01000,93.1875,136,77,0.76093
4213830,0.00000,92.5625,136,77,0.75311
4213840,0.03500,91.3125,136,77,0.73284
4213850,0.07000,90.6875,136,77,0.72015
4213860,0.07000,90.1250,136,77,0.70598
4213870,0.02500,89.5625,136,77,0.69060
4213880,-0.00500,89.0000,136,77,0.67448
4213890,-0.03500,87.9375,136,77,0.64029
4213900,-0.07000,87.4375,136,77,0.62344
4213910,-0.10500,86.9375,136,77,0.60733
4213920,-0.12500,86.0625,136,77,0.58144
4213930,-0.12500,85.6250,136,77,0.56947
4213940,-0.12500,85.2500,136,77,0.55824
4213950,-0.12500,84.9375,136,77,0.54823
4213960,-0.12000,84.3125,136,77,0.53114
4213970,-0.10500,84.0000,136,77,0.52381
4213980,0.06500,83.7500,136,77,0.51722
4213990,0.40500,83.5000,136,77,0.51136
4214000,0.91000,83.3125,137,78,0.50623
4214010,0.74500,82.9375,137,78,0.49719
4214020,-0.06500,82.7500,137,78,0.49353
4214030,-0.27500,82.6250,137,78,0.48913
4214040,-0.21000,82.4375,137,78,0.48449
4214050,-0.17500,82.0625,137,78,0.47521
4214060,-0.17000,81.8125,137,78,0.47057
4214070,-0.17000,81.6250,137,78,0.46569
4214080,-0.16000,81.1250,137,78,0.45641
4214090,-0.16000,80.8125,137,78,0.45177
4214100,-0.15500,80.4375,137,78,0.44737
4214110,-0.14500,80.0625,137,78,0.44298
4214120,-0.14000,79.6875,137,78,0.43956
4214130,-0.13000,79.0000,137,78,0.43297
4214140,-0.12000,78.6250,137,78,0.42930
4214150,-0.11500,78.2500,137,78,0.42540
4214160,-0.10500,77.8750,137,78,0.42149
4214170,-0.09500,77.1875,137,78,0.41343
4214180,-0.08500,76.8750,137,78,0.40928
4214190,-0.07500,76.6250,137,78,0.40513
4214200,-0.06000,76.3750,137,78,0.40073
4214210,-0.04500,76.5625,137,78,0.39316
4214220,-0.03500,77.3750,137,78,0.39048
4214230,-0.01500,79.0625,137,78,0.38706
4214240,0.00500,81.8125,137,78,0.38339
4214250,0.02000,90.1875,137,78,0.37631
4214260,0.04500,95.3750,137,78,0.37289
4214270,0.06000,100.9375,137,78,0.36972
4214280,0.08500,112.0625,137,78,0.36654
4214290,0.12000,117.2500,137,78,0.36044
4214300,0.14000,121.9375,137,78,0.35751
4214310,0.17500,126.0000,137,78,0.35482
4214320,0.19500,129.3750,137,78,0.35336
4214330,0.22500,134.0625,137,78,0.35092
4214340,0.24500,135.5000,137,78,0.34896
4214350,0.25000,136.4375,137,78,0.34725
4214360,0.23000,136.9375,137,78,0.34579
4214370,0.17500,136.9375,137,78,0.34359
4214380,0.09000,136.5625,137,78,0.34310
4214390,0.03500,135.9375,137,78,0.34261
4214400,-0.01500,135.1250,137,78,0.34237
4214410,-0.06000,132.8750,137,78,0.34310
4214420,-0.08000,131.5000,137,78,0.34432
4214430,-0.09500,129.9375,137,78,0.34530
4214440,-0.10500,126.5000,137,78,0.34676
4214450,-0.11000,124.5625,137,78,0.34774
4214460,-0.11000,122.5000,137,78,0.34921
4214470,-0.11000,120.3125,137,78,0.35165
4214480,-0.10500,117.9375,137,78,0.35629
4214490,-0.10500,112.8750,137,78,0.37534
4214500,-0.10000,110.1875,137,78,0.39145
4214510,-0.09500,107.5000,137,78,0.41197
4214520,-0.09500,102.9375,137,78,0.43321
4214530,-0.09000,101.3750,137,78,0.48376
4214540,-0.08500,100.1875,137,78,0.51477
4214550,-0.08500,99.3125,137,78,0.54701
4214560,-0.07500,98.5000,137,78,0.60928
4214570,-0.07500,98.4375,137,78,0.63785
4214580,-0.07500,98.5000,137,78,0.66398
4214590,-0.07500,98.5625,137,78,0.68742
4214600,-0.07500,98.6875,137,78,0.70842
4214610,-0.07500,98.7500,137,78,0.74017
4214620,-0.07500,98.6250,137,78,0.75043
4214630,-0.07500,98.5000,137,78,0.76044
4214640,-0.07500,98.2500,137,78,0.76923
4214650,-0.07500,97.5625,137,78,0.78193
4214660,-0.07000,97.1250,137,78,0.78559
4214670,-0.05500,96.6250,137,78,0.78730
4214680,-0.03000,95.5625,137,78,0.78730
4214690,-0.00500,95.0000,137,78,0.78144
4214700,0.00000,94.4375,137,78,0.77582
4214710,0.02500,93.8125,137,78,0.76825
4214720,0.05500,93.2500,137,78,0.75971
4214730,0.07000,92.0625,137,78,0.73797
4214740,0.03000,91.5000,137,78,0.72454
4214750,0.00000,91.0000,137,78,0.70940
4214760,-0.03000,89.9375,137,78,0.67619
4214770,-0.06000,89.4375,137,78,0.65836
4214780,-0.10000,88.9375,137,78,0.64078
4214790,-0.12500,88.5000,137,78,0.62369
4214800,-0.12500,88.5000,137,78,0.62369
4214810,-0.12500,87.2500,137,78,0.57998
4214820,-0.12000,86.8750,137,78,0.56923
4214830,-0.11500,86.5625,137,78,0.55897
4214840,-0.11000,86.1875,137,78,0.54945
4214850,-0.05500,85.6875,137,78,0.53309
4214860,0.33000,85.4375,137,78,0.52650
4214870,0.78500,85.2500,137,78,0.52063
4214880,0.99500,85.0000,137,78,0.51526
4214890,0.22500,84.6250,137,78,0.50598
4214900,-0.20000,84.5000,137,78,0.50183
4214910,-0.21500,84.3125,137,78,0.49792
4214920,-0.18000,84.1875,137,78,0.49451
4214930,-0.17000,83.8125,137,78,0.48791
4214940,-0.17000,83.6250,137,78,0.48425
4214950,-0.16500,83.3750,137,78,0.48034
4214960,-0.16000,83.1250,137,78,0.47643
4214970,-0.15500,82.5000,137,78,0.46886
4214980,-0.14500,82.1250,137,78,0.46545
4214990,-0.14500,81.7500,137,78,0.46227
4215000,-0.13500,81.0000,137,78,0.45934
4215010,-0.12500,80.6250,137,78,0.40708
4215020,-0.12000,80.2500,137,78,0.39121
4215030,-0.11500,79.9375,137,78,0.38144
4215040,-0.10500,79.5625,137,78,0.37509
4215050,-0.09500,78.9375,137,78,0.36654
4215060,-0.08500,78.6875,137,78,0.36288
4215070,-0.07000,78.5000,137,78,0.35946
4215080,-0.05000,78.8125,137,78,0.35263
4215090,-0.03500,79.8750,137,78,0.34921
4215100,-0.02500,81.8750,137,78,0.34579
4215110,-0.00500,85.0000,137,78,0.34335
4215120,0.01000,94.0000,137,78,0.33846
4215130,0.03000,99.4375,137,78,0.33578
4215140,0.05000,105.1875,137,78,0.33333
4215150,0.08000,111.0000,137,78,0.33114
4215160,0.10500,116.5625,137,78,0.32918
4215170,0.13000,126.5000,137,78,0.32576
4215180,0.16500,130.5000,137,78,0.32430
4215190,0.18500,133.8125,137,78,0.32308
4215200,0.21500,136.3750,137,78,0.32186
4215210,0.24000,139.7500,137,78,0.32015
4215220,0.24500,140.6250,137,78,0.32015
4215230,0.23000,141.1250,137,78,0.31990
4215240,0.18500,141.3125,137,78,0.31966
4215250,0.12000,140.8125,137,78,0.31941
4215260,0.05500,140.2500,137,78,0.31941
4215270,0.00000,139.4375,137,78,0.31941
4215280,-0.05500,137.3125,137,78,0.31941
4215290,-0.07500,136.0000,137,78,0.31941
4215300,-0.09500,134.5625,137,78,0.31941
4215310,-0.10500,133.0000,137,78,0.31990
4215320,-0.11500,131.3125,137,78,0.32063
4215330,-0.12000,127.5625,137,78,0.32259
4215340,-0.11500,125.5000,137,78,0.32503
4215350,-0.11500,123.2500,137,78,0.32967
4215360,-0.11500,120.8125,137,78,0.33773
4215370,-0.11500,115.6250,137,78,0.36752
4215380,-0.11000,113.0625,137,78,0.39023
4215390,-0.10500,110.6875,137,78,0.41734
4215400,-0.10500,107.0000,137,78,0.44835
4215410,-0.10500,105.6875,137,78,0.51233
4215420,-0.10500,104.6875,137,78,0.54042
4215430,-0.10000,103.9375,137,78,0.57167
4215440,-0.10000,103.4375,137,78,0.60317
4215450,-0.09500,102.9375,137,78,0.66154
4215460,-0.09500,102.8125,137,78,0.68694
4215470,-0.09500,102.7500,137,78,0.70965
4215480,-0.09500,102.6875,137,78,0.72991
4215490,-0.09500,102.5000,137,78,0.76239
4215500,-0.09500,102.2500,137,78,0.77485
4215510,-0.09500,101.9375,137,78,0.78266
4215520,-0.09500,101.5625,137,78,0.78755
4215530,-0.09500,100.6875,137,78,0.79634
4215540,-0.07500,100.1875,137,78,0.79853
4215550,-0.04500,99.6875,137,78,0.79927
4215560,-0.02000,99.0625,137,78,0.79829
4215570,0.00000,97.8750,137,78,0.79072
4215580,0.01000,97.1875,137,78,0.78437
4215590,0.04000,96.5625,137,78,0.77631
4215600,0.06500,95.9375,137,78,0.76654
4215610,0.06000,94.6875,137,78,0.74237
4215620,0.02000,94.1250,137,78,0.72894
4215630,0.00000,93.5625,137,78,0.71380
4215640,-0.03000,93.0000,137,78,0.69768
4215650,-0.07500,91.8750,137,78,0.66374
4215660,-0.11500,91.3750,137,78,0.64713
4215670,-0.12500,90.8750,137,78,0.63126
4215680,-0.12500,89.9375,137,78,0.61612
4215690,-0.12500,89.5625,137,78,0.58999
4215700,-0.12000,89.1875,137,78,0.57900
4215710,-0.11500,88.8125,137,78,0.56972
4215720,-0.11500,88.5000,137,78,0.56190
4215730,0.02000,87.8750,137,78,0.54774
4215740,0.47500,87.6250,137,78,0.54139
4215750,1.08500,87.3750,137,78,0.53553
4215760,0.84500,87.1875,137,78,0.53016
4215770,-0.04500,86.8125,137,78,0.52063
4215780,-0.25000,86.6875,137,78,0.51600
4215790,-0.20000,86.5000,137,78,0.51111
4215800,-0.18500,86.3125,137,78,0.50647
4215810,-0.19000,85.8750,137,78,0.49719
4215820,-0.19000,85.6875,137,78,0.49304
4215830,-0.18000,85.4375,137,78,0.48840
4215840,-0.17500,84.8750,137,78,0.47839
4215850,-0.16000,84.5000,137,78,0.47350
4215860,-0.15500,84.1875,137,78,0.46838
4215870,-0.15500,83.8125,137,78,0.46300
4215880,-0.14500,83.4375,137,78,0.45763
4215890,-0.13500,82.7500,137,78,0.44737
4215900,-0.12500,82.3750,137,78,0.44200
4215910,-0.11500,82.0000,137,78,0.43736
4215920,-0.10500,81.6250,137,78,0.43297
4215930,-0.09500,81.0000,137,78,0.42295
4215940,-0.08500,80.7500,137,78,0.41783
4215950,-0.07500,80.6875,137,78,0.41270
4215960,-0.06500,81.0000,137,78,0.40806
4215970,-0.04500,83.8125,137,78,0.39927
4215980,-0.03000,86.8750,137,78,0.39512
4215990,-0.01000,90.9375,137,78,0.39096
4216000,0.00500,95.8750,137,78,0.38730
4216010,0.02500,107.2500,137,78,0.38169
4216020,0.04000,113.1875,137,78,0.37998
4216030,0.06000,118.9375,137,78,0.37827
4216040,0.09000,124.3125,137,78,0.37656
4216050,0.11500,133.1250,137,78,0.37363
4216060,0.14500,136.4375,137,78,0.37241
4216070,0.17500,139.0625,137,78,0.37167
4216080,0.21000,142.4375,137,78,0.37045
4216090,0.22000,143.3750,137,78,0.37021
4216100,0.21500,143.8750,137,78,0.36996
4216110,0.18000,144.0625,137,78,0.37021
4216120,0.14000,143.9375,137,78,0.37045
4216130,0.07000,143.0625,137,78,0.37021
4216140,-0.00500,142.3125,137,78,0.36996
4216150,-0.04500,141.4375,137,78,0.36947
4216160,-0.07500,140.3750,137,78,0.36923
4216170,-0.10500,137.9375,137,78,0.36850
4216180,-0.11500,136.5000,137,78,0.36801
4216190,-0.12500,134.9375,137,78,0.36728
4216200,-0.12500,133.2500,137,78,0.36679
4216210,-0.13000,129.4375,137,78,0.36801
4216220,-0.13500,127.2500,137,78,0.37094
4216230,-0.13000,124.8750,137,78,0.37656
4216240,-0.12500,122.3125,137,78,0.38608
4216250,-0.12500,116.7500,137,78,0.41954
4216260,-0.12500,113.9375,137,78,0.44347
4216270,-0.12000,111.3125,137,78,0.47131
4216280,-0.11500,109.0625,137,78,0.50208
4216290,-0.10916,106.0625,137,78,0.56777
4216300,-0.10500,105.1250,137,78,0.60000
4216310,-0.10500,104.5000,137,78,0.62637
4216320,-0.10500,104.1875,137,78,0.64884
4216330,-0.10000,104.0000,137,78,0.69573
4216340,-0.09500,104.0625,137,78,0.71697
4216350,-0.09500,104.1250,137,78,0.73602
4216360,-0.09500,104.1250,137,78,0.75287
4216370,-0.09500,103.8125,137,78,0.77924
4216380,-0.09000,103.5625,137,78,0.78877
4216390,-0.08500,103.2500,137,78,0.79609
4216400,-0.08500,102.3750,137,78,0.80147
4216410,-0.08500,101.8125,137,78,0.80586
4216420,-0.08500,101.2500,137,78,0.80415
4216430,-0.07500,100.6875,137,78,0.80220
4216440,-0.04500,99.3125,137,78,0.79512
4216450,-0.02500,98.6250,137,78,0.78950
4216460,-0.00500,97.8750,137,78,0.78217
4216470,0.01000,97.1875,137,78,0.77314
4216480,0.03000,96.4375,137,78,0.76239
4216490,0.07000,94.9375,137,78,0.73553
4216500,0.07000,94.1875,137,78,0.71966
4216510,0.04500,93.5000,137,78,0.70379
4216520,0.00500,92.1875,137,78,0.66984
4216530,-0.02500,91.5625,137,78,0.65153
4216540,-0.07500,90.9375,137,78,0.63346
4216550,-0.11500,90.3750,137,78,0.61636
4216560,-0.12500,89.8750,137,78,0.60073
4216570,-0.13000,88.8750,137,78,0.57436
4216580,-0.13000,88.4375,137,78,0.56386
4216590,-0.12500,88.0000,137,78,0.55482
4216600,-0.11500,87.1875,137,78,0.54066
4216610,-0.11500,86.8125,137,78,0.53504
4216620,0.01000,86.5000,137,78,0.53040
4216630,0.43500,86.1875,137,78,0.52576
4216640,1.05500,85.6875,137,78,0.51697
4216650,0.87500,85.4375,137,78,0.51233
4216660,0.13000,85.2500,137,78,0.50745
4216670,-0.24500,85.0000,137,78,0.50232
4216680,-0.20000,84.7500,137,78,0.49744
4216690,-0.17500,84.2500,137,78,0.48718
4216700,-0.18000,84.0000,137,78,0.48205
4216710,-0.18000,83.7500,137,78,0.47717
4216720,-0.17500,83.4375,137,78,0.47277
4216730,-0.17000,82.6875,137,78,0.46276
4216740,-0.16500,82.2500,137,78,0.45714
4216750,-0.16000,81.8125,137,78,0.45153
4216760,-0.15500,80.9375,137,78,0.43980
4216770,-0.14500,80.5625,137,78,0.43394
4216780,-0.13500,80.1250,137,78,0.42784
4216790,-0.12500,79.7500,137,78,0.42173
4216800,-0.11500,79.3125,137,78,0.41538
4216810,-0.10500,78.6250,137,78,0.40464
4216820,-0.09500,78.3125,137,78,0.39878
4216830,-0.08500,78.0000,137,78,0.39243
4216840,-0.07000,77.8750,137,78,0.37949
4216850,-0.05500,78.4375,137,78,0.37289
4216860,-0.04500,79.7500,137,78,0.36630
4216870,-0.03500,82.0625,137,78,0.35995
4216880,-0.02000,85.4375,137,78,0.35385
4216890,0.00000,94.8750,137,78,0.34212
4216900,0.01500,100.3125,137,78,0.33651
4216910,0.03500,106.0000,137,78,0.33211
4216920,0.05000,117.0625,137,78,0.32845
4216930,0.08000,122.0625,137,78,0.31966
4216940,0.10000,126.4375,137,78,0.31502
4216950,0.13000,130.1250,137,78,0.31038
4216960,0.15500,133.0625,137,78,0.30598
4216970,0.18500,137.0000,137,78,0.29719
4216980,0.20500,138.1250,137,78,0.29328
4216990,0.20500,138.8125,137,78,0.28962
4217000,0.18000,139.1250,137,78,0.28645
4217010,0.12000,138.7500,137,78,0.28327
4217020,0.07000,138.1875,137,78,0.28181
4217030,0.01000,137.4375,137,78,0.28059
4217040,-0.04500,135.3750,137,78,0.27937
4217050,-0.09500,134.0625,137,78,0.27082
4217060,-0.11500,132.6250,137,78,0.26007
4217070,-0.12500,131.0625,137,78,0.25470
4217080,-0.13500,127.5000,137,78,0.25031
4217090,-0.13500,125.5000,137,78,0.24982
4217100,-0.14000,123.3750,137,78,0.25055
4217110,-0.13500,121.0625,137,78,0.25275
4217120,-0.13000,118.6250,137,78,0.25665
4217130,-0.12500,113.2500,137,78,0.27399
4217140,-0.12000,110.5000,137,78,0.28840
4217150,-0.11500,107.8125,137,78,0.30745
4217160,-0.11500,105.5000,137,78,0.33040
4217170,-0.10500,102.0000,137,78,0.38510
4217180,-0.09500,100.8750,137,78,0.41465
4217190,-0.09500,100.0625,137,78,0.44371
4217200,-0.09500,99.5000,137,78,0.47131
4217210,-0.09500,99.1250,137,78,0.51258
4217220,-0.09500,99.0625,137,78,0.53138
4217230,-0.09500,99.0625,137,78,0.54896
4217240,-0.09500,99.0000,137,78,0.56435
4217250,-0.10000,98.8750,137,78,0.58779
4217260,-0.10000,98.6875,137,78,0.59609
4217270,-0.10000,98.4375,137,78,0.60171
4217280,-0.09500,97.7500,137,78,0.60684
4217290,-0.09500,97.3125,137,78,0.60659
4217300,-0.08500,96.8125,137,78,0.60464
4217310,-0.06500,96.3125,137,78,0.60098
4217320,-0.03500,95.1250,137,78,0.59023
4217330,-0.02000,94.5000,137,78,0.58291
4217340,-0.01500,93.9375,137,78,0.57387
4217350,0.02000,93.3125,137,78,0.56361
4217360,0.05000,92.6875,137,78,0.55165
4217370,0.05500,91.5000,137,78,0.52283
4217380,0.03000,90.8750,137,78,0.50647
4217390,-0.01000,90.3125,137,78,0.48889
4217400,-0.05000,89.1250,137,78,0.45348
4217410,-0.08500,88.6250,137,78,0.43761
4217420,-0.13000,88.0625,137,78,0.42027
4217430,-0.14500,87.5625,137,78,0.40269
4217440,-0.15000,87.1250,137,78,0.38584
4217450,-0.15500,86.2500,137,78,0.35580
4217460,-0.15000,85.8125,137,78,0.34310
4217470,-0.14000,85.4375,137,78,0.33162
4217480,-0.13000,84.8125,137,78,0.32186
4217490,0.02000,84.5000,137,78,0.30598
4217500,0.32000,84.2500,137,78,0.29963
4217510,0.81500,84.0625,137,78,0.29499
4217520,0.66500,83.6875,137,78,0.28742
4217530,0.09500,83.5000,137,78,0.28303
4217540,-0.29000,83.3125,137,78,0.27839
4217550,-0.23000,83.1250,137,78,0.27375
4217560,-0.18500,82.6875,137,78,0.26447
4217570,-0.18000,82.5000,137,78,0.25983
4217580,-0.18000,82.2500,137,78,0.25568
4217590,-0.17500,81.9375,137,78,0.25153
4217600,-0.17000,81.6250,137,78,0.24737
4217610,-0.16000,80.9375,137,78,0.24200
4217620,-0.16000,80.6250,137,78,0.23858
4217630,-0.15000,80.2500,137,78,0.23468
4217640,-0.14500,79.8750,137,78,0.23077
4217650,-0.13500,79.0625,137,78,0.22271
4217660,-0.12500,78.6875,137,78,0.21856
4217670,-0.12500,78.3125,137,78,0.21441
4217680,-0.11500,77.6875,137,78,0.21026
4217690,-0.10500,77.3750,137,78,0.20195
4217700,-0.09500,77.1250,137,78,0.19756
4217710,-0.08500,76.8125,137,78,0.19463
4217720,-0.07000,76.6875,137,78,0.18926
4217730,-0.06000,77.1875,137,78,0.18559
4217740,-0.04500,78.4375,137,78,0.18168
4217750,-0.02000,80.5625,137,78,0.17802
4217760,-0.00500,83.6875,137,78,0.17436
4217770,0.02000,92.2500,137,78,0.16728
4217780,0.04000,97.3125,137,78,0.16410
4217790,0.06000,102.5000,137,78,0.16117
4217800,0.06000,102.5000,137,78,0.16117
4217810,0.12000,117.3750,137,78,0.15678
4217820,0.15500,121.4375,137,78,0.15531
4217830,0.18500,124.8125,137,78,0.15360
4217840,0.21500,129.5000,137,78,0.15189
4217850,0.24000,130.8750,137,78,0.14896
4217860,0.24500,131.8125,137,78,0.14799
4217870,0.22500,132.2500,137,78,0.14750
4217880,0.15500,132.0000,137,78,0.14725
4217890,0.10000,131.4375,137,78,0.14774
4217900,0.01000,130.5625,137,78,0.14847
4217910,-0.02500,129.5000,137,78,0.15018
4217920,-0.07000,126.7500,137,78,0.15458
4217930,-0.09000,125.1250,137,78,0.15653
4217940,-0.10500,123.3750,137,78,0.15849
4217950,-0.12000,121.5000,137,78,0.16068
4217960,-0.13000,119.5000,137,78,0.16288
4217970,-0.13500,115.0625,137,78,0.16777
4217980,-0.13500,112.6875,137,78,0.17118
4217990,-0.13500,110.2500,137,78,0.17631
4218000,-0.13000,107.6250,137,78,0.18388
4218010,-0.12500,102.6250,137,78,0.20537
4218020,-0.11500,100.5625,137,78,0.22222
4218030,-0.11500,98.8125,137,78,0.24347
4218040,-0.11000,96.5625,137,78,0.29841
4218050,-0.10500,95.9375,137,78,0.33016
4218060,-0.10000,95.5625,137,78,0.36361
4218070,-0.09500,95.3125,137,78,0.39707
4218080,-0.09500,95.2500,137,78,0.42955
4218090,-0.09000,95.3750,137,78,0.48840
4218100,-0.08500,95.5000,137,78,0.51380
4218110,-0.08500,95.5625,137,78,0.53333
4218120,-0.08500,95.4375,137,78,0.54896
4218130,-0.08500,95.2500,137,78,0.57802
4218140,-0.08500,95.0625,137,78,0.58974
4218150,-0.08500,94.7500,137,78,0.59927
4218160,-0.09000,94.0000,137,78,0.61148
4218170,-0.08500,93.5625,137,78,0.61441
4218180,-0.07000,93.0625,137,78,0.61490
4218190,-0.04000,92.5625,137,78,0.61319
4218200,-0.02000,91.4375,137,78,0.60952
4218210,-0.00500,90.8750,137,78,0.59780
4218220,0.01000,90.2500,137,78,0.58950
4218230,0.04000,89.6875,137,78,0.57924
4218240,0.06500,89.0625,137,78,0.56703
4218250,0.05000,87.9375,137,78,0.53822
4218260,0.01000,87.3750,137,78,0.52210
4218270,-0.01500,86.8125,137,78,0.50501
4218280,-0.05500,85.8125,137,78,0.48742
4218290,-0.10500,85.3750,137,78,0.45348
4218300,-0.12500,84.9375,137,78,0.43810
4218310,-0.13000,84.5625,137,78,0.42540
4218320,-0.13000,83.8125,137,78,0.40391
4218330,-0.13000,83.5000,137,78,0.39414
4218340,-0.12500,83.1875,137,78,0.38535
4218350,-0.12000,82.8750,137,78,0.37778
4218360,-0.05500,82.4375,137,78,0.36532
4218370,0.15000,82.1875,137,78,0.35995
4218380,0.63500,82.0000,137,78,0.35507
4218390,0.87500,81.8125,137,78,0.35043
4218400,0.42000,81.6250,137,78,0.34603
4218410,-0.21000,81.3125,137,78,0.33968
4218420,-0.26000,81.1250,137,78,0.33626
4218430,-0.20000,80.9375,137,78,0.33260
4218440,-0.18000,80.7500,137,78,0.32894
4218450,-0.18000,80.2500,137,78,0.32112
4218460,-0.18000,80.0000,137,78,0.31722
4218470,-0.17500,79.7500,137,78,0.31331
4218480,-0.17000,79.0625,137,78,0.30574
4218490,-0.16500,78.7500,137,78,0.30232
4218500,-0.15500,78.3750,137,78,0.29866
4218510,-0.15000,78.0625,137,78,0.29597
4218520,-0.14500,77.6875,137,78,0.29377
4218530,-0.13500,77.0000,137,78,0.28742
4218540,-0.12500,76.6250,137,78,0.28352
4218550,-0.11500,76.3125,137,78,0.27961
4218560,-0.11500,75.9375,137,78,0.27546
4218570,-0.10000,75.3125,137,78,0.26764
4218580,-0.09000,75.0625,137,78,0.26398
4218590,-0.08000,74.9375,137,78,0.26032
4218600,-0.06500,75.6250,137,78,0.25446
4218610,-0.05000,76.9375,137,78,0.25250
4218620,-0.03000,79.1250,137,78,0.24982
4218630,-0.00500,82.2500,137,78,0.24689
4218640,0.02000,86.3125,137,78,0.24371
4218650,0.04000,96.0625,137,78,0.23736
4218660,-0.09000,94.5625,137,78,0.63810
4218670,-0.09000,94.5625,137,78,0.63810
4218680,-0.09000,94.5625,137,78,0.63810
4218690,-0.09000,94.5625,137,78,0.63810
4218700,-0.09000,94.5625,137,78,0.63810
4218710,-0.09000,94.5625,137,78,0.63810
4218720,-0.09000,94.5625,137,78,0.63810
4218730,-0.09000,94.5625,137,78,0.63810
4218740,-0.09000,94.5625,137,78,0.63810
4218750,-0.09000,94.5625,137,78,0.63810
4218760,-0.09000,94.5625,137,78,0.63810
4218770,-0.09000,94.5625,137,78,0.63810
4218780,-0.09000,94.5625,137,78,0.63810
4218790,0.01500,89.4375,137,78,0.65495
4218800,0.01500,89.4375,137,78,0.65495
4218810,0.01500,89.4375,137,78,0.65495
4218820,0.01500,89.4375,137,78,0.65495
4218830,0.01500,89.4375,137,78,0.65495
4218840,0.01500,89.4375,137,78,0.65495
4218850,0.01500,89.4375,137,78,0.65495
4218860,0.01500,89.4375,137,78,0.65495
4218870,0.01500,89.4375,137,78,0.65495
4218880,0.01500,89.4375,137,78,0.65495
4218890,0.01500,89.4375,137,78,0.65495
4218900,0.01500,89.4375,137,78,0.65495
4218910,0.01500,89.4375,137,78,0.65495
4218920,0.01500,89.4375,137,78,0.65495
4218930,0.01500,89.4375,137,78,0.65495
4218940,0.01500,89.4375,137,78,0.65495
4218950,0.01500,89.4375,137,78,0.65495
4218960,0.01500,89.4375,137,78,0.65495
4218970,0.01500,89.4375,137,78,0.65495
4218980,0.01500,89.4375,137,78,0.65495
4218990,0.01500,89.4375,137,78,0.65495
4219000,0.01500,89.4375,137,78,0.65495
4219010,0.01500,89.4375,137,78,0.65495
4219020,0.01500,89.4375,137,78,0.65495
4219030,0.01500,89.4375,137,78,0.65495
4219040,0.01500,89.4375,137,78,0.65495
4219050,0.01500,89.4375,137,78,0.65495
4219060,0.01500,89.4375,137,78,0.65495
4219070,0.01500,89.4375,137,78,0.65495
4219080,0.01500,89.4375,137,78,0.65495
4219090,0.01500,89.4375,137,78,0.65495
4219100,0.01500,89.4375,137,78,0.65495
4219110,0.06000,88.8750,137,78,0.67497
4219120,0.06500,88.2500,137,78,0.67790
4219130,0.03500,87.1250,137,78,0.65983
4219140,-0.00500,86.6250,137,78,0.64493
4219150,-0.03500,86.1250,137,78,0.62833
4219160,-0.06500,85.6250,137,78,0.61099
4219170,-0.11000,84.6875,137,78,0.57729
4219180,-0.12500,84.3125,137,78,0.56166
4219190,-0.12500,83.9375,137,78,0.54750
4219200,-0.12500,83.5625,137,78,0.53480
4219210,-0.12500,82.8125,137,78,0.51624
4219220,-0.12000,82.5000,137,78,0.50842
4219230,-0.10500,82.2500,137,78,0.50110
4219240,0.04000,81.8125,137,78,0.48913
4219250,0.35500,81.5625,137,78,0.48400
4219260,0.85500,81.3750,137,78,0.47912
4219270,0.68500,81.1875,137,78,0.47448
4219280,-0.02000,80.8750,137,78,0.46618
4219290,-0.27500,80.7500,137,78,0.46203
4219300,-0.20500,80.6250,137,78,0.45836
4219310,-0.17500,80.4375,137,78,0.45519
4219320,-0.17000,80.2500,137,78,0.45128
4219330,-0.17000,79.7500,137,78,0.44347
4219340,-0.16000,79.4375,137,78,0.43956
4219350,-0.15500,79.1875,137,78,0.43565
4219360,-0.15500,78.5625,137,78,0.43199
4219370,-0.14500,78.2500,137,78,0.42466
4219380,-0.14000,77.8750,137,78,0.42100
4219390,-0.12500,77.5000,137,78,0.41734
4219400,-0.12000,77.1250,137,78,0.41343
4219410,-0.11500,76.3750,137,78,0.40781
4219420,-0.10500,76.0625,137,78,0.40440
4219430,-0.09500,75.7500,137,78,0.40049
4219440,-0.08500,75.4375,137,78,0.39658
4219450,-0.07500,74.9375,137,78,0.38852
4219460,-0.06000,74.7500,137,78,0.38437
4219470,-0.05000,74.8125,137,78,0.38046
4219480,-0.03500,75.3125,137,78,0.37656
4219490,-0.01500,78.6250,137,78,0.36874
4219500,-0.00500,81.6875,137,78,0.36606
4219510,0.01000,85.7500,137,78,0.36410
4219520,0.03500,95.6250,137,78,0.35824
4219530,0.05000,101.0000,137,78,0.35531
4219540,0.07500,106.3750,137,78,0.35238
4219550,0.10500,111.5625,137,78,0.34945
4219560,0.13000,116.3750,137,78,0.34652
4219570,0.16000,124.2500,137,78,0.34066
4219580,0.19500,127.1875,137,78,0.33797
4219590,0.22500,129.4375,137,78,0.33529
4219600,0.25000,131.1250,137,78,0.33284
4219610,0.25500,132.9375,137,78,0.33089
4219620,0.23500,133.1875,137,78,0.32991
4219630,0.18500,133.1250,137,78,0.32894
4219640,0.10000,132.2500,137,78,0.32723
4219650,0.05000,131.4375,137,78,0.32650
4219660,0.00000,130.3750,137,78,0.32601
4219670,-0.04500,129.1250,137,78,0.32576
4219680,-0.06500,127.7500,137,78,0.32601
4219690,-0.08500,124.5000,137,78,0.32698
4219700,-0.09500,122.6875,137,78,0.32821
4219710,-0.10500,120.7500,137,78,0.32991
4219720,-0.11000,118.6875,137,78,0.33114
4219730,-0.11000,114.1875,137,78,0.33529
4219740,-0.11000,111.8125,137,78,0.33993
4219750,-0.11000,109.3125,137,78,0.34750
4219760,-0.10500,104.3125,137,78,0.37436
4219770,-0.10500,102.1250,137,78,0.39463
4219780,-0.10500,100.2500,137,78,0.41905
4219790,-0.10000,98.7500,137,78,0.44713
4219800,-0.10000,98.7500,137,78,0.44713
4219810,-0.08500,96.4375,137,78,0.53260
4219820,-0.08500,96.4375,137,78,0.53260
4219830,-0.07500,96.0625,137,78,0.59219
4219840,-0.07500,96.0000,137,78,0.62100
4219850,-0.07500,96.0625,137,78,0.67204
4219860,-0.07500,96.1250,137,78,0.69377
4219870,-0.08000,96.0625,137,78,0.71282
4219880,-0.07500,95.7500,137,78,0.72918
4219890,-0.07500,95.5000,137,78,0.75385
4219900,-0.07500,95.1250,137,78,0.76068
4219910,-0.07500,94.7500,137,78,0.76459
4219920,-0.06500,94.3125,137,78,0.76801
4219930,-0.04500,93.3125,137,78,0.77094
4219940,-0.02000,92.7500,137,78,0.76972
4219950,0.00000,92.2500,137,78,0.76654
4219960,0.01000,91.6250,137,78,0.76166
4219970,0.02500,90.5000,137,78,0.74603
4219980,0.07000,89.8750,137,78,0.73553
4219990,0.08500,89.3125,137,78,0.72332
4220000,0.06500,88.6875,138,78,0.70940
4220010,0.02000,87.5625,138,78,0.68059
4220020,-0.00500,87.0000,138,78,0.66422
4220030,-0.04000,86.5000,138,78,0.64664
4220040,-0.09000,85.5625,138,78,0.61123
4220050,-0.10500,85.1250,138,78,0.59438
4220060,-0.11500,84.6875,138,78,0.57875
4220070,-0.11500,84.3125,138,78,0.56459
4220080,-0.11000,83.9375,138,78,0.55165
4220090,-0.10500,83.3125,138,78,0.53040
4220100,-0.09500,83.0000,138,78,0.52234
4220110,-0.05500,82.7500,138,78,0.51551
4220120,0.19500,82.5000,138,78,0.50867
4220130,0.79500,82.1250,138,78,0.49621
4220140,0.94500,81.9375,138,78,0.49035
4220150,0.41500,81.7500,138,78,0.48498
4220160,-0.24000,81.3750,138,78,0.47448
4220170,-0.24000,81.1875,138,78,0.46935
4220180,-0.17000,81.0000,138,78,0.46422
4220190,-0.15500,80.7500,138,78,0.45910
4220200,-0.15500,80.5000,138,78,0.45397
4220210,-0.15500,80.0000,138,78,0.44615
4220220,-0.14500,79.7500,138,78,0.44225
4220230,-0.14500,79.4375,138,78,0.43810
4220240,-0.13500,79.0625,138,78,0.43394
4220250,-0.12500,78.3125,138,78,0.42564
4220260,-0.12000,77.9375,138,78,0.42149
4220270,-0.11500,77.5625,138,78,0.41758
4220280,-0.10500,76.8750,138,78,0.40977
4220290,-0.09500,76.5000,138,78,0.40586
4220300,-0.09500,76.1875,138,78,0.40269
4220310,-0.08000,75.8750,138,78,0.40000
4220320,-0.07000,75.6250,138,78,0.39658
4220330,-0.05500,75.1875,138,78,0.38901
4220340,-0.03500,75.2500,138,78,0.38535
4220350,-0.01500,75.6875,138,78,0.38169
4220360,0.00000,78.8125,138,78,0.37411
4220370,0.01000,81.8750,138,78,0.37070
4220380,0.01500,85.8750,138,78,0.36728
4220390,0.02000,90.6250,138,78,0.36386
4220400,0.03500,101.3750,138,78,0.35775
4220410,0.05500,106.8750,138,78,0.35580
4220420,0.08500,112.1875,138,78,0.35311
4220430,0.13000,117.1250,138,78,0.35018
4220440,0.15500,121.5625,138,78,0.34725
4220450,0.19000,128.4375,138,78,0.34139
4220460,0.23500,130.8125,138,78,0.33846
4220470,0.26500,132.6250,138,78,0.33553
4220480,0.28000,133.8125,138,78,0.33309
4220490,0.26500,134.9375,138,78,0.32943
4220500,0.23000,134.9375,138,78,0.32894
4220510,0.15500,134.6875,138,78,0.32894
4220520,0.10000,134.1875,138,78,0.32845
4220530,0.04000,132.5000,138,78,0.32747
4220540,-0.01000,131.3125,138,78,0.32698
4220550,-0.03500,130.0000,138,78,0.32674
4220560,-0.05500,128.5000,138,78,0.32674
4220570,-0.07000,125.1250,138,78,0.32723
4220580,-0.08500,123.2500,138,78,0.32796
4220590,-0.09000,121.2500,138,78,0.32894
4220600,-0.10000,116.8750,138,78,0.33065
4220610,-0.10000,114.5000,138,78,0.33700
4220620,-0.10000,112.0000,138,78,0.34310
4220630,-0.09500,109.4375,138,78,0.35287
4220640,-0.09000,104.6250,138,78,0.38657
4220650,-0.09000,102.5625,138,78,0.41050
4220660,-0.08500,100.9375,138,78,0.43834
4220670,-0.08000,99.6875,138,78,0.46911
4220680,-0.07500,98.1250,138,78,0.50183
4220690,-0.06500,97.7500,138,78,0.56801
4220700,-0.06000,97.5625,138,78,0.59512
4220710,-0.05500,97.4375,138,78,0.61856
4220720,-0.05500,97.4375,138,78,0.64298
4220730,-0.05500,97.5000,138,78,0.68767
4220740,-0.05500,97.5000,138,78,0.70672
4220750,-0.05500,97.4375,138,78,0.72308
4220760,-0.05500,97.2500,138,78,0.73700
4220770,-0.05500,96.7500,138,78,0.75800
4220780,-0.05500,96.3750,138,78,0.76532
4220790,-0.05500,95.9375,138,78,0.77045
4220800,-0.05500,95.9375,138,78,0.77045
4220810,-0.03000,94.5000,138,78,0.77143
4220820,-0.00500,93.9375,138,78,0.76899
4220830,0.01000,93.3750,138,78,0.76508
4220840,0.02000,92.1875,138,78,0.75165
4220850,0.03500,91.6250,138,78,0.74212
4220860,0.07000,91.0625,138,78,0.73089
4220870,0.09000,90.5000,138,78,0.71770
4220880,0.06000,89.4375,138,78,0.68645
4220890,0.03000,88.8750,138,78,0.66935
4220900,-0.00500,88.3750,138,78,0.65324
4220910,-0.05500,87.8750,138,78,0.63785
4220920,-0.09000,87.3750,138,78,0.62149
4220930,-0.11500,86.4375,138,78,0.58974
4220940,-0.13500,86.0000,138,78,0.57534
4220950,-0.13500,85.6250,138,78,0.56215
4220960,-0.13500,85.1875,138,78,0.55043
4220970,-0.12500,84.5000,138,78,0.53089
4220980,-0.12500,84.1875,138,78,0.52308
4220990,-0.08000,83.9375,138,78,0.51600
4221000,0.17500,83.6875,138,78,0.51038
4221010,0.84000,83.1875,138,78,0.50061
4221020,1.02500,83.0000,138,78,0.49548
4221030,0.46500,82.8125,138,78,0.49060
4221040,-0.17000,82.6250,138,78,0.48596
4221050,-0.23500,82.2500,138,78,0.47692
4221060,-0.17000,82.0625,138,78,0.47277
4221070,-0.17000,81.9375,138,78,0.46886
4221080,-0.17000,81.6250,138,78,0.46520
4221090,-0.17000,81.4375,138,78,0.45885
4221100,-0.17000,81.1875,138,78,0.45641
4221110,-0.15500,80.9375,138,78,0.45421
4221120,-0.14000,80.6875,138,78,0.45177
4221130,-0.13500,80.0625,138,78,0.44615
4221140,-0.13000,79.7500,138,78,0.44322
4221150,-0.11000,79.4375,138,78,0.42418
4221160,-0.11500,79.0625,138,78,0.39707
4221170,-0.10500,78.4375,138,78,0.37167
4221180,-0.10500,78.1250,138,78,0.36484
4221190,-0.09500,77.9375,138,78,0.35946
4221200,-0.08500,77.5625,138,78,0.35311
4221210,-0.07500,77.5625,138,78,0.34994
4221220,-0.06000,77.9375,138,78,0.34652
4221230,-0.04500,79.0000,138,78,0.34310
4221240,-0.03500,81.0000,138,78,0.33944
4221250,-0.01500,88.0625,138,78,0.33187
4221260,0.00500,92.8750,138,78,0.32821
4221270,0.02000,98.1875,138,78,0.32454
4221280,0.04500,109.3750,138,78,0.32112
4221290,0.08000,114.8750,138,78,0.31502
4221300,0.10000,119.9375,138,78,0.31306
4221310,0.12500,124.5000,138,78,0.31184
4221320,0.15500,128.4375,138,78,0.31013
4221330,0.18500,134.1875,138,78,0.30769
4221340,0.21500,136.0625,138,78,0.30720
4221350,0.24000,137.4375,138,78,0.30696
4221360,0.25500,138.8125,138,78,0.30818
4221370,0.24500,138.9375,138,78,0.30891
4221380,0.20500,138.8750,138,78,0.31013
4221390,0.13500,138.5625,138,78,0.31136
4221400,0.08500,138.0000,138,78,0.31282
4221410,0.02000,136.3750,138,78,0.31526
4221420,-0.02000,135.3125,138,78,0.31624
4221430,-0.05500,134.1250,138,78,0.31697
4221440,-0.07500,131.3125,138,78,0.31746
4221450,-0.09000,129.6875,138,78,0.31770
4221460,-0.10000,127.8750,138,78,0.31795
4221470,-0.09500,125.9375,138,78,0.31868
4221480,-0.07500,123.8750,138,78,0.32063
4221490,-0.06500,119.2500,138,78,0.33211
4221500,-0.09000,116.7500,138,78,0.34139
4221510,-0.09500,114.1250,138,78,0.35360
4221520,-0.10500,111.5000,138,78,0.37143
4221530,-0.10500,106.8750,138,78,0.42222
4221540,-0.10000,105.0625,138,78,0.45348
4221550,-0.09500,103.6875,138,78,0.48742
4221560,-0.09500,101.8750,138,78,0.55751
4221570,-0.08500,101.3750,138,78,0.59145
4221580,-0.08500,101.0625,138,78,0.62369
4221590,-0.08500,100.8750,138,78,0.65348
4221600,-0.07500,100.8125,138,78,0.67692
4221610,-0.07500,100.6875,138,78,0.71502
4221620,-0.07500,100.6250,138,78,0.73309
4221630,-0.07500,100.5000,138,78,0.74921
4221640,-0.07500,100.2500,138,78,0.76337
4221650,-0.08000,99.6875,138,78,0.78486
4221660,-0.08000,99.3125,138,78,0.79267
4221670,-0.08000,98.8750,138,78,0.79853
4221680,-0.07500,98.3750,138,78,0.80244
4221690,-0.05500,97.2500,138,78,0.80440
4221700,-0.02500,96.7500,138,78,0.80195
4221710,-0.00500,96.1250,138,78,0.79731
4221720,0.01000,95.0000,138,78,0.78437
4221730,0.02500,94.3750,138,78,0.77509
4221740,0.06000,93.8125,138,78,0.76386
4221750,0.07000,93.2500,138,78,0.75092
4221760,0.05000,92.6875,138,78,0.73602
4221770,0.01500,91.6875,138,78,0.70159
4221780,-0.01500,91.1875,138,78,0.68278
4221790,-0.06500,90.6875,138,78,0.66398
4221800,-0.09500,90.1875,138,78,0.64689
4221810,-0.11500,89.2500,138,78,0.61514
4221820,-0.11500,88.7500,138,78,0.59951
4221830,-0.11500,88.3750,138,78,0.58486
4221840,-0.11500,87.5625,138,78,0.55922
4221850,-0.11000,87.2500,138,78,0.54847
4221860,-0.10500,86.9375,138,78,0.53895
4221870,-0.01500,86.6875,138,78,0.53065
4221880,0.28500,86.3750,138,78,0.52357
4221890,1.01000,85.9375,138,78,0.51136
4221900,1.06000,85.6875,138,78,0.50598
4221910,0.37000,85.5000,138,78,0.50134
4221920,-0.22500,85.1250,138,78,0.49182
4221930,-0.22000,84.9375,138,78,0.48718
4221940,-0.17000,84.7500,138,78,0.48254
4221950,-0.17000,84.5000,138,78,0.47790
4221960,-0.17000,84.3125,138,78,0.47326
4221970,-0.16500,83.7500,138,78,0.46374
4221980,-0.16500,83.4375,138,78,0.45910
4221990,-0.16000,83.1250,138,78,0.45470
4222000,-0.15500,82.4375,137,78,0.44689
4222010,-0.15500,82.1250,137,78,0.44249
4222020,-0.14500,81.7500,137,78,0.43785
4222030,-0.13500,81.3750,137,78,0.43297
4222040,-0.13000,81.0000,137,78,0.42808
4222050,-0.12500,80.3125,137,78,0.41807
4222060,-0.11500,80.0000,137,78,0.41294
4222070,-0.10500,79.6875,137,78,0.40806
4222080,-0.09500,79.4375,137,78,0.40342
4222090,-0.07500,79.4375,137,78,0.39463
4222100,-0.06500,80.0625,137,78,0.39121
4222110,-0.05000,81.5000,137,78,0.38828
4222120,-0.04000,84.0625,137,78,0.38486
4222130,-0.02500,92.3125,137,78,0.37875
4222140,-0.00500,97.6875,137,78,0.37582
4222150,0.01000,103.4375,137,78,0.37338
4222160,0.03000,109.3125,137,78,0.37118
4222170,0.06000,120.6875,137,78,0.36728
4222180,0.08000,125.6875,137,78,0.36557
4222190,0.10000,130.0000,137,78,0.36410
4222200,0.13000,136.5000,137,78,0.36313
4222210,0.15500,138.7500,137,78,0.36215
4222220,0.18500,140.4375,137,78,0.36190
4222230,0.21500,141.5625,137,78,0.36166
4222240,0.21500,142.2500,137,78,0.36166
4222250,0.19500,142.6250,137,78,0.36166
4222260,0.15500,142.3750,137,78,0.36142
4222270,0.07500,141.9375,137,78,0.36117
4222280,0.02500,141.3125,137,78,0.36044
4222290,-0.03500,139.4375,137,78,0.35873
4222300,-0.05500,138.2500,137,78,0.35800
4222310,-0.07500,137.0000,137,78,0.35678
4222320,-0.09000,134.0625,137,78,0.35433
4222330,-0.09500,132.4375,137,78,0.35311
4222340,-0.09500,130.6250,137,78,0.35238
4222350,-0.10000,128.6250,137,78,0.35238
4222360,-0.10500,124.2500,137,78,0.35751
4222370,-0.10500,121.8125,137,78,0.36484
4222380,-0.10000,119.2500,137,78,0.37656
4222390,-0.09500,116.6250,137,78,0.39341
4222400,-0.09500,114.0625,137,78,0.41148
4222410,-0.08500,109.5625,137,78,0.45885
4222420,-0.08000,107.8750,137,78,0.49011
4222430,-0.07500,106.5000,137,78,0.52357
4222440,-0.06500,104.7500,137,78,0.59145
4222450,-0.06000,104.2500,137,78,0.62369
4222460,-0.05500,103.9375,137,78,0.65348
4222470,-0.05500,103.6875,137,78,0.68083
4222480,-0.05500,103.5000,137,78,0.70574
4222490,-0.05500,103.1250,137,78,0.74383
4222500,-0.05000,102.8125,137,78,0.75580
4222510,-0.05500,102.5000,137,78,0.76801
4222520,-0.05500,102.1250,137,78,0.77949
4222530,-0.05500,101.1875,137,78,0.79756
4222540,-0.05500,100.6250,137,78,0.80366
4222550,-0.05500,100.0000,137,78,0.80781
4222560,-0.05500,99.3750,137,78,0.81001
4222570,-0.03500,98.0625,137,78,0.80855
4222580,-0.01000,97.3750,137,78,0.80488
4222590,0.01000,96.6250,137,78,0.79951
4222600,0.02000,95.9375,137,78,0.79243
4222610,0.03000,94.5000,137,78,0.77436
4222620,0.06500,93.7500,137,78,0.76337
4222630,0.10000,93.0625,137,78,0.75092
4222640,0.09000,92.3750,137,78,0.73700
4222650,0.06000,91.1250,137,78,0.70549
4222660,0.03000,90.5000,137,78,0.68840
4222670,-0.02500,89.9375,137,78,0.67131
4222680,-0.06500,89.4375,137,78,0.65446
4222690,-0.09500,88.3750,137,78,0.62466
4222700,-0.10500,87.9375,137,78,0.61221
4222710,-0.11000,87.5000,137,78,0.60000
4222720,-0.11000,86.6875,137,78,0.58877
4222730,-0.10500,86.3125,137,78,0.56947
4222740,-0.10500,86.0000,137,78,0.56117
4222750,-0.08000,85.6875,137,78,0.55360
4222760,0.22500,85.0625,137,78,0.53993
4222770,0.66000,84.8750,137,78,0.53309
4222780,1.04000,84.6875,137,78,0.52625
4222790,0.41000,84.4375,137,78,0.51966
4222800,0.41000,84.4375,137,78,0.51966
4222810,-0.25000,83.8125,137,78,0.50110
4222820,-0.19000,83.6250,137,78,0.49451
4222830,-0.17500,83.3750,137,78,0.48742
4222840,-0.18000,82.8750,137,78,0.47302
4222850,-0.18000,82.5625,137,78,0.46545
4222860,-0.17000,82.1875,137,78,0.45763
4222870,-0.16000,81.8125,137,78,0.44957
4222880,-0.15500,81.4375,137,78,0.44176
4222890,-0.14500,80.6250,137,78,0.42662
4222900,-0.13500,80.2500,137,78,0.42002
4222910,-0.12500,79.8750,137,78,0.41245
4222920,-0.11500,79.0625,137,78,0.39585
4222930,-0.11000,78.6875,137,78,0.38730
4222940,-0.09500,78.3125,137,78,0.37875
4222950,-0.08000,78.0000,137,78,0.37045
4222960,-0.07500,77.4375,137,78,0.36190
4222970,-0.06000,77.2500,137,78,0.34554
4222980,-0.04500,77.3125,137,78,0.33773
4222990,-0.03000,77.8125,137,78,0.32991
4223000,-0.02000,79.1250,137,78,0.32381
4223010,-0.00500,84.7500,137,78,0.31136
4223020,0.01500,89.0000,137,78,0.30427
4223030,0.04000,93.9375,137,78,0.29719
4223040,0.06000,99.3125,137,78,0.29011
4223050,0.09000,110.4375,137,78,0.27717
4223060,0.12000,115.7500,137,78,0.27131
4223070,0.14500,120.6250,137,78,0.26569
4223080,0.17000,124.8750,137,78,0.26007
4223090,0.20500,131.3125,137,78,0.25079
4223100,0.22500,133.5625,137,78,0.24811
4223110,0.25500,135.1250,137,78,0.24469
4223120,0.26500,136.1875,137,78,0.24103
4223130,0.25500,137.0000,137,78,0.23370
4223140,0.20500,136.8125,137,78,0.23028
4223150,0.15500,136.4375,137,78,0.22711
4223160,0.09000,134.8750,137,78,0.22442
4223170,0.02000,133.8125,137,78,0.22002
4223180,-0.01500,132.6250,137,78,0.21856
4223190,-0.06000,131.1875,137,78,0.21758
4223200,-0.08000,129.6875,137,78,0.22613
4223210,-0.09500,126.2500,137,78,0.24591
4223220,-0.10500,124.3125,137,78,0.24957
4223230,-0.11000,122.3125,137,78,0.25177
4223240,-0.11000,120.1875,137,78,0.25397
4223250,-0.11000,115.4375,137,78,0.26154
4223260,-0.10500,112.8125,137,78,0.26862
4223270,-0.10000,110.1875,137,78,0.27888
4223280,-0.09000,105.0625,137,78,0.29280
4223290,-0.08500,102.9375,137,78,0.32918
4223300,-0.07500,101.2500,137,78,0.34896
4223310,-0.07000,99.9375,137,78,0.37314
4223320,-0.07000,98.3750,137,78,0.42759
4223330,-0.07000,97.9375,137,78,0.45519
4223340,-0.07500,97.7500,137,78,0.48132
4223350,-0.07500,97.6250,137,78,0.50574
4223360,-0.07500,97.6250,137,78,0.52772
4223370,-0.07500,97.5625,137,78,0.56410
4223380,-0.08500,97.5000,137,78,0.57851
4223390,-0.09000,97.3750,137,78,0.59023
4223400,-0.09000,96.8750,137,78,0.59805
4223410,-0.09000,96.5000,137,78,0.60806
4223420,-0.09000,96.0625,137,78,0.61123
4223430,-0.08000,95.6250,137,78,0.61294
4223440,-0.05000,94.5625,137,78,0.61172
4223450,-0.02500,94.0000,137,78,0.60904
4223460,-0.00500,93.4375,137,78,0.60464
4223470,0.00000,92.8750,137,78,0.59878
4223480,0.03000,92.3125,137,78,0.59145
4223490,0.07000,91.1250,137,78,0.57363
4223500,0.07500,90.5625,137,78,0.56386
4223510,0.04000,90.0000,137,78,0.55214
4223520,0.01000,89.5000,137,78,0.53871
4223530,-0.02500,88.5000,137,78,0.50818
4223540,-0.06500,88.0000,137,78,0.49158
4223550,-0.10000,87.5000,137,78,0.47473
4223560,-0.11500,87.0625,137,78,0.45788
4223570,-0.12500,86.1875,137,78,0.42686
4223580,-0.13000,85.8125,137,78,0.41294
4223590,-0.12500,85.4375,137,78,0.40024
4223600,-0.12500,85.1250,137,78,0.39023
4223610,-0.11500,84.5000,137,78,0.37387
4223620,-0.02000,84.2500,137,78,0.36630
4223630,0.44500,84.0000,137,78,0.35922
4223640,0.84500,83.8125,137,78,0.35287
4223650,0.63000,83.4375,137,78,0.34188
4223660,0.05500,83.3125,137,78,0.33700
4223670,-0.28500,83.0625,137,78,0.33211
4223680,-0.21000,82.6875,137,78,0.32210
4223690,-0.18000,82.5000,137,78,0.31819
4223700,-0.17500,82.3125,137,78,0.31502
4223710,-0.17000,82.0625,137,78,0.31111
4223720,-0.16500,81.4375,137,78,0.30281
4223730,-0.15500,81.0625,137,78,0.29890
4223740,-0.14500,80.7500,137,78,0.29499
4223750,-0.14000,80.3750,137,78,0.29133
4223760,-0.13000,80.0000,137,78,0.28767
4223770,-0.12500,79.3125,137,78,0.28083
4223780,-0.11000,78.9375,137,78,0.27741
4223790,-0.10000,78.5625,137,78,0.27399
4223800,-0.10000,78.5625,137,78,0.27399
4223810,-0.08000,77.5000,137,78,0.26740
4223820,-0.07500,77.2500,137,78,0.26447
4223830,-0.06500,76.9375,137,78,0.26154
4223840,-0.05500,76.6875,137,78,0.25836
4223850,-0.03500,76.6250,137,78,0.25201
4223860,-0.02500,77.2500,137,78,0.24884
4223870,-0.00500,78.6875,137,78,0.24567
4223880,0.00500,81.0000,137,78,0.24249
4223890,0.02500,88.3125,137,78,0.23785
4223900,0.05000,93.0625,137,78,0.23687
4223910,0.06000,98.1250,137,78,0.23516
4223920,0.08500,103.3750,137,78,0.23321
4223930,0.11000,113.5625,137,78,0.22882
4223940,0.14000,118.0625,137,78,0.22662
4223950,0.17500,122.0000,137,78,0.22466
4223960,0.20000,125.2500,137,78,0.22271
4223970,0.23500,129.6875,137,78,0.21954
4223980,0.25500,131.0625,137,78,0.21832
4223990,0.25500,131.8750,137,78,0.21709
4224000,0.21500,132.3125,136,77,0.21807
4224010,0.16500,132.0000,136,77,0.21856
4224020,0.08500,131.4375,136,77,0.21880
4224030,0.03500,130.5625,136,77,0.21929
4224040,-0.01500,129.5000,136,77,0.22027
4224050,-0.05500,126.8125,136,77,0.22247
4224060,-0.07500,125.2500,136,77,0.22418
4224070,-0.09000,123.5000,136,77,0.22589
4224080,-0.10000,119.6250,136,77,0.22955
4224090,-0.10500,117.5000,136,77,0.23199
4224100,-0.11500,115.3125,136,77,0.23468
4224110,-0.11500,112.9375,136,77,0.23761
4224120,-0.11500,110.4375,136,77,0.24127
4224130,-0.11500,105.2500,136,77,0.25446
4224140,-0.11000,102.7500,136,77,0.26569
4224150,-0.11000,100.5000,136,77,0.28059
4224160,-0.10500,97.2500,136,77,0.32283
4224170,-0.10500,96.2500,136,77,0.34921
4224180,-0.09500,95.6250,136,77,0.37753
4224190,-0.09500,95.2500,136,77,0.40317
4224200,-0.09500,95.1250,136,77,0.45324
4224210,-0.09500,95.1875,136,77,0.47937
4224220,-0.09000,95.3125,136,77,0.50427
4224230,-0.08500,95.5000,136,77,0.52723
4224240,-0.08500,95.6875,136,77,0.56654
4224250,-0.08000,95.6250,136,77,0.58242
4224260,-0.07500,95.5000,136,77,0.59560
4224270,-0.07500,95.3125,136,77,0.60659
4224280,-0.07500,94.7500,136,77,0.62149
4224290,-0.07500,94.3750,136,77,0.62491
4224300,-0.07000,93.9375,136,77,0.62613
4224310,-0.05500,93.4375,136,77,0.62662
4224320,-0.03000,92.3125,136,77,0.62320
4224330,-0.01500,91.6875,136,77,0.61905
4224340,-0.00500,91.0625,136,77,0.61343
4224350,0.00500,90.4375,136,77,0.60611
4224360,0.04000,89.8125,136,77,0.59707
4224370,0.07000,88.6250,136,77,0.57460
4224380,0.05000,88.0000,136,77,0.56117
4224390,0.01500,87.4375,136,77,0.54823
4224400,-0.02000,86.3750,136,77,0.52088
4224410,-0.05000,85.8750,136,77,0.50598
4224420,-0.09500,85.4375,136,77,0.49133
4224430,-0.12500,84.9375,136,77,0.47692
4224440,-0.13500,84.5000,136,77,0.46349
4224450,-0.13500,83.7500,136,77,0.44029
4224460,-0.13500,83.3750,136,77,0.43077
4224470,-0.13000,83.0625,136,77,0.42247
4224480,-0.12500,82.8125,136,77,0.41538
4224490,-0.07000,82.3750,136,77,0.40440
4224500,0.12000,82.1875,136,77,0.40049
4224510,0.60000,82.0000,136,77,0.39658
4224520,0.88000,81.6250,136,77,0.38852
4224530,0.45500,81.4375,136,77,0.38486
4224540,-0.23500,81.2500,136,77,0.38120
4224550,-0.28000,81.1250,136,77,0.37778
4224560,-0.20000,80.7500,136,77,0.37094
4224570,-0.19000,80.5625,136,77,0.36777
4224580,-0.18000,80.3125,136,77,0.36459
4224590,-0.17500,80.0625,136,77,0.36190
4224600,-0.17000,79.4375,136,77,0.35653
4224610,-0.17000,79.1250,136,77,0.35336
4224620,-0.16500,78.8125,136,77,0.35018
4224630,-0.15500,78.4375,136,77,0.34676
4224640,-0.15000,78.0625,136,77,0.34359
4224650,-0.14500,77.3750,136,77,0.33700
4224660,-0.13500,77.0000,136,77,0.33382
4224670,-0.13000,76.6250,136,77,0.33065
4224680,-0.12500,76.0000,136,77,0.32747
4224690,-0.11500,75.7500,136,77,0.32234
4224700,-0.10500,75.5000,136,77,0.32063
4224710,-0.08500,75.2500,136,77,0.31819
4224720,-0.07500,75.0625,136,77,0.31551
4224730,-0.06000,75.8750,136,77,0.31013
4224740,-0.05500,77.2500,136,77,0.30745
4224750,-0.05000,79.6250,136,77,0.30476
4224760,-0.03500,83.0625,136,77,0.30208
4224770,-0.00500,92.1875,136,77,0.29621
4224780,0.01500,97.5000,136,77,0.29353
4224790,0.04000,102.8750,136,77,0.29158
4224800,0.04000,102.8750,136,77,0.29158
4224810,0.10500,118.1875,136,77,0.28571
4224820,0.14000,122.3750,136,77,0.28303
4224830,0.17500,125.8750,136,77,0.28010
4224840,0.20500,130.7500,136,77,0.27448
4224850,0.22500,132.2500,136,77,0.27179
4224860,0.24500,133.2500,136,77,0.26911
4224870,0.23500,133.6875,136,77,0.26642
4224880,0.20000,133.8125,136,77,0.26422
4224890,0.13500,133.0625,136,77,0.26154
4224900,0.06000,132.2500,136,77,0.26154
4224910,-0.01000,131.2500,136,77,0.26105
4224920,-0.04500,130.0625,136,77,0.26056
4224930,-0.08500,127.1250,136,77,0.26032
4224940,-0.11500,125.4375,136,77,0.26056
4224950,-0.13000,123.6250,136,77,0.26129
4224960,-0.13500,119.6875,136,77,0.26203
4224970,-0.14500,117.5625,136,77,0.26374
4224980,-0.14500,115.2500,136,77,0.26569
4224990,-0.14500,112.8750,136,77,0.26862
4225000,-0.15000,110.3750,136,77,0.27302
4225010,-0.14500,105.3125,136,77,0.28962
4225020,-0.13500,103.0000,136,77,0.30330
4225030,-0.13500,100.9375,136,77,0.32137
4225040,-0.13000,99.3125,136,77,0.34335
4225050,-0.12000,97.2500,136,77,0.39683
4225060,-0.11500,96.6875,136,77,0.42637
4225070,-0.10500,96.3750,136,77,0.45641
4225080,-0.10000,96.1875,136,77,0.51380
4225090,-0.09500,96.3125,136,77,0.53651
4225100,-0.09000,96.3750,136,77,0.55556
4225110,-0.09000,96.4375,136,77,0.57485
4225120,-0.09000,96.5000,136,77,0.59292
4225130,-0.09000,96.3750,136,77,0.62295
4225140,-0.08500,96.1875,136,77,0.63468
4225150,-0.08500,96.0000,136,77,0.64420
4225160,-0.08500,95.3125,136,77,0.65739
4225170,-0.08500,94.9375,136,77,0.66081
4225180,-0.07000,94.4375,136,77,0.66252
4225190,-0.03500,93.9375,136,77,0.66178
4225200,-0.01500,93.4375,136,77,0.65910
4225210,-0.00500,92.3750,136,77,0.65055
4225220,0.01500,91.7500,136,77,0.64420
4225230,0.04500,91.1875,136,77,0.63614
4225240,0.08000,90.0000,136,77,0.63468
4225250,0.07000,89.3750,136,77,0.65079
4225260,0.02500,88.8125,136,77,0.65055
4225270,-0.01000,88.2500,136,77,0.64176
4225280,-0.03500,87.7500,136,77,0.62857
4225290,-0.07500,86.7500,136,77,0.59853
4225300,-0.10500,86.3125,136,77,0.58462
4225310,-0.11500,85.8750,136,77,0.57021
4225320,-0.12000,85.0625,136,77,0.54286
4225330,-0.12000,84.7500,136,77,0.53114
4225340,-0.11500,84.4375,136,77,0.52088
4225350,-0.10500,84.1250,136,77,0.51184
4225360,-0.07500,83.8750,136,77,0.50403
4225370,0.12000,83.3750,136,77,0.49109
4225380,0.70500,83.1875,136,77,0.48571
4225390,0.97000,82.9375,136,77,0.48132
4225400,0.53500,82.7500,136,77,0.47741
4225410,-0.19000,82.3125,136,77,0.46911
4225420,-0.26000,82.1250,136,77,0.46471
4225430,-0.18500,81.8750,136,77,0.46056
4225440,-0.17000,81.3750,136,77,0.45665
4225450,-0.17000,81.1250,136,77,0.44884
4225460,-0.16500,80.8125,136,77,0.44518
4225470,-0.16000,80.5000,136,77,0.44127
4225480,-0.15500,80.1875,136,77,0.43736
4225490,-0.15000,79.5000,136,77,0.43053
4225500,-0.14000,79.1250,136,77,0.42784
4225510,-0.13500,78.7500,136,77,0.42466
4225520,-0.13500,78.3750,136,77,0.42149
4225530,-0.12500,77.6250,136,77,0.41465
4225540,-0.12000,77.3125,136,77,0.41148
4225550,-0.10500,77.0000,136,77,0.40830
4225560,-0.09500,76.4375,136,77,0.40513
4225570,-0.08500,76.1875,136,77,0.39878
4225580,-0.08000,76.0000,136,77,0.39560
4225590,-0.06500,76.0000,136,77,0.39316
4225600,-0.05000,77.3750,136,77,0.38828
4225610,-0.03500,79.3125,136,77,0.38535
4225620,-0.02000,82.3125,136,77,0.38217
4225630,0.00000,86.2500,136,77,0.37875
4225640,0.01000,90.9375,136,77,0.37534
4225650,0.03500,101.5625,136,77,0.36850
4225660,0.06000,107.0625,136,77,0.36508
4225670,0.08000,112.3750,136,77,0.36190
4225680,0.10000,117.3750,136,77,0.35873
4225690,0.13500,125.7500,136,77,0.35336
4225700,0.16500,128.8750,136,77,0.35189
4225710,0.19500,131.3125,136,77,0.34969
4225720,0.22500,134.3750,136,77,0.34554
4225730,0.23500,135.1875,136,77,0.34359
4225740,0.22500,135.5625,136,77,0.34164
4225750,0.17500,135.6250,136,77,0.33993
4225760,0.12000,135.3125,136,77,0.33822
4225770,0.05000,134.0000,136,77,0.33578
4225780,-0.01500,133.0625,136,77,0.33480
4225790,-0.06500,131.8750,136,77,0.33480
4225800,-0.06500,131.8750,136,77,0.33480
4225810,-0.10500,127.3125,136,77,0.33651
4225820,-0.12000,125.5000,136,77,0.33675
4225830,-0.13000,123.5625,136,77,0.33724
4225840,-0.13500,121.5625,136,77,0.33797
4225850,-0.13500,117.1250,136,77,0.34139
4225860,-0.13500,114.7500,136,77,0.34505
4225870,-0.13500,112.1875,136,77,0.35140
4225880,-0.13500,109.5625,136,77,0.36093
4225890,-0.13000,104.6250,136,77,0.38681
4225900,-0.12500,102.6250,136,77,0.40635
4225910,-0.12500,101.0625,136,77,0.43077
4225920,-0.12500,99.8125,136,77,0.45885
4225930,-0.12000,98.2500,136,77,0.52137
4225940,-0.11500,97.8750,136,77,0.55336
4225950,-0.10500,97.6250,136,77,0.58437
4225960,-0.10500,97.5625,136,77,0.61368
4225970,-0.10000,97.6250,136,77,0.66471
4225980,-0.10000,97.6250,136,77,0.68571
4225990,-0.10000,97.6250,136,77,0.70110
4226000,-0.10000,97.3750,136,77,0.72430
4226010,-0.10000,97.1250,136,77,0.73455
4226020,-0.10500,96.8125,136,77,0.74310
4226030,-0.11000,96.5000,136,77,0.74945
4226040,-0.10500,96.0625,136,77,0.75385
4226050,-0.09000,95.1250,136,77,0.75678
4226060,-0.05500,94.6250,136,77,0.75531
4226070,-0.03500,94.0625,136,77,0.75189
4226080,-0.02000,92.8750,136,77,0.74676
4226090,-0.00500,92.3125,136,77,0.73236
4226100,0.02500,91.6875,136,77,0.72308
4226110,0.05500,91.1250,136,77,0.71209
4226120,0.04000,90.5000,136,77,0.69939
4226130,0.00000,89.4375,136,77,0.66984
4226140,-0.03500,88.8750,136,77,0.65324
4226150,-0.06500,88.3750,136,77,0.63590
4226160,-0.11500,87.3750,136,77,0.60073
4226170,-0.13500,86.8750,136,77,0.58388
4226180,-0.14500,86.4375,136,77,0.56777
4226190,-0.14500,86.0625,136,77,0.55409
4226200,-0.14500,85.6250,136,77,0.54261
4226210,-0.13500,84.9375,136,77,0.52039
4226220,-0.13500,84.6250,136,77,0.51062
4226230,-0.08500,84.3125,136,77,0.50208
4226240,0.09500,84.0625,136,77,0.49451
4226250,0.57000,83.5625,136,77,0.48205
4226260,0.92500,83.3750,136,77,0.47692
4226270,0.51500,83.1250,136,77,0.47204
4226280,-0.14500,82.9375,136,77,0.46764
4226290,-0.28000,82.5000,136,77,0.46105
4226300,-0.22000,82.3125,136,77,0.45739
4226310,-0.20000,82.0625,136,77,0.45372
4226320,-0.19500,81.5625,136,77,0.45006
4226330,-0.19000,81.2500,136,77,0.44200
4226340,-0.19000,80.9375,136,77,0.43785
4226350,-0.18000,80.6250,136,77,0.43394
4226360,-0.17500,80.2500,136,77,0.43004
4226370,-0.16500,79.5625,136,77,0.42247
4226380,-0.16000,79.1875,136,77,0.41880
4226390,-0.15500,78.8125,136,77,0.41612
4226400,-0.15000,78.4375,136,77,0.41392
4226410,-0.14000,77.7500,136,77,0.40830
4226420,-0.13000,77.4375,136,77,0.40513
4226430,-0.12000,77.1875,136,77,0.40171
4226440,-0.11500,76.8750,136,77,0.39829
4226450,-0.10500,76.5625,136,77,0.39121
4226460,-0.10000,76.6875,136,77,0.38730
4226470,-0.08500,77.3750,136,77,0.38364
4226480,-0.07500,78.8750,136,77,0.37998
4226490,-0.05000,84.8750,136,77,0.37460
4226500,-0.03500,89.3125,136,77,0.37167
4226510,-0.01000,94.3750,136,77,0.36825
4226520,0.00500,99.8750,136,77,0.36484
4226530,0.03000,111.1250,136,77,0.35873
4226540,0.05500,116.5000,136,77,0.35556
4226550,0.08000,121.3750,136,77,0.35263
4226560,0.11500,129.2500,136,77,0.34701
4226570,0.13500,132.0625,136,77,0.34481
4226580,0.16500,134.2500,136,77,0.34261
4226590,0.20500,135.8750,136,77,0.34139
4226600,0.21500,136.9375,136,77,0.34042
4226610,0.20500,137.7500,136,77,0.33748
4226620,0.16500,137.6875,136,77,0.33602
4226630,0.10500,137.3750,136,77,0.33480
4226640,0.02000,135.9375,136,77,0.33358
4226650,-0.02500,134.9375,136,77,0.33333
4226660,-0.07000,133.7500,136,77,0.33358
4226670,-0.10500,132.4375,136,77,0.33407
4226680,-0.12500,129.3750,136,77,0.33480
4226690,-0.14000,127.5625,136,77,0.33748
4226700,-0.15000,125.6875,136,77,0.33846
4226710,-0.15500,123.6875,136,77,0.33944
4226720,-0.15500,119.2500,136,77,0.34335
4226730,-0.15000,116.8750,136,77,0.34774
4226740,-0.15000,114.3125,136,77,0.35482
4226750,-0.15500,111.6250,136,77,0.36581
4226760,-0.15000,109.0625,136,77,0.38144
4226770,-0.14500,104.6875,136,77,0.42637
4226780,-0.14500,103.0625,136,77,0.45470
4226790,-0.13500,101.8750,136,77,0.48132
4226800,-0.13500,101.8750,136,77,0.48132
4226810,-0.12500,100.0000,136,77,0.56777
4226820,-0.12000,99.8750,136,77,0.59756
4226830,-0.11500,99.8125,136,77,0.62589
4226840,-0.11500,99.8125,136,77,0.65201
4226850,-0.11500,99.8750,136,77,0.69621
4226860,-0.12000,99.8125,136,77,0.71429
4226870,-0.12000,99.6875,136,77,0.72991
4226880,-0.12000,99.3125,136,77,0.75214
4226890,-0.12500,99.0000,136,77,0.75824
4226900,-0.13000,98.5625,136,77,0.76435
4226910,-0.12500,98.0625,136,77,0.76923
4226920,-0.11500,97.5625,136,77,0.77265
4226930,-0.09000,96.5000,136,77,0.77436
4226940,-0.06000,95.9375,136,77,0.77241
4226950,-0.05500,95.3125,136,77,0.76874
4226960,-0.03500,94.1250,136,77,0.75629
4226970,-0.00500,93.5000,136,77,0.74750
4226980,0.02000,92.9375,136,77,0.73700
4226990,0.00500,92.3750,136,77,0.72601
4227000,-0.02000,91.8125,137,78,0.71429
4227010,-0.05000,90.7500,137,78,0.68547
4227020,-0.09500,90.2500,137,78,0.66960
4227030,-0.13500,89.7500,137,78,0.65324
4227040,-0.16500,88.8125,137,78,0.62125
4227050,-0.17000,88.3750,137,78,0.60635
4227060,-0.17500,88.0000,137,78,0.59243
4227070,-0.17000,87.6250,137,78,0.57998
4227080,-0.16500,87.2500,137,78,0.56923
4227090,-0.16000,86.6250,137,78,0.55311
4227100,-0.12500,86.3750,137,78,0.54628
4227110,0.06000,86.1250,137,78,0.53993
4227120,0.70000,85.7500,137,78,0.52967
4227130,0.99000,85.5625,137,78,0.52527
4227140,0.54500,85.3750,137,78,0.52137
4227150,-0.21000,85.1875,137,78,0.51746
4227160,-0.29000,85.0000,137,78,0.51355
4227170,-0.23000,84.6875,137,78,0.50598
4227180,-0.21500,84.5000,137,78,0.50208
4227190,-0.22000,84.2500,137,78,0.49890
4227200,-0.22000,84.0000,137,78,0.49621
4227210,-0.21500,83.4375,137,78,0.49011
4227220,-0.21000,83.1250,137,78,0.48694
4227230,-0.20000,82.8125,137,78,0.48376
4227240,-0.20000,82.1875,137,78,0.48059
4227250,-0.19000,81.8125,137,78,0.47424
4227260,-0.18500,81.4375,137,78,0.47106
4227270,-0.18000,81.1250,137,78,0.46764
4227280,-0.17000,80.7500,137,78,0.46447
4227290,-0.15500,80.1250,137,78,0.44274
4227300,-0.14500,79.8125,137,78,0.41465
4227310,-0.13500,79.5000,137,78,0.39902
4227320,-0.12500,79.3125,137,78,0.38950
4227330,-0.11000,79.8125,137,78,0.37729
4227340,-0.09500,81.1875,137,78,0.37265
4227350,-0.07500,83.5000,137,78,0.36825
4227360,-0.05000,91.3125,137,78,0.35995
4227370,-0.03000,96.4375,137,78,0.35629
4227380,-0.01000,102.0625,137,78,0.35287
4227390,0.02000,107.9375,137,78,0.35018
4227400,0.04000,113.8125,137,78,0.34799
4227410,0.07000,124.5625,137,78,0.34432
4227420,0.09000,129.0625,137,78,0.34261
4227430,0.11500,132.8750,137,78,0.34115
4227440,0.15000,138.4375,137,78,0.33944
4227450,0.17500,140.2500,137,78,0.33895
4227460,0.19500,141.4375,137,78,0.33846
4227470,0.20000,142.2500,137,78,0.33797
4227480,0.18500,142.6250,137,78,0.33773
4227490,0.14500,142.4375,137,78,0.33797
4227500,0.09000,141.9375,137,78,0.33797
4227510,0.02000,141.3125,137,78,0.33773
4227520,-0.03500,139.4375,137,78,0.33748
4227530,-0.08500,138.2500,137,78,0.33651
4227540,-0.11500,136.9375,137,78,0.33626
4227550,-0.13500,135.5625,137,78,0.33578
4227560,-0.14500,132.3750,137,78,0.33480
4227570,-0.15000,130.5625,137,78,0.33455
4227580,-0.15000,128.6250,137,78,0.33480
4227590,-0.15500,126.5000,137,78,0.33602
4227600,-0.15000,124.1875,137,78,0.33871
4227610,-0.14500,119.1875,137,78,0.35336
4227620,-0.14000,116.5000,137,78,0.36728
4227630,-0.13500,113.9375,137,78,0.38632
4227640,-0.13500,109.5000,137,78,0.43932
4227650,-0.13000,107.8125,137,78,0.47155
4227660,-0.12500,106.5000,137,78,0.50647
4227670,-0.12500,105.5000,137,78,0.54212
4227680,-0.12500,104.8125,137,78,0.57729
4227690,-0.12500,104.1250,137,78,0.63126
4227700,-0.12500,104.0000,137,78,0.65739
4227710,-0.12500,103.9375,137,78,0.68278
4227720,-0.12500,103.8125,137,78,0.70623
4227730,-0.13000,103.6875,137,78,0.74554
4227740,-0.13500,103.5000,137,78,0.76117
4227750,-0.13500,103.2500,137,78,0.77460
4227760,-0.13500,102.9375,137,78,0.78559
4227770,-0.14000,102.0625,137,78,0.80098
4227780,-0.13500,101.5000,137,78,0.80391
4227790,-0.12500,100.9375,137,78,0.80415
4227800,-0.09000,99.6875,137,78,0.80317
4227810,-0.07000,99.0000,137,78,0.80073
4227820,-0.04500,98.3750,137,78,0.79683
4227830,-0.03500,97.6875,137,78,0.79145
4227840,-0.01000,96.4375,137,78,0.77558
4227850,0.01500,95.8125,137,78,0.76532
4227860,0.03000,95.2500,137,78,0.75311
4227870,0.01000,94.6875,137,78,0.73895
4227880,-0.02500,94.1250,137,78,0.72357
4227890,-0.06000,93.1250,137,78,0.69231
4227900,-0.11500,92.6875,137,78,0.67521
4227910,-0.14500,92.2500,137,78,0.65763
4227920,-0.16000,91.3750,137,78,0.64054
4227930,-0.17000,91.0000,137,78,0.60952
4227940,-0.17000,90.6250,137,78,0.59609
4227950,-0.16500,90.3125,137,78,0.58437
4227960,-0.16500,90.0000,137,78,0.57411
4227970,-0.17000,89.3125,137,78,0.55751
4227980,-0.05000,89.0625,137,78,0.55092
4227990,0.28500,88.8125,137,78,0.54505
4228000,0.89000,88.2500,137,78,0.53944
4228010,0.83500,88.0000,137,78,0.52869
4228020,0.22500,87.7500,137,78,0.52332
4228030,-0.28500,87.5625,137,78,0.51795
4228040,-0.26000,87.3125,137,78,0.51282
4228050,-0.22000,86.8750,137,78,0.50208
4228060,-0.22500,86.6875,137,78,0.49670
4228070,-0.22000,86.4375,137,78,0.49133
4228080,-0.22000,86.1250,137,78,0.48571
4228090,-0.21000,85.5000,137,78,0.47546
4228100,-0.21000,85.1875,137,78,0.47009
4228110,-0.20000,84.8125,137,78,0.46422
4228120,-0.19000,84.1250,137,78,0.45275
4228130,-0.18000,83.8125,137,78,0.44713
4228140,-0.17000,83.4375,137,78,0.44176
4228150,-0.16000,83.0625,137,78,0.43663
4228160,-0.15500,82.7500,137,78,0.43150
4228170,-0.14500,82.1250,137,78,0.42198
4228180,-0.14500,81.8750,137,78,0.41783
4228190,-0.13500,81.6875,137,78,0.41416
4228200,-0.12000,82.2500,137,78,0.41001
4228210,-0.10500,83.5000,137,78,0.40171
4228220,-0.09000,85.7500,137,78,0.39756
4228230,-0.07500,89.1875,137,78,0.39341
4228240,-0.04500,98.8750,137,78,0.38559
4228250,-0.03000,104.5625,137,78,0.38193
4228260,-0.00500,110.5625,137,78,0.37851
4228270,0.01500,116.5000,137,78,0.37509
4228280,0.05000,127.3125,137,78,0.36972
4228290,0.07500,131.8750,137,78,0.36825
4228300,0.10500,135.6875,137,78,0.36679
4228310,0.14000,138.8125,137,78,0.36557
4228320,0.16500,141.1875,137,78,0.36459
4228330,0.19500,144.1875,137,78,0.36361
4228340,0.21500,145.0000,137,78,0.36361
4228350,0.21500,145.3750,137,78,0.36386
4228360,0.19000,145.4375,137,78,0.36386
4228370,0.13000,144.8125,137,78,0.36410
4228380,0.07500,144.2500,137,78,0.36459
4228390,0.01000,143.4375,137,78,0.36508
4228400,-0.04000,141.4375,137,78,0.36532
4228410,-0.08000,140.2500,137,78,0.36508
4228420,-0.11000,139.0000,137,78,0.36484
4228430,-0.12000,137.5625,137,78,0.36435
4228440,-0.13000,136.0000,137,78,0.36361
4228450,-0.13500,132.3750,137,78,0.36190
4228460,-0.14000,130.3125,137,78,0.36239
4228470,-0.14500,128.0625,137,78,0.36484
4228480,-0.15000,122.9375,137,78,0.37827
4228490,-0.14500,120.1250,137,78,0.38901
4228500,-0.14500,117.3750,137,78,0.40537
4228510,-0.14000,114.7500,137,78,0.42711
4228520,-0.13500,112.4375,137,78,0.45372
4228530,-0.13000,108.7500,137,78,0.51575
4228540,-0.12500,107.3750,137,78,0.54847
4228550,-0.12000,106.3750,137,78,0.58095
4228560,-0.11500,105.1875,137,78,0.64151
4228570,-0.11500,104.8750,137,78,0.66838
4228580,-0.11000,104.6250,137,78,0.68913
4228590,-0.10500,104.3750,137,78,0.70598
4228600,-0.10000,103.9375,137,78,0.74017
4228610,-0.10000,103.6875,137,78,0.75531
4228620,-0.09500,103.3750,137,78,0.76850
4228630,-0.09500,103.0000,137,78,0.77949
4228640,-0.09500,102.1250,137,78,0.78828
4228650,-0.09500,101.5625,137,78,0.80000
4228660,-0.09500,100.9375,137,78,0.80293
4228670,-0.08500,100.3750,137,78,0.80391
4228680,-0.06500,99.7500,137,78,0.80317
4228690,-0.04000,98.4375,137,78,0.79512
4228700,-0.02000,97.7500,137,78,0.78974
4228710,-0.01000,97.0625,137,78,0.78315
4228720,0.00500,96.4375,137,78,0.77534
4228730,0.04000,95.1250,137,78,0.75556
4228740,0.05000,94.5000,137,78,0.74286
4228750,0.03000,93.8750,137,78,0.72845
4228760,-0.00500,93.3125,137,78,0.71258
4228770,-0.04000,92.1875,137,78,0.67717
4228780,-0.09500,91.6250,137,78,0.66032
4228790,-0.13500,91.0625,137,78,0.64444
4228800,-0.14500,90.5625,137,78,0.62759
4228810,-0.15000,89.5625,137,78,0.59536
4228820,-0.15000,89.0625,137,78,0.58071
4228830,-0.14500,88.6875,137,78,0.56752
4228840,-0.14000,88.2500,137,78,0.55556
4228850,-0.13500,87.5625,137,78,0.53529
4228860,-0.03000,87.2500,137,78,0.52650
4228870,0.26000,86.9375,137,78,0.51819
4228880,0.80500,86.3125,137,78,0.51038
4228890,0.79500,86.0625,137,78,0.49670
4228900,0.23000,85.8125,137,78,0.48938
4228910,-0.26500,85.5625,137,78,0.48181
4228920,-0.25000,85.3125,137,78,0.47375
4228930,-0.19500,84.8125,137,78,0.45714
4228940,-0.18500,84.5000,137,78,0.44860
4228950,-0.18000,84.2500,137,78,0.44005
4228960,-0.17500,83.9375,137,78,0.43150
4228970,-0.17000,83.3125,137,78,0.41465
4228980,-0.16500,82.8750,137,78,0.40733
4228990,-0.16000,82.5000,137,78,0.40049
4229000,-0.15500,81.6875,136,78,0.39267
4229010,-0.15000,81.3125,136,78,0.37534
4229020,-0.14500,80.9375,136,78,0.36630
4229030,-0.14000,80.6250,136,78,0.35726
4229040,-0.13500,79.9375,136,78,0.33871
4229050,-0.12500,79.6250,136,78,0.32943
4229060,-0.12500,79.3125,136,78,0.32015
4229070,-0.11500,79.0625,136,78,0.31087
4229080,-0.11000,78.8125,136,78,0.30208
4229090,-0.09500,79.3125,136,78,0.28889
4229100,-0.07500,80.4375,136,78,0.28156
4229110,-0.06500,82.5000,136,78,0.27399
4229120,-0.04000,85.6250,136,78,0.26618
4229130,-0.01500,94.5000,136,78,0.25079
4229140,0.00000,99.8125,136,78,0.24371
4229150,0.03000,105.3750,136,78,0.23687
4229160,0.06000,116.3125,136,78,0.22369
4229170,0.08500,121.3125,136,78,0.21734
4229180,0.11500,125.7500,136,78,0.21270
4229190,0.15500,129.5000,136,78,0.20928
4229200,0.18500,132.5000,136,78,0.20513
4229210,0.21500,136.5000,136,78,0.19658
4229220,0.24500,137.6250,136,78,0.19267
4229230,0.25500,138.2500,136,78,0.18926
4229240,0.23500,138.5000,136,78,0.18632
4229250,0.17500,138.0000,136,78,0.18168
4229260,0.12000,137.3750,136,78,0.18022
4229270,0.05500,136.5625,136,78,0.17924
4229280,0.00000,135.5000,136,78,0.17875
4229290,-0.04500,132.8750,136,78,0.18168
4229300,-0.07500,131.3125,136,78,0.18339
4229310,-0.10000,129.6250,136,78,0.18510
4229320,-0.12000,125.8750,136,78,0.18877
4229330,-0.12500,123.8750,136,78,0.19096
4229340,-0.13000,121.6875,136,78,0.21050
4229350,-0.13000,119.3750,136,78,0.23907
4229360,-0.13500,116.8750,136,78,0.25592
4229370,-0.13000,111.4375,136,78,0.28083
4229380,-0.12500,108.7500,136,78,0.29304
4229390,-0.12500,106.1875,136,78,0.30672
4229400,-0.12500,104.0000,136,78,0.32454
4229410,-0.11500,100.9375,136,78,0.37118
4229420,-0.11000,100.0625,136,78,0.39805
4229430,-0.10500,99.4375,136,78,0.42564
4229440,-0.10000,99.1250,136,78,0.45299
4229450,-0.09000,99.0000,136,78,0.50403
4229460,-0.08500,99.0625,136,78,0.52625
4229470,-0.08000,99.1250,136,78,0.54628
4229480,-0.08000,99.2500,136,78,0.56361
4229490,-0.08000,99.1875,136,78,0.58657
4229500,-0.07500,99.0000,136,78,0.59585
4229510,-0.07500,98.8125,136,78,0.60391
4229520,-0.07000,98.1250,136,78,0.61050
4229530,-0.07000,97.6875,136,78,0.61856
4229540,-0.06000,97.2500,136,78,0.61978
4229550,-0.04000,96.7500,136,78,0.61929
4229560,-0.02000,96.1875,136,78,0.61734
4229570,-0.00500,95.0625,136,78,0.60830
4229580,0.00000,94.4375,136,78,0.60220
4229590,0.03000,93.8125,136,78,0.59536
4229600,0.06000,93.1875,136,78,0.58681
4229610,0.06000,92.5625,136,78,0.57680
4229620,0.03000,91.9375,136,78,0.56508
4229630,-0.01500,91.3125,136,78,0.55214
4229640,-0.03500,90.7500,136,78,0.53797
4229650,-0.08000,89.6250,136,78,0.50672
4229660,-0.12000,89.1250,136,78,0.49060
4229670,-0.13500,88.6250,136,78,0.47448
4229680,-0.14000,88.1250,136,78,0.45910
4229690,-0.14000,87.2500,136,78,0.43565
4229700,-0.13500,86.8750,136,78,0.42442
4229710,-0.13000,86.5625,136,78,0.41392
4229720,-0.12000,86.2500,136,78,0.40440
4229730,0.02000,85.7500,136,78,0.38877
4229740,0.33000,85.5000,136,78,0.38242
4229750,0.89500,85.2500,136,78,0.37680
4229760,0.77500,85.0625,136,78,0.37167
4229770,0.10000,84.6875,136,78,0.36313
4229780,-0.29000,84.4375,136,78,0.35922
4229790,-0.21000,84.2500,136,78,0.35629
4229800,-0.18000,83.8750,136,78,0.35409
4229810,-0.17000,83.6250,136,78,0.34774
4229820,-0.17000,83.3750,136,78,0.34432
4229830,-0.16000,83.0625,136,78,0.34090
4229840,-0.15500,82.3750,136,78,0.33382
4229850,-0.15500,82.0000,136,78,0.33040
4229860,-0.15000,81.6875,136,78,0.32698
4229870,-0.14500,81.3125,136,78,0.32381
4229880,-0.14000,80.9375,136,78,0.32063
4229890,-0.13500,80.1250,136,78,0.31697
4229900,-0.12500,79.7500,136,78,0.31453
4229910,-0.12000,79.3750,136,78,0.31160
4229920,-0.11500,78.6875,136,78,0.30549
