RelativeTimeMilliseconds,ECG,ART,ART (Sys),ART (Dia),PPG
,,,,,
,,,,,
,,,,,
,,,,,
,,,,,
,,,,,
,,,,,
,,,,,
,,,,,
,,,,,
,,,,,
,,,,,
,,,,,
,,,,,
,,,,,
,,,,,
,,,,,
,,,,,
,,,,,
,,,,,
,,,,,
,,,,,
,,,,,
,,,,,
,,,,,
,,,,,
,,,,,
,,,,,
,,,,,
,,,,,
,,,,,
,,,,,
,,,,,
,,,,,
,,,,,
,,,,,
,,,,,
,,,,,
,,,,,
,,,,,
,,,,,
,,,,,
,,,,,
,,,,,
,,,,,
,,,,,
,,,,,
,,,,,
,,,,,
,,,,,
,,,,,
,,,,,
,,,,,
,,,,,
,,,,,
,,,,,
,,,,,
,,,,,
,,,,,
,,,,,
,,,,,
,,,,,
,,,,,
,,,,,
,,,,,
,,,,,
,,,,,
,,,,,
,,,,,
,,,,,
,,,,,
,,,,,
,,,,,
,,,,,
,,,,,
,,,,,
,,,,,
,,,,,
,,,,,
,,,,,
,,,,,
,,,,,
,,,,,
,,,,,
,,,,,
,,,,,
,,,,,
,,,,,
,,,,,
,,,,,
,,,,,
,,,,,
,,,,,
,,,,,
,,,,,
,,,,,
,,,,,
,,,,,
,,,,,
,,,,,
,,,,,
,,,,,
,,,,,
,,,,,
,,,,,
,,,,,
,,,,,
,,,,,
,,,,,
,,,,,
,,,,,
,,,,,
,,,,,
,,,,,
,,,,,
,,,,,
,,,,,
,,,,,
,,,,,
,,,,,
,,,,,
,,,,,
,,,,,
,,,,,
,,,,,
,,,,,
,,,,,
,,,,,
,,,,,
,,,,,
,,,,,
,,,,,
,,,,,
,,,,,
,,,,,
,,,,,
,,,,,
,,,,,
,,,,,
,,,,,
,,,,,
,,,,,
,,,,,
,,,,,
,,,,,
,,,,,
,,,,,
,,,,,
4704960,-0.08000,83.3125,124,69,0.66325
4704970,-0.06500,82.6250,124,69,0.66374
4704980,-0.04000,82.1875,124,69,0.66056
4704990,-0.02000,81.8125,124,69,0.65543
4705000,-0.01500,80.8750,124,69,0.64005
4705010,-0.00500,80.4375,124,69,0.63077
4705020,0.02500,79.9375,124,69,0.61978
4705030,0.06000,79.5000,124,69,0.60708
4705040,0.04500,78.5000,124,69,0.57802
4705050,0.01500,78.0625,124,69,0.56190
4705060,-0.01500,77.5625,124,69,0.54481
4705070,-0.05500,77.1250,124,69,0.52747
4705080,-0.09000,76.6250,124,69,0.51013
4705090,-0.13500,75.6875,124,69,0.47741
4705100,-0.14500,75.2500,124,69,0.46422
4705110,-0.15500,74.7500,124,69,0.45324
4705120,-0.15500,73.8750,124,69,0.43321
4705130,-0.15500,73.5000,124,69,0.42466
4705140,-0.15000,73.1250,124,69,0.41758
4705150,-0.11500,72.8125,124,69,0.41172
4705160,0.01500,72.5625,124,69,0.40684
4705170,0.43500,72.0625,124,69,0.39927
4705180,0.90000,71.8750,124,69,0.39634
4705190,0.54500,71.6875,124,69,0.39390
4705200,-0.04000,71.5625,124,69,0.39170
4705210,-0.31000,71.3750,124,69,0.38852
4705220,-0.23000,71.2500,124,69,0.38657
4705230,-0.20000,71.0625,124,69,0.38462
4705240,-0.19000,70.8125,124,69,0.38242
4705250,-0.18000,70.5625,124,69,0.37802
4705260,-0.17000,70.3750,124,69,0.37582
4705270,-0.16000,70.1250,124,69,0.37338
4705280,-0.15500,69.6250,124,69,0.36801
4705290,-0.14500,69.3750,124,69,0.36508
4705300,-0.14000,69.0625,124,69,0.36264
4705310,-0.13500,68.6875,124,69,0.36020
4705320,-0.13500,68.3750,124,69,0.35702
4705330,-0.13000,67.7500,124,69,0.34847
4705340,-0.12000,67.4375,124,69,0.34335
4705350,-0.10500,67.1875,124,69,0.33773
4705360,-0.09500,66.9375,124,69,0.33211
4705370,-0.08000,66.6250,124,69,0.31990
4705380,-0.06500,66.7500,124,69,0.31380
4705390,-0.05000,67.3750,124,69,0.30769
4705400,-0.03500,70.6250,124,69,0.30183
4705410,-0.02000,73.5000,124,69,0.29402
4705420,-0.00500,77.0625,124,69,0.28987
4705430,0.02000,81.2500,124,69,0.28571
4705440,0.04000,85.8125,124,69,0.28156
4705450,0.06000,95.3125,124,69,0.27399
4705460,0.09000,99.9375,124,69,0.27033
4705470,0.11000,104.2500,124,69,0.26667
4705480,0.14000,108.1250,124,69,0.26325
4705490,0.17000,114.2500,124,69,0.25714
4705500,0.21500,116.4375,124,69,0.25519
4705510,0.24500,118.1250,124,69,0.25397
4705520,0.26500,120.0000,124,69,0.25055
4705530,0.26000,120.3125,124,69,0.24933
4705540,0.22500,120.3125,124,69,0.24860
4705550,0.15000,120.0625,124,69,0.24860
4705560,0.10000,119.4375,124,69,0.24908
4705570,0.04000,117.5625,124,69,0.25153
4705580,-0.00500,116.3750,124,69,0.25348
4705590,-0.04000,114.9375,124,69,0.25543
4705600,-0.06000,113.3750,124,69,0.25763
4705610,-0.07500,109.8750,124,69,0.26276
4705620,-0.09000,107.9375,124,69,0.26520
4705630,-0.09500,106.0000,124,69,0.26789
4705640,-0.10000,103.9375,124,69,0.27131
4705650,-0.10500,99.7500,124,69,0.28425
4705660,-0.10000,97.5625,124,69,0.29548
4705670,-0.09500,95.3750,124,69,0.31062
4705680,-0.09500,91.4375,124,69,0.35385
4705690,-0.09500,89.8750,124,69,0.38095
4705700,-0.08500,88.5625,124,69,0.40635
4705710,-0.08500,87.5000,124,69,0.43126
4705720,-0.08000,86.7500,124,69,0.45983
4705730,-0.08000,85.7500,124,69,0.51941
4705740,-0.08000,85.4375,124,69,0.54750
4705750,-0.08000,85.2500,124,69,0.57363
4705760,-0.08500,85.1250,124,69,0.59707
4705770,-0.08500,84.8750,124,69,0.63565
4705780,-0.09000,84.8125,124,69,0.65055
4705790,-0.09000,84.6250,124,69,0.66252
4705800,-0.09000,84.6250,124,69,0.66252
4705810,-0.09500,83.9375,124,69,0.68059
4705820,-0.10000,83.5625,124,69,0.68254
4705830,-0.09500,83.1875,124,69,0.68303
4705840,-0.08000,82.2500,124,69,0.67863
4705850,-0.05500,81.8125,124,69,0.67375
4705860,-0.03500,81.2500,124,69,0.66691
4705870,-0.03000,80.7500,124,69,0.65836
4705880,0.00000,79.6875,124,69,0.63565
4705890,0.03000,79.1250,124,69,0.62198
4705900,0.05000,78.6250,124,69,0.60855
4705910,0.01500,78.1875,124,69,0.59487
4705920,-0.01500,77.7500,124,69,0.57949
4705930,-0.04500,76.8750,124,69,0.54579
4705940,-0.09500,76.4375,124,69,0.52869
4705950,-0.12500,76.0000,124,69,0.51184
4705960,-0.14500,75.1875,124,69,0.48083
4705970,-0.14500,74.8125,124,69,0.46716
4705980,-0.14500,74.5000,124,69,0.45470
4705990,-0.14500,74.1875,124,69,0.44371
4706000,-0.13500,73.8750,124,69,0.43394
4706010,-0.13500,73.3125,124,69,0.42002
4706020,-0.05000,73.0625,124,69,0.41392
4706030,0.20500,72.8125,124,69,0.40806
4706040,0.73500,72.4375,124,69,0.40269
4706050,0.86000,72.2500,124,69,0.39341
4706060,0.32500,72.0625,124,69,0.38950
4706070,-0.24500,71.8750,124,69,0.38584
4706080,-0.26000,71.5000,124,69,0.37949
4706090,-0.21000,71.3750,124,69,0.37656
4706100,-0.19000,71.2500,124,69,0.37436
4706110,-0.19000,71.0625,124,69,0.37265
4706120,-0.18000,70.5625,124,69,0.37045
4706130,-0.17000,70.3125,124,69,0.36532
4706140,-0.16000,70.0000,124,69,0.36264
4706150,-0.15500,69.7500,124,69,0.35971
4706160,-0.15000,69.1875,124,69,0.35385
4706170,-0.14500,68.8750,124,69,0.35067
4706180,-0.13500,68.5000,124,69,0.34750
4706190,-0.12500,68.1875,124,69,0.34408
4706200,-0.12000,67.8750,124,69,0.34042
4706210,-0.11500,67.2500,124,69,0.33504
4706220,-0.10000,66.9375,124,69,0.33187
4706230,-0.09000,66.6875,124,69,0.32821
4706240,-0.08000,66.5625,124,69,0.32454
4706250,-0.06500,67.3125,124,69,0.31648
4706260,-0.04500,68.6250,124,69,0.31233
4706270,-0.02000,70.7500,124,69,0.30818
4706280,0.00000,73.8125,124,69,0.30403
4706290,0.03000,81.8125,124,69,0.29597
4706300,0.06000,86.5000,124,69,0.29304
4706310,0.09000,91.4375,124,69,0.29084
4706320,0.13500,101.2500,124,69,0.28474
4706330,0.16000,105.6875,124,69,0.28156
4706340,0.19500,109.6875,124,69,0.27863
4706350,0.22500,113.1250,124,69,0.27570
4706360,0.25500,118.1875,124,69,0.27033
4706370,0.28500,119.8750,124,69,0.26838
4706380,0.31500,121.0625,124,69,0.26691
4706390,0.34000,121.8125,124,69,0.26593
4706400,0.34000,122.1875,124,69,0.26545
4706410,0.28500,121.9375,124,69,0.26667
4706420,0.22500,121.3750,124,69,0.26740
4706430,0.16500,120.6250,124,69,0.26813
4706440,0.11000,119.6875,124,69,0.26911
4706450,0.06000,117.1250,124,69,0.27155
4706460,0.03500,115.6250,124,69,0.27302
4706470,0.02000,113.9375,124,69,0.27473
4706480,0.02000,110.3750,124,69,0.27790
4706490,0.02000,108.4375,124,69,0.28864
4706500,0.02500,106.3750,124,69,0.30476
4706510,0.03000,104.3125,124,69,0.31624
4706520,0.02500,102.1250,124,69,0.32698
4706530,0.02000,97.6250,124,69,0.35629
4706540,0.00000,95.4375,124,69,0.37680
4706550,-0.00500,93.3125,124,69,0.40195
4706560,-0.01000,91.5000,124,69,0.43077
4706570,-0.01500,88.6250,124,69,0.49670
4706580,-0.01500,87.6875,124,69,0.53138
4706590,-0.00500,86.8750,124,69,0.56581
4706600,0.00000,85.9375,124,69,0.61954
4706610,0.00000,85.6875,124,69,0.64591
4706620,-0.00500,85.5000,124,69,0.67131
4706630,-0.00500,85.3750,124,69,0.69451
4706640,-0.00500,85.3125,124,69,0.71502
4706650,0.01000,85.0625,124,69,0.74750
4706660,0.02000,84.9375,124,69,0.75946
4706670,0.02000,84.7500,124,69,0.76874
4706680,0.03500,84.1250,124,69,0.77534
4706690,0.07000,83.8125,124,69,0.78071
4706700,0.10000,83.4375,124,69,0.77924
4706710,0.14000,83.0000,124,69,0.77534
4706720,0.16000,82.1250,124,69,0.76264
4706730,0.15500,81.6250,124,69,0.75360
4706740,0.15500,81.1250,124,69,0.74286
4706750,0.17500,80.6250,124,69,0.73040
4706760,0.17500,79.6875,124,69,0.70110
4706770,0.14000,79.1875,124,69,0.68449
4706780,0.08500,78.6875,124,69,0.66667
4706790,0.03000,78.2500,124,69,0.64786
4706800,0.03000,78.2500,124,69,0.64786
4706810,-0.07500,76.9375,124,69,0.59609
4706820,-0.11500,76.5000,124,69,0.57778
4706830,-0.12500,76.0625,124,69,0.55995
4706840,-0.12500,75.6250,124,69,0.54310
4706850,-0.11500,74.8750,124,69,0.51331
4706860,-0.10500,74.5000,124,69,0.50061
4706870,-0.10500,74.1875,124,69,0.48938
4706880,-0.08500,73.5625,124,69,0.47961
4706890,0.18000,73.2500,124,69,0.46422
4706900,0.58500,73.0000,124,69,0.45885
4706910,1.02000,72.7500,124,69,0.45446
4706920,0.50500,72.3125,124,69,0.44615
4706930,-0.07500,72.1250,124,69,0.44249
4706940,-0.26000,71.9375,124,69,0.43883
4706950,-0.17500,71.6875,124,69,0.43565
4706960,-0.15500,71.5000,124,69,0.43248
4706970,-0.14500,71.0625,124,69,0.42637
4706980,-0.14000,70.8125,124,69,0.42344
4706990,-0.13500,70.5000,124,69,0.42027
4707000,-0.13000,69.9375,125,69,0.41587
4707010,-0.12500,69.6250,125,69,0.41343
4707020,-0.12500,69.3125,125,69,0.41074
4707030,-0.12500,69.0000,125,69,0.40757
4707040,-0.11500,68.3750,125,69,0.40024
4707050,-0.11500,68.0625,125,69,0.39634
4707060,-0.12000,67.6875,125,69,0.39219
4707070,-0.12000,67.4375,125,69,0.38803
4707080,-0.12000,67.1250,125,69,0.38364
4707090,-0.11500,66.6875,125,69,0.37436
4707100,-0.12000,66.6250,125,69,0.37070
4707110,-0.12000,67.0000,125,69,0.36752
4707120,-0.11500,67.9375,125,69,0.36337
4707130,-0.11500,72.3125,125,69,0.35433
4707140,-0.10500,75.6875,125,69,0.34969
4707150,-0.09500,79.8125,125,69,0.34481
4707160,-0.08500,89.4375,125,69,0.34017
4707170,-0.06500,94.5625,125,69,0.33040
4707180,-0.05500,99.6250,125,69,0.32552
4707190,-0.03500,104.3750,125,69,0.32088
4707200,-0.01500,108.8125,125,69,0.31770
4707210,0.00000,115.9375,125,69,0.31233
4707220,0.03500,118.6250,125,69,0.30940
4707230,0.09000,120.7500,125,69,0.30672
4707240,0.12000,122.3125,125,69,0.30452
4707250,0.13000,124.0625,125,69,0.30134
4707260,0.12000,124.3750,125,69,0.30037
4707270,0.08000,124.3750,125,69,0.29988
4707280,0.01000,123.5625,125,69,0.29988
4707290,-0.03500,122.8125,125,69,0.30037
4707300,-0.08500,121.8125,125,69,0.30159
4707310,-0.12500,120.5625,125,69,0.30330
4707320,-0.13500,119.2500,125,69,0.30501
4707330,-0.15000,116.0625,125,69,0.30842
4707340,-0.15500,114.2500,125,69,0.31038
4707350,-0.15500,112.3750,125,69,0.31258
4707360,-0.15500,110.3750,125,69,0.31575
4707370,-0.15500,106.1875,125,69,0.32698
4707380,-0.15500,103.9375,125,69,0.33724
4707390,-0.15500,101.6875,125,69,0.35165
4707400,-0.15000,97.0000,125,69,0.38681
4707410,-0.14500,94.8750,125,69,0.41172
4707420,-0.14000,92.9375,125,69,0.44127
4707430,-0.13500,91.3750,125,69,0.47424
4707440,-0.12500,89.0625,125,69,0.54457
4707450,-0.12000,88.3125,125,69,0.57949
4707460,-0.11500,87.8125,125,69,0.61270
4707470,-0.12000,87.4375,125,69,0.64396
4707480,-0.12500,87.1875,125,69,0.67277
4707490,-0.12500,86.9375,125,69,0.72112
4707500,-0.13500,86.8750,125,69,0.73797
4707510,-0.13000,86.8125,125,69,0.75067
4707520,-0.12000,86.6250,125,69,0.77436
4707530,-0.12500,86.4375,125,69,0.78339
4707540,-0.13000,86.1875,125,69,0.78999
4707550,-0.13500,85.8750,125,69,0.79414
4707560,-0.13000,85.1875,125,69,0.79512
4707570,-0.11500,84.7500,125,69,0.79219
4707580,-0.08500,84.3125,125,69,0.78706
4707590,-0.07500,83.8750,125,69,0.77973
4707600,-0.06500,83.3750,125,69,0.77070
4707610,-0.03500,82.3750,125,69,0.74847
4707620,-0.00500,81.8750,125,69,0.73504
4707630,0.01000,81.3750,125,69,0.72015
4707640,-0.00500,80.3750,125,69,0.68620
4707650,-0.04500,79.8750,125,69,0.66789
4707660,-0.06500,79.3750,125,69,0.64884
4707670,-0.12500,78.9375,125,69,0.62955
4707680,-0.15500,78.4375,125,69,0.61050
4707690,-0.17500,77.5625,125,69,0.57509
4707700,-0.18000,77.1250,125,69,0.56044
4707710,-0.18000,76.6875,125,69,0.54774
4707720,-0.17500,76.2500,125,69,0.53553
4707730,-0.16000,75.5000,125,69,0.51380
4707740,-0.16000,75.1875,125,69,0.50501
4707750,-0.07500,74.8750,125,69,0.49744
4707760,0.19500,74.6250,125,69,0.49109
4707770,0.77500,74.1250,125,69,0.48132
4707780,0.93500,73.9375,125,69,0.47766
4707790,0.21500,73.7500,125,69,0.47448
4707800,0.21500,73.7500,125,69,0.47448
4707810,-0.30000,73.1875,125,69,0.46813
4707820,-0.24500,73.0000,125,69,0.46618
4707830,-0.23000,72.8125,125,69,0.46422
4707840,-0.22500,72.4375,125,69,0.46007
4707850,-0.22000,72.2500,125,69,0.45763
4707860,-0.21000,72.0000,125,69,0.45519
4707870,-0.20000,71.7500,125,69,0.45250
4707880,-0.19500,71.5000,125,69,0.44957
4707890,-0.18500,70.9375,125,69,0.44371
4707900,-0.18000,70.6875,125,69,0.44103
4707910,-0.17000,70.4375,125,69,0.43858
4707920,-0.16500,70.1250,125,69,0.43541
4707930,-0.16000,69.5625,125,69,0.42833
4707940,-0.14500,69.3125,125,69,0.42442
4707950,-0.16000,69.1250,125,69,0.42051
4707960,-0.16500,69.0000,125,69,0.41636
4707970,-0.14500,69.6250,125,69,0.40781
4707980,-0.10000,70.8125,125,69,0.40342
4707990,-0.08000,72.8750,125,69,0.39878
4708000,-0.06000,75.8750,125,69,0.39512
4708010,-0.03500,84.1875,125,69,0.38803
4708020,-0.01500,89.1250,125,69,0.38413
4708030,0.01000,94.2500,125,69,0.38046
4708040,0.04000,104.5625,125,69,0.37338
4708050,0.06000,109.2500,125,69,0.37021
4708060,0.09000,113.5625,125,69,0.36728
4708070,0.12000,117.2500,125,69,0.36459
4708080,0.14000,120.3750,125,69,0.36239
4708090,0.17000,124.8750,125,69,0.35897
4708100,0.20500,126.3125,125,69,0.35849
4708110,0.22500,127.3125,125,69,0.35849
4708120,0.23000,128.1875,125,69,0.35849
4708130,0.21500,128.2500,125,69,0.35897
4708140,0.16000,128.0000,125,69,0.35971
4708150,0.10000,127.5625,125,69,0.36068
4708160,0.03000,126.0000,125,69,0.36386
4708170,-0.00500,124.9375,125,69,0.36557
4708180,-0.04500,123.6875,125,69,0.36703
4708190,-0.06500,122.3125,125,69,0.36825
4708200,-0.08500,120.7500,125,69,0.36972
4708210,-0.09500,117.3125,125,69,0.37314
4708220,-0.10500,115.5000,125,69,0.37534
4708230,-0.10500,113.5000,125,69,0.37924
4708240,-0.11000,109.3750,125,69,0.39560
4708250,-0.11000,107.1875,125,69,0.41001
4708260,-0.10500,104.9375,125,69,0.42930
4708270,-0.10500,102.6875,125,69,0.45324
4708280,-0.10500,98.6875,125,69,0.51233
4708290,-0.10500,96.9375,125,69,0.54090
4708300,-0.09500,95.5000,125,69,0.56801
4708310,-0.08500,94.3125,125,69,0.59902
4708320,-0.08000,93.4375,125,69,0.63126
4708330,-0.07500,92.1250,125,69,0.69255
4708340,-0.07500,91.6875,125,69,0.72015
4708350,-0.08500,91.3750,125,69,0.74530
4708360,-0.08500,91.1250,125,69,0.76777
4708370,-0.08500,90.6875,125,69,0.80440
4708380,-0.08500,90.4375,125,69,0.81856
4708390,-0.08000,90.1875,125,69,0.83004
4708400,-0.08500,89.6250,125,69,0.84078
4708410,-0.10000,89.2500,125,69,0.84420
4708420,-0.11000,88.8125,125,69,0.84640
4708430,-0.10500,88.3750,125,69,0.84689
4708440,-0.07500,87.8750,125,69,0.84518
4708450,-0.04500,86.7500,125,69,0.83590
4708460,-0.03000,86.1875,125,69,0.82833
4708470,-0.01500,85.6250,125,69,0.81880
4708480,0.03500,84.5000,125,69,0.79463
4708490,0.06000,83.9375,125,69,0.78120
4708500,0.05000,83.3750,125,69,0.76728
4708510,0.02000,82.8750,125,69,0.75140
4708520,-0.00500,82.3750,125,69,0.73455
4708530,-0.05000,81.3750,125,69,0.69890
4708540,-0.11500,80.8750,125,69,0.66056
4708550,-0.14500,80.4375,125,69,0.61270
4708560,-0.16000,80.0000,125,69,0.58144
4708570,-0.17000,79.1250,125,69,0.54164
4708580,-0.16500,78.7500,125,69,0.52747
4708590,-0.15500,78.3750,125,69,0.51526
4708600,-0.15500,77.7500,125,69,0.50549
4708610,-0.14500,77.5000,125,69,0.49011
4708620,0.00000,77.1875,125,69,0.48352
4708630,0.62000,76.9375,125,69,0.47766
4708640,1.05500,76.6250,125,69,0.47131
4708650,0.89000,76.1875,125,69,0.46252
4708660,0.10000,76.0000,125,69,0.45885
4708670,-0.27000,75.8125,125,69,0.45519
4708680,-0.23000,75.5625,125,69,0.45153
4708690,-0.20000,75.1250,125,69,0.44420
4708700,-0.20000,74.8750,125,69,0.44103
4708710,-0.20000,74.6250,125,69,0.43761
4708720,-0.19500,74.3750,125,69,0.43394
4708730,-0.18500,73.8125,125,69,0.42589
4708740,-0.18000,73.5000,125,69,0.42149
4708750,-0.17000,73.2500,125,69,0.41685
4708760,-0.16500,72.9375,125,69,0.41221
4708770,-0.16000,72.3750,125,69,0.40293
4708780,-0.15000,72.0625,125,69,0.39805
4708790,-0.14000,71.8125,125,69,0.39316
4708800,-0.13000,71.5000,125,69,0.38877
4708810,-0.12000,71.0625,125,69,0.37998
4708820,-0.10500,71.0000,125,69,0.37509
4708830,-0.09000,71.1250,125,69,0.36996
4708840,-0.07500,72.8750,125,69,0.35971
4708850,-0.05500,75.0000,125,69,0.35458
4708860,-0.03500,78.0625,125,69,0.34969
4708870,-0.01500,81.9375,125,69,0.34505
4708880,0.00000,86.5000,125,69,0.34042
4708890,0.03000,96.7500,125,69,0.33260
4708900,0.05000,102.0000,125,69,0.32991
4708910,0.07000,107.1250,125,69,0.32698
4708920,0.10000,116.0625,125,69,0.32112
4708930,0.11500,119.7500,125,69,0.31868
4708940,0.14000,122.7500,125,69,0.31673
4708950,0.16500,125.1875,125,69,0.31502
4708960,0.19500,127.0625,125,69,0.31380
4708970,0.22500,129.3750,125,69,0.31306
4708980,0.23500,130.0000,125,69,0.31331
4708990,0.22500,130.2500,125,69,0.31404
4709000,0.18000,130.0625,124,69,0.31673
4709010,0.13000,129.6250,124,69,0.31844
4709020,0.06000,129.0000,124,69,0.32015
4709030,0.00000,128.1250,124,69,0.32186
4709040,-0.03500,127.1875,124,69,0.32357
4709050,-0.06500,124.6875,124,69,0.32674
4709060,-0.08500,123.1875,124,69,0.32796
4709070,-0.09500,121.5625,124,69,0.32918
4709080,-0.10000,118.0625,124,69,0.33236
4709090,-0.10000,116.1250,124,69,0.33529
4709100,-0.10000,114.0625,124,69,0.33993
4709110,-0.10000,111.8750,124,69,0.34725
4709120,-0.09500,109.5625,124,69,0.35849
4709130,-0.09500,104.6875,124,69,0.39365
4709140,-0.09000,102.1875,124,69,0.41709
4709150,-0.08500,99.7500,124,69,0.44371
4709160,-0.08000,95.7500,124,69,0.50232
4709170,-0.07500,94.3125,124,69,0.53187
4709180,-0.07500,93.1250,124,69,0.56068
4709190,-0.07500,92.2500,124,69,0.58803
4709200,-0.07000,91.5625,124,69,0.60977
4709210,-0.06500,90.7500,124,69,0.64689
4709220,-0.06500,90.5000,124,69,0.66471
4709230,-0.06000,90.2500,124,69,0.68083
4709240,-0.06000,90.0625,124,69,0.69499
4709250,-0.06500,89.6875,124,69,0.71600
4709260,-0.06500,89.4375,124,69,0.72308
4709270,-0.06500,89.1250,124,69,0.72821
4709280,-0.06500,88.7500,124,69,0.73114
4709290,-0.06500,87.9375,124,69,0.73089
4709300,-0.05000,87.4375,124,69,0.72772
4709310,-0.02500,86.8750,124,69,0.72381
4709320,0.00000,86.3125,124,69,0.71844
4709330,0.01000,85.1875,124,69,0.70403
4709340,0.03000,84.6250,124,69,0.69475
4709350,0.05000,84.0000,124,69,0.68400
4709360,0.08000,83.4375,124,69,0.67204
4709370,0.07000,82.3125,124,69,0.64396
4709380,0.04000,81.8125,124,69,0.62808
4709390,0.01500,81.2500,124,69,0.61148
4709400,-0.02500,80.1875,124,69,0.59585
4709410,-0.07500,79.6250,124,69,0.56459
4709420,-0.09500,79.1250,124,69,0.54847
4709430,-0.10500,78.6875,124,69,0.53260
4709440,-0.11000,77.7500,124,69,0.50403
4709450,-0.10500,77.3125,124,69,0.49158
4709460,-0.09500,76.8750,124,69,0.48059
4709470,-0.09000,76.5625,124,69,0.47082
4709480,-0.08000,75.8125,124,69,0.45519
4709490,0.05500,75.5000,124,69,0.44908
4709500,0.52500,75.1875,124,69,0.44396
4709510,1.06500,74.8750,124,69,0.43883
4709520,0.80500,74.6250,124,69,0.43394
4709530,0.04000,74.1250,124,69,0.42418
4709540,-0.26000,73.9375,124,69,0.41929
4709550,-0.20000,73.7500,124,69,0.41465
4709560,-0.17000,73.5000,124,69,0.41001
4709570,-0.16500,73.0625,124,69,0.40024
4709580,-0.16500,72.8125,124,69,0.39487
4709590,-0.16000,72.5000,124,69,0.38926
4709600,-0.15500,71.8750,124,69,0.37973
4709610,-0.15000,71.5625,124,69,0.37411
4709620,-0.14500,71.1875,124,69,0.36801
4709630,-0.13500,70.8750,124,69,0.36142
4709640,-0.12500,70.1875,124,69,0.34799
4709650,-0.12000,69.8750,124,69,0.34115
4709660,-0.11500,69.5000,124,69,0.33236
4709670,-0.10500,69.1875,124,69,0.32430
4709680,-0.09500,68.8750,124,69,0.31868
4709690,-0.08500,68.3750,124,69,0.30720
4709700,-0.06500,68.3750,124,69,0.30232
4709710,-0.05500,68.6250,124,69,0.29646
4709720,-0.04500,69.5625,124,69,0.29011
4709730,-0.02500,73.7500,124,69,0.27766
4709740,-0.00500,77.1875,124,69,0.27155
4709750,0.01000,81.3125,124,69,0.26545
4709760,0.03500,90.8750,124,69,0.25397
4709770,0.05000,95.9375,124,69,0.24884
4709780,0.07000,100.9375,124,69,0.24396
4709790,0.09500,105.6875,124,69,0.23932
4709800,0.09500,105.6875,124,69,0.23932
4709810,0.14000,117.0000,124,69,0.23077
4709820,0.15500,119.5625,124,69,0.22784
4709830,0.18500,121.6250,124,69,0.22515
4709840,0.21500,124.1250,124,69,0.22125
4709850,0.23000,124.6875,124,69,0.22002
4709860,0.22500,124.9375,124,69,0.21929
4709870,0.18000,124.8750,124,69,0.21905
4709880,0.13500,124.5625,124,69,0.21929
4709890,0.07000,123.3125,124,69,0.22149
4709900,0.01500,122.3125,124,69,0.22369
4709910,-0.02500,121.1250,124,69,0.22564
4709920,-0.06500,118.1875,124,69,0.22955
4709930,-0.08500,116.5625,124,69,0.23150
4709940,-0.10000,114.8125,124,69,0.23370
4709950,-0.10500,112.9375,124,69,0.23590
4709960,-0.11500,110.9375,124,69,0.23858
4709970,-0.11500,106.6875,124,69,0.24811
4709980,-0.11500,104.4375,124,69,0.25641
4709990,-0.11500,102.0625,124,69,0.26813
4710000,-0.11000,99.6250,124,69,0.28156
4710010,-0.10500,94.8750,124,69,0.31770
4710020,-0.10000,92.6875,124,69,0.34237
4710030,-0.10000,90.8750,124,69,0.36972
4710040,-0.09500,89.3750,124,69,0.39853
4710050,-0.09500,87.3750,124,69,0.45714
4710060,-0.09500,86.7500,124,69,0.48474
4710070,-0.09500,86.3125,124,69,0.51013
4710080,-0.09500,86.0000,124,69,0.53333
4710090,-0.09500,85.8125,124,69,0.56947
4710100,-0.09500,85.8125,124,69,0.58169
4710110,-0.08500,85.7500,124,69,0.59341
4710120,-0.08500,85.6250,124,69,0.60366
4710130,-0.08500,85.4375,124,69,0.61807
4710140,-0.08500,85.1875,124,69,0.62198
4710150,-0.08500,84.8750,124,69,0.62369
4710160,-0.07500,84.1875,124,69,0.62076
4710170,-0.07000,83.7500,124,69,0.61636
4710180,-0.05500,83.3125,124,69,0.61026
4710190,-0.04500,82.8125,124,69,0.60293
4710200,-0.03500,82.3750,124,69,0.59463
4710210,0.00000,81.3750,124,69,0.57363
4710220,0.03500,80.8750,124,69,0.56093
4710230,0.04500,80.3750,124,69,0.54725
4710240,0.01500,79.8750,124,69,0.53236
4710250,-0.02500,78.8750,124,69,0.49939
4710260,-0.05500,78.3750,124,69,0.48181
4710270,-0.09500,77.9375,124,69,0.46349
4710280,-0.13500,77.0000,124,69,0.42686
4710290,-0.13500,76.6250,124,69,0.41172
4710300,-0.12500,76.2500,124,69,0.39853
4710310,-0.12000,75.9375,124,69,0.38486
4710320,-0.11500,75.5625,124,69,0.37192
4710330,-0.11000,74.8750,124,69,0.34969
4710340,-0.11000,74.5625,124,69,0.34090
4710350,0.00000,74.2500,124,69,0.33333
4710360,0.29000,73.9375,124,69,0.32698
4710370,0.82500,73.4375,124,69,0.31697
4710380,0.79500,73.1875,124,69,0.31306
4710390,0.22000,72.9375,124,69,0.31013
4710400,-0.27000,72.6875,124,69,0.30794
4710410,-0.26000,72.3125,124,69,0.30305
4710420,-0.19500,72.0625,124,69,0.30037
4710430,-0.18000,71.8750,124,69,0.29792
4710440,-0.18000,71.6250,124,69,0.29524
4710450,-0.17500,71.1250,124,69,0.29035
4710460,-0.17500,70.8125,124,69,0.28767
4710470,-0.17000,70.5625,124,69,0.28523
4710480,-0.16000,70.2500,124,69,0.28254
4710490,-0.15500,69.6875,124,69,0.27814
4710500,-0.14000,69.3750,124,69,0.27668
4710510,-0.13500,69.0000,124,69,0.27448
4710520,-0.12500,68.6875,124,69,0.27179
4710530,-0.12000,68.0625,124,69,0.26593
4710540,-0.11500,67.7500,124,69,0.26276
4710550,-0.10500,67.4375,124,69,0.25934
4710560,-0.09000,67.0625,124,69,0.25275
4710570,-0.07500,67.1250,124,69,0.24908
4710580,-0.05500,67.6250,124,69,0.24542
4710590,-0.03500,68.9167,124,69,0.25169
4710600,-0.01500,71.0000,124,69,0.26007
4710610,-0.00500,73.8750,124,69,0.26276
4710620,0.01500,77.5000,124,69,0.26227
4710630,0.04000,81.6250,124,69,0.26007
4710640,0.05000,86.1875,124,69,0.25714
4710650,0.07500,95.8750,124,69,0.25128
4710660,0.10000,100.5000,124,69,0.24860
4710670,0.11000,104.8750,124,69,0.24615
4710680,0.14000,108.8125,124,69,0.24396
4710690,0.17500,115.0000,124,69,0.24127
4710700,0.20500,117.2500,124,69,0.24127
4710710,0.22500,118.9375,124,69,0.24127
4710720,0.23000,120.1250,124,69,0.24103
4710730,0.20000,121.0625,124,69,0.24151
4710740,0.15500,121.0000,124,69,0.24249
4710750,0.09000,120.6875,124,69,0.24396
4710760,0.02000,120.0625,124,69,0.24567
4710770,-0.04500,118.1875,124,69,0.24982
4710780,-0.08000,116.9375,124,69,0.25226
4710790,-0.10000,115.5000,124,69,0.25446
4710800,-0.10000,115.5000,124,69,0.25446
4710810,-0.12500,110.3125,124,69,0.26203
4710820,-0.12500,108.3750,124,69,0.26398
4710830,-0.12500,106.3750,124,69,0.26593
4710840,-0.12000,102.0625,124,69,0.27277
4710850,-0.12000,99.8125,124,69,0.27937
4710860,-0.12000,97.5000,124,69,0.28889
4710870,-0.11500,95.1875,124,69,0.30208
4710880,-0.11500,92.9375,124,69,0.31941
4710890,-0.10500,89.1875,124,69,0.36581
4710900,-0.09500,87.7500,124,69,0.38974
4710910,-0.09500,86.6250,124,69,0.41343
4710920,-0.09500,85.7500,124,69,0.44078
4710930,-0.09500,84.6250,124,69,0.49866
4710940,-0.09500,84.2500,124,69,0.52650
4710950,-0.09500,84.0625,124,69,0.55238
4710960,-0.09500,83.8750,124,69,0.57582
4710970,-0.08500,83.7500,124,69,0.61490
4710980,-0.08500,83.7500,124,69,0.63028
4710990,-0.09500,83.6875,124,69,0.64298
4711000,-0.10000,83.4375,124,69,0.65153
4711010,-0.10500,83.2500,124,69,0.66154
4711020,-0.09500,83.0000,124,69,0.66447
4711030,-0.08500,82.6875,124,69,0.66569
4711040,-0.06500,82.3125,124,69,0.66471
4711050,-0.03500,81.4375,124,69,0.65690
4711060,-0.01500,81.0000,124,69,0.64982
4711070,-0.00500,80.5625,124,69,0.64103
4711080,0.01500,79.5625,124,69,0.61807
4711090,0.05500,79.0625,124,69,0.60440
4711100,0.06000,78.6250,124,69,0.59121
4711110,0.03500,78.1250,124,69,0.57778
4711120,-0.00500,77.1250,124,69,0.54628
4711130,-0.03500,76.6250,124,69,0.52943
4711140,-0.07500,76.1875,124,69,0.51233
4711150,-0.12500,75.7500,124,69,0.49548
4711160,-0.14000,75.3125,124,69,0.47912
4711170,-0.14500,74.5000,124,69,0.44860
4711180,-0.15500,74.1250,124,69,0.43492
4711190,-0.15000,73.6875,124,69,0.42247
4711200,-0.14500,73.3125,124,69,0.41270
4711210,-0.14500,72.5625,124,69,0.39634
4711220,-0.11000,72.1875,124,69,0.38901
4711230,0.25000,71.8125,124,69,0.38266
4711240,0.68500,71.5625,124,69,0.37729
4711250,0.87000,71.2500,124,69,0.36874
4711260,0.13500,71.1875,124,69,0.36532
4711270,-0.29500,71.1250,124,69,0.36239
4711280,-0.31000,71.1250,124,69,0.35726
4711290,-0.26000,71.0625,124,69,0.35482
4711300,-0.23000,70.9375,124,69,0.35287
4711310,-0.22000,70.8125,124,69,0.35092
4711320,-0.21000,70.6875,124,69,0.34847
4711330,-0.20000,70.2500,124,69,0.34212
4711340,-0.19000,70.0000,124,69,0.33895
4711350,-0.18000,69.7500,124,69,0.33578
4711360,-0.17500,69.4375,124,69,0.33260
4711370,-0.17000,68.8750,124,69,0.32650
4711380,-0.16500,68.6250,124,69,0.32357
4711390,-0.16000,68.3125,124,69,0.32088
4711400,-0.14500,68.0000,124,69,0.31868
4711410,-0.13500,67.3750,124,69,0.31453
4711420,-0.12500,67.0625,124,69,0.31160
4711430,-0.11500,66.8125,124,69,0.30794
4711440,-0.09500,66.6250,124,69,0.30379
4711450,-0.06500,67.0625,124,69,0.29377
4711460,-0.04500,68.0625,124,69,0.28840
4711470,-0.02000,69.9375,124,69,0.28278
4711480,-0.00500,72.5625,124,69,0.27717
4711490,0.01500,79.9375,124,69,0.26764
4711500,0.04000,84.3750,124,69,0.26496
4711510,0.05500,89.0625,124,69,0.26374
4711520,0.08000,93.9375,124,69,0.26252
4711530,0.10000,103.1250,124,69,0.26105
4711540,0.12000,107.2500,124,69,0.26081
4711550,0.14000,110.8125,124,69,0.26056
4711560,0.17500,116.3125,124,69,0.25983
4711570,0.20500,118.2500,124,69,0.25910
4711580,0.22500,119.6875,124,69,0.25788
4711590,0.23500,120.6875,124,69,0.25665
4711600,0.21500,121.3125,124,69,0.25665
4711610,0.16500,121.5625,124,69,0.25690
4711620,0.10000,121.3125,124,69,0.25714
4711630,0.03500,120.7500,124,69,0.25763
4711640,-0.02000,118.9375,124,69,0.26081
4711650,-0.05000,117.7500,124,69,0.26325
4711660,-0.07000,116.3125,124,69,0.26593
4711670,-0.08500,114.7500,124,69,0.26862
4711680,-0.10000,111.1875,124,69,0.27399
4711690,-0.10500,109.2500,124,69,0.27668
4711700,-0.10500,107.1875,124,69,0.27985
4711710,-0.11000,105.0625,124,69,0.28400
4711720,-0.11000,102.8750,124,69,0.29231
4711730,-0.11000,98.3125,124,69,0.31038
4711740,-0.11000,96.0625,124,69,0.32430
4711750,-0.11000,93.8125,124,69,0.34286
4711760,-0.10500,90.1250,124,69,0.36581
4711770,-0.10500,88.7500,124,69,0.42125
4711780,-0.10000,87.6250,124,69,0.45201
4711790,-0.09500,86.6875,124,69,0.48376
4711800,-0.09500,86.6875,124,69,0.48376
4711810,-0.09500,85.2500,124,69,0.56117
4711820,-0.09500,85.0000,124,69,0.58681
4711830,-0.09500,84.8750,124,69,0.61099
4711840,-0.10000,84.6875,124,69,0.65201
4711850,-0.10000,84.5625,124,69,0.66862
4711860,-0.10000,84.4375,124,69,0.68254
4711870,-0.10000,84.2500,124,69,0.69402
4711880,-0.10000,84.0000,124,69,0.70256
4711890,-0.10500,83.3750,124,69,0.71233
4711900,-0.09500,83.0000,124,69,0.71282
4711910,-0.07500,82.6250,124,69,0.71087
4711920,-0.05500,81.6875,124,69,0.70379
4711930,-0.04000,81.1875,124,69,0.69792
4711940,-0.03000,80.6875,124,69,0.69035
4711950,-0.00500,80.1875,124,69,0.68107
4711960,0.02500,79.6875,124,69,0.67033
4711970,0.04500,78.7500,124,69,0.64420
4711980,0.01000,78.3125,124,69,0.62906
4711990,-0.02000,77.8750,124,69,0.61270
4712000,-0.05500,76.9375,124,69,0.59707
4712010,-0.10500,76.5000,124,69,0.56532
4712020,-0.14500,76.1250,124,69,0.54799
4712030,-0.17000,75.6875,124,69,0.53114
4712040,-0.19000,74.8750,124,69,0.49963
4712050,-0.19000,74.5000,124,69,0.48571
4712060,-0.19500,74.1250,124,69,0.47326
4712070,-0.19000,73.8125,124,69,0.46203
4712080,-0.18000,73.1250,124,69,0.44396
4712090,-0.15000,72.8750,124,69,0.43736
4712100,0.08000,72.6250,124,69,0.43199
4712110,0.72000,72.3750,124,69,0.42662
4712120,0.95000,72.1250,124,69,0.42173
4712130,0.27500,71.6250,124,69,0.41270
4712140,-0.30000,71.4375,124,69,0.40879
4712150,-0.45000,71.1875,124,69,0.40513
4712160,-0.41500,71.0000,124,69,0.40147
4712170,-0.41000,70.5625,124,69,0.39463
4712180,-0.41500,70.3125,124,69,0.39145
4712190,-0.40500,70.0625,124,69,0.38828
4712200,-0.38000,69.5000,124,69,0.38559
4712210,-0.35500,69.2500,124,69,0.38071
4712220,-0.32000,68.9375,124,69,0.37778
4712230,-0.29000,68.6875,124,69,0.37485
4712240,-0.24500,68.0625,124,69,0.37143
4712250,-0.21000,67.6875,124,69,0.36435
4712260,-0.18500,67.4375,124,69,0.36093
4712270,-0.16500,67.1250,124,69,0.35726
4712280,-0.14000,66.5000,124,69,0.34994
4712290,-0.11500,66.2500,124,69,0.34725
4712300,-0.08500,66.0625,124,69,0.34481
4712310,-0.03500,65.9375,124,69,0.34139
4712320,0.00500,66.0000,124,69,0.33773
4712330,0.06000,67.5625,124,69,0.32943
4712340,0.13000,69.4375,124,69,0.32527
4712350,0.18500,72.2500,124,69,0.32112
4712360,0.21500,75.7500,124,69,0.31697
4712370,0.26500,84.5000,124,69,0.30891
4712380,0.28500,89.3125,124,69,0.30501
4712390,0.30000,94.2500,124,69,0.30110
4712400,0.30000,99.0000,124,69,0.29841
4712410,0.29500,107.6875,124,69,0.29377
4712420,0.31000,111.3125,124,69,0.29084
4712430,0.35500,114.3125,124,69,0.28816
4712440,0.41000,116.8125,124,69,0.28547
4712450,0.49500,120.1250,124,69,0.28156
4712460,0.56500,121.1250,124,69,0.28010
4712470,0.58500,121.6875,124,69,0.27937
4712480,0.56500,122.0000,124,69,0.27937
4712490,0.49500,121.7500,124,69,0.28083
4712500,0.43500,121.1875,124,69,0.28278
4712510,0.35000,120.4375,124,69,0.28449
4712520,0.27000,118.3750,124,69,0.28840
4712530,0.22000,117.0000,124,69,0.29011
4712540,0.17500,115.5000,124,69,0.29182
4712550,0.14500,113.8125,124,69,0.29328
4712560,0.13500,110.1875,124,69,0.29646
4712570,0.14500,108.2500,124,69,0.29890
4712580,0.16500,106.1250,124,69,0.30256
4712590,0.18500,104.0000,124,69,0.30842
4712600,0.18500,101.7500,124,69,0.31575
4712610,0.19000,97.1250,124,69,0.33944
4712620,0.21500,94.8750,124,69,0.35775
4712630,0.25500,92.8125,124,69,0.37998
4712640,0.28500,91.0000,124,69,0.40562
4712650,0.30500,88.1875,124,69,0.47692
4712660,0.32000,87.1875,124,69,0.51160
4712670,0.33000,86.4375,124,69,0.54383
4712680,0.33000,85.8125,124,69,0.57363
4712690,0.32000,85.1250,124,69,0.62295
4712700,0.30500,84.9375,124,69,0.64078
4712710,0.28000,84.8125,124,69,0.65861
4712720,0.25000,84.7500,124,69,0.69060
4712730,0.22500,84.6250,124,69,0.70354
4712740,0.18500,84.5000,124,69,0.71502
4712750,0.11500,84.3125,124,69,0.72357
4712760,0.06500,84.0625,124,69,0.72845
4712770,0.01500,83.4375,124,69,0.73187
4712780,-0.02500,83.0625,124,69,0.73065
4712790,-0.05500,82.6875,124,69,0.72747
4712800,-0.11000,81.8125,124,69,0.71526
4712810,-0.14500,81.3125,124,69,0.70720
4712820,-0.15000,80.8125,124,69,0.69744
4712830,-0.12500,80.2500,124,69,0.68620
4712840,-0.09500,79.1250,124,69,0.65934
4712850,-0.11000,78.5625,124,69,0.64371
4712860,-0.15500,78.0625,124,69,0.62686
4712870,-0.17500,77.5000,124,69,0.60879
4712880,-0.23000,76.4375,124,69,0.57143
4712890,-0.27500,75.8750,124,69,0.55458
4712900,-0.30500,75.3125,124,69,0.53919
4712910,-0.30500,74.8125,124,69,0.52283
4712920,-0.30000,74.3125,124,69,0.50672
4712930,-0.27500,73.3750,124,69,0.47790
4712940,-0.26000,72.9375,124,69,0.46545
4712950,-0.25000,72.6250,124,69,0.45446
4712960,-0.18000,72.0625,124,69,0.43687
4712970,0.06000,71.8125,124,69,0.42979
4712980,0.61000,71.5625,124,69,0.42369
4712990,0.87000,71.3750,124,69,0.41807
4713000,0.38000,71.2500,125,69,0.41368
4713010,-0.26500,70.9375,125,69,0.40586
4713020,-0.34500,70.8125,125,69,0.40171
4713030,-0.29500,70.6250,125,69,0.39731
4713040,-0.27000,70.3125,125,69,0.38877
4713050,-0.27000,70.1250,125,69,0.38462
4713060,-0.26000,69.9375,125,69,0.38046
4713070,-0.24500,69.6875,125,69,0.37656
4713080,-0.23000,69.5000,125,69,0.37289
4713090,-0.22000,68.9375,125,69,0.36703
4713100,-0.20000,68.6250,125,69,0.36484
4713110,-0.19000,68.3125,125,69,0.36215
4713120,-0.18000,68.0000,125,69,0.35946
4713130,-0.17000,67.3750,125,69,0.35336
4713140,-0.15500,67.0625,125,69,0.34994
4713150,-0.14500,66.7500,125,69,0.34628
4713160,-0.14500,66.2500,125,69,0.33871
4713170,-0.14000,66.1250,125,69,0.33455
4713180,-0.13500,66.0625,125,69,0.33065
4713190,-0.13000,66.3125,125,69,0.32650
4713200,-0.11500,67.0000,125,69,0.32357
4713210,-0.09500,70.7500,125,69,0.31868
4713220,-0.08500,73.9375,125,69,0.31600
4713230,-0.07500,77.8125,125,69,0.31331
4713240,-0.05000,87.0000,125,69,0.30794
4713250,-0.03000,91.9375,125,69,0.30549
4713260,0.00000,96.9375,125,69,0.30305
4713270,0.05000,101.6875,125,69,0.30061
4713280,0.09000,106.1250,125,69,0.29817
4713290,0.12000,113.5625,125,69,0.29475
4713300,0.14500,116.4375,125,69,0.29402
4713310,0.16000,118.6875,125,69,0.29304
4713320,0.16500,121.7500,125,69,0.29084
4713330,0.15500,122.5625,125,69,0.29011
4713340,0.12000,123.0625,125,69,0.28962
4713350,0.05000,123.1875,125,69,0.28938
4713360,-0.04500,122.6875,125,69,0.28913
4713370,-0.11000,122.0625,125,69,0.28938
4713380,-0.17500,121.2500,125,69,0.28987
4713390,-0.24500,120.1875,125,69,0.29060
4713400,-0.28000,118.9375,125,69,0.29206
4713410,-0.31500,115.9375,125,69,0.29548
4713420,-0.33500,114.2500,125,69,0.29670
4713430,-0.34500,112.4375,125,69,0.29817
4713440,-0.35000,110.5000,125,69,0.29988
4713450,-0.35500,106.4375,125,69,0.30672
4713460,-0.35500,104.2500,125,69,0.31331
4713470,-0.35500,102.0000,125,69,0.32332
4713480,-0.35500,97.3125,125,69,0.35556
4713490,-0.35500,94.9375,125,69,0.37460
4713500,-0.35000,92.7500,125,69,0.39560
4713510,-0.34500,90.8125,125,69,0.42198
4713520,-0.35000,89.1250,125,69,0.45177
4713530,-0.36500,86.8125,125,69,0.51624
4713540,-0.37500,86.0625,125,69,0.54847
4713550,-0.39000,85.5625,125,69,0.57949
4713560,-0.40500,85.1875,125,69,0.60855
4713570,-0.41000,84.8750,125,69,0.65910
4713580,-0.41000,84.8125,125,69,0.68059
4713590,-0.40500,84.8125,125,69,0.69939
4713600,-0.39500,84.6875,125,69,0.71282
4713610,-0.38500,84.5625,125,69,0.73284
4713620,-0.37000,84.3750,125,69,0.74139
4713630,-0.34500,84.1250,125,69,0.74823
4713640,-0.30000,83.5000,125,69,0.75482
4713650,-0.25000,83.1250,125,69,0.75482
4713660,-0.18500,82.6875,125,69,0.75287
4713670,-0.12000,82.2500,125,69,0.74896
4713680,-0.08500,81.8125,125,69,0.74310
4713690,-0.04500,80.8750,125,69,0.72723
4713700,0.02500,80.3750,125,69,0.71746
4713710,0.05000,79.9375,125,69,0.70623
4713720,0.04000,79.4375,125,69,0.69328
4713730,0.00000,78.5625,125,69,0.66325
4713740,-0.02500,78.1875,125,69,0.64640
4713750,-0.06500,77.6875,125,69,0.62857
4713760,-0.12500,76.7500,125,69,0.58730
4713770,-0.14500,76.3750,125,69,0.56703
4713780,-0.15500,75.9375,125,69,0.55287
4713790,-0.16000,75.5625,125,69,0.53968
4713800,-0.16000,75.5625,125,69,0.53968
4713810,-0.16000,74.4375,125,69,0.50379
4713820,-0.17000,74.0625,125,69,0.49304
4713830,-0.16000,73.7500,125,69,0.48376
4713840,0.00000,73.2500,125,69,0.47546
4713850,0.50500,73.0625,125,69,0.46178
4713860,1.01000,72.8125,125,69,0.45617
4713870,0.68500,72.5625,125,69,0.45128
4713880,-0.17000,72.1875,125,69,0.44274
4713890,-0.33500,72.0000,125,69,0.43956
4713900,-0.28000,71.8125,125,69,0.43687
4713910,-0.26000,71.6875,125,69,0.43394
4713920,-0.26000,71.5000,125,69,0.43101
4713930,-0.24500,71.1250,125,69,0.42515
4713940,-0.22500,70.8750,125,69,0.42247
4713950,-0.21500,70.6250,125,69,0.41978
4713960,-0.20500,70.1875,125,69,0.41465
4713970,-0.20000,69.9375,125,69,0.41221
4713980,-0.19000,69.6875,125,69,0.40977
4713990,-0.18000,69.3750,125,69,0.40781
4714000,-0.17000,69.1250,125,69,0.40610
4714010,-0.16500,68.5000,125,69,0.40122
4714020,-0.15000,68.1875,125,69,0.39829
4714030,-0.14000,67.9375,125,69,0.39536
4714040,-0.12500,67.6875,125,69,0.39243
4714050,-0.11000,67.5625,125,69,0.38657
4714060,-0.10000,67.9375,125,69,0.38364
4714070,-0.08000,68.9375,125,69,0.38046
4714080,-0.05500,73.4375,125,69,0.37460
4714090,-0.04000,77.0000,125,69,0.37241
4714100,-0.02000,81.2500,125,69,0.37045
4714110,0.00500,85.9375,125,69,0.36825
4714120,0.02500,90.9375,125,69,0.36581
4714130,0.05000,101.0000,125,69,0.36044
4714140,0.08000,105.6875,125,69,0.35800
4714150,0.10000,110.0625,125,69,0.35556
4714160,0.13000,113.8750,125,69,0.35360
4714170,0.16000,119.8125,125,69,0.35067
4714180,0.20500,121.9375,125,69,0.34969
4714190,0.23500,123.5625,125,69,0.34945
4714200,0.26500,124.7500,125,69,0.34969
4714210,0.26500,125.9375,125,69,0.34969
4714220,0.22500,126.0625,125,69,0.34994
4714230,0.18500,125.9375,125,69,0.35018
4714240,0.13000,124.9375,125,69,0.35043
4714250,0.07000,124.1875,125,69,0.35140
4714260,0.04000,123.1875,125,69,0.35189
4714270,0.00500,122.0625,125,69,0.35263
4714280,-0.01000,120.6875,125,69,0.35311
4714290,-0.02500,117.5625,125,69,0.35409
4714300,-0.03500,115.8125,125,69,0.35531
4714310,-0.04500,114.0000,125,69,0.35629
4714320,-0.04500,112.0625,125,69,0.35824
4714330,-0.04500,107.8125,125,69,0.36825
4714340,-0.04500,105.5625,125,69,0.37802
4714350,-0.04500,103.2500,125,69,0.39219
4714360,-0.04500,100.8750,125,69,0.41099
4714370,-0.04000,96.5000,125,69,0.46056
4714380,-0.04000,94.6250,125,69,0.49011
4714390,-0.04000,93.0625,125,69,0.51673
4714400,-0.04000,91.7500,125,69,0.54188
4714410,-0.04500,89.8750,125,69,0.59927
4714420,-0.04500,89.2500,125,69,0.62759
4714430,-0.04500,88.7500,125,69,0.65421
4714440,-0.04000,88.1875,125,69,0.70110
4714450,-0.04000,88.0000,125,69,0.72088
4714460,-0.04000,87.8750,125,69,0.73846
4714470,-0.04000,87.6875,125,69,0.75360
4714480,-0.04000,87.5000,125,69,0.76630
4714490,-0.04000,87.0000,125,69,0.78315
4714500,-0.04500,86.6875,125,69,0.78681
4714510,-0.04500,86.3750,125,69,0.78999
4714520,-0.03500,85.9375,125,69,0.79170
4714530,-0.01000,85.1250,125,69,0.79048
4714540,0.00000,84.6875,125,69,0.78706
4714550,-0.01000,84.1875,125,69,0.78193
4714560,-0.01000,83.1875,125,69,0.77509
4714570,0.02000,82.7500,125,69,0.75629
4714580,0.03500,82.2500,125,69,0.74457
4714590,0.02000,81.7500,125,69,0.73236
4714600,-0.01000,81.3125,125,69,0.71966
4714610,-0.04500,80.5000,125,69,0.68987
4714620,-0.07500,80.0625,125,69,0.67326
4714630,-0.10500,79.5625,125,69,0.65617
4714640,-0.12000,79.1250,125,69,0.63883
4714650,-0.12500,78.2500,125,69,0.60513
4714660,-0.12500,77.8125,125,69,0.58926
4714670,-0.12500,77.4375,125,69,0.57436
4714680,-0.12500,77.0000,125,69,0.56068
4714690,-0.13500,76.3125,125,69,0.52796
4714700,-0.13000,76.0000,125,69,0.50379
4714710,0.07000,75.6875,125,69,0.48791
4714720,0.75000,75.1250,125,69,0.46764
4714730,1.11000,74.8125,125,69,0.46056
4714740,0.76000,74.5625,125,69,0.45446
4714750,-0.02000,74.3125,125,69,0.44908
4714760,-0.27500,74.1250,125,69,0.44420
4714770,-0.21000,73.6875,125,69,0.43590
4714780,-0.20000,73.5625,125,69,0.43223
4714790,-0.20000,73.3750,125,69,0.42833
4714800,-0.20000,73.3750,125,69,0.42833
4714810,-0.19500,72.6875,125,69,0.41929
4714820,-0.19500,72.4375,125,69,0.41587
4714830,-0.20000,72.1250,125,69,0.41245
4714840,-0.19000,71.5625,125,69,0.40562
4714850,-0.19000,71.2500,125,69,0.40220
4714860,-0.19000,71.0000,125,69,0.39878
4714870,-0.18000,70.6875,125,69,0.39560
4714880,-0.17500,70.4375,125,69,0.39243
4714890,-0.17000,69.8750,125,69,0.38681
4714900,-0.16000,69.5625,125,69,0.38462
4714910,-0.15500,69.3125,125,69,0.38193
4714920,-0.13500,69.1875,125,69,0.37900
4714930,-0.11500,69.9375,125,69,0.37192
4714940,-0.09500,71.3125,125,69,0.36801
4714950,-0.06500,73.5000,125,69,0.36410
4714960,-0.04500,80.5000,125,69,0.35678
4714970,-0.03000,85.0000,125,69,0.35360
4714980,-0.01500,89.8750,125,69,0.35043
4714990,0.00000,95.0000,125,69,0.34823
4715000,0.01000,100.0625,124,69,0.34628
4715010,0.02500,109.6250,124,69,0.34237
4715020,0.03500,113.6875,124,69,0.34042
4715030,0.05000,117.2500,124,69,0.33871
4715040,0.07000,120.1875,124,69,0.33748
4715050,0.10500,124.3125,124,69,0.33602
4715060,0.12500,125.6250,124,69,0.33602
4715070,0.14000,126.5625,124,69,0.33626
4715080,0.13000,127.1250,124,69,0.33675
4715090,0.09000,127.3125,124,69,0.33846
4715100,0.04000,127.0000,124,69,0.33968
4715110,-0.02000,126.5000,124,69,0.34066
4715120,-0.07000,125.7500,124,69,0.34164
4715130,-0.10500,123.6875,124,69,0.34286
4715140,-0.14500,122.4375,124,69,0.34310
4715150,-0.16000,121.0000,124,69,0.34310
4715160,-0.17500,117.6250,124,69,0.34310
4715170,-0.18000,115.8125,124,69,0.34310
4715180,-0.18500,113.8125,124,69,0.34383
4715190,-0.18500,111.7500,124,69,0.34554
4715200,-0.18500,107.2500,124,69,0.35482
4715210,-0.18500,104.9375,124,69,0.36435
4715220,-0.18500,102.5625,124,69,0.37802
4715230,-0.18000,100.2500,124,69,0.39609
4715240,-0.17000,95.9375,124,69,0.44396
4715250,-0.17000,94.1875,124,69,0.47179
4715260,-0.16000,92.6875,124,69,0.50110
4715270,-0.15500,91.4375,124,69,0.53748
4715280,-0.15000,90.4375,124,69,0.56972
4715290,-0.14500,89.0000,124,69,0.61661
4715300,-0.14500,88.5000,124,69,0.63639
4715310,-0.14000,88.1250,124,69,0.65079
4715320,-0.13500,87.8750,124,69,0.66667
4715330,-0.13500,87.3750,124,69,0.70012
4715340,-0.13500,87.1250,124,69,0.71013
4715350,-0.13500,86.8750,124,69,0.71917
4715360,-0.13500,86.2500,124,69,0.72674
4715370,-0.13000,85.8125,124,69,0.73651
4715380,-0.12500,85.3750,124,69,0.73846
4715390,-0.10500,84.9375,124,69,0.73651
4715400,-0.07500,84.4375,124,69,0.73187
4715410,-0.04500,83.4375,124,69,0.72186
4715420,-0.03500,82.8750,124,69,0.71502
4715430,-0.01500,82.3750,124,69,0.70427
4715440,0.01500,81.8125,124,69,0.69280
4715450,0.04500,80.7500,124,69,0.67204
4715460,0.04000,80.1875,124,69,0.65470
4715470,0.00500,79.6250,124,69,0.64176
4715480,-0.01500,79.1250,124,69,0.62662
4715490,-0.05000,78.1250,124,69,0.59023
4715500,-0.10500,77.6875,124,69,0.57265
4715510,-0.12500,77.1875,124,69,0.55531
4715520,-0.13500,76.7500,124,69,0.53846
4715530,-0.13500,75.8125,124,69,0.50769
4715540,-0.13500,75.4375,124,69,0.49402
4715550,-0.12500,75.0000,124,69,0.48156
4715560,-0.12500,74.2500,124,69,0.45983
4715570,-0.11500,73.9375,124,69,0.45031
4715580,0.06500,73.5625,124,69,0.44225
4715590,0.68000,73.2500,124,69,0.43516
4715600,1.01500,72.9375,124,69,0.42759
4715610,0.68000,72.4375,124,69,0.41319
4715620,-0.17000,72.1875,124,69,0.40635
4715630,-0.29500,71.9375,124,69,0.39951
4715640,-0.23000,71.7500,124,69,0.39292
4715650,-0.20500,71.2500,124,69,0.37973
4715660,-0.20500,71.0000,124,69,0.37314
4715670,-0.20000,70.7500,124,69,0.36654
4715680,-0.19000,70.2500,124,69,0.35580
4715690,-0.18000,70.0000,124,69,0.34994
4715700,-0.18000,69.6875,124,69,0.34383
4715710,-0.17500,69.3125,124,69,0.33748
4715720,-0.17000,68.5625,124,69,0.32503
4715730,-0.16000,68.2500,124,69,0.31868
4715740,-0.15000,67.9375,124,69,0.31258
4715750,-0.14500,67.6250,124,69,0.30647
4715760,-0.13500,67.3125,124,69,0.30061
4715770,-0.12500,66.7500,124,69,0.28889
4715780,-0.11000,66.5000,124,69,0.28474
4715790,-0.10000,66.3125,124,69,0.28107
4715800,-0.10000,66.3125,124,69,0.28107
4715810,-0.07000,67.5625,124,69,0.26642
4715820,-0.07000,67.5625,124,69,0.26642
4715830,-0.04000,71.8125,124,69,0.25641
4715840,-0.02500,75.1875,124,69,0.25128
4715850,-0.01000,83.6250,124,69,0.24127
4715860,0.01000,88.3750,124,69,0.23687
4715870,0.02500,93.1875,124,69,0.23248
4715880,0.04500,102.4375,124,69,0.22955
4715890,0.07000,106.5000,124,69,0.22491
4715900,0.09000,110.1250,124,69,0.22198
4715910,0.12000,113.1250,124,69,0.21929
4715920,0.16000,117.4375,124,69,0.21416
4715930,0.18500,118.8125,124,69,0.21197
4715940,0.19500,119.7500,124,69,0.21026
4715950,0.18000,120.1875,124,69,0.20879
4715960,0.15000,120.3125,124,69,0.20757
4715970,0.09000,119.6875,124,69,0.20586
4715980,0.01500,119.0000,124,69,0.20635
4715990,-0.02500,118.0000,124,69,0.20757
4716000,-0.06500,116.8750,124,69,0.20855
4716010,-0.09500,114.0000,124,69,0.21074
4716020,-0.11000,112.3125,124,69,0.21221
4716030,-0.11500,110.5000,124,69,0.21392
4716040,-0.11500,106.6250,124,69,0.21905
4716050,-0.12000,104.6250,124,69,0.22295
4716060,-0.12500,102.5000,124,69,0.22882
4716070,-0.12500,100.3125,124,69,0.23736
4716080,-0.12500,98.0625,124,69,0.24737
4716090,-0.11500,93.5625,124,69,0.27668
4716100,-0.11000,91.3750,124,69,0.29792
4716110,-0.10500,89.5000,124,69,0.32308
4716120,-0.10000,87.9375,124,69,0.35116
4716130,-0.10000,85.5625,124,69,0.41148
4716140,-0.10000,84.7500,124,69,0.44200
4716150,-0.09500,84.1250,124,69,0.47131
4716160,-0.09000,83.3125,124,69,0.52381
4716170,-0.08500,83.0625,124,69,0.54652
4716180,-0.08500,82.9375,124,69,0.56410
4716190,-0.08500,82.8125,124,69,0.57778
4716200,-0.08500,82.7500,124,69,0.59121
4716210,-0.09000,82.5000,124,69,0.61343
4716220,-0.09000,82.3750,124,69,0.62100
4716230,-0.09000,82.1875,124,69,0.62613
4716240,-0.08500,81.9375,124,69,0.62906
4716250,-0.07000,81.2500,124,69,0.62857
4716260,-0.05500,80.9375,124,69,0.62515
4716270,-0.02500,80.5000,124,69,0.61954
4716280,-0.01500,80.1250,124,69,0.61270
4716290,0.00000,79.1875,124,69,0.59512
4716300,0.02500,78.6875,124,69,0.58388
4716310,0.05500,78.2500,124,69,0.57118
4716320,0.04000,77.3125,124,69,0.54212
4716330,0.01000,76.8750,124,69,0.52601
4716340,-0.02500,76.3750,124,69,0.50916
4716350,-0.06500,75.9375,124,69,0.49182
4716360,-0.10500,75.5000,124,69,0.47424
4716370,-0.13500,74.6250,124,69,0.44005
4716380,-0.14500,74.1875,124,69,0.42564
4716390,-0.14500,73.7500,124,69,0.41319
4716400,-0.15000,73.3750,124,69,0.40049
4716410,-0.14500,72.6250,124,69,0.37656
4716420,-0.14000,72.3125,124,69,0.36606
4716430,-0.13000,72.0000,124,69,0.35678
4716440,0.06000,71.4375,124,69,0.34139
4716450,0.43000,71.1875,124,69,0.33504
4716460,0.90500,70.9375,124,69,0.32918
4716470,0.56500,70.6875,124,69,0.32405
4716480,-0.01500,70.5000,124,69,0.32039
4716490,-0.32500,70.0625,124,69,0.31404
4716500,-0.24000,69.8750,124,69,0.31038
4716510,-0.21000,69.6875,124,69,0.30696
4716520,-0.21000,69.4375,124,69,0.30354
4716530,-0.20500,69.0000,124,69,0.29744
4716540,-0.20000,68.7500,124,69,0.29451
4716550,-0.19000,68.5000,124,69,0.29158
4716560,-0.18000,68.0000,124,69,0.28547
4716570,-0.17000,67.7500,124,69,0.28254
4716580,-0.16500,67.4375,124,69,0.28059
4716590,-0.15500,67.1250,124,69,0.27888
4716600,-0.15000,66.8125,124,69,0.27643
4716610,-0.14500,66.2500,124,69,0.27082
4716620,-0.13500,65.9375,124,69,0.26789
4716630,-0.13500,65.6250,124,69,0.26496
4716640,-0.12500,65.4375,124,69,0.26203
4716650,-0.11500,65.0625,124,69,0.25617
4716660,-0.10500,65.0000,124,69,0.25324
4716670,-0.08500,65.3125,124,69,0.25031
4716680,-0.06000,66.1250,124,69,0.24835
4716690,-0.03500,70.1250,124,69,0.24444
4716700,-0.01500,73.3125,124,69,0.24176
4716710,0.00000,77.0625,124,69,0.23907
4716720,0.02500,85.8125,124,69,0.23370
4716730,0.04500,90.4375,124,69,0.24200
4716740,0.07000,94.9375,124,69,0.25592
4716750,0.10000,99.3125,124,69,0.26178
4716760,0.12000,103.2500,124,69,0.26374
4716770,0.14500,109.7500,124,69,0.26349
4716780,0.19000,112.1250,124,69,0.26349
4716790,0.22000,113.9375,124,69,0.26374
4716800,0.22000,113.9375,124,69,0.26374
4716810,0.22500,116.5625,124,69,0.26276
4716820,0.19500,116.6250,124,69,0.26252
4716830,0.13500,116.3750,124,69,0.26252
4716840,0.06500,115.8125,124,69,0.26276
4716850,0.00500,114.0000,124,69,0.26374
4716860,-0.04500,112.6875,124,69,0.26447
4716870,-0.07500,111.2500,124,69,0.26545
4716880,-0.09000,109.6875,124,69,0.26740
4716890,-0.10500,106.1250,124,69,0.27179
4716900,-0.11500,104.1875,124,69,0.27399
4716910,-0.11500,102.1875,124,69,0.27643
4716920,-0.12000,98.0625,124,69,0.28400
4716930,-0.12000,95.9375,124,69,0.29060
4716940,-0.12000,93.7500,124,69,0.30012
4716950,-0.11500,91.5000,124,69,0.31331
4716960,-0.10500,87.4375,124,69,0.35092
4716970,-0.10500,85.7500,124,69,0.37509
4716980,-0.09500,84.3750,124,69,0.39829
4716990,-0.09500,83.3125,124,69,0.42149
4717000,-0.09000,82.4375,124,68,0.44835
4717010,-0.09000,81.3750,124,68,0.50476
4717020,-0.09000,81.0625,124,68,0.53211
4717030,-0.09000,80.8750,124,68,0.55775
4717040,-0.09000,80.7500,124,68,0.58120
4717050,-0.09000,80.7500,124,68,0.62027
4717060,-0.08500,80.6875,124,68,0.63614
4717070,-0.08500,80.6875,124,68,0.64933
4717080,-0.09000,80.4375,124,68,0.66447
4717090,-0.09500,80.1875,124,68,0.66984
4717100,-0.09500,79.9375,124,68,0.67399
4717110,-0.08500,79.6875,124,68,0.67619
4717120,-0.07000,79.3750,124,68,0.67643
4717130,-0.04500,78.6250,124,68,0.67057
4717140,-0.02000,78.2500,124,68,0.66496
4717150,-0.01500,77.8125,124,68,0.65763
4717160,0.00500,77.3750,124,68,0.64860
4717170,0.04000,76.5000,124,68,0.62589
4717180,0.05500,76.0625,124,68,0.61392
4717190,0.03500,75.6250,124,68,0.60147
4717200,-0.00500,74.8125,124,68,0.58706
4717210,-0.04000,74.3750,124,68,0.55531
4717220,-0.07500,73.9375,124,68,0.53871
4717230,-0.11500,73.5000,124,68,0.52259
4717240,-0.13000,72.6875,124,68,0.49231
4717250,-0.13000,72.3125,124,68,0.47863
4717260,-0.13500,71.9375,124,68,0.46642
4717270,-0.13500,71.5625,124,68,0.45543
4717280,-0.13000,71.2500,124,68,0.44689
4717290,-0.12500,70.6250,124,68,0.43223
4717300,-0.08500,70.3750,124,68,0.42540
4717310,0.24000,70.1250,124,68,0.41929
4717320,0.65500,69.8750,124,68,0.41392
4717330,0.94000,69.4375,124,68,0.40440
4717340,0.25500,69.2500,124,68,0.40024
4717350,-0.23500,69.0625,124,68,0.39658
4717360,-0.30500,68.8750,124,68,0.39316
4717370,-0.23000,68.5000,124,68,0.38779
4717380,-0.21500,68.3125,124,68,0.38584
4717390,-0.21000,68.1250,124,68,0.38339
4717400,-0.21000,67.6875,124,68,0.38071
4717410,-0.20000,67.4375,124,68,0.37534
4717420,-0.19500,67.1875,124,68,0.37265
4717430,-0.18500,66.9375,124,68,0.36972
4717440,-0.17500,66.4375,124,68,0.36386
4717450,-0.17000,66.1250,124,68,0.36093
4717460,-0.16500,65.8125,124,68,0.35800
4717470,-0.15500,65.5625,124,68,0.35531
4717480,-0.14500,65.0625,124,68,0.35165
4717490,-0.13500,64.7500,124,68,0.34945
4717500,-0.13500,64.5000,124,68,0.34701
4717510,-0.12000,64.3125,124,68,0.34408
4717520,-0.11000,64.1875,124,68,0.34115
4717530,-0.09500,64.5000,124,68,0.33455
4717540,-0.08500,65.3750,124,68,0.33138
4717550,-0.06500,67.0000,124,68,0.32821
4717560,-0.05000,69.4375,124,68,0.32503
4717570,-0.03000,76.5000,124,68,0.31990
4717580,-0.00500,80.7500,124,68,0.31819
4717590,0.00500,85.3125,124,68,0.31575
4717600,0.02000,90.0000,124,68,0.31306
4717610,0.04000,99.0625,124,68,0.30745
4717620,0.06000,103.1250,124,68,0.30476
4717630,0.08000,106.6875,124,68,0.30256
4717640,0.11000,112.1875,124,68,0.30037
4717650,0.14500,114.0625,124,68,0.29719
4717660,0.17000,115.4375,124,68,0.29573
4717670,0.19500,116.3750,124,68,0.29451
4717680,0.18500,116.8750,124,68,0.29426
4717690,0.14500,116.8125,124,68,0.29402
4717700,0.08500,116.3125,124,68,0.29353
4717710,0.02500,115.6250,124,68,0.29304
4717720,-0.02500,113.5000,124,68,0.29280
4717730,-0.07000,112.1875,124,68,0.29280
4717740,-0.09500,110.6875,124,68,0.29328
4717750,-0.11500,109.0625,124,68,0.29402
4717760,-0.13500,105.3750,124,68,0.29621
4717770,-0.14000,103.4375,124,68,0.29817
4717780,-0.14500,101.3750,124,68,0.30085
4717790,-0.14000,99.3125,124,68,0.30452
4717800,-0.14000,99.3125,124,68,0.30452
4717810,-0.11500,92.8750,124,68,0.33065
4717820,-0.09500,90.6875,124,68,0.34652
4717830,-0.07500,88.6250,124,68,0.36654
4717840,-0.06500,86.6875,124,68,0.39023
4717850,-0.06500,83.8125,124,68,0.44542
4717860,-0.06500,82.8750,124,68,0.47521
4717870,-0.08000,82.1250,124,68,0.50501
4717880,-0.09000,81.5625,124,68,0.53016
4717890,-0.09500,80.9375,124,68,0.57558
4717900,-0.08500,80.7500,124,68,0.59853
4717910,-0.08500,80.7500,124,68,0.61978
4717920,-0.07500,80.6875,124,68,0.63907
4717930,-0.07500,80.6875,124,68,0.66984
4717940,-0.07500,80.5625,124,68,0.68181
4717950,-0.08000,80.4375,124,68,0.69133
4717960,-0.07500,80.1250,124,68,0.69841
4717970,-0.06500,79.8125,124,68,0.70452
4717980,-0.05000,79.5625,124,68,0.70379
4717990,-0.02500,79.1875,124,68,0.70183
4718000,-0.00500,78.8125,124,68,0.69866
4718010,0.01000,78.0000,124,68,0.68669
4718020,0.02000,77.6250,124,68,0.67839
4718030,0.05500,77.1875,124,68,0.66838
4718040,0.09000,76.7500,124,68,0.65690
4718050,0.10500,75.8125,124,68,0.63028
4718060,0.07000,75.3750,124,68,0.61514
4718070,0.02500,74.9375,124,68,0.59927
4718080,0.00000,74.5625,124,68,0.58462
4718090,-0.04500,73.6875,124,68,0.55433
4718100,-0.08500,73.2500,124,68,0.53822
4718110,-0.09500,72.8750,124,68,0.52234
4718120,-0.09500,72.5000,124,68,0.50720
4718130,-0.10000,71.6875,124,68,0.48034
4718140,-0.10500,71.3125,124,68,0.46886
4718150,-0.10500,71.0000,124,68,0.45861
4718160,-0.11000,70.4375,124,68,0.44982
4718170,-0.01500,70.1875,124,68,0.43565
4718180,0.24500,69.9375,124,68,0.43053
4718190,0.77000,69.6875,124,68,0.42540
4718200,0.82500,69.3125,124,68,0.41587
4718210,0.27000,69.1250,124,68,0.41172
4718220,-0.26000,69.0000,124,68,0.40781
4718230,-0.28500,68.8125,124,68,0.40440
4718240,-0.22500,68.6250,124,68,0.40098
4718250,-0.21000,68.3125,124,68,0.39438
4718260,-0.21000,68.1875,124,68,0.39096
4718270,-0.21000,67.9375,124,68,0.38779
4718280,-0.20000,67.7500,124,68,0.38535
4718290,-0.19000,67.3750,124,68,0.38046
4718300,-0.18000,67.1875,124,68,0.37778
4718310,-0.17000,66.9375,124,68,0.37485
4718320,-0.16000,66.6875,124,68,0.37192
4718330,-0.14000,66.1875,124,68,0.36581
4718340,-0.12500,65.9375,124,68,0.36264
4718350,-0.10500,65.6250,124,68,0.35946
4718360,-0.08500,65.1250,124,68,0.35629
4718370,-0.05500,64.8750,124,68,0.35067
4718380,-0.04000,64.6875,124,68,0.34847
4718390,-0.02500,64.6250,124,68,0.34579
4718400,-0.00500,65.5625,124,68,0.33944
4718410,0.00500,66.9375,124,68,0.33626
4718420,0.02500,69.1875,124,68,0.33333
4718430,0.05000,72.2500,124,68,0.33065
4718440,0.06500,75.9375,124,68,0.32796
4718450,0.08500,84.6875,124,68,0.32259
4718460,0.11500,89.4375,124,68,0.32015
4718470,0.13500,94.1250,124,68,0.31770
4718480,0.16000,102.8750,124,68,0.31624
4718490,0.19500,106.6250,124,68,0.31380
4718500,0.21500,109.8750,124,68,0.31209
4718510,0.25000,112.5625,124,68,0.31038
4718520,0.28500,116.3750,124,68,0.30720
4718530,0.30500,117.5625,124,68,0.30623
4718540,0.31000,118.3125,124,68,0.30549
4718550,0.28500,118.6875,124,68,0.30501
4718560,0.24000,118.7500,124,68,0.30501
4718570,0.17500,118.1250,124,68,0.30598
4718580,0.11000,117.3750,124,68,0.30720
4718590,0.06000,116.4375,124,68,0.30818
4718600,0.02000,115.2500,124,68,0.30916
4718610,-0.00500,112.3750,124,68,0.31087
4718620,-0.02500,110.6875,124,68,0.31160
4718630,-0.04000,108.9375,124,68,0.31233
4718640,-0.05500,107.1250,124,68,0.31331
4718650,-0.06500,103.1250,124,68,0.31819
4718660,-0.07500,101.0000,124,68,0.32332
4718670,-0.07500,98.8750,124,68,0.33138
4718680,-0.08000,96.6875,124,68,0.34090
4718690,-0.08500,92.4375,124,68,0.36996
4718700,-0.08500,90.5625,124,68,0.39121
4718710,-0.08000,89.0000,124,68,0.41587
4718720,-0.08000,87.6875,124,68,0.44298
4718730,-0.08000,85.6875,124,68,0.50183
4718740,-0.08000,85.0000,124,68,0.53138
4718750,-0.08000,84.5000,124,68,0.55995
4718760,-0.08500,84.1250,124,68,0.58706
4718770,-0.08000,83.6250,124,68,0.63199
4718780,-0.08000,83.5000,124,68,0.65763
4718790,-0.08000,83.4375,124,68,0.68889
4718800,-0.08000,83.4375,124,68,0.68889
4718810,-0.08500,83.0000,124,68,0.74628
4718820,-0.08500,82.7500,124,68,0.75775
4718830,-0.08500,82.5000,124,68,0.76630
4718840,-0.08000,81.8125,124,68,0.77485
4718850,-0.06500,81.3750,124,68,0.77534
4718860,-0.04500,81.0000,124,68,0.77338
4718870,-0.01500,80.5625,124,68,0.76923
4718880,-0.01000,80.0625,124,68,0.76288
4718890,0.00500,79.0625,124,68,0.74505
4718900,0.05000,78.5625,124,68,0.73358
4718910,0.06500,78.0000,124,68,0.72063
4718920,0.04000,77.0000,124,68,0.69084
4718930,0.00000,76.4375,124,68,0.67424
4718940,-0.01500,75.9375,124,68,0.65690
4718950,-0.05500,75.4375,124,68,0.63907
4718960,-0.10500,74.4375,124,68,0.60366
4718970,-0.12000,74.0000,124,68,0.58828
4718980,-0.13000,73.5625,124,68,0.57411
4718990,-0.13500,73.1250,124,68,0.55995
4719000,-0.13500,72.7500,124,68,0.54652
4719010,-0.12500,72.0625,124,68,0.52259
4719020,-0.12500,71.6875,124,68,0.51258
4719030,-0.11000,71.3750,124,68,0.50354
4719040,0.10000,71.1250,124,68,0.49548
4719050,0.59500,70.5625,124,68,0.48181
4719060,0.96500,70.3125,124,68,0.47619
4719070,0.55000,70.0625,124,68,0.47106
4719080,-0.13500,69.8750,124,68,0.46691
4719090,-0.29000,69.5000,124,68,0.45958
4719100,-0.22000,69.3125,124,68,0.45617
4719110,-0.19000,69.1875,124,68,0.45275
4719120,-0.19000,69.0000,124,68,0.44933
4719130,-0.18000,68.5625,124,68,0.44225
4719140,-0.16000,68.3125,124,68,0.43858
4719150,-0.15500,68.1250,124,68,0.43468
4719160,-0.14500,67.6250,124,68,0.42637
4719170,-0.13500,67.3750,124,68,0.42295
4719180,-0.13500,67.1250,124,68,0.41954
4719190,-0.13000,66.8750,124,68,0.41563
4719200,-0.12500,66.4375,124,68,0.40733
4719210,-0.11500,66.1875,124,68,0.40293
4719220,-0.11500,66.0000,124,68,0.39853
4719230,-0.10500,65.7500,124,68,0.39390
4719240,-0.10000,65.5625,124,68,0.38901
4719250,-0.09500,65.5000,124,68,0.37949
4719260,-0.08500,65.8750,124,68,0.37460
4719270,-0.06500,66.7500,124,68,0.37070
4719280,-0.04500,70.8125,124,68,0.36728
4719290,-0.02000,74.0625,124,68,0.35824
4719300,-0.01000,78.0000,124,68,0.35360
4719310,0.00500,82.3750,124,68,0.34896
4719320,0.02000,87.1250,124,68,0.34408
4719330,0.04500,96.7500,124,68,0.33480
4719340,0.06000,101.3125,124,68,0.33040
4719350,0.07000,105.5000,124,68,0.32625
4719360,0.08500,109.1875,124,68,0.32234
4719370,0.12500,114.9375,124,68,0.31624
4719380,0.20000,116.9375,124,68,0.31477
4719390,0.24500,118.4375,124,68,0.31282
4719400,0.29000,119.4375,124,68,0.31087
4719410,0.30500,120.3750,124,68,0.30769
4719420,0.28500,120.3125,124,68,0.30623
4719430,0.23500,120.0000,124,68,0.30501
4719440,0.18000,118.6875,124,68,0.30354
4719450,0.15000,117.6875,124,68,0.30330
4719460,0.12000,116.5000,124,68,0.30354
4719470,0.11000,115.1250,124,68,0.30452
4719480,0.11500,113.6250,124,68,0.30574
4719490,0.11500,110.2500,124,68,0.30794
4719500,0.11000,108.4375,124,68,0.30965
4719510,0.11500,106.5625,124,68,0.31209
4719520,0.12000,102.5625,124,68,0.32186
4719530,0.13000,100.4375,124,68,0.33138
4719540,0.14000,98.2500,124,68,0.34481
4719550,0.14000,96.0000,124,68,0.36288
4719560,0.14000,91.5000,124,68,0.41270
4719570,0.13000,89.5000,124,68,0.43834
4719580,0.12500,87.8125,124,68,0.46422
4719590,0.12000,86.5000,124,68,0.49475
4719600,0.11500,85.5000,124,68,0.52723
4719610,0.11500,84.3125,124,68,0.59170
4719620,0.11500,83.9375,124,68,0.62173
4719630,0.11000,83.6250,124,68,0.64957
4719640,0.10000,83.5000,124,68,0.67473
4719650,0.09500,83.4375,124,68,0.71722
4719660,0.09000,83.4375,124,68,0.73431
4719670,0.08500,83.3750,124,68,0.74628
4719680,0.08000,83.2500,124,68,0.75458
4719690,0.07500,82.9375,124,68,0.76923
4719700,0.08000,82.6875,124,68,0.77363
4719710,0.09000,82.4375,124,68,0.77558
4719720,0.11500,82.0625,124,68,0.77534
4719730,0.14500,81.2500,124,68,0.76801
4719740,0.16000,80.8125,124,68,0.76093
4719750,0.15000,80.3750,124,68,0.75214
4719760,0.13000,79.5000,124,68,0.72967
4719770,0.12500,79.0625,124,68,0.71746
4719780,0.11000,78.6250,124,68,0.70452
4719790,0.04000,78.1250,124,68,0.68987
4719800,0.04000,78.1250,124,68,0.68987
4719810,-0.08500,76.8125,124,68,0.63785
4719820,-0.15000,76.3750,124,68,0.61905
4719830,-0.21500,75.9375,124,68,0.60024
4719840,-0.27000,75.1250,124,68,0.56361
4719850,-0.28000,74.6875,124,68,0.54628
4719860,-0.28500,74.3125,124,68,0.53040
4719870,-0.28500,74.0000,124,68,0.51722
4719880,-0.27500,73.6875,124,68,0.50598
4719890,-0.26000,73.0625,124,68,0.48547
4719900,-0.23000,72.8125,124,68,0.47668
4719910,-0.09000,72.5625,124,68,0.46911
4719920,0.50500,72.0625,124,68,0.45714
4719930,0.94000,71.8125,124,68,0.45250
4719940,0.81000,71.6250,124,68,0.44835
4719950,0.06000,71.4375,124,68,0.44493
4719960,-0.29000,71.3125,124,68,0.44176
4719970,-0.20500,70.9375,124,68,0.43614
4719980,-0.17500,70.8125,124,68,0.43394
4719990,-0.17000,70.6250,124,68,0.43126
4720000,-0.17000,70.4375,124,68,0.42857
4720010,-0.18000,70.0000,124,68,0.42271
4720020,-0.19500,69.7500,124,68,0.41978
4720030,-0.23000,69.5000,124,68,0.41685
4720040,-0.25000,69.2500,124,68,0.41416
4720050,-0.26500,68.6875,124,68,0.40904
4720060,-0.27000,68.3750,124,68,0.40659
4720070,-0.26500,68.1250,124,68,0.40464
4720080,-0.24000,67.5000,124,68,0.40073
4720090,-0.23000,67.2500,124,68,0.39829
4720100,-0.22500,67.0000,124,68,0.39560
4720110,-0.22500,66.8125,124,68,0.39316
4720120,-0.21000,66.9375,124,68,0.38779
4720130,-0.20000,67.6250,124,68,0.38486
4720140,-0.18000,69.0625,124,68,0.38193
4720150,-0.17000,71.3750,124,68,0.37900
4720160,-0.15000,74.5625,124,68,0.37582
4720170,-0.13000,83.0000,124,68,0.37045
4720180,-0.10000,87.8750,124,68,0.36850
4720190,-0.08000,92.8750,124,68,0.36606
4720200,-0.04500,102.6250,124,68,0.36117
4720210,-0.02500,107.0625,124,68,0.35922
4720220,0.00000,111.0625,124,68,0.35751
4720230,0.03500,114.4375,124,68,0.35604
4720240,0.06500,117.3125,124,68,0.35482
4720250,0.10000,121.3750,124,68,0.35311
4720260,0.13500,122.6875,124,68,0.35287
4720270,0.16000,123.5625,124,68,0.35311
4720280,0.15500,124.1250,124,68,0.35360
4720290,0.12500,124.2500,124,68,0.35433
4720300,0.06500,123.9375,124,68,0.35458
4720310,0.02000,123.3750,124,68,0.35507
4720320,-0.05000,121.6875,124,68,0.35604
4720330,-0.08500,120.5625,124,68,0.35653
4720340,-0.11500,119.2500,124,68,0.35678
4720350,-0.13500,117.8125,124,68,0.35702
4720360,-0.14500,116.1875,124,68,0.35726
4720370,-0.15500,112.6875,124,68,0.35922
4720380,-0.16000,110.8125,124,68,0.36166
4720390,-0.16000,108.8125,124,68,0.36557
4720400,-0.16500,104.6250,124,68,0.37216
4720410,-0.16500,102.4375,124,68,0.39731
4720420,-0.16000,100.1875,124,68,0.41685
4720430,-0.15500,98.0000,124,68,0.44078
4720440,-0.15500,94.0625,124,68,0.49939
4720450,-0.15500,92.4375,124,68,0.53187
4720460,-0.15500,91.1250,124,68,0.56508
4720470,-0.15500,90.1250,124,68,0.59341
4720480,-0.16000,89.3125,124,68,0.61856
4720490,-0.16000,88.1875,124,68,0.67253
4720500,-0.16500,87.8125,124,68,0.69768
4720510,-0.17000,87.5625,124,68,0.72063
4720520,-0.17000,87.2500,124,68,0.75946
4720530,-0.17500,87.0625,124,68,0.77509
4720540,-0.17500,86.9375,124,68,0.78803
4720550,-0.17500,86.6875,124,68,0.79853
4720560,-0.17500,86.5000,124,68,0.80635
4720570,-0.17000,85.8125,124,68,0.81392
4720580,-0.16500,85.4375,124,68,0.81319
4720590,-0.15000,85.0625,124,68,0.81172
4720600,-0.11500,84.6250,124,68,0.80879
4720610,-0.09000,83.7500,124,68,0.79780
4720620,-0.07500,83.2500,124,68,0.78950
4720630,-0.05500,82.7500,124,68,0.77973
4720640,-0.01500,81.7500,124,68,0.75531
4720650,0.00500,81.2500,124,68,0.74090
4720660,0.00000,80.7500,124,68,0.72527
4720670,-0.03500,80.2500,124,68,0.71013
4720680,-0.06000,79.8125,124,68,0.69499
4720690,-0.11500,78.8750,124,68,0.66081
4720700,-0.17000,78.4375,124,68,0.64322
4720710,-0.19000,78.0000,124,68,0.62589
4720720,-0.19000,77.5625,124,68,0.60904
4720730,-0.19000,76.8125,124,68,0.57851
4720740,-0.18500,76.4375,124,68,0.56508
4720750,-0.18000,76.0625,124,68,0.55311
4720760,-0.17000,75.7500,124,68,0.54237
4720770,-0.16000,75.1250,124,68,0.52503
4720780,0.07000,74.8125,124,68,0.51844
4720790,0.51000,74.5625,124,68,0.51233
4720800,1.09500,74.1250,124,68,0.50134
4720810,0.82500,73.9375,124,68,0.49670
4720820,-0.07500,73.6875,124,68,0.49231
4720830,-0.28000,73.5000,124,68,0.47350
4720840,-0.24000,73.1250,124,68,0.43297
4720850,-0.23000,72.9375,124,68,0.42393
4720860,-0.23500,72.7500,124,68,0.41758
4720870,-0.23500,72.5625,124,68,0.41294
4720880,-0.23000,72.3125,124,68,0.40904
4720890,-0.23000,71.8125,124,68,0.40147
4720900,-0.22000,71.5625,124,68,0.39756
4720910,-0.21000,71.3125,124,68,0.39365
4720920,-0.20000,71.0625,124,68,0.38950
4720930,-0.19500,70.4375,124,68,0.38169
4720940,-0.19000,70.1875,124,68,0.37778
4720950,-0.18000,69.8750,124,68,0.37387
4720960,-0.17000,69.5625,124,68,0.36996
4720970,-0.16500,69.0625,124,68,0.36288
4720980,-0.15000,68.8750,124,68,0.35995
4720990,-0.13500,68.9375,124,68,0.35653
4721000,-0.12500,70.3750,123,68,0.35287
4721010,-0.10500,72.1875,123,68,0.34554
4721020,-0.09000,74.9375,123,68,0.34188
4721030,-0.07000,78.5625,123,68,0.33822
4721040,-0.05000,82.8125,123,68,0.33480
4721050,-0.02500,92.6250,123,68,0.32845
4721060,0.00000,97.7500,123,68,0.32576
4721070,0.02500,102.6875,123,68,0.32381
4721080,0.05500,107.3125,123,68,0.32259
4721090,0.09000,115.1250,123,68,0.32015
4721100,0.11000,118.1875,123,68,0.31917
4721110,0.13500,120.6875,123,68,0.31819
4721120,0.16500,122.6250,123,68,0.31770
4721130,0.19000,125.1250,123,68,0.31746
4721140,0.20500,125.7500,123,68,0.31770
4721150,0.19500,126.0000,123,68,0.31819
4721160,0.15000,125.6875,123,68,0.31941
4721170,0.10500,125.1250,123,68,0.32039
4721180,0.05000,124.4375,123,68,0.32112
4721190,-0.00500,123.5000,123,68,0.32161
4721200,-0.05500,121.1250,123,68,0.32210
4721210,-0.08000,119.6875,123,68,0.32234
4721220,-0.10500,118.1250,123,68,0.32234
4721230,-0.12500,116.4375,123,68,0.32234
4721240,-0.13000,114.6250,123,68,0.32259
4721250,-0.13500,110.8125,123,68,0.32601
4721260,-0.14000,108.7500,123,68,0.33114
4721270,-0.14000,106.6250,123,68,0.33797
4721280,-0.13500,102.1250,123,68,0.36190
4721290,-0.12500,99.8750,123,68,0.38095
4721300,-0.12000,97.7500,123,68,0.40415
4721310,-0.11500,95.8125,123,68,0.43077
4721320,-0.11500,94.1250,123,68,0.45958
4721330,-0.10500,91.3750,123,68,0.51966
4721340,-0.10000,90.3125,123,68,0.54896
4721350,-0.09500,89.5000,123,68,0.57705
4721360,-0.09000,88.3125,123,68,0.62320
4721370,-0.08500,87.9375,123,68,0.63980
4721380,-0.08500,87.5625,123,68,0.65690
4721390,-0.07500,87.3125,123,68,0.67302
4721400,-0.07000,86.7500,123,68,0.69963
4721410,-0.06500,86.5000,123,68,0.70965
4721420,-0.06000,86.1875,123,68,0.71722
4721430,-0.05500,85.8125,123,68,0.72259
4721440,-0.04500,85.5000,123,68,0.72576
4721450,-0.03000,84.6875,123,68,0.72625
4721460,-0.01000,84.1875,123,68,0.72357
4721470,0.02000,83.6250,123,68,0.71893
4721480,0.05000,82.6250,123,68,0.70476
4721490,0.05000,82.1250,123,68,0.69597
4721500,0.06000,81.5625,123,68,0.68571
4721510,0.08000,81.0000,123,68,0.67399
4721520,0.10000,80.3750,123,68,0.66105
4721530,0.08000,79.3750,123,68,0.63101
4721540,0.03500,78.8750,123,68,0.61441
4721550,-0.01000,78.3750,123,68,0.59707
4721560,-0.05500,77.8750,123,68,0.57900
4721570,-0.12500,76.8750,123,68,0.54701
4721580,-0.14500,76.4375,123,68,0.53040
4721590,-0.16500,76.0000,123,68,0.51404
4721600,-0.18500,75.1250,123,68,0.48303
4721610,-0.19500,74.6875,123,68,0.46886
4721620,-0.19500,74.3125,123,68,0.45568
4721630,-0.20000,73.9375,123,68,0.44371
4721640,-0.15500,73.2500,123,68,0.42198
4721650,0.04000,72.9375,123,68,0.41197
4721660,0.56000,72.6875,123,68,0.40269
4721670,0.94500,72.3750,123,68,0.39512
4721680,0.51000,72.1875,123,68,0.38852
4721690,-0.21000,71.6875,123,68,0.37411
4721700,-0.38000,71.5000,123,68,0.36703
4721710,-0.30500,71.2500,123,68,0.36020
4721720,-0.29000,71.0625,123,68,0.35336
4721730,-0.29500,70.5625,123,68,0.33993
4721740,-0.30000,70.3125,123,68,0.33333
4721750,-0.30000,70.0625,123,68,0.32674
4721760,-0.30000,69.7500,123,68,0.32015
4721770,-0.30000,69.1875,123,68,0.30989
4721780,-0.30000,68.8750,123,68,0.30427
4721790,-0.30000,68.5000,123,68,0.29841
4721800,-0.30000,68.1875,123,68,0.29231
4721810,-0.30000,67.5000,123,68,0.28059
4721820,-0.29000,67.1875,123,68,0.27473
4721830,-0.27000,66.8750,123,68,0.26911
4721840,-0.25000,66.3125,123,68,0.25788
4721850,-0.23000,66.1250,123,68,0.25250
4721860,-0.20000,66.0625,123,68,0.24737
4721870,-0.17500,66.2500,123,68,0.24347
4721880,-0.15500,66.9375,123,68,0.24029
4721890,-0.13500,70.5625,123,68,0.23175
4721900,-0.11500,73.5625,123,68,0.22735
4721910,-0.06500,77.2500,123,68,0.22271
4721920,-0.00500,86.0625,123,68,0.21392
4721930,0.02500,90.8125,123,68,0.20977
4721940,0.05000,95.5625,123,68,0.20586
4721950,0.06500,100.0625,123,68,0.20220
4721960,0.08000,104.2500,123,68,0.19902
4721970,0.10000,111.1875,123,68,0.19609
4721980,0.14000,113.8125,123,68,0.19438
4721990,0.16000,115.8125,123,68,0.19267
4722000,0.18500,118.2500,122,68,0.19096
4722010,0.20000,118.8125,122,68,0.18852
4722020,0.20000,119.0625,122,68,0.18779
4722030,0.16500,118.9375,122,68,0.18730
4722040,0.09000,117.8750,122,68,0.18706
4722050,0.02000,117.0000,122,68,0.18755
4722060,-0.02000,115.9375,122,68,0.18852
4722070,-0.05500,114.6875,122,68,0.19023
4722080,-0.05500,111.6875,122,68,0.19438
4722090,-0.04000,110.0000,122,68,0.19634
4722100,-0.03000,108.2500,122,68,0.19853
4722110,-0.02000,106.3125,122,68,0.20073
4722120,-0.01500,104.3750,122,68,0.20342
4722130,-0.01500,100.3125,122,68,0.21343
4722140,-0.02000,98.1875,122,68,0.22222
4722150,-0.02500,96.0625,122,68,0.23443
4722160,-0.02500,93.8750,122,68,0.25079
4722170,-0.02500,89.8125,122,68,0.28791
4722180,-0.02000,88.1250,122,68,0.31258
4722190,-0.01500,86.7500,122,68,0.34066
4722200,-0.01500,84.8750,122,68,0.37094
4722210,-0.01500,84.1875,122,68,0.43321
4722220,-0.01500,83.7500,122,68,0.46325
4722230,-0.01500,83.4375,122,68,0.49133
4722240,-0.01500,83.1875,122,68,0.51722
4722250,-0.00500,83.0000,122,68,0.56068
4722260,0.00000,82.9375,122,68,0.57802
4722270,0.00500,82.8750,122,68,0.59048
4722280,0.01000,82.8125,122,68,0.59927
4722290,0.01000,82.5000,122,68,0.61441
4722300,0.01000,82.2500,122,68,0.61905
4722310,0.02000,82.0000,122,68,0.62173
4722320,0.03500,81.3750,122,68,0.62051
4722330,0.06000,80.9375,122,68,0.61685
4722340,0.09000,80.5625,122,68,0.61123
4722350,0.10000,80.1250,122,68,0.60366
4722360,0.11000,79.1875,122,68,0.58486
4722370,0.13500,78.6875,122,68,0.57436
4722380,0.16500,78.1875,122,68,0.56215
4722390,0.14500,77.7500,122,68,0.54847
4722400,0.11000,77.2500,122,68,0.53333
4722410,0.07500,76.3125,122,68,0.50037
4722420,0.02500,75.8750,122,68,0.48303
4722430,-0.01500,75.4375,122,68,0.46545
4722440,-0.04500,75.0000,122,68,0.44835
4722450,-0.05500,74.1250,122,68,0.41563
4722460,-0.06000,73.6875,122,68,0.40073
4722470,-0.06500,73.3125,122,68,0.38877
4722480,-0.06500,72.9375,122,68,0.37875
4722490,-0.05500,72.3125,122,68,0.35946
4722500,-0.04500,72.0000,122,68,0.35116
4722510,0.14500,71.7500,122,68,0.34408
4722520,0.51000,71.5000,122,68,0.33773
4722530,0.97000,71.0625,122,68,0.32772
4722540,0.60500,70.8750,122,68,0.32381
4722550,0.03500,70.6875,122,68,0.32039
4722560,-0.24000,70.3125,122,68,0.31526
4722570,-0.17500,70.1250,122,68,0.31380
4722580,-0.12500,69.9375,122,68,0.31184
4722590,-0.11500,69.7500,122,68,0.30940
4722600,-0.10500,69.2500,122,68,0.30452
4722610,-0.10000,69.0000,122,68,0.30208
4722620,-0.09500,68.7500,122,68,0.29963
4722630,-0.08500,68.5000,122,68,0.29744
4722640,-0.07000,67.9375,122,68,0.29524
4722650,-0.05500,67.6250,122,68,0.29133
4722660,-0.04500,67.3750,122,68,0.28962
4722670,-0.03500,67.0625,122,68,0.28840
4722680,-0.02500,66.4375,122,68,0.28596
4722690,-0.01500,66.1875,122,68,0.28400
4722700,-0.00500,65.9375,122,68,0.28181
4722710,-0.00500,65.6875,122,68,0.27961
4722720,-0.00500,65.5625,122,68,0.27717
4722730,-0.00500,65.6875,122,68,0.27179
4722740,0.00000,66.4375,122,68,0.26911
4722750,0.01000,67.8125,122,68,0.26618
4722760,0.02000,73.0000,122,68,0.26154
4722770,0.03000,76.6250,122,68,0.26007
4722780,0.04500,80.8125,122,68,0.25788
4722790,0.07000,85.3125,122,68,0.25543
4722800,0.09500,94.6250,122,68,0.24982
4722810,0.11000,99.1250,122,68,0.24713
4722820,0.09000,103.2500,122,68,0.24469
4722830,0.08000,107.0000,122,68,0.24225
4722840,0.14000,112.7500,122,68,0.23810
4722850,0.18500,114.7500,122,68,0.23639
4722860,0.24500,116.1875,122,68,0.23590
4722870,0.28500,117.1250,122,68,0.23590
4722880,0.30000,117.6250,122,68,0.25055
4722890,0.26500,117.5000,122,68,0.28352
4722900,0.18500,116.9375,122,68,0.28913
4722910,0.13000,116.1875,122,68,0.29231
4722920,0.06000,115.1250,122,68,0.29402
4722930,0.00000,112.3750,122,68,0.29646
4722940,-0.03000,110.7500,122,68,0.29768
4722950,-0.06000,109.0625,122,68,0.29890
4722960,-0.08000,105.3125,122,68,0.30232
4722970,-0.09000,103.3125,122,68,0.30452
4722980,-0.09500,101.3125,122,68,0.30672
4722990,-0.10500,99.2500,122,68,0.30989
4723000,-0.10500,97.1250,121,67,0.31429
4723010,-0.10500,92.8125,121,67,0.33065
4723020,-0.08500,90.7500,121,67,0.34432
4723030,-0.07500,88.8125,121,67,0.36215
4723040,-0.06500,87.1250,121,67,0.38388
4723050,-0.06500,84.5625,121,67,0.43687
4723060,-0.06000,83.6875,121,67,0.46227
4723070,-0.06000,83.0625,121,67,0.48620
4723080,-0.06000,82.3125,121,67,0.54090
4723090,-0.05500,82.1250,121,67,0.56777
4723100,-0.05500,82.0000,121,67,0.59341
4723110,-0.05500,82.0000,121,67,0.61661
4723120,-0.05500,82.0000,121,67,0.63736
4723130,-0.05500,82.0000,121,67,0.67106
4723140,-0.05500,81.9375,121,67,0.68400
4723150,-0.06000,81.8750,121,67,0.69402
4723160,-0.07000,81.6250,121,67,0.70134
4723170,-0.08000,81.4375,121,67,0.70598
4723180,-0.07500,81.1875,121,67,0.70574
4723190,-0.06500,80.8750,121,67,0.70379
4723200,-0.04500,80.1875,121,67,0.69426
4723210,-0.02500,79.8125,121,67,0.68694
4723220,-0.01500,79.4375,121,67,0.67790
4723230,-0.00500,79.0000,121,67,0.66764
4723240,0.02500,78.6250,121,67,0.65592
4723250,0.05000,77.7500,121,67,0.62906
4723260,0.03000,77.3125,121,67,0.61538
4723270,0.00000,76.9375,121,67,0.60171
4723280,-0.02500,76.5000,121,67,0.58657
4723290,-0.05000,75.6875,121,67,0.55458
4723300,-0.07500,75.3125,121,67,0.53895
4723310,-0.09500,74.9375,121,67,0.52381
4723320,-0.09500,74.1250,121,67,0.49719
4723330,-0.09500,73.7500,121,67,0.48571
4723340,-0.09500,73.4375,121,67,0.47570
4723350,-0.08500,73.1250,121,67,0.46691
4723360,-0.06500,72.5625,121,67,0.45397
4723370,-0.04500,72.2500,121,67,0.44933
4723380,0.12500,72.0000,121,67,0.44518
4723390,0.67000,71.7500,121,67,0.44151
4723400,0.95500,71.5625,121,67,0.43834
4723410,0.57500,71.1875,121,67,0.43321
4723420,-0.12000,71.0000,121,67,0.43077
4723430,-0.28000,70.8125,121,67,0.42857
4723440,-0.20500,70.6250,121,67,0.42662
4723450,-0.17000,70.3125,121,67,0.42247
4723460,-0.17000,70.1250,121,67,0.42051
4723470,-0.17000,69.8750,121,67,0.41905
4723480,-0.16500,69.6875,121,67,0.41709
4723490,-0.15500,69.1250,121,67,0.41245
4723500,-0.14500,68.8750,121,67,0.40977
4723510,-0.14500,68.5625,121,67,0.40684
4723520,-0.13500,68.0000,121,67,0.40391
4723530,-0.13500,67.6875,121,67,0.39853
4723540,-0.12500,67.3750,121,67,0.39585
4723550,-0.11500,67.0000,121,67,0.39292
4723560,-0.10000,66.3750,121,67,0.38755
4723570,-0.09500,66.1875,121,67,0.38510
4723580,-0.08000,66.0000,121,67,0.38217
4723590,-0.07000,65.8125,121,67,0.37875
4723600,-0.06000,65.9375,121,67,0.37509
4723610,-0.04500,67.5000,121,67,0.36752
4723620,-0.03000,69.3125,121,67,0.36386
4723630,-0.01000,72.0000,121,67,0.36044
4723640,0.00000,75.3750,121,67,0.35702
4723650,0.01500,83.6875,121,67,0.35018
4723660,0.04000,88.2500,121,67,0.34799
4723670,0.05500,92.9375,121,67,0.34628
4723680,0.09000,101.6875,121,67,0.34261
4723690,0.12000,105.5625,121,67,0.34090
4723700,0.14000,108.8750,121,67,0.33944
4723710,0.17000,111.6250,121,67,0.33846
4723720,0.21000,115.3750,121,67,0.33797
4723730,0.24000,116.5000,121,67,0.33822
4723740,0.26000,117.1250,121,67,0.33871
4723750,0.24500,117.3750,121,67,0.33944
4723760,0.21500,117.2500,121,67,0.33993
4723770,0.14500,116.1875,121,67,0.34212
4723780,0.06500,115.3125,121,67,0.34310
4723790,0.01000,114.1875,121,67,0.34383
4723800,0.01000,114.1875,121,67,0.34383
4723810,-0.05500,109.6875,121,67,0.34701
4723820,-0.07000,108.0000,121,67,0.34823
4723830,-0.08000,106.3125,121,67,0.34945
4723840,-0.08500,102.8750,121,67,0.35165
4723850,-0.08500,101.0625,121,67,0.35336
4723860,-0.09000,99.1250,121,67,0.35580
4723870,-0.09000,97.0625,121,67,0.35971
4723880,-0.09000,95.0000,121,67,0.36606
4723890,-0.09000,90.8750,121,67,0.38950
4723900,-0.08500,89.0000,121,67,0.40684
4723910,-0.08500,87.4375,121,67,0.42808
4723920,-0.08000,86.1875,121,67,0.45250
4723930,-0.07500,84.5000,121,67,0.50696
4723940,-0.07500,84.0000,121,67,0.53480
4723950,-0.07000,83.5625,121,67,0.56190
4723960,-0.06500,83.0625,121,67,0.60806
4723970,-0.07000,82.9375,121,67,0.62491
4723980,-0.07000,82.8125,121,67,0.64200
4723990,-0.07500,82.8125,121,67,0.65812
4724000,-0.08000,82.7500,122,67,0.67228
4724010,-0.08500,82.6250,122,67,0.69377
4724020,-0.09000,82.4375,122,67,0.70037
4724030,-0.09500,82.1875,122,67,0.70403
4724040,-0.09500,81.8750,122,67,0.70501
4724050,-0.07500,81.1250,122,67,0.69939
4724060,-0.05500,80.6875,122,67,0.69402
4724070,-0.03000,80.2500,122,67,0.68767
4724080,-0.01000,79.2500,122,67,0.68059
4724090,0.00000,78.7500,122,67,0.66545
4724100,0.02000,78.3125,122,67,0.65690
4724110,0.06000,77.9375,122,67,0.64713
4724120,0.06500,77.0000,122,67,0.62295
4724130,0.04000,76.6250,122,67,0.60830
4724140,0.00000,76.1875,122,67,0.59219
4724150,-0.03000,75.8125,122,67,0.57534
4724160,-0.07500,75.3750,122,67,0.55849
4724170,-0.10500,74.6250,122,67,0.52967
4724180,-0.12500,74.2500,122,67,0.51600
4724190,-0.12500,73.8750,122,67,0.50305
4724200,-0.13000,73.5000,122,67,0.49133
4724210,-0.12500,72.8750,122,67,0.47204
4724220,-0.11500,72.5625,122,67,0.46422
4724230,-0.10500,72.2500,122,67,0.45739
4724240,-0.03000,71.7500,122,67,0.44689
4724250,0.20000,71.5625,122,67,0.44298
4724260,0.79500,71.4375,122,67,0.43980
4724270,0.90500,71.2500,122,67,0.43761
4724280,0.32000,71.1250,122,67,0.43541
4724290,-0.25000,70.8750,122,67,0.43126
4724300,-0.25500,70.7500,122,67,0.42906
4724310,-0.20000,70.6250,122,67,0.42686
4724320,-0.18000,70.5000,122,67,0.42442
4724330,-0.17000,70.1250,122,67,0.41880
4724340,-0.16500,69.9375,122,67,0.41587
4724350,-0.16500,69.6875,122,67,0.41294
4724360,-0.16000,69.4375,122,67,0.40977
4724370,-0.15000,68.9375,122,67,0.40513
4724380,-0.14500,68.6875,122,67,0.40244
4724390,-0.13500,68.3750,122,67,0.39951
4724400,-0.12000,67.7500,122,67,0.39316
4724410,-0.11500,67.4375,122,67,0.38950
4724420,-0.11000,67.1250,122,67,0.38584
4724430,-0.09500,66.8125,122,67,0.38193
4724440,-0.09000,66.5625,122,67,0.37778
4724450,-0.07500,66.1875,122,67,0.36874
4724460,-0.06000,66.2500,122,67,0.36508
4724470,-0.05000,66.6875,122,67,0.36166
4724480,-0.03500,67.7500,122,67,0.35751
4724490,-0.01500,72.1875,122,67,0.34847
4724500,0.00000,75.5625,122,67,0.34408
4724510,0.01500,79.5625,122,67,0.33968
4724520,0.03000,83.9375,122,67,0.33578
4724530,0.05500,93.1875,122,67,0.32918
4724540,0.07000,97.6875,122,67,0.32650
4724550,0.09500,101.9375,122,67,0.32405
4724560,0.12500,109.1875,122,67,0.32112
4724570,0.14500,112.0625,122,67,0.32063
4724580,0.17500,114.3125,122,67,0.32015
4724590,0.21500,116.0000,122,67,0.31990
4724600,0.23500,117.1875,122,67,0.31990
4724610,0.24500,118.3125,122,67,0.32063
4724620,0.21500,118.3750,122,67,0.32161
4724630,0.17500,118.1250,122,67,0.32283
4724640,0.11000,117.6250,122,67,0.32405
4724650,0.04500,115.9375,122,67,0.32723
4724660,-0.01500,114.7500,122,67,0.32894
4724670,-0.04500,113.3750,122,67,0.33089
4724680,-0.07000,110.2500,122,67,0.33284
4724690,-0.09500,108.5000,122,67,0.33578
4724700,-0.10500,106.6875,122,67,0.33700
4724710,-0.11500,104.7500,122,67,0.33846
4724720,-0.12000,100.7500,122,67,0.34383
4724730,-0.12500,98.6875,122,67,0.34921
4724740,-0.12000,96.5625,122,67,0.35702
4724750,-0.12000,94.5000,122,67,0.36850
4724760,-0.11500,92.4375,122,67,0.38120
4724770,-0.10500,89.0000,122,67,0.41563
4724780,-0.10000,87.6250,122,67,0.43883
4724790,-0.09500,86.5625,122,67,0.46471
4724800,-0.09500,86.5625,122,67,0.46471
4724810,-0.08500,84.5000,122,67,0.54725
4724820,-0.08500,84.1250,122,67,0.57314
4724830,-0.08000,83.9375,122,67,0.59707
4724840,-0.07500,83.6875,122,67,0.63761
4724850,-0.07500,83.6250,122,67,0.65421
4724860,-0.08000,83.5000,122,67,0.66618
4724870,-0.08000,83.3750,122,67,0.67473
4724880,-0.08000,83.2500,122,67,0.68278
4724890,-0.08500,82.8125,122,67,0.69426
4724900,-0.08500,82.5625,122,67,0.69695
4724910,-0.07500,82.2500,122,67,0.69744
4724920,-0.06500,81.8750,122,67,0.69597
4724930,-0.04000,81.0625,122,67,0.70867
4724940,-0.01500,80.6250,122,67,0.70696
4724950,-0.00500,80.1875,122,67,0.70012
4724960,0.00000,79.6875,122,67,0.69084
4724970,0.04000,78.7500,122,67,0.66618
4724980,0.08000,78.3125,122,67,0.65104
4724990,0.07000,77.8125,122,67,0.63419
4725000,0.03000,77.3750,122,67,0.61636
4725010,0.00000,76.5000,122,67,0.57851
4725020,-0.03000,76.0625,122,67,0.55922
4725030,-0.08000,75.6250,122,67,0.54042
4725040,-0.10500,75.1875,122,67,0.52259
4725050,-0.12000,74.4375,122,67,0.49035
4725060,-0.12500,74.1250,122,67,0.47790
4725070,-0.12500,73.7500,122,67,0.46740
4725080,-0.12500,73.3750,122,67,0.45714
4725090,-0.12500,72.7500,122,67,0.44005
4725100,-0.10500,72.5000,122,67,0.43321
4725110,0.01000,72.1875,122,67,0.42759
4725120,0.41500,71.6250,122,67,0.42271
4725130,0.88000,71.4375,122,67,0.41514
4725140,0.68500,71.2500,122,67,0.41221
4725150,-0.11500,71.1250,122,67,0.40977
4725160,-0.30500,70.9375,122,67,0.40781
4725170,-0.23000,70.5625,122,67,0.40464
4725180,-0.20000,70.4375,122,67,0.40269
4725190,-0.19000,70.3125,122,67,0.40073
4725200,-0.18500,69.9375,122,67,0.39609
4725210,-0.18000,69.7500,122,67,0.39341
4725220,-0.17000,69.5625,122,67,0.39023
4725230,-0.16500,69.3125,122,67,0.38681
4725240,-0.16000,69.1250,122,67,0.38291
4725250,-0.15500,68.6250,122,67,0.37485
4725260,-0.15000,68.3750,122,67,0.37118
4725270,-0.14500,68.1250,122,67,0.36777
4725280,-0.13500,67.5625,122,67,0.35897
4725290,-0.13000,67.3750,122,67,0.35409
4725300,-0.12000,67.1250,122,67,0.34872
4725310,-0.10500,66.8750,122,67,0.34310
4725320,-0.09500,66.7500,122,67,0.33724
4725330,-0.08500,67.3750,122,67,0.32552
4725340,-0.06500,68.5000,122,67,0.31941
4725350,-0.05000,70.4375,122,67,0.31355
4725360,-0.03500,73.1875,122,67,0.30916
4725370,-0.02000,80.8125,122,67,0.30110
4725380,0.00000,85.3125,122,67,0.29646
4725390,0.02500,90.1250,122,67,0.29182
4725400,0.04000,94.9375,122,67,0.28742
4725410,0.07000,104.0000,122,67,0.27985
4725420,0.09000,107.9375,122,67,0.27668
4725430,0.12000,111.3750,122,67,0.27399
4725440,0.15500,116.5000,122,67,0.27057
4725450,0.18000,118.2500,122,67,0.26984
4725460,0.21000,119.5000,122,67,0.27033
4725470,0.23500,120.2500,122,67,0.27155
4725480,0.23000,120.6250,122,67,0.27277
4725490,0.20500,120.3750,122,67,0.27570
4725500,0.15000,119.8750,122,67,0.27766
4725510,0.07000,119.0625,122,67,0.27961
4725520,0.02000,118.0625,122,67,0.28181
4725530,-0.03500,115.3750,122,67,0.28669
4725540,-0.06000,113.8125,122,67,0.28913
4725550,-0.07500,112.1875,122,67,0.29158
4725560,-0.09500,108.6250,122,67,0.29695
4725570,-0.11000,106.6875,122,67,0.29963
4725580,-0.11500,104.7500,122,67,0.30305
4725590,-0.11500,102.7500,122,67,0.30794
4725600,-0.12000,98.5625,122,67,0.32527
4725610,-0.11500,96.5000,122,67,0.33944
4725620,-0.11000,94.5000,122,67,0.35800
4725630,-0.10500,92.6250,122,67,0.38144
4725640,-0.10500,90.9375,122,67,0.40904
4725650,-0.10000,88.4375,122,67,0.47399
4725660,-0.09500,87.5625,122,67,0.50427
4725670,-0.09500,86.8750,122,67,0.53236
4725680,-0.09500,86.0000,122,67,0.56361
4725690,-0.09500,85.7500,122,67,0.62589
4725700,-0.10000,85.5625,122,67,0.65421
4725710,-0.10500,85.4375,122,67,0.67961
4725720,-0.11000,85.3125,122,67,0.72112
4725730,-0.11000,85.1875,122,67,0.73675
4725740,-0.11000,85.0625,122,67,0.74921
4725750,-0.11500,84.9375,122,67,0.75824
4725760,-0.11500,84.6875,122,67,0.76288
4725770,-0.11500,84.1250,122,67,0.76484
4725780,-0.10500,83.8125,122,67,0.76361
4725790,-0.08500,83.4375,122,67,0.76044
4725800,-0.08500,83.4375,122,67,0.76044
4725810,-0.04500,82.1250,122,67,0.73797
4725820,-0.03500,81.6875,122,67,0.72698
4725830,-0.01500,81.2500,122,67,0.71477
4725840,0.02500,80.8125,122,67,0.70110
4725850,0.04000,79.9375,122,67,0.67009
4725860,0.02000,79.5625,122,67,0.65470
4725870,-0.02000,79.1250,122,67,0.63956
4725880,-0.05500,78.3125,122,67,0.60586
4725890,-0.09000,78.0000,122,67,0.58877
4725900,-0.13000,77.6250,122,67,0.57192
4725910,-0.15000,77.2500,122,67,0.55604
4725920,-0.15500,76.9375,122,67,0.54139
4725930,-0.15500,76.3125,122,67,0.51600
4725940,-0.14500,76.0000,122,67,0.50574
4725950,-0.14000,75.6875,122,67,0.49695
4725960,-0.14500,75.4375,122,67,0.49011
4725970,-0.07500,74.9375,122,67,0.48010
4725980,0.17500,74.6875,122,67,0.47619
4725990,0.72500,74.5000,122,67,0.47277
4726000,0.98500,74.3125,122,67,0.46984
4726010,0.27000,73.9375,122,67,0.46496
4726020,-0.20000,73.7500,122,67,0.46252
4726030,-0.27000,73.6250,122,67,0.46032
4726040,-0.19500,73.2500,122,67,0.45519
4726050,-0.18500,73.0625,122,67,0.45226
4726060,-0.18000,72.8125,122,67,0.44933
4726070,-0.17000,72.6250,122,67,0.44640
4726080,-0.16500,72.1250,122,67,0.44298
4726090,-0.15500,71.8125,122,67,0.43590
4726100,-0.15000,71.4375,122,67,0.43223
4726110,-0.14000,71.0625,122,67,0.42857
4726120,-0.13500,70.4375,122,67,0.42051
4726130,-0.13000,70.1250,122,67,0.41636
4726140,-0.12500,69.8750,122,67,0.41197
4726150,-0.12000,69.5625,122,67,0.40733
4726160,-0.10500,69.0625,122,67,0.39927
4726170,-0.09500,68.8750,122,67,0.39487
4726180,-0.08500,68.8750,122,67,0.39023
4726190,-0.07500,69.1250,122,67,0.38535
4726200,-0.06500,69.9375,122,67,0.38071
4726210,-0.05000,74.0625,122,67,0.37167
4726220,-0.03000,77.4375,122,67,0.36777
4726230,-0.01500,81.5625,122,67,0.36435
4726240,0.00000,86.1250,122,67,0.36117
4726250,0.03500,96.0625,122,67,0.35556
4726260,0.05500,101.0000,122,67,0.35385
4726270,0.08000,105.6875,122,67,0.35263
4726280,0.11500,113.6875,122,67,0.35092
4726290,0.14000,116.9375,122,67,0.35067
4726300,0.16000,119.5000,122,67,0.35092
4726310,0.19500,121.5625,122,67,0.35140
4726320,0.22000,123.0625,122,67,0.35214
4726330,0.25500,124.7500,122,67,0.35409
4726340,0.26500,125.0625,122,67,0.35482
4726350,0.25500,125.1250,122,67,0.35556
4726360,0.20500,124.8750,122,67,0.35653
4726370,0.14500,123.6250,122,67,0.35849
4726380,0.07000,122.6875,122,67,0.35922
4726390,0.03000,121.5625,122,67,0.35971
4726400,-0.01500,120.3125,122,67,0.36020
4726410,-0.04500,117.3750,122,67,0.36093
4726420,-0.06000,115.7500,122,67,0.36117
4726430,-0.07000,114.0000,122,67,0.36142
4726440,-0.07500,112.1875,122,67,0.36239
4726450,-0.07500,108.2500,122,67,0.36850
4726460,-0.08500,106.1875,122,67,0.37411
4726470,-0.08500,104.1250,122,67,0.38242
4726480,-0.08500,102.0625,122,67,0.39536
4726490,-0.08500,98.0000,122,67,0.43565
4726500,-0.08500,96.2500,122,67,0.46227
4726510,-0.08500,94.7500,122,67,0.49206
4726520,-0.08500,93.5000,122,67,0.52381
4726530,-0.08500,91.6250,122,67,0.58852
4726540,-0.08500,90.9375,122,67,0.61954
4726550,-0.08000,90.4375,122,67,0.64860
4726560,-0.07500,89.8750,122,67,0.69011
4726570,-0.07500,89.6875,122,67,0.70940
4726580,-0.08000,89.5000,122,67,0.72723
4726590,-0.08000,89.3750,122,67,0.74310
4726600,-0.08500,89.1875,122,67,0.75629
4726610,-0.08500,88.8125,122,67,0.77534
4726620,-0.09000,88.6250,122,67,0.78120
4726630,-0.09500,88.3125,122,67,0.78486
4726640,-0.09500,87.9375,122,67,0.78608
4726650,-0.08500,87.0000,122,67,0.78144
4726660,-0.06000,86.5000,122,67,0.77582
4726670,-0.03500,86.0000,122,67,0.76923
4726680,-0.01500,84.9375,122,67,0.75165
4726690,-0.01500,84.3750,122,67,0.74090
4726700,0.01000,83.8750,122,67,0.72869
4726710,0.05000,83.3750,122,67,0.71526
4726720,0.05000,82.8750,122,67,0.70061
4726730,0.02000,82.0000,122,67,0.66862
4726740,-0.02500,81.6250,122,67,0.65177
4726750,-0.05000,81.1250,122,67,0.63468
4726760,-0.09500,80.6875,122,67,0.61905
4726770,-0.13500,79.8750,122,67,0.58974
4726780,-0.14500,79.5000,122,67,0.57558
4726790,-0.15500,79.1250,122,67,0.56239
4726800,-0.15500,78.4375,122,67,0.54017
4726810,-0.14500,78.1250,122,67,0.53114
4726820,-0.14500,78.1250,122,67,0.53114
4726830,-0.13500,77.5000,122,67,0.51648
4726840,-0.02500,76.8750,122,67,0.50598
4726850,0.30000,76.6250,122,67,0.50208
4726860,0.89500,76.3750,122,67,0.49866
4726870,0.97500,76.1875,122,67,0.49524
4726880,0.08500,75.8125,122,67,0.48816
4726890,-0.28000,75.6250,122,67,0.48449
4726900,-0.26000,75.5000,122,67,0.48059
4726910,-0.21000,75.3750,122,67,0.47619
4726920,-0.20000,75.2500,122,67,0.47179
4726930,-0.20000,74.8750,122,67,0.46227
4726940,-0.19500,74.6250,122,67,0.45714
4726950,-0.19000,74.4375,122,67,0.45226
4726960,-0.18000,73.9375,122,67,0.44396
4726970,-0.17000,73.6250,122,67,0.43321
4726980,-0.16000,73.3750,122,67,0.41905
4726990,-0.15000,73.0625,122,67,0.40952
4727000,-0.13500,72.5000,121,67,0.39634
4727010,-0.13000,72.1875,121,67,0.39072
4727020,-0.12500,71.8750,121,67,0.38535
4727030,-0.11500,71.6250,121,67,0.38022
4727040,-0.11500,71.3750,121,67,0.37534
4727050,-0.10500,71.4375,121,67,0.36679
4727060,-0.09500,72.0000,121,67,0.36337
4727070,-0.07500,73.3125,121,67,0.35946
4727080,-0.06500,75.5000,121,67,0.35580
4727090,-0.04500,82.5625,121,67,0.34823
4727100,-0.02500,87.0625,121,67,0.34505
4727110,-0.00500,91.9375,121,67,0.34212
4727120,0.00500,96.9375,121,67,0.33993
4727130,0.03000,106.7500,121,67,0.33724
4727140,0.04500,111.1875,121,67,0.33675
4727150,0.06500,115.0625,121,67,0.33700
4727160,0.09000,121.0625,121,67,0.33895
4727170,0.11000,123.1250,121,67,0.34042
4727180,0.14500,124.6250,121,67,0.34237
4727190,0.18500,125.6250,121,67,0.34432
4727200,0.20500,126.2500,121,67,0.34603
4727210,0.21500,126.3750,121,67,0.34921
4727220,0.19000,126.0625,121,67,0.35043
4727230,0.15500,125.4375,121,67,0.35140
4727240,0.09000,124.6875,121,67,0.35214
4727250,0.02500,122.6250,121,67,0.35360
4727260,-0.01500,121.3125,121,67,0.35409
4727270,-0.04500,119.8750,121,67,0.35433
4727280,-0.06500,116.6250,121,67,0.35433
4727290,-0.08500,114.8125,121,67,0.35360
4727300,-0.09500,112.9375,121,67,0.35311
4727310,-0.10500,111.0000,121,67,0.35360
4727320,-0.11000,109.0000,121,67,0.35556
4727330,-0.11000,104.7500,121,67,0.36752
4727340,-0.11500,102.5625,121,67,0.37924
4727350,-0.11500,100.4375,121,67,0.39536
4727360,-0.11500,98.4375,121,67,0.41245
4727370,-0.11500,94.9375,121,67,0.45543
4727380,-0.11000,93.5000,121,67,0.48278
4727390,-0.11000,92.3125,121,67,0.51160
4727400,-0.11000,90.5625,121,67,0.54090
4727410,-0.11000,90.0000,121,67,0.59634
4727420,-0.10500,89.5000,121,67,0.62100
4727430,-0.10500,89.1250,121,67,0.64298
4727440,-0.10500,88.8125,121,67,0.66227
4727450,-0.10500,88.2500,121,67,0.69060
4727460,-0.11000,88.0000,121,67,0.69866
4727470,-0.11500,87.7500,121,67,0.70623
4727480,-0.11500,87.5000,121,67,0.71258
4727490,-0.11000,86.8125,121,67,0.71990
4727500,-0.10000,86.3750,121,67,0.72063
4727510,-0.08000,85.9375,121,67,0.71941
4727520,-0.04500,85.0000,121,67,0.71062
4727530,-0.04500,85.0000,121,67,0.71062
4727540,-0.04500,85.0000,121,67,0.71062
4727550,0.02000,82.8750,121,67,0.67179
4727560,0.04000,82.8750,121,67,0.67179
4727570,0.08000,81.8125,121,67,0.64567
4727580,0.08500,81.2500,121,67,0.63004
4727590,0.05500,80.7500,121,67,0.61319
4727600,0.01000,80.1875,121,67,0.59560
4727610,-0.01500,79.2500,121,67,0.55849
4727620,-0.06000,78.8125,121,67,0.53968
4727630,-0.08500,78.3750,121,67,0.52088
4727640,-0.10500,77.9375,121,67,0.50256
4727650,-0.11000,77.0625,121,67,0.47009
4727660,-0.11500,76.6875,121,67,0.45665
4727670,-0.11000,76.3125,121,67,0.44298
4727680,-0.10500,75.9375,121,67,0.42979
4727690,-0.09500,75.2500,121,67,0.40586
4727700,0.00000,74.8750,121,67,0.39536
4727710,0.27000,74.5625,121,67,0.38584
4727720,0.78000,74.2500,121,67,0.37705
4727730,0.77500,73.6875,121,67,0.36142
4727740,0.23500,73.5000,121,67,0.35433
4727750,-0.27000,73.3125,121,67,0.34750
4727760,-0.22000,72.8125,121,67,0.33748
4727770,-0.17000,72.6250,121,67,0.33211
4727780,-0.15500,72.3750,121,67,0.32650
4727790,-0.15000,72.1875,121,67,0.32063
4727800,-0.15000,72.1875,121,67,0.32063
4727810,-0.13500,71.4375,121,67,0.30305
4727820,-0.13000,71.1250,121,67,0.29744
4727830,-0.12000,70.7500,121,67,0.29182
4727840,-0.11500,70.4375,121,67,0.28620
4727850,-0.11000,69.7500,121,67,0.27570
4727860,-0.11000,69.4375,121,67,0.27179
4727870,-0.11000,69.0625,121,67,0.26691
4727880,-0.10500,68.3750,121,67,0.26178
4727890,-0.09500,68.1250,121,67,0.25079
4727900,-0.08500,67.8750,121,67,0.24518
4727910,-0.06500,67.6250,121,67,0.23956
4727920,-0.05000,67.5625,121,67,0.23419
4727930,-0.03500,68.5000,121,67,0.22393
4727940,-0.01500,69.9375,121,67,0.21905
4727950,-0.00500,72.2500,121,67,0.21392
4727960,0.01000,75.3125,121,67,0.21026
4727970,0.03000,83.2500,121,67,0.20415
4727980,0.05000,87.8125,121,67,0.20024
4727990,0.06000,92.4375,121,67,0.19634
4728000,0.07500,97.0625,120,67,0.19267
4728010,0.10000,105.5000,120,67,0.18657
4728020,0.12000,109.0625,120,67,0.18462
4728030,0.14500,112.0000,120,67,0.18315
4728040,0.19000,116.1875,120,67,0.18242
4728050,0.22000,117.3750,120,67,0.18364
4728060,0.25500,118.1250,120,67,0.18535
4728070,0.26000,118.4375,120,67,0.18681
4728080,0.23500,118.3750,120,67,0.18828
4728090,0.17500,117.4375,120,67,0.19194
4728100,0.12000,116.5625,120,67,0.19414
4728110,0.06000,115.5000,120,67,0.19658
4728120,0.01000,112.8125,120,67,0.20269
4728130,-0.01500,111.1875,120,67,0.20611
4728140,-0.03500,109.5000,120,67,0.20952
4728150,-0.05500,107.7500,120,67,0.21294
4728160,-0.07500,104.0000,120,67,0.22051
4728170,-0.08000,102.0000,120,67,0.22442
4728180,-0.08500,100.0000,120,67,0.22882
4728190,-0.09000,98.0000,120,67,0.23419
4728200,-0.09500,95.9375,120,67,0.24176
4728210,-0.09500,91.8125,120,67,0.26618
4728220,-0.08500,89.9375,120,67,0.28425
4728230,-0.08000,88.3125,120,67,0.30623
4728240,-0.07500,86.9375,120,67,0.33187
4728250,-0.07000,85.0000,120,67,0.38608
4728260,-0.06500,84.3750,120,67,0.41074
4728270,-0.06500,83.9375,120,67,0.43810
4728280,-0.07000,83.3750,120,67,0.46593
4728290,-0.07500,83.1875,120,67,0.51819
4728300,-0.08000,83.1250,120,67,0.54066
4728310,-0.08000,83.0625,120,67,0.56020
4728320,-0.07500,83.0000,120,67,0.57680
4728330,-0.08000,82.8125,120,67,0.60049
4728340,-0.08000,82.6250,120,67,0.60781
4728350,-0.08500,82.3750,120,67,0.61148
4728360,-0.08000,82.0625,120,67,0.61245
4728370,-0.07000,81.3750,120,67,0.60977
4728380,-0.05500,81.0000,120,67,0.60562
4728390,-0.02500,80.5625,120,67,0.59976
4728400,-0.00500,79.6875,120,67,0.59219
4728410,0.00000,79.2500,120,67,0.57192
4728420,0.02000,78.7500,120,67,0.55995
4728430,0.06500,78.3125,120,67,0.54676
4728440,0.07000,77.8125,120,67,0.53236
4728450,0.04000,76.9375,120,67,0.50281
4728460,0.00500,76.5000,120,67,0.48889
4728470,-0.03000,76.0625,120,67,0.47302
4728480,-0.06500,75.6250,120,67,0.45641
4728490,-0.11000,74.8750,120,67,0.42295
4728500,-0.13000,74.5625,120,67,0.40733
4728510,-0.13500,74.1875,120,67,0.39267
4728520,-0.13083,73.8542,120,67,0.37977
4728530,-0.12500,73.5625,120,67,0.36850
4728540,-0.12500,73.3125,120,67,0.35873
4728550,-0.11500,73.0625,120,67,0.35043
4728560,-0.08500,72.8125,120,67,0.34432
4728570,0.14500,72.3750,120,67,0.33553
4728580,0.70000,72.1875,120,67,0.33162
4728590,0.88000,72.0000,120,67,0.32821
4728600,0.26500,71.6250,120,67,0.32259
4728610,-0.21000,71.4375,120,67,0.32039
4728620,-0.30000,71.2500,120,67,0.31844
4728630,-0.20000,71.0625,120,67,0.31648
4728640,-0.18000,70.8750,120,67,0.31453
4728650,-0.17500,70.5000,120,67,0.31062
4728660,-0.16500,70.2500,120,67,0.30916
4728670,-0.16000,70.0000,120,67,0.30818
4728680,-0.15500,69.7500,120,67,0.30623
4728690,-0.14500,69.1250,120,67,0.30110
4728700,-0.14000,68.8125,120,67,0.29792
4728710,-0.13500,68.5000,120,67,0.29451
4728720,-0.12500,68.1875,120,67,0.29109
4728730,-0.11500,67.5000,120,67,0.28425
4728740,-0.11500,67.1250,120,67,0.28059
4728750,-0.10500,66.8125,120,67,0.27692
4728760,-0.10000,66.3125,120,67,0.27204
4728770,-0.09000,66.0625,120,67,0.26911
4728780,-0.07500,65.8750,120,67,0.26569
4728790,-0.06000,65.8750,120,67,0.26178
4728800,-0.06000,65.8750,120,67,0.26178
4728810,-0.03000,68.6250,120,67,0.24860
4728820,-0.00500,70.9375,120,67,0.24420
4728830,0.00500,74.0625,120,67,0.23980
4728840,0.02500,82.0000,120,67,0.23565
4728850,0.04500,86.4375,120,67,0.22808
4728860,0.07000,91.0625,120,67,0.22564
4728870,0.09500,95.5625,120,67,0.22418
4728880,0.13000,103.7500,120,67,0.22002
4728890,0.15000,107.1250,120,67,0.21807
4728900,0.19000,109.9375,120,67,0.21636
4728910,0.22000,112.2500,120,67,0.21490
4728920,0.25500,113.9375,120,67,0.21392
4728930,0.27000,115.8125,120,67,0.21319
4728940,0.25500,116.0625,120,67,0.21343
4728950,0.20500,115.9375,120,67,0.21416
4728960,0.14000,115.5000,120,67,0.21587
4728970,0.07000,113.7500,120,67,0.22051
4728980,0.00000,112.5000,120,67,0.22271
4728990,-0.03500,111.0625,120,67,0.22515
4729000,-0.06500,107.8750,120,67,0.22784
4729010,-0.08000,106.1250,120,67,0.23346
4729020,-0.09500,104.2500,120,67,0.23639
4729030,-0.10000,102.3750,120,67,0.25519
4729040,-0.10000,100.4375,120,67,0.28181
4729050,-0.10000,96.4375,120,67,0.30696
4729060,-0.10000,94.4375,120,67,0.31526
4729070,-0.10000,92.3750,120,67,0.32357
4729080,-0.09500,90.3750,120,67,0.33407
4729090,-0.09000,86.6875,120,67,0.36581
4729100,-0.08500,85.1250,120,67,0.38730
4729110,-0.08500,83.8750,120,67,0.41245
4729120,-0.08000,82.2500,120,67,0.46984
4729130,-0.08000,81.8125,120,67,0.49988
4729140,-0.08000,81.5000,120,67,0.52943
4729150,-0.08000,81.3125,120,67,0.55775
4729160,-0.08000,81.1875,120,67,0.60024
4729170,-0.08500,81.1875,120,67,0.62002
4729180,-0.08500,81.1875,120,67,0.63858
4729190,-0.09000,81.1875,120,67,0.65470
4729200,-0.09500,81.1875,120,67,0.66838
4729210,-0.09500,80.9375,120,67,0.68718
4729220,-0.09500,80.8125,120,67,0.69231
4729230,-0.09500,80.5625,120,67,0.69499
4729240,-0.08500,80.3125,120,67,0.69499
4729250,-0.05500,79.6250,120,67,0.68742
4729260,-0.03500,79.2500,120,67,0.68107
4729270,-0.02500,78.8750,120,67,0.67326
4729280,-0.01000,78.0625,120,67,0.66374
4729290,0.04000,77.6250,120,67,0.64054
4729300,0.06000,77.1875,120,67,0.62735
4729310,0.04000,76.7500,120,67,0.61319
4729320,0.00000,76.3125,120,67,0.59805
4729330,-0.03000,75.5000,120,67,0.56630
4729340,-0.06000,75.0625,120,67,0.54994
4729350,-0.11000,74.6875,120,67,0.53358
4729360,-0.13500,74.2500,120,67,0.51941
4729370,-0.14500,73.5000,120,67,0.49304
4729380,-0.14500,73.1250,120,67,0.48034
4729390,-0.14500,72.8125,120,67,0.46862
4729400,-0.14000,72.5000,120,67,0.45812
4729410,-0.13500,71.8125,120,67,0.44127
4729420,-0.11500,71.5625,120,67,0.43468
4729430,0.06000,71.3125,120,67,0.42930
4729440,0.60000,70.8750,120,67,0.42173
4729450,0.87500,70.6250,120,67,0.41905
4729460,0.38500,70.4375,120,67,0.41709
4729470,-0.15000,70.3125,120,67,0.41563
4729480,-0.33000,70.1250,120,67,0.41416
4729490,-0.22000,69.8750,120,67,0.41074
4729500,-0.20000,69.6875,120,67,0.40904
4729510,-0.19000,69.5625,120,67,0.40733
4729520,-0.18000,69.1875,120,67,0.40366
4729530,-0.17500,69.0000,120,67,0.40147
4729540,-0.16500,68.8125,120,67,0.39902
4729550,-0.16000,68.6250,120,67,0.39634
4729560,-0.15500,68.3750,120,67,0.39414
4729570,-0.15500,67.8750,120,67,0.38950
4729580,-0.15000,67.6250,120,67,0.38632
4729590,-0.14500,67.3125,120,67,0.38291
4729600,-0.13500,67.0625,120,67,0.37924
4729610,-0.12500,66.5000,120,67,0.37118
4729620,-0.12000,66.2500,120,67,0.36703
4729630,-0.11500,66.0625,120,67,0.36264
4729640,-0.10500,65.7500,120,67,0.35360
4729650,-0.09500,65.8125,120,67,0.34872
4729660,-0.07500,66.3750,120,67,0.34481
4729670,-0.06000,67.6250,120,67,0.34139
4729680,-0.03500,72.5000,120,67,0.33260
4729690,-0.02500,75.9375,120,67,0.32796
4729700,-0.00500,79.9375,120,67,0.32357
4729710,0.02000,84.3125,120,67,0.31917
4729720,0.04000,88.8125,120,67,0.31526
4729730,0.06000,97.7500,120,67,0.30818
4729740,0.08500,101.8125,120,67,0.30525
4729750,0.12000,105.4375,120,67,0.30281
4729760,0.14500,108.5625,120,67,0.30159
4729770,0.18500,113.1875,120,67,0.30085
4729780,0.22500,114.6875,120,67,0.30061
4729790,0.24000,115.7500,120,67,0.30061
4729800,0.24000,115.7500,120,67,0.30061
4729810,0.18500,116.5000,120,67,0.30330
4729820,0.12500,116.0625,120,67,0.30501
4729830,0.06000,115.3750,120,67,0.30696
4729840,0.00000,114.5000,120,67,0.30916
4729850,-0.04500,112.0000,120,67,0.31404
4729860,-0.07500,110.5000,120,67,0.31697
4729870,-0.09500,108.9375,120,67,0.31990
4729880,-0.11000,105.3750,120,67,0.32479
4729890,-0.11500,103.5000,120,67,0.32723
4729900,-0.12500,101.6250,120,67,0.32967
4729910,-0.12500,99.6250,120,67,0.33260
4729920,-0.13000,97.6250,120,67,0.33675
4729930,-0.13000,93.5000,120,67,0.35165
4729940,-0.12500,91.3750,120,67,0.36410
4729950,-0.12500,89.3750,120,67,0.38046
4729960,-0.12000,87.5000,120,67,0.39756
4729970,-0.11500,84.6250,120,67,0.44005
4729980,-0.10500,83.6250,120,67,0.46667
4729990,-0.10500,82.8750,120,67,0.49524
4730000,-0.10500,82.3750,121,67,0.52430
4730010,-0.10500,81.8125,121,67,0.58046
4730020,-0.10000,81.6875,121,67,0.60611
4730030,-0.09500,81.6250,121,67,0.62930
4730040,-0.09500,81.6250,121,67,0.66813
4730050,-0.09500,81.5625,121,67,0.68107
4730060,-0.09500,81.5625,121,67,0.69035
4730070,-0.10000,81.4375,121,67,0.69915
4730080,-0.10500,81.3125,121,67,0.70623
4730090,-0.10500,80.8750,121,67,0.71380
4730100,-0.08500,80.5625,121,67,0.71404
4730110,-0.05500,80.2500,121,67,0.71184
4730120,-0.04000,79.8750,121,67,0.70745
4730130,-0.03500,79.0625,121,67,0.69280
4730140,-0.02500,78.6875,121,67,0.68278
4730150,0.00500,78.2500,121,67,0.67106
4730160,0.04000,77.3750,121,67,0.64664
4730170,0.03500,77.0000,121,67,0.63272
4730180,-0.00500,76.5625,121,67,0.61758
4730190,-0.04500,76.1875,121,67,0.60171
4730200,-0.07500,75.7500,121,67,0.58510
4730210,-0.11500,74.9375,121,67,0.55092
4730220,-0.15000,74.5625,121,67,0.53382
4730230,-0.15500,74.1875,121,67,0.51746
4730240,-0.15500,73.8125,121,67,0.50183
4730250,-0.16000,73.0625,121,67,0.47619
4730260,-0.15500,72.7500,121,67,0.46667
4730270,-0.15000,72.4375,121,67,0.45739
4730280,-0.13500,71.8125,121,67,0.44908
4730290,0.08000,71.5625,121,67,0.43565
4730300,0.43500,71.3125,121,67,0.43077
4730310,0.89500,71.1250,121,67,0.42711
4730320,0.60500,70.9375,121,67,0.42418
4730330,-0.09000,70.5625,121,67,0.42027
4730340,-0.33500,70.4375,121,67,0.41880
4730350,-0.26000,70.3125,121,67,0.41734
4730360,-0.21000,70.1875,121,67,0.41636
4730370,-0.20500,69.7500,121,67,0.41416
4730380,-0.20000,69.5625,121,67,0.41270
4730390,-0.19000,69.3125,121,67,0.41099
4730400,-0.18500,69.0625,121,67,0.40904
4730410,-0.18000,68.6250,121,67,0.40440
4730420,-0.17000,68.3750,121,67,0.40195
4730430,-0.16500,68.0625,121,67,0.39927
4730440,-0.16000,67.4375,121,67,0.39316
4730450,-0.15500,67.1250,121,67,0.39048
4730460,-0.15000,66.8125,121,67,0.38779
4730470,-0.14500,66.5625,121,67,0.38462
4730480,-0.13500,66.0625,121,67,0.37705
4730490,-0.12500,65.8125,121,67,0.37289
4730500,-0.11000,65.6250,121,67,0.36850
4730510,-0.09000,65.6250,121,67,0.36386
4730520,-0.07500,66.0625,121,67,0.35946
4730530,-0.06000,68.8125,121,67,0.35018
4730540,-0.04000,71.3750,121,67,0.34554
4730550,-0.02500,74.6875,121,67,0.34090
4730560,0.00000,82.9375,121,67,0.33431
4730570,0.02000,87.5625,121,67,0.33065
4730580,0.05000,92.2500,121,67,0.32698
4730590,0.08000,96.8125,121,67,0.32332
4730600,0.10000,101.1875,121,67,0.31966
4730610,0.12500,108.5625,121,67,0.31380
4730620,0.16000,111.4375,121,67,0.31160
4730630,0.18500,113.8125,121,67,0.30989
4730640,0.22000,115.6250,121,67,0.30867
4730650,0.24000,117.8125,121,67,0.30794
4730660,0.23500,118.2500,121,67,0.30867
4730670,0.18500,118.3750,121,67,0.30940
4730680,0.13500,118.1250,121,67,0.31038
4730690,0.06000,116.8750,121,67,0.31282
4730700,0.00000,115.8750,121,67,0.31429
4730710,-0.05000,114.6875,121,67,0.31624
4730720,-0.08500,111.7500,121,67,0.32039
4730730,-0.10000,110.1250,121,67,0.32234
4730740,-0.11500,108.3125,121,67,0.32430
4730750,-0.12500,106.5000,121,67,0.32625
4730760,-0.13000,104.6250,121,67,0.32845
4730770,-0.13500,100.7500,121,67,0.33455
4730780,-0.13500,98.7500,121,67,0.33944
4730790,-0.13500,96.7500,121,67,0.34652
4730800,-0.13500,96.7500,121,67,0.34652
4730810,-0.12500,90.9375,121,67,0.38901
4730820,-0.11500,89.3125,121,67,0.41123
4730830,-0.11500,88.0000,121,67,0.43687
4730840,-0.11000,86.0625,121,67,0.49475
4730850,-0.10500,85.3750,121,67,0.52088
4730860,-0.10500,84.8125,121,67,0.54481
4730870,-0.10500,84.4375,121,67,0.57094
4730880,-0.10500,84.1250,121,67,0.59707
4730890,-0.10500,83.8125,121,67,0.64347
4730900,-0.10500,83.6875,121,67,0.66300
4730910,-0.10500,83.5625,121,67,0.67961
4730920,-0.10500,83.2500,121,67,0.69353
4730930,-0.10500,83.0625,121,67,0.71306
4730940,-0.10500,82.8125,121,67,0.71893
4730950,-0.09500,82.5000,121,67,0.72210
4730960,-0.07500,82.1875,121,67,0.72234
4730970,-0.04500,81.4375,121,67,0.71722
4730980,-0.02500,81.0625,121,67,0.71258
4730990,-0.02500,80.6250,121,67,0.70598
4731000,-0.00500,79.7500,122,68,0.69792
4731010,0.04500,79.2500,122,68,0.67692
4731020,0.06000,78.7500,122,68,0.66447
4731030,0.03500,78.3125,122,68,0.65079
4731040,-0.01500,77.3750,122,68,0.62051
4731050,-0.03500,76.9375,122,68,0.60586
4731060,-0.07500,76.5000,122,68,0.59194
4731070,-0.11000,76.0625,122,68,0.57656
4731080,-0.13500,75.6875,122,68,0.55849
4731090,-0.14000,74.8750,122,68,0.52039
4731100,-0.14000,74.5000,122,68,0.50330
4731110,-0.13500,74.1875,122,68,0.48767
4731120,-0.12500,73.5625,122,68,0.46105
4731130,-0.12000,73.3125,122,68,0.45006
4731140,-0.09000,73.0625,122,68,0.44054
4731150,0.19500,72.8125,122,68,0.43248
4731160,0.60000,72.5625,122,68,0.42613
4731170,0.90500,72.1250,122,68,0.41612
4731180,0.29500,71.9375,122,68,0.41172
4731190,-0.20000,71.7500,122,68,0.40781
4731200,-0.30500,71.5625,122,68,0.40415
4731210,-0.22000,71.3125,122,68,0.39829
4731220,-0.19000,71.0625,122,68,0.39560
4731230,-0.19000,70.8750,122,68,0.39292
4731240,-0.18500,70.6875,122,68,0.39023
4731250,-0.18000,70.3125,122,68,0.38510
4731260,-0.17500,70.0625,122,68,0.38291
4731270,-0.17000,69.8125,122,68,0.38022
4731280,-0.16000,69.5625,122,68,0.37705
4731290,-0.16000,69.0625,122,68,0.36972
4731300,-0.15500,68.7500,122,68,0.36581
4731310,-0.14500,68.5000,122,68,0.36142
4731320,-0.13500,67.9375,122,68,0.35263
4731330,-0.13000,67.6250,122,68,0.34823
4731340,-0.11500,67.4375,122,68,0.34383
4731350,-0.11000,67.1875,122,68,0.33919
4731360,-0.09500,67.0625,122,68,0.33236
4731370,-0.08500,67.4375,122,68,0.32821
4731380,-0.07500,68.4375,122,68,0.32381
4731390,-0.06000,70.1875,122,68,0.31917
4731400,-0.04500,72.7500,122,68,0.31429
4731410,-0.03000,80.0625,122,68,0.30427
4731420,-0.00500,84.5000,122,68,0.29939
4731430,0.02500,89.2500,122,68,0.29475
4731440,0.04000,94.0000,122,68,0.29011
4731450,0.06500,103.1250,122,68,0.28230
4731460,0.09500,107.1250,122,68,0.28010
4731470,0.11500,110.6875,122,68,0.27741
4731480,0.15000,113.6875,122,68,0.27473
4731490,0.19500,117.9375,122,68,0.27082
4731500,0.22000,119.2500,122,68,0.26935
4731510,0.23500,120.1250,122,68,0.26862
4731520,0.23000,120.7500,122,68,0.26838
4731530,0.17500,120.5625,122,68,0.26935
4731540,0.12000,120.1250,122,68,0.27082
4731550,0.05000,119.4375,122,68,0.27253
4731560,-0.01500,117.5000,122,68,0.27766
4731570,-0.05000,116.1875,122,68,0.28010
4731580,-0.08000,114.7500,122,68,0.28254
4731590,-0.10500,113.1875,122,68,0.28498
4731600,-0.12000,109.6250,122,68,0.29011
4731610,-0.12500,107.7500,122,68,0.29280
4731620,-0.13000,105.8125,122,68,0.29597
4731630,-0.13500,103.8750,122,68,0.30037
4731640,-0.13500,101.8125,122,68,0.30672
4731650,-0.13500,97.6875,122,68,0.32698
4731660,-0.14000,95.5625,122,68,0.34066
4731670,-0.13500,93.5000,122,68,0.35995
4731680,-0.13000,90.0000,122,68,0.41319
4731690,-0.12500,88.6875,122,68,0.44542
4731700,-0.11500,87.6875,122,68,0.48010
4731710,-0.11500,86.8750,122,68,0.51600
4731720,-0.11500,86.3125,122,68,0.55165
4731730,-0.11500,85.6250,122,68,0.61905
4731740,-0.11500,85.4375,122,68,0.64908
4731750,-0.11500,85.3125,122,68,0.67595
4731760,-0.11000,85.2500,122,68,0.69646
4731770,-0.11000,85.1250,122,68,0.72845
4731780,-0.11000,85.0625,122,68,0.74261
4731790,-0.11000,84.9375,122,68,0.75458
4731800,-0.11000,84.9375,122,68,0.75458
4731810,-0.10000,84.2500,122,68,0.77387
4731820,-0.08500,83.8750,122,68,0.77509
4731830,-0.05500,83.5625,122,68,0.77387
4731840,-0.03500,82.6875,122,68,0.76410
4731850,-0.02500,82.1875,122,68,0.75580
4731860,-0.01000,81.7500,122,68,0.74603
4731870,0.02000,81.2500,122,68,0.73480
4731880,0.05000,80.3750,122,68,0.72210
4731890,0.03000,80.0000,122,68,0.69255
4731900,0.00000,79.5625,122,68,0.67570
4731910,-0.03500,79.1250,122,68,0.65763
4731920,-0.06500,78.6875,122,68,0.63883
4731930,-0.11500,77.9375,122,68,0.60024
4731940,-0.14500,77.5000,122,68,0.58144
4731950,-0.15500,77.1250,122,68,0.56508
4731960,-0.15500,76.7500,122,68,0.55067
4731970,-0.15000,76.0625,122,68,0.52259
4731980,-0.13500,75.7500,122,68,0.51038
4731990,-0.13000,75.4375,122,68,0.49988
4732000,-0.12500,75.1250,121,68,0.49084
4732010,0.03000,74.6250,121,68,0.47668
4732020,0.48500,74.4375,121,68,0.47155
4732030,0.98000,74.1875,121,68,0.46740
4732040,0.58000,73.8125,121,68,0.46081
4732050,-0.01500,73.6250,121,68,0.45812
4732060,-0.30000,73.4375,121,68,0.45592
4732070,-0.22000,73.3125,121,68,0.45348
4732080,-0.20000,73.1875,121,68,0.45128
4732090,-0.19500,72.9375,121,68,0.44664
4732100,-0.19000,72.8125,121,68,0.44420
4732110,-0.18500,72.6250,121,68,0.44151
4732120,-0.18000,72.4375,121,68,0.43883
4732130,-0.17000,71.9375,121,68,0.43272
4732140,-0.16500,71.6875,121,68,0.42906
4732150,-0.16000,71.4375,121,68,0.42564
4732160,-0.15500,70.8125,121,68,0.41832
4732170,-0.15000,70.5000,121,68,0.41392
4732180,-0.14500,70.1875,121,68,0.40952
4732190,-0.13500,69.8750,121,68,0.40488
4732200,-0.12500,69.5625,121,68,0.40000
4732210,-0.11500,69.1875,121,68,0.38999
4732220,-0.10500,69.1875,121,68,0.38510
4732230,-0.08500,69.4375,121,68,0.38022
4732240,-0.07500,70.2500,121,68,0.37558
4732250,-0.06000,74.3750,121,68,0.36752
4732260,-0.04000,77.6875,121,68,0.36459
4732270,-0.02500,81.6875,121,68,0.36117
4732280,-0.00500,86.2500,121,68,0.35751
4732290,0.01000,96.1875,121,68,0.35067
4732300,0.03000,101.1250,121,68,0.34774
4732310,0.05000,105.7500,121,68,0.34530
4732320,0.07500,113.8125,121,68,0.34188
4732330,0.09000,117.0000,121,68,0.34115
4732340,0.11500,119.6250,121,68,0.34115
4732350,0.15000,121.6250,121,68,0.34188
4732360,0.17500,123.1250,121,68,0.34310
4732370,0.19500,124.7500,121,68,0.34628
4732380,0.19000,125.0625,121,68,0.34823
4732390,0.14500,125.0625,121,68,0.35018
4732400,0.10000,124.8125,121,68,0.35214
4732410,0.04000,123.5625,121,68,0.35604
4732420,-0.01500,122.6875,121,68,0.35775
4732430,-0.06500,121.5625,121,68,0.35897
4732440,-0.09000,120.3125,121,68,0.35995
4732450,-0.11000,117.3125,121,68,0.36142
4732460,-0.12500,115.6250,121,68,0.36215
4732470,-0.13500,113.8125,121,68,0.36239
4732480,-0.13500,110.0625,121,68,0.36435
4732490,-0.13500,108.0625,121,68,0.36728
4732500,-0.13500,106.0000,121,68,0.37241
4732510,-0.13500,103.8750,121,68,0.38120
4732520,-0.12500,101.7500,121,68,0.39463
4732530,-0.12000,97.6875,121,68,0.43614
4732540,-0.11500,95.8750,121,68,0.46349
4732550,-0.11000,94.3125,121,68,0.48962
4732560,-0.11000,93.0000,121,68,0.51551
4732570,-0.10500,91.1250,121,68,0.57827
4732580,-0.10500,90.5000,121,68,0.61050
4732590,-0.10500,90.0000,121,68,0.64151
4732600,-0.10500,89.3750,121,68,0.69621
4732610,-0.10500,89.1875,121,68,0.71917
4732620,-0.10500,89.0000,121,68,0.73895
4732630,-0.11000,88.8750,121,68,0.75604
4732640,-0.11000,88.6875,121,68,0.77021
4732650,-0.11500,88.2500,121,68,0.78803
4732660,-0.11000,88.0000,121,68,0.79145
4732670,-0.10500,87.6875,121,68,0.79463
4732680,-0.09000,87.3750,121,68,0.79634
4732690,-0.06000,86.5000,121,68,0.79438
4732700,-0.04000,86.0625,121,68,0.79048
4732710,-0.02500,85.6250,121,68,0.78437
4732720,-0.01500,85.1250,121,68,0.77607
4732730,0.01500,84.1875,121,68,0.75409
4732740,0.04000,83.6875,121,68,0.74090
4732750,0.03500,83.1875,121,68,0.72747
4732760,0.00000,82.7500,121,68,0.71355
4732770,-0.04000,81.8750,121,68,0.68156
4732780,-0.07000,81.4375,121,68,0.66447
4732790,-0.12500,81.0000,121,68,0.64713
4732800,-0.15500,80.1875,121,68,0.61221
4732810,-0.16000,79.7500,121,68,0.59560
4732820,-0.16000,79.3750,121,68,0.58022
4732830,-0.16000,79.0000,121,68,0.56581
4732840,-0.15500,78.3750,121,68,0.54139
4732850,-0.15000,78.0625,121,68,0.53187
4732860,-0.15500,77.7500,121,68,0.52430
4732870,0.02500,77.4375,121,68,0.51722
4732880,0.30000,77.1875,121,68,0.51111
4732890,0.90000,76.6875,121,68,0.50110
4732900,0.82500,76.5000,121,68,0.49695
4732910,0.19500,76.2500,121,68,0.49304
4732920,-0.28500,75.9375,121,68,0.48962
4732930,-0.26000,75.7500,121,68,0.48278
4732940,-0.22000,75.6250,121,68,0.47937
4732950,-0.22000,75.4375,121,68,0.47619
4732960,-0.21500,75.0625,121,68,0.46935
4732970,-0.21000,74.8125,121,68,0.46545
4732980,-0.20000,74.5625,121,68,0.46105
4732990,-0.18500,74.3750,121,68,0.45641
4733000,-0.18000,74.0625,120,68,0.45153
4733010,-0.17000,73.5000,120,68,0.44127
4733020,-0.16000,73.1875,120,68,0.43614
4733030,-0.15000,72.8125,120,68,0.43077
4733040,-0.14000,72.2500,120,68,0.41978
4733050,-0.12500,72.0000,120,68,0.41538
4733060,-0.12000,71.6875,120,68,0.41123
4733070,-0.10500,71.5000,120,68,0.40659
4733080,-0.09000,71.3125,120,68,0.40171
4733090,-0.07500,71.8750,120,68,0.39170
4733100,-0.06000,73.0625,120,68,0.38681
4733110,-0.04000,75.0625,120,68,0.38193
4733120,-0.02500,81.6250,120,68,0.36703
4733130,-0.01500,85.9375,120,68,0.35433
4733140,0.00000,90.6875,120,68,0.34628
4733150,0.01500,95.6875,120,68,0.34164
4733160,0.03000,105.5000,120,68,0.33895
4733170,0.05000,110.0000,120,68,0.33504
4733180,0.06500,114.0000,120,68,0.33407
4733190,0.09000,117.3750,120,68,0.33358
4733200,0.13000,122.3750,120,68,0.33455
4733210,0.16000,124.0000,120,68,0.33578
4733220,0.19500,125.1250,120,68,0.33748
4733230,0.22000,125.7500,120,68,0.33944
4733240,0.22500,126.0000,120,68,0.34139
4733250,0.20000,125.5625,120,68,0.34505
4733260,0.15000,125.0000,120,68,0.34676
4733270,0.09000,124.2500,120,68,0.34823
4733280,0.03000,122.1250,120,68,0.35043
4733290,-0.00500,120.8125,120,68,0.35116
4733300,-0.03500,119.3750,120,68,0.35189
4733310,-0.06000,117.8125,120,68,0.35238
4733320,-0.07500,116.0625,120,68,0.35238
4733330,-0.08500,112.3750,120,68,0.35189
4733340,-0.09500,110.3750,120,68,0.35214
4733350,-0.09500,108.3750,120,68,0.35336
4733360,-0.10000,104.1875,120,68,0.35604
4733370,-0.10000,102.0000,120,68,0.36923
4733380,-0.10500,99.8750,120,68,0.38169
4733390,-0.10000,97.8125,120,68,0.39853
4733400,-0.09500,94.1875,120,68,0.44469
4733410,-0.09500,92.7500,120,68,0.47204
4733420,-0.09500,91.5000,120,68,0.50110
4733430,-0.09500,90.5625,120,68,0.53065
4733440,-0.09000,89.7500,120,68,0.55971
4733450,-0.08500,88.6250,120,68,0.60928
4733460,-0.08500,88.1875,120,68,0.62735
4733470,-0.08500,87.9375,120,68,0.64567
4733480,-0.08000,87.4375,120,68,0.67790
4733490,-0.08000,87.1250,120,68,0.69060
4733500,-0.08000,86.8750,120,68,0.70061
4733510,-0.08000,86.5625,120,68,0.70818
4733520,-0.08000,86.1875,120,68,0.71355
4733530,-0.07500,85.3750,120,68,0.71697
4733540,-0.06000,84.9375,120,68,0.71526
4733550,-0.03500,84.4375,120,68,0.71111
4733560,-0.01000,84.0000,120,68,0.70525
4733570,0.00000,83.0000,120,68,0.68840
4733580,0.02000,82.4375,120,68,0.67741
4733590,0.04000,81.9375,120,68,0.66496
4733600,0.07000,81.3750,120,68,0.65104
4733610,0.05000,80.3750,120,68,0.61929
4733620,0.01500,79.8750,120,68,0.60195
4733630,-0.02500,79.4375,120,68,0.58364
4733640,-0.05500,78.9375,120,68,0.56459
4733650,-0.10000,78.0000,120,68,0.52723
4733660,-0.13000,77.5625,120,68,0.51038
4733670,-0.14000,77.1875,120,68,0.49255
4733680,-0.14500,76.7500,120,68,0.47424
4733690,-0.14000,76.0000,120,68,0.43932
4733700,-0.13000,75.6250,120,68,0.42320
4733710,-0.12500,75.2500,120,68,0.40830
4733720,-0.10000,74.9375,120,68,0.39438
4733730,0.07000,74.3125,120,68,0.37021
4733740,0.63000,74.0625,120,68,0.35971
4733750,0.94000,73.8125,120,68,0.35140
4733760,0.58000,73.5625,120,68,0.34457
4733770,-0.20000,73.1250,120,68,0.32991
4733780,-0.30500,72.9375,120,68,0.32283
4733790,-0.22000,72.7500,120,68,0.31624
4733800,-0.22000,72.7500,120,68,0.31624
4733810,-0.17000,72.0625,120,68,0.29719
4733820,-0.16500,71.8125,120,68,0.29109
4733830,-0.16000,71.5625,120,68,0.28498
4733840,-0.15500,71.0000,120,68,0.27473
4733850,-0.14500,70.6875,120,68,0.27082
4733860,-0.13500,70.3750,120,68,0.26618
4733870,-0.13000,70.0000,120,68,0.26105
4733880,-0.12500,69.6875,120,68,0.25568
4733890,-0.12000,69.0000,120,68,0.24469
4733900,-0.11500,68.6250,120,68,0.23907
4733910,-0.10500,68.3125,120,68,0.23346
4733920,-0.10000,67.8125,120,68,0.22271
4733930,-0.09500,67.5625,120,68,0.21758
4733940,-0.08500,67.4375,120,68,0.21270
4733950,-0.08000,67.4375,120,68,0.20928
4733960,-0.07500,67.8750,120,68,0.20659
4733970,-0.06000,70.5625,120,68,0.19902
4733980,-0.04000,73.1250,120,68,0.19463
4733990,-0.02500,76.3750,120,68,0.19023
4734000,-0.00500,80.3125,120,67,0.18584
4734010,0.02000,89.1250,120,67,0.17753
4734020,0.03500,93.7500,120,67,0.17363
4734030,0.06000,98.1875,120,67,0.16996
4734040,0.08000,102.3750,120,67,0.16679
4734050,0.11000,109.3125,120,67,0.16410
4734060,0.14000,112.0625,120,67,0.16288
4734070,0.17500,114.1875,120,67,0.16190
4734080,0.21500,116.8125,120,67,0.16093
4734090,0.23000,117.4375,120,67,0.16142
4734100,0.22500,117.6250,120,67,0.16239
4734110,0.17000,117.5000,120,67,0.16386
4734120,0.12000,117.0625,120,67,0.16581
4734130,0.04000,115.3750,120,67,0.17143
4734140,-0.00500,114.2500,120,67,0.17509
4734150,-0.04500,112.9375,120,67,0.17924
4734160,-0.07000,109.8125,120,67,0.18388
4734170,-0.09000,108.0625,120,67,0.19292
4734180,-0.10000,106.1875,120,67,0.19707
4734190,-0.10500,104.3125,120,67,0.20122
4734200,-0.11000,102.3125,120,67,0.20513
4734210,-0.11000,98.3125,120,67,0.21416
4734220,-0.11000,96.2500,120,67,0.22051
4734230,-0.11000,94.1875,120,67,0.22930
4734240,-0.11000,92.1250,120,67,0.24127
4734250,-0.10500,88.5000,120,67,0.27106
4734260,-0.09500,87.0625,120,67,0.29206
4734270,-0.09500,85.8750,120,67,0.31697
4734280,-0.09000,84.1875,120,67,0.37558
4734290,-0.09000,83.6250,120,67,0.40659
4734300,-0.09500,83.1875,120,67,0.43712
4734310,-0.09000,82.8750,120,67,0.46642
4734320,-0.08500,82.6250,120,67,0.51868
4734330,-0.08500,82.5625,120,67,0.54042
4734340,-0.08500,82.5000,120,67,0.55922
4734350,-0.08500,82.4375,120,67,0.57314
4734360,-0.08500,82.3750,120,67,0.58315
4734370,-0.08500,82.0000,120,67,0.59976
4734380,-0.08500,81.7500,120,67,0.60488
4734390,-0.07500,81.4375,120,67,0.60806
4734400,-0.05000,81.1250,120,67,0.60879
4734410,-0.02000,80.3125,120,67,0.60366
4734420,-0.01000,79.8750,120,67,0.59805
4734430,-0.00500,79.4375,120,67,0.59072
4734440,0.03000,78.6250,120,67,0.57192
4734450,0.06500,78.1875,120,67,0.56117
4734460,0.06000,77.7500,120,67,0.54847
4734470,0.01500,77.3125,120,67,0.53407
4734480,-0.01500,76.9375,120,67,0.51819
4734490,-0.04000,76.1250,120,67,0.48376
4734500,-0.09500,75.6875,120,67,0.46593
4734510,-0.12000,75.2500,120,67,0.44786
4734520,-0.13500,74.8750,120,67,0.43028
4734530,-0.14000,74.1875,120,67,0.39780
4734540,-0.13500,73.8750,120,67,0.38315
4734550,-0.13000,73.5000,120,67,0.37167
4734560,-0.12500,72.8750,120,67,0.35263
4734570,-0.11500,72.5625,120,67,0.34408
4734580,-0.01000,72.3125,120,67,0.33651
4734590,0.44500,72.0000,120,67,0.32991
4734600,0.81500,71.7500,120,67,0.32430
4734610,0.72500,71.3750,120,67,0.31526
4734620,0.03000,71.1875,120,67,0.31184
4734630,-0.33500,71.0000,120,67,0.30891
4734640,-0.26500,70.8125,120,67,0.30647
4734650,-0.20500,70.5000,120,67,0.30354
4734660,-0.19000,70.3125,120,67,0.30208
4734670,-0.18500,70.1250,120,67,0.30037
4734680,-0.18000,69.8750,120,67,0.29841
4734690,-0.17000,69.4375,120,67,0.29475
4734700,-0.16500,69.1875,120,67,0.29280
4734710,-0.16000,68.8750,120,67,0.29060
4734720,-0.15500,68.6250,120,67,0.28840
4734730,-0.14500,68.0625,120,67,0.28303
4734740,-0.13500,67.8125,120,67,0.27985
4734750,-0.13000,67.5000,120,67,0.27766
4734760,-0.12500,67.2500,120,67,0.27595
