RelativeTimeMilliseconds;ECG;ART;ART (Sys);ART (Dia);PPG
4800000;-0.13500;71.6875;124;69;0.28547
4800010;-0.12500;71.0000;124;69;0.27595
4800020;-0.12000;70.6250;124;69;0.27009
4800030;-0.11500;70.2500;124;69;0.26398
4800040;-0.10500;69.8750;124;69;0.25788
4800050;-0.09500;69.2500;124;69;0.24518
4800060;-0.08000;68.9375;124;69;0.23907
4800070;-0.07000;68.6875;124;69;0.23297
4800080;-0.05500;68.6250;124;69;0.22686
4800090;-0.04000;69.1875;124;69;0.21685
4800100;-0.02500;70.3125;124;69;0.21343
4800110;-0.00500;72.3125;124;69;0.20904
4800120;0.00500;75.1250;124;69;0.20440
4800130;0.02000;82.8125;124;69;0.19487
4800140;0.04000;87.3125;124;69;0.19048
4800150;0.05500;92.0625;124;69;0.18632
4800160;0.08000;101.6875;124;69;0.17875
4800170;0.10000;106.1250;124;69;0.17558
4800180;0.13000;110.1250;124;69;0.17289
4800190;0.16000;113.6250;124;69;0.17070
4800200;0.18500;116.5000;124;69;0.16996
4800210;0.22500;120.6250;124;69;0.16996
4800220;0.25000;121.8125;124;69;0.16996
4800230;0.24500;122.5625;124;69;0.17021
4800240;0.21500;122.8750;124;69;0.17094
4800250;0.15000;122.4375;124;69;0.17363
4800260;0.10000;121.8125;124;69;0.17582
4800270;0.04500;120.8750;124;69;0.17851
4800280;-0.01000;118.3750;124;69;0.18486
4800290;-0.03500;116.8750;124;69;0.18877
4800300;-0.05500;115.1250;124;69;0.19292
4800310;-0.07500;113.3125;124;69;0.19658
4800320;-0.08500;111.3750;124;69;0.20000
4800330;-0.09000;107.1875;124;69;0.20708
4800340;-0.09500;105.0000;124;69;0.21172
4800350;-0.09500;102.7500;124;69;0.21783
4800360;-0.09500;100.5000;124;69;0.22662
4800370;-0.09500;95.8750;124;69;0.25519
4800380;-0.08500;93.6250;124;69;0.27570
4800390;-0.08500;91.6250;124;69;0.30012
4800400;-0.07500;89.9375;124;69;0.32405
4800410;-0.07500;87.3750;124;69;0.37680
4800420;-0.07500;86.5000;124;69;0.40708
4800430;-0.07500;85.8750;124;69;0.43736
4800440;-0.07000;85.4375;124;69;0.46667
4800450;-0.07500;84.9375;124;69;0.51941
4800460;-0.07500;84.8125;124;69;0.54164
4800470;-0.07500;84.7500;124;69;0.56093
4800480;-0.07500;84.7500;124;69;0.57705
4800490;-0.08000;84.6875;124;69;0.59878
4800500;-0.08000;84.6250;124;69;0.60440
4800510;-0.07500;84.4375;124;69;0.60879
4800520;-0.07500;84.2500;124;69;0.61123
4800530;-0.06000;83.6250;124;69;0.60952
4800540;-0.03500;83.3125;124;69;0.60562
4800550;-0.01000;82.9375;124;69;0.59951
4800560;0.00000;82.1250;124;69;0.59145
4800570;0.01000;81.6875;124;69;0.57021
4800580;0.04000;81.1875;124;69;0.55727
4800590;0.08000;80.6875;124;69;0.54261
4800600;0.07500;80.2500;124;69;0.52869
4800610;0.03500;79.3125;124;69;0.49817
4800620;0.00000;78.8125;124;69;0.48059
4800630;-0.03500;78.3125;124;69;0.46227
4800640;-0.08000;77.8750;124;69;0.44347
4800650;-0.11500;76.9375;124;69;0.40708
4800660;-0.13500;76.5000;124;69;0.38999
4800670;-0.13500;76.0625;124;69;0.37411
4800680;-0.12500;75.3125;124;69;0.36020
4800690;-0.11500;74.9375;124;69;0.33871
4800700;-0.11500;74.5625;124;69;0.34554
4800710;-0.10500;74.2500;124;69;0.36020
4800720;0.06000;73.6875;124;69;0.36581
4800730;0.39000;73.3750;124;69;0.36484
4800740;0.88000;73.1250;124;69;0.36313
4800750;0.62500;72.8750;124;69;0.36166
4800760;0.04000;72.6875;124;69;0.36020
4800770;-0.30500;72.2500;124;69;0.35751
4800780;-0.24000;72.0625;124;69;0.35580
4800790;-0.19000;71.8750;124;69;0.35433
4800800;-0.19000;71.8750;124;69;0.35433
4800810;-0.17000;71.2500;124;69;0.35263
4800820;-0.17000;71.2500;124;69;0.35263
4800830;-0.16000;70.8125;124;69;0.35067
4800840;-0.15500;70.5625;124;69;0.34921
4800850;-0.15000;70.0625;124;69;0.34603
4800860;-0.14000;69.7500;124;69;0.34432
4800870;-0.13500;69.4375;124;69;0.34212
4800880;-0.12500;69.0625;124;69;0.33968
4800890;-0.12500;68.3750;124;69;0.33431
4800900;-0.12000;68.1250;124;69;0.33211
4800910;-0.11500;67.8125;124;69;0.32918
4800920;-0.10500;67.3125;124;69;0.32552
4800930;-0.09500;67.0625;124;69;0.31795
4800940;-0.08500;66.9375;124;69;0.31404
4800950;-0.07500;67.1875;124;69;0.31038
4800960;-0.06000;69.4375;124;69;0.30281
4800970;-0.04500;71.7500;124;69;0.29915
4800980;-0.02500;74.8125;124;69;0.29573
4800990;-0.00500;78.5000;124;69;0.29231
4801000;0.01000;82.7500;124;69;0.28987
4801010;0.03500;92.1250;124;69;0.28523
4801020;0.06000;96.8125;124;69;0.28230
4801030;0.08000;101.3750;124;69;0.27912
4801040;0.12000;109.3125;124;69;0.27375
4801050;0.14500;112.5000;124;69;0.27179
4801060;0.18500;115.1250;124;69;0.27033
4801070;0.22500;117.1875;124;69;0.26960
4801080;0.24500;118.6875;124;69;0.26911
4801090;0.24000;120.2500;124;69;0.27033
4801100;0.20500;120.4375;124;69;0.27204
4801110;0.14500;120.1875;124;69;0.27375
4801120;0.08000;119.6875;124;69;0.27546
4801130;0.02000;117.8750;124;69;0.27985
4801140;-0.03500;116.5625;124;69;0.28156
4801150;-0.06500;115.0625;124;69;0.28352
4801160;-0.08500;113.4375;124;69;0.28571
4801170;-0.09500;109.8125;124;69;0.28864
4801180;-0.10500;107.8125;124;69;0.29035
4801190;-0.10500;105.6875;124;69;0.29353
4801200;-0.11500;101.3125;124;69;0.30281
4801210;-0.11500;99.0625;124;69;0.31258
4801220;-0.11000;96.8125;124;69;0.32479
4801230;-0.10500;94.5625;124;69;0.33504
4801240;-0.09500;92.5000;124;69;0.35140
4801250;-0.09000;88.8125;124;69;0.40366
4801260;-0.08500;87.4375;124;69;0.42393
4801270;-0.08500;86.2500;124;69;0.44786
4801280;-0.08500;84.6875;124;69;0.50501
4801290;-0.08500;84.1875;124;69;0.52576
4801300;-0.08500;83.8125;124;69;0.54676
4801310;-0.08000;83.5625;124;69;0.56654
4801320;-0.07500;83.4375;124;69;0.58437
4801330;-0.07500;83.3125;124;69;0.61368
4801340;-0.08000;83.2500;124;69;0.62491
4801350;-0.08000;83.1875;124;69;0.63394
4801360;-0.08500;83.0625;124;69;0.64054
4801370;-0.09000;82.7500;124;69;0.64737
4801380;-0.09500;82.5625;124;69;0.64713
4801390;-0.09500;82.2500;124;69;0.64493
4801400;-0.08000;81.9375;124;69;0.64127
4801410;-0.05000;81.1875;124;69;0.62906
4801420;-0.03500;80.7500;124;69;0.62027
4801430;-0.03500;80.2500;124;69;0.61001
4801440;-0.00500;79.3125;124;69;0.58584
4801450;0.03000;78.8750;124;69;0.57216
4801460;0.06000;78.4375;124;69;0.55751
4801470;0.04500;78.0000;124;69;0.54261
4801480;0.00000;77.1250;124;69;0.51331
4801490;-0.02000;76.6875;124;69;0.50037
4801500;-0.05500;76.3750;124;69;0.48645
4801510;-0.09500;76.0625;124;69;0.47228
4801520;-0.11000;75.8750;124;69;0.45836
4801530;-0.11500;75.5000;124;69;0.43370
4801540;-0.11500;75.3125;124;69;0.42320
4801550;-0.10500;75.0625;124;69;0.41392
4801560;-0.10500;74.6875;124;69;0.39927
4801570;-0.10000;74.5000;124;69;0.39365
4801580;-0.05500;74.2500;124;69;0.38950
4801590;0.30000;74.0000;124;69;0.38632
4801600;0.72000;73.7500;124;69;0.38339
4801610;0.92000;73.1875;124;69;0.37827
4801620;0.36500;72.9375;124;69;0.37607
4801630;-0.22000;72.6875;124;69;0.37411
4801640;-0.27000;72.5000;124;69;0.37192
4801650;-0.20000;72.0000;124;69;0.36752
4801660;-0.17500;71.7500;124;69;0.36532
4801670;-0.17000;71.4375;124;69;0.36313
4801680;-0.16500;71.1875;124;69;0.36068
4801690;-0.16000;70.6250;124;69;0.35702
4801700;-0.15500;70.3750;124;69;0.35458
4801710;-0.15500;70.1250;124;69;0.35165
4801720;-0.14500;69.5625;124;69;0.34579
4801730;-0.14500;69.2500;124;69;0.34261
4801740;-0.14500;68.9375;124;69;0.33968
4801750;-0.14000;68.6875;124;69;0.33724
4801760;-0.13500;68.0625;124;69;0.33407
4801770;-0.13500;67.7500;124;69;0.33284
4801780;-0.12500;67.4375;124;69;0.33236
4801790;-0.11000;67.1875;124;69;0.33211
4801800;-0.11000;67.1875;124;69;0.33211
4801810;-0.09000;67.0000;124;69;0.32747
4801820;-0.07500;67.8125;124;69;0.32479
4801830;-0.06000;69.3750;124;69;0.32186
4801840;-0.04500;71.8125;124;69;0.31844
4801850;-0.02000;78.8125;124;69;0.31136
4801860;0.00500;83.1250;124;69;0.30794
4801870;0.03000;87.8125;124;69;0.30476
4801880;0.05500;92.6875;124;69;0.30208
4801890;0.09000;102.1875;124;69;0.30061
4801900;0.11000;106.5000;124;69;0.30012
4801910;0.14000;110.3750;124;69;0.29988
4801920;0.18000;116.3750;124;69;0.29988
4801930;0.21000;118.5000;124;69;0.30012
4801940;0.24500;120.1250;124;69;0.30061
4801950;0.26000;121.1250;124;69;0.30110
4801960;0.24500;121.7500;124;69;0.30159
4801970;0.19500;121.8125;124;69;0.30305
4801980;0.12000;121.3125;124;69;0.30427
4801990;0.07000;120.5625;124;69;0.30574
4802000;0.02500;118.3125;124;69;0.30696
4802010;-0.01500;116.8750;124;69;0.30940
4802020;-0.04000;115.2500;124;69;0.31062
4802030;-0.06000;113.4375;124;69;0.31160
4802040;-0.07500;109.6250;124;69;0.31453
4802050;-0.08500;107.5625;124;69;0.31673
4802060;-0.09000;105.4375;124;69;0.32039
4802070;-0.09000;103.3125;124;69;0.32625
4802080;-0.09500;101.1250;124;69;0.33480
4802090;-0.09500;96.6250;124;69;0.35751
4802100;-0.09500;94.4375;124;69;0.37460
4802110;-0.09000;92.3750;124;69;0.39560
4802120;-0.09000;88.9375;124;69;0.44591
4802130;-0.09000;87.6875;124;69;0.47326
4802140;-0.09000;86.6250;124;69;0.50085
4802150;-0.09000;85.8750;124;69;0.52747
4802160;-0.09000;84.8750;124;69;0.57656
4802170;-0.09500;84.6250;124;69;0.59805
4802180;-0.10000;84.4375;124;69;0.61465
4802190;-0.10000;84.3125;124;69;0.62784
4802200;-0.10500;84.1875;124;69;0.64078
4802210;-0.10000;84.1250;124;69;0.66178
4802220;-0.09500;84.0625;124;69;0.66935
4802230;-0.09500;83.9375;124;69;0.67473
4802240;-0.09000;83.6250;124;69;0.67912
4802250;-0.08500;83.3125;124;69;0.67839
4802260;-0.07000;83.0625;124;69;0.67546
4802270;-0.05000;82.6875;124;69;0.67082
4802280;-0.02500;82.3750;124;69;0.66422
4802290;-0.01500;81.5000;124;69;0.64811
4802300;-0.01000;81.0625;124;69;0.63834
4802310;0.01000;80.6250;124;69;0.62711
4802320;0.05000;80.1875;124;69;0.61465
4802330;0.04000;79.2500;124;69;0.58632
4802340;0.01500;78.8125;124;69;0.57118
4802350;-0.02000;78.3125;124;69;0.55580
4802360;-0.05000;77.3750;124;69;0.54017
4802370;-0.10500;77.0000;124;69;0.51038
4802380;-0.13000;76.5625;124;69;0.49792
4802390;-0.15000;76.1250;124;69;0.48718
4802400;-0.15500;75.3125;124;69;0.46667
4802410;-0.15500;74.9375;124;69;0.45788
4802420;-0.15000;74.5625;124;69;0.45031
4802430;-0.14500;74.1875;124;69;0.44371
4802440;-0.13500;73.8750;124;69;0.43834
4802450;-0.02500;73.3750;124;69;0.43004
4802460;0.35500;73.1250;124;69;0.42686
4802470;0.85500;72.8750;124;69;0.42418
4802480;0.75500;72.6875;124;69;0.42198
4802490;0.05000;72.3125;124;69;0.41929
4802500;-0.32000;72.1875;124;69;0.41783
4802510;-0.27000;72.0000;124;69;0.41636
4802520;-0.21500;71.6250;124;69;0.41368
4802530;-0.20500;71.4375;124;69;0.41221
4802540;-0.20000;71.2500;124;69;0.41099
4802550;-0.19000;71.0000;124;69;0.40952
4802560;-0.18000;70.7500;124;69;0.40781
4802570;-0.17000;70.3125;124;69;0.40415
4802580;-0.16000;70.0000;124;69;0.40244
4802590;-0.15500;69.6875;124;69;0.40073
4802600;-0.14500;69.0625;124;69;0.39829
4802610;-0.14000;68.7500;124;69;0.39267
4802620;-0.13500;68.4375;124;69;0.38950
4802630;-0.13000;68.1250;124;69;0.38608
4802640;-0.12000;67.5625;124;69;0.37900
4802650;-0.11500;67.3125;124;69;0.37534
4802660;-0.10000;67.1250;124;69;0.37143
4802670;-0.08000;67.0625;124;69;0.36752
4802680;-0.07000;67.3750;124;69;0.36361
4802690;-0.05500;69.8750;124;69;0.35775
4802700;-0.04500;72.4375;124;69;0.35458
4802710;-0.02500;75.7500;124;69;0.35092
4802720;0.00000;84.2500;124;69;0.34359
4802730;0.01500;89.0000;124;69;0.34017
4802740;0.04500;94.0000;124;69;0.33602
4802750;0.07500;98.8750;124;69;0.33114
4802760;0.10000;103.6250;124;69;0.32698
4802770;0.13000;111.8750;124;69;0.32063
4802780;0.15500;115.1875;124;69;0.31917
4802790;0.20000;117.9375;124;69;0.31844
4802800;0.23000;120.0625;124;69;0.31770
4802810;0.25500;122.7500;124;69;0.31673
4802820;0.26500;123.4375;124;69;0.31648
4802830;0.22500;123.7500;124;69;0.31673
4802840;0.18000;123.6875;124;69;0.31746
4802850;0.11500;122.6875;124;69;0.31941
4802860;0.04000;121.8125;124;69;0.32088
4802870;0.00000;120.6875;124;69;0.32210
4802880;-0.03500;119.3125;124;69;0.32357
4802890;-0.06000;116.0625;124;69;0.32723
4802900;-0.07000;114.2500;124;69;0.32894
4802910;-0.07500;112.2500;124;69;0.33065
4802920;-0.08000;110.2500;124;69;0.33284
4802930;-0.08500;105.9375;124;69;0.34261
4802940;-0.08000;103.6875;124;69;0.35189
4802950;-0.07500;101.3750;124;69;0.36532
4802960;-0.07500;99.1250;124;69;0.38339
4802970;-0.07000;94.6250;124;69;0.43346
4802980;-0.06500;92.5000;124;69;0.45934
4802990;-0.06500;90.6875;124;69;0.48523
4803000;-0.06500;89.2500;125;70;0.51551
4803010;-0.06500;87.1250;125;70;0.57900
4803020;-0.06000;86.4375;125;70;0.60952
4803030;-0.05500;85.9375;125;70;0.63810
4803040;-0.05500;85.4375;125;70;0.68742
4803050;-0.05500;85.3125;125;70;0.70769
4803060;-0.05500;85.1875;125;70;0.72503
4803070;-0.05000;85.1875;125;70;0.73944
4803080;-0.05500;85.1250;125;70;0.74896
4803090;-0.05500;84.9375;125;70;0.76093
4803100;-0.06000;84.8125;125;70;0.76508
4803110;-0.06500;84.6250;125;70;0.76679
4803120;-0.06000;84.3750;125;70;0.76630
4803130;-0.04500;83.7500;125;70;0.75873
4803140;-0.02500;83.3750;125;70;0.75189
4803150;-0.00500;82.9375;125;70;0.74310
4803160;0.00000;82.0625;125;70;0.72015
4803170;0.01000;81.5625;125;70;0.70623
4803180;0.04500;81.0625;125;70;0.69206
4803190;0.07000;80.6250;125;70;0.67741
4803200;0.05000;80.1250;125;70;0.66081
4803210;0.00000;79.1250;125;70;0.62418
4803220;-0.02500;78.6875;125;70;0.60513
4803230;-0.06500;78.1875;125;70;0.58608
4803240;-0.10500;77.7500;125;70;0.56752
4803250;-0.13500;76.8125;125;70;0.53333
4803260;-0.14000;76.3750;125;70;0.51844
4803270;-0.14500;75.9375;125;70;0.50501
4803280;-0.14500;75.5000;125;70;0.49426
4803290;-0.13500;74.8125;125;70;0.47717
4803300;-0.13500;74.5000;125;70;0.46984
4803310;-0.11000;74.1875;125;70;0.46349
4803320;0.08500;73.9375;125;70;0.45836
4803330;0.70000;73.5000;125;70;0.44982
4803340;0.98000;73.3125;125;70;0.44640
4803350;0.53500;73.1250;125;70;0.44347
4803360;-0.16500;72.9375;125;70;0.44078
4803370;-0.29500;72.6250;125;70;0.43590
4803380;-0.23000;72.5625;125;70;0.43394
4803390;-0.21000;72.4375;125;70;0.43199
4803400;-0.20500;72.2500;125;70;0.42979
4803410;-0.20000;71.9375;125;70;0.42491
4803420;-0.19000;71.7500;125;70;0.42222
4803430;-0.18500;71.5000;125;70;0.41929
4803440;-0.18000;71.3125;125;70;0.41636
4803450;-0.17500;70.7500;125;70;0.40977
4803460;-0.16500;70.5000;125;70;0.40610
4803470;-0.16000;70.2500;125;70;0.40244
4803480;-0.15500;69.9375;125;70;0.39951
4803490;-0.14500;69.3125;125;70;0.39267
4803500;-0.13000;69.0000;125;70;0.38828
4803510;-0.12000;68.7500;125;70;0.38339
4803520;-0.10500;68.5000;125;70;0.37827
4803530;-0.09500;68.3125;125;70;0.36777
4803540;-0.08000;68.6250;125;70;0.36264
4803550;-0.07000;69.5000;125;70;0.35775
4803560;-0.05500;71.1875;125;70;0.35287
4803570;-0.03500;77.1250;125;70;0.34383
4803580;-0.02500;81.1875;125;70;0.34042
4803590;0.00000;85.7500;125;70;0.33773
4803600;0.02500;90.6875;125;70;0.33431
4803610;0.05000;100.8125;125;70;0.32723
4803620;0.07500;105.5625;125;70;0.32430
4803630;0.11000;109.9375;125;70;0.32186
4803640;0.13000;113.8125;125;70;0.31990
4803650;0.16000;119.9375;125;70;0.31722
4803660;0.20500;122.1875;125;70;0.31624
4803670;0.23000;123.8750;125;70;0.31575
4803680;0.25000;125.0625;125;70;0.31624
4803690;0.24500;126.1875;125;70;0.31844
4803700;0.19500;126.2500;125;70;0.31941
4803710;0.13500;125.9375;125;70;0.32088
4803720;0.08500;125.4375;125;70;0.32234
4803730;0.01500;123.5625;125;70;0.32601
4803740;-0.02000;122.2500;125;70;0.32796
4803750;-0.05000;120.8750;125;70;0.32967
4803760;-0.07000;117.4375;125;70;0.33309
4803770;-0.08500;115.5625;125;70;0.33504
4803780;-0.09000;113.5625;125;70;0.33773
4803790;-0.09500;111.4375;125;70;0.34164
4803800;-0.09500;111.4375;125;70;0.34164
4803810;-0.10000;104.8750;125;70;0.37021
4803820;-0.09500;102.5625;125;70;0.38803
4803830;-0.09500;100.1875;125;70;0.41050
4803840;-0.09000;95.6875;125;70;0.46716
4803850;-0.09000;93.7500;125;70;0.49939
4803860;-0.09000;92.0625;125;70;0.53284
4803870;-0.08500;90.7500;125;70;0.56630
4803880;-0.08500;88.9375;125;70;0.61954
4803890;-0.08500;88.3750;125;70;0.64567
4803900;-0.09000;88.0000;125;70;0.67131
4803910;-0.09000;87.7500;125;70;0.69548
4803920;-0.09000;87.5625;125;70;0.71722
4803930;-0.09500;87.5000;125;70;0.75336
4803940;-0.10000;87.5000;125;70;0.76752
4803950;-0.10000;87.4375;125;70;0.77900
4803960;-0.10500;87.3750;125;70;0.78803
4803970;-0.10500;87.0625;125;70;0.79829
4803980;-0.10500;86.8125;125;70;0.79878
4803990;-0.10500;86.5625;125;70;0.79658
4804000;-0.08500;86.1875;125;70;0.79365
4804010;-0.05500;85.4375;125;70;0.78266
4804020;-0.04000;85.0000;125;70;0.77460
4804030;-0.03500;84.5000;125;70;0.76508
4804040;-0.01000;83.5000;125;70;0.74139
4804050;0.02000;83.0000;125;70;0.72747
4804060;0.03500;82.5625;125;70;0.71233
4804070;0.00000;82.0625;125;70;0.69621
4804080;-0.02500;81.5625;125;70;0.68083
4804090;-0.05500;80.5625;125;70;0.64908
4804100;-0.11000;80.0625;125;70;0.63223
4804110;-0.14000;79.6250;125;70;0.61563
4804120;-0.16000;78.7500;125;70;0.60000
4804130;-0.17000;78.3125;125;70;0.57338
4804140;-0.17500;77.8750;125;70;0.56264
4804150;-0.17000;77.5000;125;70;0.55336
4804160;-0.16500;76.7500;125;70;0.53871
4804170;-0.16500;76.3750;125;70;0.53333
4804180;-0.13000;76.0625;125;70;0.52918
4804190;0.26000;75.7500;125;70;0.52576
4804200;0.75000;75.5000;125;70;0.52259
4804210;0.95500;75.0000;125;70;0.51746
4804220;0.40000;74.7500;125;70;0.51477
4804230;-0.24000;74.5625;125;70;0.51209
4804240;-0.30000;74.2500;125;70;0.50672
4804250;-0.25500;74.0625;125;70;0.50403
4804260;-0.24000;73.8750;125;70;0.50110
4804270;-0.23500;73.6875;125;70;0.49792
4804280;-0.23000;73.5000;125;70;0.49499
4804290;-0.22500;73.0625;125;70;0.48840
4804300;-0.22000;72.7500;125;70;0.48474
4804310;-0.21000;72.4375;125;70;0.48083
4804320;-0.20000;72.1250;125;70;0.47668
4804330;-0.18917;71.4375;125;70;0.46813
4804340;-0.18000;71.0625;125;70;0.46349
4804350;-0.17500;70.7500;125;70;0.45861
4804360;-0.16000;70.1250;125;70;0.44835
4804370;-0.15500;69.8750;125;70;0.44322
4804380;-0.14500;69.5625;125;70;0.43883
4804390;-0.13500;69.3750;125;70;0.43492
4804400;-0.11500;69.5000;125;70;0.42564
4804410;-0.09500;70.3125;125;70;0.42100
4804420;-0.08500;71.9375;125;70;0.41685
4804430;-0.06500;74.5000;125;70;0.41270
4804440;-0.05500;78.0000;125;70;0.40879
4804450;-0.03000;86.9375;125;70;0.40122
4804460;-0.00500;92.0625;125;70;0.39780
4804470;0.01000;97.2500;125;70;0.39487
4804480;0.03500;107.4375;125;70;0.39292
4804490;0.06000;111.9375;125;70;0.38974
4804500;0.08000;116.0000;125;70;0.38852
4804510;0.11000;119.4375;125;70;0.38779
4804520;0.14500;124.6250;125;70;0.38779
4804530;0.17000;126.3750;125;70;0.38828
4804540;0.20500;127.6875;125;70;0.38901
4804550;0.21500;128.5000;125;70;0.38999
4804560;0.20500;129.0000;125;70;0.39072
4804570;0.15500;129.0000;125;70;0.39219
4804580;0.11000;128.6250;125;70;0.39316
4804590;0.05000;127.9375;125;70;0.39390
4804600;-0.00500;126.0000;125;70;0.39414
4804610;-0.04500;124.6875;125;70;0.39414
4804620;-0.07500;123.2500;125;70;0.39414
4804630;-0.08500;121.6250;125;70;0.39390
4804640;-0.09500;118.1250;125;70;0.39414
4804650;-0.10500;116.1250;125;70;0.39585
4804660;-0.10500;114.0625;125;70;0.39976
4804670;-0.11000;111.9375;125;70;0.40708
4804680;-0.11000;109.6875;125;70;0.41636
4804690;-0.11000;105.1250;125;70;0.44640
4804700;-0.10500;102.8750;125;70;0.46911
4804710;-0.10000;100.7500;125;70;0.49573
4804720;-0.10000;98.8125;125;70;0.52503
4804730;-0.09000;95.6875;125;70;0.58706
4804740;-0.08500;94.4375;125;70;0.61734
4804750;-0.08500;93.5000;125;70;0.64640
4804760;-0.08500;92.1250;125;70;0.69768
4804770;-0.08500;91.6875;125;70;0.71648
4804780;-0.08500;91.3125;125;70;0.73114
4804790;-0.08500;91.1250;125;70;0.73284
4804800;-0.08500;91.1250;125;70;0.73284
4804810;-0.09500;90.5625;125;70;0.73431
4804820;-0.09500;90.3750;125;70;0.73993
4804830;-0.09500;90.1250;125;70;0.74457
4804840;-0.09500;89.8750;125;70;0.74774
4804850;-0.09500;89.1875;125;70;0.74847
4804860;-0.09000;88.8125;125;70;0.74554
4804870;-0.07500;88.3750;125;70;0.74090
4804880;-0.05000;87.9375;125;70;0.73431
4804890;-0.02500;86.9375;125;70;0.71648
4804900;-0.01500;86.4375;125;70;0.70549
4804910;0.00000;85.8750;125;70;0.69304
4804920;0.02500;85.3125;125;70;0.67937
4804930;0.04000;84.3125;125;70;0.64908
4804940;0.03000;83.8125;125;70;0.63272
4804950;0.00000;83.3750;125;70;0.61587
4804960;-0.04000;82.4375;125;70;0.58217
4804970;-0.08000;81.9375;125;70;0.56728
4804980;-0.12500;81.5000;125;70;0.55360
4804990;-0.15500;81.1250;125;70;0.53968
4805000;-0.16000;80.6875;124;69;0.52650
4805010;-0.16000;79.9375;124;69;0.50330
4805020;-0.16000;79.6250;124;69;0.49353
4805030;-0.15000;79.2500;124;69;0.48523
4805040;-0.15500;78.9375;124;69;0.47839
4805050;-0.11500;78.3750;124;69;0.46764
4805060;0.08000;78.1250;124;69;0.46349
4805070;0.65000;77.8750;124;69;0.46007
4805080;1.08500;77.6250;124;69;0.45714
4805090;0.64000;77.1875;124;69;0.45104
4805100;-0.21000;77.0000;124;69;0.44786
4805110;-0.30000;76.8750;124;69;0.44444
4805120;-0.23500;76.6875;124;69;0.44054
4805130;-0.22500;76.3125;124;69;0.43272
4805140;-0.22500;76.0625;124;69;0.42857
4805150;-0.22000;75.8125;124;69;0.42442
4805160;-0.21000;75.3125;124;69;0.41612
4805170;-0.20500;75.0000;124;69;0.41245
4805180;-0.20000;74.6875;124;69;0.40904
4805190;-0.19000;74.3750;124;69;0.40537
4805200;-0.18500;74.0625;124;69;0.40147
4805210;-0.18000;73.3750;124;69;0.39365
4805220;-0.17000;73.0000;124;69;0.38999
4805230;-0.16000;72.6875;124;69;0.38608
4805240;-0.15500;72.3750;124;69;0.38242
4805250;-0.14000;71.8125;124;69;0.37534
4805260;-0.12500;71.6250;124;69;0.37192
4805270;-0.11500;71.6250;124;69;0.36850
4805280;-0.10000;73.1250;124;69;0.36313
4805290;-0.08500;75.0625;124;69;0.36044
4805300;-0.06500;77.8750;124;69;0.35775
4805310;-0.04500;81.5625;124;69;0.35507
4805320;-0.02500;85.9375;124;69;0.35287
4805330;-0.00500;95.8125;124;69;0.34945
4805340;0.01500;101.0000;124;69;0.34823
4805350;0.04000;105.9375;124;69;0.34725
4805360;0.06500;110.6250;124;69;0.34676
4805370;0.09500;118.5000;124;69;0.34652
4805380;0.11500;121.5625;124;69;0.34701
4805390;0.14500;124.1250;124;69;0.34750
4805400;0.18500;127.4375;124;69;0.34872
4805410;0.20500;128.3750;124;69;0.34945
4805420;0.22500;128.8750;124;69;0.35018
4805430;0.21000;129.0625;124;69;0.35092
4805440;0.18500;128.9375;124;69;0.35165
4805450;0.13000;127.9375;124;69;0.35214
4805460;0.05000;127.0625;124;69;0.35214
4805470;0.01000;126.0000;124;69;0.35189
4805480;-0.03000;123.3125;124;69;0.35140
4805490;-0.05500;121.7500;124;69;0.35067
4805500;-0.07000;120.0625;124;69;0.34969
4805510;-0.07500;118.2500;124;69;0.34872
4805520;-0.08500;114.3125;124;69;0.35043
4805530;-0.09000;112.2500;124;69;0.35458
4805540;-0.09500;110.0000;124;69;0.36239
4805550;-0.09500;107.7500;124;69;0.37436
4805560;-0.09500;105.4375;124;69;0.39072
4805570;-0.09000;100.8750;124;69;0.43321
4805580;-0.08500;98.7500;124;69;0.45519
4805590;-0.08500;96.8125;124;69;0.48205
4805600;-0.08500;95.1250;124;69;0.51111
4805610;-0.08000;92.5000;124;69;0.56947
4805620;-0.07500;91.5625;124;69;0.59683
4805630;-0.07500;90.8125;124;69;0.62198
4805640;-0.07500;90.2500;124;69;0.64444
4805650;-0.07000;89.4375;124;69;0.68107
4805660;-0.07000;89.1875;124;69;0.69524
4805670;-0.06500;89.0000;124;69;0.70647
4805680;-0.07000;88.6250;124;69;0.71722
4805690;-0.07000;88.3750;124;69;0.72015
4805700;-0.07500;88.1250;124;69;0.72161
4805710;-0.07500;87.8125;124;69;0.72137
4805720;-0.07500;87.1250;124;69;0.71453
4805730;-0.06500;86.7500;124;69;0.70818
4805740;-0.04000;86.3125;124;69;0.69988
4805750;-0.01500;85.8125;124;69;0.68962
4805760;0.00000;84.7500;124;69;0.66422
4805770;0.00500;84.2500;124;69;0.65031
4805780;0.03500;83.6875;124;69;0.63590
4805790;0.07500;83.1875;124;69;0.61954
4805800;0.07500;83.1875;124;69;0.61954
4805810;0.04000;81.5625;124;69;0.56264
4805820;0.00000;81.0000;124;69;0.54237
4805830;-0.03000;80.4375;124;69;0.52186
4805840;-0.08500;79.4375;124;69;0.48181
4805850;-0.11000;78.9375;124;69;0.46300
4805860;-0.12500;78.5000;124;69;0.44542
4805870;-0.13000;78.0000;124;69;0.42906
4805880;-0.12500;77.5625;124;69;0.41538
4805890;-0.12000;76.7500;124;69;0.39219
4805900;-0.11500;76.3125;124;69;0.38120
4805910;-0.10500;75.9375;124;69;0.37094
4805920;0.00000;75.6250;124;69;0.36166
4805930;0.49000;75.0000;124;69;0.34579
4805940;0.88500;74.7500;124;69;0.33895
4805950;0.79500;74.5000;124;69;0.33260
4805960;-0.06500;74.0000;124;69;0.32088
4805970;-0.30500;73.8125;124;69;0.31648
4805980;-0.22500;73.5625;124;69;0.31258
4805990;-0.19500;73.3750;124;69;0.30818
4806000;-0.18000;72.8750;124;69;0.29841
4806010;-0.18000;72.6875;124;69;0.29353
4806020;-0.17500;72.4375;124;69;0.28864
4806030;-0.16500;72.1875;124;69;0.28352
4806040;-0.15500;71.6250;124;69;0.27326
4806050;-0.14500;71.3125;124;69;0.26789
4806060;-0.14000;70.9375;124;69;0.26252
4806070;-0.13000;70.5625;124;69;0.25714
4806080;-0.12500;70.1875;124;69;0.25299
4806090;-0.11500;69.5000;124;69;0.24493
4806100;-0.11000;69.1875;124;69;0.23980
4806110;-0.10500;68.9375;124;69;0.23443
4806120;-0.10000;68.6875;124;69;0.22882
4806130;-0.08500;68.1875;124;69;0.21783
4806140;-0.07000;68.1875;124;69;0.21245
4806150;-0.05500;68.5000;124;69;0.20733
4806160;-0.03500;71.1250;124;69;0.19756
4806170;-0.02000;73.6875;124;69;0.19438
4806180;-0.00500;77.0000;124;69;0.19194
4806190;0.00500;80.8750;124;69;0.18852
4806200;0.02500;85.3125;124;69;0.18486
4806210;0.05000;94.8750;124;69;0.17778
4806220;0.07000;99.6250;124;69;0.17460
4806230;0.09500;104.1250;124;69;0.17192
4806240;0.12000;111.8750;124;69;0.16947
4806250;0.14500;114.9375;124;69;0.16581
4806260;0.18000;117.3750;124;69;0.16459
4806270;0.22000;119.1875;124;69;0.16386
4806280;0.24500;121.3750;124;69;0.16581
4806290;0.24500;121.8125;124;69;0.16728
4806300;0.21500;121.8750;124;69;0.16899
4806310;0.14000;121.5625;124;69;0.17118
4806320;0.08500;120.9375;124;69;0.17338
4806330;0.02500;118.8750;124;69;0.17924
4806340;-0.03000;117.5000;124;69;0.18266
4806350;-0.05500;115.9375;124;69;0.18608
4806360;-0.08000;112.4375;124;69;0.19365
4806370;-0.09500;110.4375;124;69;0.19756
4806380;-0.10500;108.4375;124;69;0.20195
4806390;-0.11500;106.3125;124;69;0.20635
4806400;-0.11500;104.1875;124;69;0.21172
4806410;-0.11500;99.8125;124;69;0.22833
4806420;-0.11500;97.5625;124;69;0.24151
4806430;-0.12000;95.3125;124;69;0.25934
4806440;-0.11500;91.1875;124;69;0.28156
4806450;-0.11500;89.5000;124;69;0.33797
4806460;-0.11500;88.0625;124;69;0.36996
4806470;-0.11500;86.9375;124;69;0.40293
4806480;-0.10500;86.0625;124;69;0.43126
4806490;-0.10500;85.0000;124;69;0.48327
4806500;-0.09500;84.6875;124;69;0.50867
4806510;-0.09500;84.5000;124;69;0.53211
4806520;-0.09500;84.3125;124;69;0.57045
4806530;-0.09500;84.2500;124;69;0.58535
4806540;-0.10000;84.1875;124;69;0.59731
4806550;-0.10000;84.1250;124;69;0.60635
4806560;-0.10000;83.8750;124;69;0.61636
4806570;-0.09500;83.6875;124;69;0.61734
4806580;-0.09500;83.4375;124;69;0.61612
4806590;-0.07500;83.1250;124;69;0.61319
4806600;-0.06000;82.7500;124;69;0.60855
4806610;-0.03500;81.9375;124;69;0.59341
4806620;-0.01500;81.4375;124;69;0.58315
4806630;-0.01000;80.9375;124;69;0.57143
4806640;0.01500;80.4375;124;69;0.55824
4806650;0.06000;79.5000;124;69;0.52747
4806660;0.05000;79.0000;124;69;0.51013
4806670;0.00500;78.5000;124;69;0.49402
4806680;-0.05500;77.5000;124;69;0.46081
4806690;-0.08500;77.0000;124;69;0.44249
4806700;-0.12000;76.5625;124;69;0.42393
4806710;-0.15000;76.0625;124;69;0.40610
4806720;-0.14500;75.6250;124;69;0.38950
4806730;-0.14000;74.6875;124;69;0.36044
4806740;-0.13500;74.3125;124;69;0.34847
4806750;-0.13500;73.9375;124;69;0.33846
4806760;-0.13000;73.6250;124;69;0.32991
4806770;-0.12000;73.3125;124;69;0.31819
4806780;-0.03500;73.1875;124;69;0.31477
4806790;0.31000;73.0625;124;69;0.31136
4806800;0.31000;73.0625;124;69;0.31136
4806810;0.64500;72.8125;124;69;0.30256
4806820;0.08500;72.6875;124;69;0.30037
4806830;-0.31000;72.6250;124;69;0.29817
4806840;-0.24000;72.3750;124;69;0.33602
4806850;-0.20000;72.1875;124;69;0.34652
4806860;-0.19000;72.0000;124;69;0.35092
4806870;-0.19000;71.8125;124;69;0.35287
4806880;-0.18000;71.3750;124;69;0.35311
4806890;-0.18000;71.1250;124;69;0.35214
4806900;-0.17000;70.9375;124;69;0.35067
4806910;-0.16000;70.6875;124;69;0.34896
4806920;-0.15000;70.0625;124;69;0.34481
4806930;-0.14500;69.6875;124;69;0.34212
4806940;-0.14000;69.3125;124;69;0.33919
4806950;-0.13500;68.9375;124;69;0.33553
4806960;-0.12500;68.5625;124;69;0.33138
4806970;-0.12000;67.9375;124;69;0.32283
4806980;-0.11500;67.6875;124;69;0.31941
4806990;-0.10500;67.4375;124;69;0.31502
4807000;-0.10000;67.3125;124;69;0.31062
4807010;-0.08500;67.8125;124;69;0.30305
4807020;-0.07500;68.9375;124;69;0.30037
4807030;-0.06500;70.7500;124;69;0.29841
4807040;-0.04500;76.6875;124;69;0.29524
4807050;-0.02500;80.5625;124;69;0.29402
4807060;0.00000;84.8750;124;69;0.29255
4807070;0.03000;89.3750;124;69;0.29158
4807080;0.05500;93.9375;124;69;0.29084
4807090;0.08500;102.6875;124;69;0.28694
4807100;0.11500;106.5000;124;69;0.28474
4807110;0.14000;109.9375;124;69;0.28278
4807120;0.17500;115.0625;124;69;0.28107
4807130;0.22000;116.7500;124;69;0.27985
4807140;0.24500;118.0000;124;69;0.28034
4807150;0.25000;118.7500;124;69;0.28156
4807160;0.21000;119.0625;124;69;0.28523
4807170;0.16000;118.7500;124;69;0.28791
4807180;0.09000;118.0625;124;69;0.29109
4807190;0.03000;117.1250;124;69;0.29402
4807200;-0.02000;114.6875;124;69;0.29915
4807210;-0.05500;113.1250;124;69;0.30159
4807220;-0.07000;111.4375;124;69;0.30379
4807230;-0.08500;109.6250;124;69;0.30574
4807240;-0.10500;105.7500;124;69;0.30916
4807250;-0.10500;103.6875;124;69;0.31160
4807260;-0.11500;101.5625;124;69;0.31551
4807270;-0.11500;99.3750;124;69;0.32063
4807280;-0.11500;97.1250;124;69;0.32796
4807290;-0.11500;92.6250;124;69;0.35385
4807300;-0.11000;90.5000;124;69;0.37265
4807310;-0.10500;88.5000;124;69;0.39512
4807320;-0.09500;86.8750;124;69;0.42076
4807330;-0.09500;84.5000;124;69;0.47692
4807340;-0.09500;83.7500;124;69;0.50525
4807350;-0.09000;83.1875;124;69;0.53284
4807360;-0.09000;82.5625;124;69;0.58266
4807370;-0.08500;82.4375;124;69;0.60171
4807380;-0.09000;82.3750;124;69;0.61685
4807390;-0.09000;82.3750;124;69;0.63199
4807400;-0.09500;82.3750;124;69;0.64567
4807410;-0.09500;82.3750;124;69;0.66667
4807420;-0.09500;82.2500;124;69;0.67375
4807430;-0.09500;82.1250;124;69;0.67863
4807440;-0.09500;81.9375;124;69;0.68107
4807450;-0.09000;81.5000;124;69;0.67961
4807460;-0.07500;81.1875;124;69;0.67595
4807470;-0.05500;80.8125;124;69;0.67057
4807480;-0.03500;80.0000;124;69;0.66398
4807490;-0.02000;79.5625;124;69;0.64615
4807500;-0.01000;79.1875;124;69;0.63492
4807510;0.02500;78.7500;124;69;0.62222
4807520;0.06000;77.9375;124;69;0.59341
4807530;0.05000;77.5000;124;69;0.57729
4807540;0.00500;77.0625;124;69;0.56068
4807550;-0.02500;76.6875;124;69;0.54359
4807560;-0.06500;75.8125;124;69;0.50940
4807570;-0.10500;75.4375;124;69;0.49499
4807580;-0.13500;75.0000;124;69;0.48230
4807590;-0.14500;74.6250;124;69;0.46984
4807600;-0.16500;73.8750;124;69;0.44762
4807610;-0.17000;73.5000;124;69;0.43834
4807620;-0.16000;73.1875;124;69;0.43077
4807630;-0.15000;72.8750;124;69;0.42442
4807640;-0.13000;72.5625;124;69;0.41905
4807650;0.01500;72.0000;124;69;0.41123
4807660;0.56000;71.8125;124;69;0.40855
4807670;0.91000;71.5625;124;69;0.40684
4807680;0.62500;71.3750;124;69;0.40562
4807690;-0.17000;71.0000;124;69;0.40317
4807700;-0.32500;70.8750;124;69;0.40220
4807710;-0.25000;70.6875;124;69;0.40122
4807720;-0.20500;70.3125;124;69;0.39951
4807730;-0.20000;70.1250;124;69;0.39878
4807740;-0.19000;69.9375;124;69;0.39780
4807750;-0.18000;69.7500;124;69;0.39683
4807760;-0.18000;69.3125;124;69;0.39438
4807770;-0.17500;69.0625;124;69;0.39341
4807780;-0.17000;68.8125;124;69;0.39267
4807790;-0.16000;68.5000;124;69;0.39121
4807800;-0.16000;68.5000;124;69;0.39121
4807810;-0.13500;67.6250;124;69;0.38462
4807820;-0.13000;67.3125;124;69;0.38169
4807830;-0.12500;67.0000;124;69;0.37851
4807840;-0.11000;66.4375;124;69;0.37143
4807850;-0.10500;66.1875;124;69;0.36777
4807860;-0.09500;66.0625;124;69;0.36386
4807870;-0.07500;66.1250;124;69;0.36068
4807880;-0.06500;66.5625;124;69;0.35775
4807890;-0.05500;69.5625;124;69;0.34994
4807900;-0.04500;72.3125;124;69;0.34579
4807910;-0.02500;75.8125;124;69;0.34164
4807920;0.00000;84.3125;124;69;0.33333
4807930;0.02000;89.0625;124;69;0.32943
4807940;0.04000;93.8750;124;69;0.32601
4807950;0.06000;98.5625;124;69;0.32283
4807960;0.09500;107.1250;124;69;0.31697
4807970;0.12000;110.6875;124;69;0.31551
4807980;0.14500;113.7500;124;69;0.31477
4807990;0.18500;116.2500;124;69;0.31380
4808000;0.21500;118.1250;125;69;0.31282
4808010;0.24500;120.5000;125;69;0.31209
4808020;0.23500;121.0000;125;69;0.31233
4808030;0.21000;121.1250;125;69;0.31306
4808040;0.15000;120.9375;125;69;0.31404
4808050;0.07000;119.6875;125;69;0.31697
4808060;0.03000;118.6250;125;69;0.31868
4808070;-0.01500;117.3750;125;69;0.32063
4808080;-0.05500;115.9375;125;69;0.32283
4808090;-0.08000;112.5000;125;69;0.32674
4808100;-0.09500;110.6250;125;69;0.32845
4808110;-0.10500;108.6250;125;69;0.33040
4808120;-0.10500;104.4375;125;69;0.33651
4808130;-0.11000;102.3125;125;69;0.34212
4808140;-0.10500;100.1250;125;69;0.35067
4808150;-0.10500;97.8750;125;69;0.36288
4808160;-0.10500;93.4375;125;69;0.39976
4808170;-0.10000;91.4375;125;69;0.42027
4808180;-0.10000;89.6250;125;69;0.44176
4808190;-0.09500;88.1875;125;69;0.46764
4808200;-0.09500;86.9375;125;69;0.49597
4808210;-0.09500;85.3125;125;69;0.55385
4808220;-0.09500;84.7500;125;69;0.58120
4808230;-0.09500;84.3750;125;69;0.60659
4808240;-0.09000;84.1250;125;69;0.62979
4808250;-0.08500;83.8750;125;69;0.66862
4808260;-0.08500;83.8125;125;69;0.68400
4808270;-0.08500;83.7500;125;69;0.69499
4808280;-0.08500;83.6875;125;69;0.70281
4808290;-0.08500;83.5000;125;69;0.71600
4808300;-0.08500;83.3750;125;69;0.72015
4808310;-0.08000;83.1250;125;69;0.72234
4808320;-0.07000;82.5000;125;69;0.72015
4808330;-0.04500;82.1875;125;69;0.71600
4808340;-0.02500;81.7500;125;69;0.70965
4808350;-0.00500;81.3750;125;69;0.70159
4808360;-0.00500;81.0000;125;69;0.69158
4808370;0.02000;80.0625;125;69;0.66838
4808380;0.05000;79.6250;125;69;0.65617
4808390;0.06000;79.1875;125;69;0.64225
4808400;0.03000;78.6875;125;69;0.62735
4808410;-0.01500;77.8125;125;69;0.59487
4808420;-0.04500;77.3750;125;69;0.57802
4808430;-0.08500;76.8750;125;69;0.56142
4808440;-0.12500;76.4375;125;69;0.54530
4808450;-0.14000;75.5625;125;69;0.51551
4808460;-0.14500;75.1250;125;69;0.50256
4808470;-0.14000;74.6875;125;69;0.49206
4808480;-0.13500;74.3125;125;69;0.48327
4808490;-0.12500;73.5625;125;69;0.46740
4808500;-0.11500;73.1875;125;69;0.46081
4808510;-0.00500;72.8750;125;69;0.45543
4808520;0.28000;72.5625;125;69;0.45079
4808530;0.81000;72.0000;125;69;0.44347
4808540;0.78500;71.7500;125;69;0.44054
4808550;0.21500;71.5625;125;69;0.43810
4808560;-0.29000;71.1250;125;69;0.43419
4808570;-0.24500;70.9375;125;69;0.43272
4808580;-0.19000;70.7500;125;69;0.43101
4808590;-0.17500;70.5625;125;69;0.42930
4808600;-0.17500;70.1875;125;69;0.42564
4808610;-0.17000;69.9375;125;69;0.42344
4808620;-0.17000;69.7500;125;69;0.42125
4808630;-0.16500;69.5625;125;69;0.41880
4808640;-0.16500;69.3125;125;69;0.41612
4808650;-0.16000;68.8125;125;69;0.40977
4808660;-0.15500;68.5625;125;69;0.40635
4808670;-0.15000;68.3125;125;69;0.40342
4808680;-0.14500;68.0000;125;69;0.40073
4808690;-0.14500;67.4375;125;69;0.39292
4808700;-0.13500;67.1875;125;69;0.38852
4808710;-0.13000;66.9375;125;69;0.38364
4808720;-0.11500;66.7500;125;69;0.37851
4808730;-0.10000;66.7500;125;69;0.36777
4808740;-0.08500;67.3125;125;69;0.36239
4808750;-0.07500;68.5625;125;69;0.35702
4808760;-0.05500;73.5000;125;69;0.34799
4808770;-0.04500;77.0625;125;69;0.34457
4808780;-0.02500;81.3125;125;69;0.34042
4808790;0.00000;85.8750;125;69;0.33626
4808800;0.00000;85.8750;125;69;0.33626
4808810;0.04000;100.3125;125;69;0.32381
4808820;0.07000;104.8125;125;69;0.32015
4808830;0.09000;108.8750;125;69;0.31673
4808840;0.12000;112.4375;125;69;0.31355
4808850;0.15000;117.8750;125;69;0.30916
4808860;0.19500;119.7500;125;69;0.30794
4808870;0.21500;121.1250;125;69;0.30794
4808880;0.23500;122.5625;125;69;0.30305
4808890;0.22000;122.6875;125;69;0.29451
4808900;0.17500;122.5625;125;69;0.29084
4808910;0.11000;122.1250;125;69;0.28962
4808920;0.03000;120.5000;125;69;0.29109
4808930;-0.00500;119.3750;125;69;0.29255
4808940;-0.04500;118.0000;125;69;0.29426
4808950;-0.08000;116.4375;125;69;0.29597
4808960;-0.09500;114.7500;125;69;0.29744
4808970;-0.10500;111.0625;125;69;0.30183
4808980;-0.11000;109.0625;125;69;0.30476
4808990;-0.11000;107.0000;125;69;0.30891
4809000;-0.11000;102.6250;125;69;0.32503
4809010;-0.11000;100.3750;125;69;0.33871
4809020;-0.11000;98.0625;125;69;0.35702
4809030;-0.10500;95.8125;125;69;0.37998
4809040;-0.10000;91.6250;125;69;0.43687
4809050;-0.09500;89.9375;125;69;0.46911
4809060;-0.08500;88.5625;125;69;0.50232
4809070;-0.08500;87.5000;125;69;0.53114
4809080;-0.08500;86.6875;125;69;0.55678
4809090;-0.08000;85.6250;125;69;0.61172
4809100;-0.07500;85.3750;125;69;0.63761
4809110;-0.07500;85.1250;125;69;0.66105
4809120;-0.07500;84.9375;125;69;0.68181
4809130;-0.08000;84.8750;125;69;0.71502
4809140;-0.08500;84.8125;125;69;0.72772
4809150;-0.08500;84.7500;125;69;0.73773
4809160;-0.08500;84.6250;125;69;0.74505
4809170;-0.08500;84.1250;125;69;0.74969
4809180;-0.07500;83.8125;125;69;0.74969
4809190;-0.06500;83.5000;125;69;0.74823
4809200;-0.03500;82.6875;125;69;0.74481
4809210;-0.01500;82.2500;125;69;0.73162
4809220;-0.01000;81.8125;125;69;0.72210
4809230;0.00500;81.3125;125;69;0.71062
4809240;0.04500;80.3125;125;69;0.68254
4809250;0.06000;79.8125;125;69;0.66618
4809260;0.03000;79.3750;125;69;0.64860
4809270;-0.01000;78.8750;125;69;0.63175
4809280;-0.05000;77.9375;125;69;0.59707
4809290;-0.08500;77.5000;125;69;0.57827
4809300;-0.12500;77.0625;125;69;0.55946
4809310;-0.15500;76.6875;125;69;0.54139
4809320;-0.15500;76.2500;125;69;0.52454
4809330;-0.16000;75.5625;125;69;0.49524
4809340;-0.16000;75.2500;125;69;0.48303
4809350;-0.15500;74.9375;125;69;0.47253
4809360;-0.15500;74.6250;125;69;0.46349
4809370;-0.12000;74.0625;125;69;0.45104
4809380;0.19500;73.8125;125;69;0.44591
4809390;0.62000;73.6250;125;69;0.44151
4809400;0.95500;73.4375;125;69;0.43761
4809410;0.29500;73.0625;125;69;0.43126
4809420;-0.22000;72.8750;125;69;0.42857
4809430;-0.31500;72.7500;125;69;0.42613
4809440;-0.24000;72.4375;125;69;0.42222
4809450;-0.22500;72.2500;125;69;0.42027
4809460;-0.22000;72.0625;125;69;0.41832
4809470;-0.21000;71.8125;125;69;0.41661
4809480;-0.21000;71.6250;125;69;0.41514
4809490;-0.20000;71.1250;125;69;0.41099
4809500;-0.19000;70.8125;125;69;0.40855
4809510;-0.19000;70.5625;125;69;0.40586
4809520;-0.18500;70.2500;125;69;0.40317
4809530;-0.18000;69.6250;125;69;0.39683
4809540;-0.17000;69.3125;125;69;0.39316
4809550;-0.16000;69.0000;125;69;0.38901
4809560;-0.15000;68.4375;125;69;0.38462
4809570;-0.14000;68.1875;125;69;0.37729
4809580;-0.13000;68.0000;125;69;0.37289
4809590;-0.11500;68.0625;125;69;0.36825
4809600;-0.10500;69.4375;125;69;0.35824
4809610;-0.09500;71.1875;125;69;0.35336
4809620;-0.08000;73.8750;125;69;0.34847
4809630;-0.06500;77.3125;125;69;0.34359
4809640;-0.04000;86.0625;125;69;0.33407
4809650;-0.02000;91.0000;125;69;0.32967
4809660;0.00500;96.0000;125;69;0.32527
4809670;0.03000;101.0000;125;69;0.32210
4809680;0.05000;105.7500;125;69;0.31990
4809690;0.07500;113.8750;125;69;0.31477
4809700;0.10500;117.1875;125;69;0.31258
4809710;0.14000;119.8750;125;69;0.31087
4809720;0.16500;122.0000;125;69;0.30940
4809730;0.19500;124.6875;125;69;0.30794
4809740;0.21500;125.3750;125;69;0.30769
4809750;0.20000;125.6875;125;69;0.30769
4809760;0.16500;125.6250;125;69;0.30794
4809770;0.09500;124.7500;125;69;0.31062
4809780;0.04000;123.9375;125;69;0.31209
4809790;-0.02000;122.8750;125;69;0.31380
4809800;-0.02000;122.8750;125;69;0.31380
4809810;-0.08500;118.5625;125;69;0.31868
4809820;-0.10000;116.8750;125;69;0.32039
4809830;-0.11500;115.0625;125;69;0.32210
4809840;-0.12000;111.1250;125;69;0.32772
4809850;-0.12500;109.0625;125;69;0.33333
4809860;-0.12500;106.8750;125;69;0.34212
4809870;-0.12500;104.6875;125;69;0.35263
4809880;-0.12500;100.1875;125;69;0.38510
4809890;-0.12500;98.0000;125;69;0.40928
4809900;-0.12500;95.9375;125;69;0.43785
4809910;-0.11500;94.1250;125;69;0.46960
4809920;-0.11500;91.3125;125;69;0.53797
4809930;-0.10500;90.3750;125;69;0.57216
4809940;-0.10500;89.5625;125;69;0.60488
4809950;-0.10000;89.0000;125;69;0.63565
4809960;-0.09500;88.5625;125;69;0.66398
4809970;-0.09500;88.0625;125;69;0.70427
4809980;-0.10000;87.9375;125;69;0.72259
4809990;-0.09500;87.8750;125;69;0.73968
4810000;-0.09500;87.8125;125;69;0.75458
4810010;-0.10000;87.6250;125;69;0.77729
4810020;-0.10000;87.4375;125;69;0.78486
4810030;-0.10500;87.1875;125;69;0.78999
4810040;-0.10500;86.8750;125;69;0.79267
4810050;-0.08500;86.1875;125;69;0.79096
4810060;-0.06500;85.8125;125;69;0.78706
4810070;-0.04500;85.3125;125;69;0.78095
4810080;-0.03500;84.3750;125;69;0.76386
4810090;-0.03000;83.8125;125;69;0.75311
4810100;0.00000;83.3125;125;69;0.74090
4810110;0.02000;82.7500;125;69;0.72723
4810120;0.01000;82.2500;125;69;0.71209
4810130;-0.02500;81.2500;125;69;0.67839
4810140;-0.04000;80.8125;125;69;0.66056
4810150;-0.07500;80.3125;125;69;0.64274
4810160;-0.12500;79.3750;125;69;0.60952
4810170;-0.15000;78.8750;125;69;0.59560
4810180;-0.16000;78.4375;125;69;0.58169
4810190;-0.16500;78.0000;125;69;0.56850
4810200;-0.16000;77.6250;125;69;0.55653
4810210;-0.14500;76.9375;125;69;0.53700
4810220;-0.13500;76.6250;125;69;0.52918
4810230;-0.13500;76.3125;125;69;0.52259
4810240;0.00000;76.0000;125;69;0.51722
4810250;0.59000;75.4375;125;69;0.50916
4810260;1.01000;75.2500;125;69;0.50598
4810270;0.77500;75.0000;125;69;0.50305
4810280;-0.10000;74.6875;125;69;0.49744
4810290;-0.30000;74.5625;125;69;0.49475
4810300;-0.25000;74.3750;125;69;0.49182
4810310;-0.21500;74.2500;125;69;0.48864
4810320;-0.21500;74.0625;125;69;0.48498
4810330;-0.21000;73.6875;125;69;0.47692
4810340;-0.20000;73.4375;125;69;0.47277
4810350;-0.19000;73.1875;125;69;0.46838
4810360;-0.18500;72.8750;125;69;0.46374
4810370;-0.18000;72.3125;125;69;0.45617
4810380;-0.17500;72.0000;125;69;0.45177
4810390;-0.17000;71.7500;125;69;0.44713
4810400;-0.16500;71.1875;125;69;0.44200
4810410;-0.15500;70.9375;125;69;0.43126
4810420;-0.14500;70.6875;125;69;0.42613
4810430;-0.13500;70.4375;125;69;0.42125
4810440;-0.11500;70.2500;125;69;0.41636
4810450;-0.10000;70.2500;125;69;0.40781
4810460;-0.08500;70.9375;125;69;0.40415
4810470;-0.06500;72.3125;125;69;0.40122
4810480;-0.05000;74.5625;125;69;0.39780
4810490;-0.02500;81.7500;125;69;0.38999
4810500;-0.00500;86.3125;125;69;0.38632
4810510;0.01000;91.3750;125;69;0.38315
4810520;0.03000;101.8125;125;69;0.37998
4810530;0.05500;106.8750;125;69;0.37460
4810540;0.06500;111.5625;125;69;0.37241
4810550;0.08000;115.8125;125;69;0.37045
4810560;0.10500;122.5000;125;69;0.36752
4810570;0.12500;124.9375;125;69;0.36703
4810580;0.15000;126.8750;125;69;0.36630
4810590;0.17500;128.1875;125;69;0.36581
4810600;0.19500;129.1250;125;69;0.36557
4810610;0.19000;129.7500;125;69;0.36606
4810620;0.15000;129.5625;125;69;0.36679
4810630;0.10500;129.1250;125;69;0.36777
4810640;0.04500;127.5000;125;69;0.36899
4810650;-0.01000;126.3750;125;69;0.37167
4810660;-0.05500;125.0000;125;69;0.37314
4810670;-0.08500;123.5625;125;69;0.37436
4810680;-0.10500;120.1875;125;69;0.37534
4810690;-0.11500;118.3750;125;69;0.37558
4810700;-0.12000;116.3750;125;69;0.37631
4810710;-0.12500;114.3750;125;69;0.37851
4810720;-0.13000;112.3125;125;69;0.38315
4810730;-0.13000;107.8750;125;69;0.40464
4810740;-0.12500;105.5625;125;69;0.42247
4810750;-0.11500;103.1875;125;69;0.44518
4810760;-0.10500;100.8125;125;69;0.47204
4810770;-0.10000;96.5000;125;69;0.52357
4810780;-0.10000;94.7500;125;69;0.55409
4810790;-0.09500;93.3125;125;69;0.58657
4810800;-0.09000;91.3125;125;69;0.65031
4810810;-0.09000;90.6875;125;69;0.67961
4810820;-0.08500;90.1875;125;69;0.70623
4810830;-0.08000;89.9375;125;69;0.72991
4810840;-0.08000;89.5625;125;69;0.76850
4810850;-0.07500;89.5000;125;69;0.78315
4810860;-0.07500;89.4375;125;69;0.79267
4810870;-0.07500;89.3750;125;69;0.79902
4810880;-0.08000;89.3125;125;69;0.80513
4810890;-0.08500;89.0000;125;69;0.81319
4810900;-0.08500;88.7500;125;69;0.81465
4810910;-0.08500;88.5000;125;69;0.81416
4810920;-0.06500;88.1875;125;69;0.81172
4810930;-0.03500;87.3750;125;69;0.78486
4810940;-0.00500;86.9375;125;69;0.75263
4810950;0.00000;86.5000;125;69;0.73114
4810960;0.02500;85.5000;125;69;0.69988
4810970;0.05000;85.0000;125;69;0.68596
4810980;0.07500;84.4375;125;69;0.67131
4810990;0.06000;83.9375;125;69;0.65592
4811000;0.03000;83.3750;124;69;0.63980
4811010;-0.00500;82.3750;124;69;0.60562
4811020;-0.04500;81.8750;124;69;0.58852
4811030;-0.09500;81.3750;124;69;0.57192
4811040;-0.11000;80.8125;124;69;0.55629
4811050;-0.11500;79.8750;124;69;0.52796
4811060;-0.12500;79.4375;124;69;0.51673
4811070;-0.11500;79.0000;124;69;0.50696
4811080;-0.11000;78.6250;124;69;0.49792
4811090;-0.11500;77.8750;124;69;0.48278
4811100;-0.10500;77.5625;124;69;0.47668
4811110;0.19500;77.3125;124;69;0.47155
4811120;0.68000;77.0625;124;69;0.46691
4811130;1.11500;76.6250;124;69;0.45910
4811140;0.51000;76.4375;124;69;0.45568
4811150;-0.07500;76.2500;124;69;0.45226
4811160;-0.26500;76.0625;124;69;0.44884
4811170;-0.19500;75.7500;124;69;0.44249
4811180;-0.19000;75.6250;124;69;0.43932
4811190;-0.19000;75.5000;124;69;0.43614
4811200;-0.18500;75.1250;124;69;0.42906
4811210;-0.18000;74.8750;124;69;0.42515
4811220;-0.17000;74.6875;124;69;0.42100
4811230;-0.16500;74.4375;124;69;0.41661
4811240;-0.16000;74.1250;124;69;0.41221
4811250;-0.15500;73.6250;124;69;0.40293
4811260;-0.14500;73.3125;124;69;0.39878
4811270;-0.13500;73.0625;124;69;0.39487
4811280;-0.12500;72.7500;124;69;0.39048
4811290;-0.11500;72.1875;124;69;0.38046
4811300;-0.11000;71.9375;124;69;0.37534
4811310;-0.10000;71.6875;124;69;0.37045
4811320;-0.09500;72.1250;124;69;0.36093
4811330;-0.08500;73.1250;124;69;0.35629
4811340;-0.07500;75.0625;124;69;0.35214
4811350;-0.05500;77.8750;124;69;0.34823
4811360;-0.03500;85.7500;124;69;0.34188
4811370;-0.02000;90.5000;124;69;0.33993
4811380;0.00500;95.5000;124;69;0.33773
4811390;0.02000;100.6250;124;69;0.33578
4811400;0.04000;110.1875;124;69;0.33431
4811410;0.06000;114.4375;124;69;0.33236
4811420;0.09000;118.0625;124;69;0.33211
4811430;0.12000;121.1250;124;69;0.33211
4811440;0.14000;123.5625;124;69;0.33260
4811450;0.17000;126.8750;124;69;0.33480
4811460;0.20500;127.8125;124;69;0.33626
4811470;0.21500;128.3125;124;69;0.33797
4811480;0.21500;128.5625;124;69;0.33993
4811490;0.17000;128.1250;124;69;0.34359
4811500;0.12500;127.5625;124;69;0.34505
4811510;0.06500;126.7500;124;69;0.34652
4811520;0.00000;124.5000;124;69;0.34872
4811530;-0.02500;123.1250;124;69;0.34945
4811540;-0.05500;121.5625;124;69;0.34945
4811550;-0.07500;119.9375;124;69;0.34921
4811560;-0.08000;118.1875;124;69;0.34896
4811570;-0.09000;114.3750;124;69;0.35067
4811580;-0.09500;112.3125;124;69;0.35311
4811590;-0.09500;110.1875;124;69;0.35824
4811600;-0.09500;107.9375;124;69;0.36679
4811610;-0.09000;103.2500;124;69;0.39634
4811620;-0.09000;100.8750;124;69;0.41734
4811630;-0.08500;98.5625;124;69;0.44151
4811640;-0.08500;96.5000;124;69;0.46813
4811650;-0.08500;93.1250;124;69;0.52430
4811660;-0.08500;91.8750;124;69;0.54774
4811670;-0.08000;90.8750;124;69;0.56825
4811680;-0.08000;90.1250;124;69;0.58999
4811690;-0.07500;89.1250;124;69;0.63004
4811700;-0.06500;88.8125;124;69;0.64689
4811710;-0.06500;88.5625;124;69;0.66105
4811720;-0.06500;88.3750;124;69;0.67277
4811730;-0.07000;88.0625;124;69;0.68889
4811740;-0.07000;87.9375;124;69;0.69353
4811750;-0.07000;87.6875;124;69;0.69621
4811760;-0.07000;87.1875;124;69;0.69499
4811770;-0.05500;86.8125;124;69;0.69109
4811780;-0.03000;86.4375;124;69;0.68620
4811790;0.00000;86.0000;124;69;0.67937
4811800;0.00000;86.0000;124;69;0.67937
4811810;0.03000;84.5000;124;69;0.64908
4811820;0.06000;84.0000;124;69;0.63614
4811830;0.08500;83.4375;124;69;0.62198
4811840;0.08000;82.9375;124;69;0.60635
4811850;0.04000;81.8125;124;69;0.57192
4811860;0.00500;81.2500;124;69;0.55531
4811870;-0.03500;80.7500;124;69;0.53919
4811880;-0.07500;80.2500;124;69;0.52137
4811890;-0.11500;79.1875;124;69;0.48352
4811900;-0.12500;78.6875;124;69;0.46496
4811910;-0.13000;78.1875;124;69;0.44713
4811920;-0.12500;77.7500;124;69;0.43053
4811930;-0.12500;76.9375;124;69;0.40147
4811940;-0.12000;76.5625;124;69;0.38901
4811950;-0.11500;76.1875;124;69;0.37802
4811960;0.06000;75.4375;124;69;0.36215
4811970;0.40000;75.1250;124;69;0.35482
4811980;0.89500;74.8125;124;69;0.34799
4811990;0.62500;74.5625;124;69;0.34139
4812000;0.03500;74.3125;124;69;0.33529
4812010;-0.28500;73.8750;124;69;0.32479
4812020;-0.23000;73.6875;124;69;0.31990
4812030;-0.18500;73.4375;124;69;0.31502
4812040;-0.17500;72.9375;124;69;0.30574
4812050;-0.17000;72.6875;124;69;0.30110
4812060;-0.16000;72.4375;124;69;0.29768
4812070;-0.15500;72.1875;124;69;0.29451
4812080;-0.14500;71.5625;124;69;0.28645
4812090;-0.14000;71.2500;124;69;0.28181
4812100;-0.13000;70.9375;124;69;0.27692
4812110;-0.12500;70.6250;124;69;0.27204
4812120;-0.11500;70.3125;124;69;0.26691
4812130;-0.11000;69.6875;124;69;0.25714
4812140;-0.10000;69.3125;124;69;0.25201
4812150;-0.09500;69.0625;124;69;0.24689
4812160;-0.08000;68.5000;124;69;0.24298
4812170;-0.07000;68.3750;124;69;0.23516
4812180;-0.06500;68.5000;124;69;0.23053
4812190;-0.05000;69.0000;124;69;0.22564
4812200;-0.04000;70.1250;124;69;0.22076
4812210;-0.03000;74.9375;124;69;0.21123
4812220;-0.01500;78.4375;124;69;0.20684
4812230;0.00000;82.5000;124;69;0.20269
4812240;0.02000;87.0625;124;69;0.19902
4812250;0.04000;96.6250;124;69;0.19194
4812260;0.06500;101.2500;124;69;0.18999
4812270;0.08500;105.6250;124;69;0.18901
4812280;0.11500;109.5625;124;69;0.18730
4812290;0.14500;115.7500;124;69;0.18413
4812300;0.17000;118.0000;124;69;0.18291
4812310;0.20000;119.6875;124;69;0.18193
4812320;0.23000;121.5000;124;69;0.18144
4812330;0.22500;121.7500;124;69;0.18193
4812340;0.19500;121.6250;124;69;0.18291
4812350;0.13000;121.1875;124;69;0.18413
4812360;0.07500;120.5000;124;69;0.18632
4812370;0.00500;118.3750;124;69;0.19219
4812380;-0.03000;117.0000;124;69;0.19512
4812390;-0.06500;115.4375;124;69;0.19805
4812400;-0.08500;111.9375;124;69;0.20415
4812410;-0.09500;110.0000;124;69;0.20733
4812420;-0.10500;107.9375;124;69;0.21050
4812430;-0.11500;105.8750;124;69;0.21441
4812440;-0.11000;101.5625;124;69;0.22662
4812450;-0.11000;99.3750;124;69;0.23663
4812460;-0.11000;97.1250;124;69;0.24811
4812470;-0.11000;94.8750;124;69;0.26178
4812480;-0.10500;90.8125;124;69;0.28034
4812490;-0.10500;89.1250;124;69;0.32894
4812500;-0.10000;87.7500;124;69;0.35726
4812510;-0.09500;86.6875;124;69;0.38706
4812520;-0.09000;85.3125;124;69;0.44591
4812530;-0.08500;84.9375;124;69;0.47350
4812540;-0.08500;84.7500;124;69;0.49890
4812550;-0.07500;84.6250;124;69;0.52161
4812560;-0.08000;84.5625;124;69;0.53919
4812570;-0.08000;84.5625;124;69;0.56654
4812580;-0.07500;84.5625;124;69;0.57802
4812590;-0.08000;84.5000;124;69;0.58779
4812600;-0.08500;84.2500;124;69;0.60024
4812610;-0.08500;84.0000;124;69;0.60293
4812620;-0.08500;83.7500;124;69;0.60317
4812630;-0.08000;83.4375;124;69;0.60147
4812640;-0.06500;83.0625;124;69;0.59756
4812650;-0.03500;82.1875;124;69;0.58364
4812660;-0.01000;81.7500;124;69;0.57534
4812670;-0.00500;81.2500;124;69;0.56606
4812680;0.01500;80.2500;124;69;0.55482
4812690;0.05000;79.6875;124;69;0.52821
4812700;0.07000;79.1875;124;69;0.51306
4812710;0.05000;78.6875;124;69;0.49670
4812720;0.00000;77.6875;124;69;0.46252
4812730;-0.02000;77.1875;124;69;0.44542
4812740;-0.06000;76.6875;124;69;0.42857
4812750;-0.11000;76.1875;124;69;0.41270
4812760;-0.12500;75.7500;124;69;0.39951
4812770;-0.13500;74.9375;124;69;0.37656
4812780;-0.13500;74.5625;124;69;0.36581
4812790;-0.13000;74.1875;124;69;0.35604
4812800;-0.13000;74.1875;124;69;0.35604
4812810;-0.12000;73.5625;124;69;0.34066
4812820;-0.08000;73.0000;124;69;0.33016
4812830;0.26000;72.7500;124;69;0.32650
4812840;0.67500;72.5625;124;69;0.32332
4812850;0.83000;72.1875;124;69;0.31868
4812860;0.32500;71.9375;124;69;0.31746
4812870;-0.30500;71.7500;124;69;0.31673
4812880;-0.29500;71.5625;124;69;0.31551
4812890;-0.22000;71.3125;124;69;0.31233
4812900;-0.19000;71.1875;124;69;0.31062
4812910;-0.18000;71.0625;124;69;0.30891
4812920;-0.17500;70.8750;124;69;0.30745
4812930;-0.17000;70.4375;124;69;0.30379
4812940;-0.16000;70.1875;124;69;0.30183
4812950;-0.15500;69.9375;124;69;0.29963
4812960;-0.14500;69.4375;124;69;0.29695
4812970;-0.14500;69.1250;124;69;0.29475
4812980;-0.14000;68.8125;124;69;0.30696
4812990;-0.13500;68.5000;124;69;0.32650
4813000;-0.12500;67.8750;124;69;0.33675
4813010;-0.12000;67.6250;124;69;0.33626
4813020;-0.11000;67.3750;124;69;0.33431
4813030;-0.09500;67.1250;124;69;0.33162
4813040;-0.08500;66.9375;124;69;0.32845
4813050;-0.07500;67.4375;124;69;0.32137
4813060;-0.05500;68.5000;124;69;0.31868
4813070;-0.04000;70.3125;124;69;0.31648
4813080;-0.02500;76.3750;124;69;0.31038
4813090;-0.01000;80.3125;124;69;0.30720
4813100;0.00500;84.7500;124;69;0.30403
4813110;0.02000;89.3750;124;69;0.30085
4813120;0.04000;94.0625;124;69;0.29792
4813130;0.07000;103.0000;124;69;0.29280
4813140;0.09500;106.9375;124;69;0.29084
4813150;0.12500;110.4375;124;69;0.28913
4813160;0.16500;115.7500;124;69;0.28840
4813170;0.19000;117.5000;124;69;0.28816
4813180;0.22500;118.7500;124;69;0.28816
4813190;0.24000;119.5000;124;69;0.28816
4813200;0.21500;119.8125;124;69;0.28889
4813210;0.17500;119.5000;124;69;0.28962
4813220;0.11500;118.8125;124;69;0.29084
4813230;0.04000;117.9375;124;69;0.29231
4813240;0.00000;116.7500;124;69;0.29402
4813250;-0.03500;113.7500;124;69;0.29817
4813260;-0.07500;112.0000;124;69;0.30085
4813270;-0.08500;110.1875;124;69;0.30379
4813280;-0.09500;108.1875;124;69;0.30623
4813290;-0.10500;104.0000;124;69;0.31160
4813300;-0.11000;101.8750;124;69;0.31526
4813310;-0.11500;99.6875;124;69;0.32039
4813320;-0.11500;95.2500;124;69;0.33871
4813330;-0.11500;93.1250;124;69;0.35287
4813340;-0.11500;91.0625;124;69;0.37094
4813350;-0.11000;89.2500;124;69;0.39267
4813360;-0.10500;86.3750;124;69;0.43516
4813370;-0.10500;85.3750;124;69;0.46032
4813380;-0.09500;84.5625;124;69;0.48718
4813390;-0.09500;84.0000;124;69;0.51453
4813400;-0.09500;83.2500;124;69;0.56606
4813410;-0.09500;83.0625;124;69;0.58901
4813420;-0.09500;82.9375;124;69;0.60952
4813430;-0.08500;82.8750;124;69;0.62711
4813440;-0.08500;82.8125;124;69;0.64200
4813450;-0.08500;82.7500;124;69;0.66398
4813460;-0.08500;82.6875;124;69;0.67009
4813470;-0.08500;82.6250;124;69;0.67326
4813480;-0.08500;82.2500;124;69;0.67619
4813490;-0.08000;82.0000;124;69;0.67497
4813500;-0.07000;81.6875;124;69;0.67204
4813510;-0.04500;81.3750;124;69;0.66716
4813520;-0.02500;81.0000;124;69;0.66032
4813530;-0.00500;80.2500;124;69;0.64127
4813540;0.00000;79.8125;124;69;0.62930
4813550;0.02000;79.3750;124;69;0.61587
4813560;0.06000;79.0000;124;69;0.60269
4813570;0.07500;78.1875;124;69;0.57460
4813580;0.05000;77.7500;124;69;0.55873
4813590;0.01500;77.3750;124;69;0.54212
4813600;-0.02000;76.5625;124;69;0.50891
4813610;-0.05500;76.1875;124;69;0.49304
4813620;-0.09500;75.8125;124;69;0.47790
4813630;-0.11500;75.4375;124;69;0.46422
4813640;-0.11500;75.0625;124;69;0.45177
4813650;-0.11500;74.3750;124;69;0.43053
4813660;-0.11000;74.0625;124;69;0.42271
4813670;-0.10500;73.7500;124;69;0.41661
4813680;-0.09500;73.1250;124;69;0.40488
4813690;-0.04000;72.8750;124;69;0.40000
4813700;0.26000;72.6250;124;69;0.39609
4813710;0.77000;72.4375;124;69;0.39267
4813720;0.82500;72.0000;124;69;0.38681
4813730;0.28500;71.8125;124;69;0.38462
4813740;-0.24000;71.6250;124;69;0.38266
4813750;-0.23000;71.4375;124;69;0.38095
4813760;-0.18000;71.2500;124;69;0.37998
4813770;-0.16000;70.8125;124;69;0.37802
4813780;-0.16000;70.6250;124;69;0.37680
4813790;-0.15500;70.4375;124;69;0.37558
4813800;-0.15500;70.4375;124;69;0.37558
4813810;-0.14000;69.6250;124;69;0.37070
4813820;-0.13000;69.3750;124;69;0.36899
4813830;-0.12500;69.0625;124;69;0.36703
4813840;-0.12000;68.4375;124;69;0.36313
4813850;-0.11500;68.1250;124;69;0.36166
4813860;-0.10500;67.8125;124;69;0.36044
4813870;-0.10500;67.5000;124;69;0.35849
4813880;-0.09500;67.2500;124;69;0.35629
4813890;-0.09000;66.7500;124;69;0.35067
4813900;-0.08500;66.5625;124;69;0.34774
4813910;-0.07000;66.5625;124;69;0.34457
4813920;-0.06000;66.9375;124;69;0.34139
4813930;-0.04500;69.7500;124;69;0.33455
4813940;-0.03500;72.3125;124;69;0.33138
4813950;-0.01500;75.7500;124;69;0.32845
4813960;0.00000;79.7500;124;69;0.32650
4813970;0.02000;88.9375;124;69;0.32308
4813980;0.04000;93.8125;124;69;0.32088
4813990;0.06000;98.6250;124;69;0.31868
4814000;0.09000;107.3125;124;69;0.31477
4814010;0.11000;111.0000;124;69;0.31306
4814020;0.14000;114.0625;124;69;0.31184
4814030;0.18000;116.6250;124;69;0.31111
4814040;0.20500;118.5625;124;69;0.31062
4814050;0.23500;120.8750;124;69;0.31160
4814060;0.25500;121.3750;124;69;0.31282
4814070;0.23500;121.5000;124;69;0.31404
4814080;0.19000;121.2500;124;69;0.31526
4814090;0.11500;119.9375;124;69;0.31819
4814100;0.06000;118.8750;124;69;0.31966
4814110;0.01000;117.5625;124;69;0.32137
4814120;-0.03500;114.4375;124;69;0.32430
4814130;-0.05500;112.6875;124;69;0.32576
4814140;-0.07500;110.8125;124;69;0.32723
4814150;-0.08500;108.8750;124;69;0.32869
4814160;-0.09000;104.6875;124;69;0.33407
4814170;-0.09500;102.5625;124;69;0.33846
4814180;-0.09500;100.3125;124;69;0.34505
4814190;-0.09500;98.1250;124;69;0.35458
4814200;-0.09500;95.8750;124;69;0.36777
4814210;-0.08500;91.7500;124;69;0.40586
4814220;-0.07500;89.9375;124;69;0.43004
4814230;-0.07500;88.5000;124;69;0.45665
4814240;-0.07500;86.3750;124;69;0.48474
4814250;-0.07000;85.6250;124;69;0.53822
4814260;-0.06500;85.1250;124;69;0.55995
4814270;-0.06500;84.7500;124;69;0.58339
4814280;-0.06000;84.3125;124;69;0.62759
4814290;-0.06000;84.2500;124;69;0.64664
4814300;-0.07000;84.1875;124;69;0.66349
4814310;-0.07000;84.1250;124;69;0.67766
4814320;-0.07500;84.0625;124;69;0.68962
4814330;-0.07500;83.8750;124;69;0.70598
4814340;-0.07500;83.6875;124;69;0.71062
4814350;-0.08000;83.4375;124;69;0.71282
4814360;-0.08500;82.7500;124;69;0.70989
4814370;-0.07500;82.4375;124;69;0.70598
4814380;-0.05500;82.0625;124;69;0.70061
4814390;-0.03500;81.6250;124;69;0.69377
4814400;-0.01500;81.1875;124;69;0.68523
4814410;-0.01500;80.3125;124;69;0.66349
4814420;0.00000;79.8750;124;69;0.65055
4814430;0.04000;79.3750;124;69;0.63663
4814440;0.05000;78.4375;124;69;0.60611
4814450;0.02000;78.0000;124;69;0.59170
4814460;-0.01000;77.5625;124;69;0.57778
4814470;-0.04500;77.1250;124;69;0.56264
4814480;-0.08000;76.6875;124;69;0.54701
4814490;-0.12000;75.8750;124;69;0.51746
4814500;-0.14500;75.4375;124;69;0.50452
4814510;-0.14500;75.0625;124;69;0.49255
4814520;-0.14500;74.6250;124;69;0.48205
4814530;-0.14000;73.9375;124;69;0.46471
4814540;-0.13500;73.6250;124;69;0.45788
4814550;-0.13000;73.3125;124;69;0.45226
4814560;-0.08500;73.0625;124;69;0.44786
4814570;0.18000;72.5625;124;69;0.44103
4814580;0.79500;72.3125;124;69;0.43810
4814590;0.92000;72.0625;124;69;0.43541
4814600;0.34000;71.8750;124;69;0.43272
4814610;-0.28500;71.5000;124;69;0.42808
4814620;-0.28500;71.3125;124;69;0.42613
4814630;-0.21000;71.1875;124;69;0.42393
4814640;-0.19000;70.7500;124;69;0.41978
4814650;-0.18500;70.5625;124;69;0.41807
4814660;-0.18500;70.3125;124;69;0.41636
4814670;-0.17500;70.0625;124;69;0.41441
4814680;-0.17000;69.8125;124;69;0.41197
4814690;-0.16000;69.3125;124;69;0.40684
4814700;-0.14500;69.0000;124;69;0.40366
4814710;-0.14000;68.6875;124;69;0.40024
4814720;-0.13500;68.3750;124;69;0.39683
4814730;-0.12500;67.8125;124;69;0.38901
4814740;-0.11500;67.5000;124;69;0.38486
4814750;-0.11000;67.2500;124;69;0.38071
4814760;-0.10500;67.0000;124;69;0.37729
4814770;-0.08500;66.6250;124;69;0.37021
4814780;-0.08000;66.6875;124;69;0.36606
4814790;-0.07000;67.2500;124;69;0.36166
4814800;-0.07000;67.2500;124;69;0.36166
4814810;-0.04500;73.3125;124;69;0.34774
4814820;-0.03500;76.8750;124;69;0.34310
4814830;-0.01500;81.0625;124;69;0.33846
4814840;0.00000;85.6875;124;69;0.33407
4814850;0.02500;95.3750;124;69;0.32747
4814860;0.04500;100.1250;124;69;0.32552
4814870;0.06000;104.6875;124;69;0.32308
4814880;0.09000;112.3750;124;69;0.31844
4814890;0.11000;115.4375;124;69;0.31648
4814900;0.14000;117.8750;124;69;0.31502
4814910;0.17000;119.8125;124;69;0.31404
4814920;0.20500;121.1250;124;69;0.31331
4814930;0.22000;122.5000;124;69;0.31355
4814940;0.20500;122.6250;124;69;0.31404
4814950;0.16500;122.4375;124;69;0.31477
4814960;0.09500;121.1875;124;69;0.31795
4814970;0.04500;120.1250;124;69;0.31966
4814980;-0.00500;118.8750;124;69;0.32137
4814990;-0.05500;117.4375;124;69;0.32308
4815000;-0.07500;115.8750;125;69;0.32503
4815010;-0.09000;112.2500;125;69;0.32845
4815020;-0.10000;110.3125;125;69;0.33040
4815030;-0.10500;108.2500;125;69;0.32552
4815040;-0.11000;106.1250;125;69;0.31844
4815050;-0.11000;101.7500;125;69;0.32405
4815060;-0.10500;99.5625;125;69;0.33309
4815070;-0.10500;97.3125;125;69;0.34750
4815080;-0.10500;95.1875;125;69;0.36728
4815090;-0.09500;91.3750;125;69;0.41978
4815100;-0.09500;89.9375;125;69;0.45079
4815110;-0.09000;88.6875;125;69;0.48376
4815120;-0.08500;86.8750;125;69;0.51722
4815130;-0.08500;86.3125;125;69;0.58144
4815140;-0.08500;85.8750;125;69;0.61074
4815150;-0.08500;85.6250;125;69;0.63736
4815160;-0.08500;85.3750;125;69;0.65812
4815170;-0.08500;85.1250;125;69;0.69109
4815180;-0.08000;85.0000;125;69;0.70623
4815190;-0.08000;84.8125;125;69;0.71941
4815200;-0.08000;84.6875;125;69;0.73040
4815210;-0.08000;84.3125;125;69;0.74457
4815220;-0.08500;84.0000;125;69;0.74774
4815230;-0.08000;83.6875;125;69;0.74847
4815240;-0.07000;82.9375;125;69;0.74676
4815250;-0.05000;82.5000;125;69;0.73626
4815260;-0.03000;82.1250;125;69;0.72821
4815270;-0.01000;81.6250;125;69;0.71819
4815280;0.00000;80.6875;125;69;0.69304
4815290;0.02000;80.1875;125;69;0.67814
4815300;0.05500;79.6875;125;69;0.66203
4815310;0.07000;79.1875;125;69;0.64469
4815320;0.05000;78.7500;125;69;0.62637
4815330;0.01000;77.9375;125;69;0.58852
4815340;-0.02500;77.5625;125;69;0.56972
4815350;-0.06500;77.1875;125;69;0.55140
4815360;-0.10500;76.4375;125;69;0.52137
4815370;-0.12000;76.0625;125;69;0.50696
4815380;-0.12500;75.7500;125;69;0.49304
4815390;-0.12500;75.3750;125;69;0.48034
4815400;-0.12000;75.0625;125;69;0.46911
4815410;-0.11000;74.5000;125;69;0.45055
4815420;-0.11000;74.1875;125;69;0.44322
4815430;-0.06000;73.9375;125;69;0.43712
4815440;0.32000;73.5000;125;69;0.42711
4815450;0.76000;73.3125;125;69;0.42369
4815460;0.93000;73.1875;125;69;0.42076
4815470;0.34000;73.0000;125;69;0.41758
4815480;-0.27000;72.7500;125;69;0.41172
4815490;-0.25500;72.5625;125;69;0.40879
4815500;-0.19000;72.4375;125;69;0.40586
4815510;-0.17000;72.2500;125;69;0.40293
4815520;-0.17000;72.0625;125;69;0.39976
4815530;-0.17000;71.6250;125;69;0.39390
4815540;-0.16000;71.3750;125;69;0.39072
4815550;-0.15500;71.1875;125;69;0.38730
4815560;-0.15500;70.6250;125;69;0.38217
4815570;-0.15000;70.3125;125;69;0.37875
4815580;-0.14500;70.0000;125;69;0.37509
4815590;-0.13500;69.6875;125;69;0.37143
4815600;-0.12500;69.0000;125;69;0.36386
4815610;-0.12500;68.7500;125;69;0.35995
4815620;-0.12000;68.5000;125;69;0.35580
4815630;-0.11500;68.2500;125;69;0.35140
4815640;-0.10500;67.9375;125;69;0.34212
4815650;-0.09500;68.2500;125;69;0.33846
4815660;-0.08500;69.0625;125;69;0.33529
4815670;-0.07000;70.6875;125;69;0.33138
4815680;-0.06000;73.1875;125;69;0.32723
4815690;-0.04500;80.5000;125;69;0.31917
4815700;-0.02000;85.0000;125;69;0.31551
4815710;-0.00500;89.8125;125;69;0.31209
4815720;0.01000;94.7500;125;69;0.30867
4815730;0.03000;104.3750;125;69;0.30281
4815740;0.06000;108.6875;125;69;0.30037
4815750;0.08500;112.5625;125;69;0.29890
4815760;0.11000;118.6250;125;69;0.29841
4815770;0.15000;120.8125;125;69;0.29695
4815780;0.17500;122.4375;125;69;0.29646
4815790;0.20500;123.6250;125;69;0.29646
4815800;0.20500;123.6250;125;69;0.29646
4815810;0.19500;124.8125;125;69;0.29817
4815820;0.16000;124.5625;125;69;0.29939
4815830;0.10000;124.0625;125;69;0.30061
4815840;0.02500;122.3125;125;69;0.30354
4815850;-0.02500;121.0000;125;69;0.30549
4815860;-0.05500;119.5625;125;69;0.30794
4815870;-0.08500;118.0000;125;69;0.30989
4815880;-0.10000;114.4375;125;69;0.31306
4815890;-0.10500;112.5000;125;69;0.31502
4815900;-0.11500;110.4375;125;69;0.31770
4815910;-0.11500;108.3750;125;69;0.32210
4815920;-0.11500;104.0625;125;69;0.32894
4815930;-0.12000;101.8750;125;69;0.35409
4815940;-0.12000;99.7500;125;69;0.37363
4815950;-0.12000;97.6875;125;69;0.39390
4815960;-0.11500;94.1250;125;69;0.44347
4815970;-0.11500;92.6875;125;69;0.47448
4815980;-0.11500;91.5625;125;69;0.50745
4815990;-0.11000;90.6250;125;69;0.54090
4816000;-0.10500;89.8750;124;69;0.57363
4816010;-0.10500;88.8125;124;69;0.63370
4816020;-0.10000;88.5000;124;69;0.66032
4816030;-0.10000;88.2500;124;69;0.68400
4816040;-0.09500;88.0625;124;69;0.70501
4816050;-0.10000;87.8125;124;69;0.73626
4816060;-0.10000;87.6875;124;69;0.74579
4816070;-0.10000;87.5625;124;69;0.75507
4816080;-0.09500;87.3125;124;69;0.76288
4816090;-0.09500;86.8125;124;69;0.77289
4816100;-0.09500;86.4375;124;69;0.77460
4816110;-0.08500;86.0625;124;69;0.77411
4816120;-0.05500;85.2500;124;69;0.76630
4816130;-0.03500;84.8125;124;69;0.75922
4816140;-0.01500;84.3125;124;69;0.75018
4816150;-0.00500;83.8125;124;69;0.74017
4816160;0.02500;82.8125;124;69;0.71600
4816170;0.05500;82.3750;124;69;0.70183
4816180;0.07000;81.8750;124;69;0.68645
4816190;0.04000;81.3750;124;69;0.67009
4816200;0.01500;80.8750;124;69;0.65324
4816210;-0.01500;80.0000;124;69;0.61929
4816220;-0.05500;79.5625;124;69;0.60293
4816230;-0.10000;79.1250;124;69;0.58755
4816240;-0.12500;78.3125;124;69;0.55995
4816250;-0.12500;77.9375;124;69;0.54896
4816260;-0.12500;77.5625;124;69;0.53968
4816270;-0.12500;77.1875;124;69;0.53065
4816280;-0.11500;76.5000;124;69;0.51575
4816290;-0.11500;76.2500;124;69;0.50965
4816300;-0.07000;76.0000;124;69;0.50452
4816310;0.32500;75.7500;124;69;0.50012
4816320;0.80000;75.5000;124;69;0.49646
4816330;1.04500;75.0625;124;69;0.48987
4816340;0.24500;74.8750;124;69;0.48694
4816350;-0.21000;74.6875;124;69;0.48449
4816360;-0.25500;74.5000;124;69;0.48205
4816370;-0.20000;74.1250;124;69;0.47643
4816380;-0.19500;73.9375;124;69;0.47375
4816390;-0.19500;73.7500;124;69;0.47082
4816400;-0.19000;73.3125;124;69;0.46422
4816410;-0.19000;73.0625;124;69;0.46056
4816420;-0.18000;72.8125;124;69;0.45690
4816430;-0.17500;72.5625;124;69;0.45275
4816440;-0.17000;72.2500;124;69;0.44860
4816450;-0.15500;71.6250;124;69;0.44078
4816460;-0.15000;71.3125;124;69;0.43761
4816470;-0.14500;71.0000;124;69;0.43394
4816480;-0.14000;70.6875;124;69;0.43004
4816490;-0.13000;70.1875;124;69;0.42173
4816500;-0.12000;70.0000;124;69;0.41758
4816510;-0.10500;69.8750;124;69;0.41368
4816520;-0.09500;70.7500;124;69;0.40977
4816530;-0.08000;72.1875;124;69;0.40220
4816540;-0.07000;74.5000;124;69;0.39853
4816550;-0.05500;77.6875;124;69;0.39585
4816560;-0.03500;81.6250;124;69;0.39341
4816570;-0.01500;91.0000;124;69;0.38706
4816580;0.01000;96.1250;124;69;0.38413
4816590;0.02500;101.2500;124;69;0.38120
4816600;0.04500;106.2500;124;69;0.37875
4816610;0.06500;114.9375;124;69;0.37534
4816620;0.09500;118.5000;124;69;0.37436
4816630;0.12000;121.4375;124;69;0.37387
4816640;0.14500;125.6250;124;69;0.37387
4816650;0.18500;126.9375;124;69;0.37485
4816660;0.21000;127.8125;124;69;0.37607
4816670;0.22500;128.3125;124;69;0.37705
4816680;0.21000;128.4375;124;69;0.37802
4816690;0.17000;127.8125;124;69;0.37973
4816700;0.09500;127.1875;124;69;0.38071
4816710;0.04500;126.3125;124;69;0.38144
4816720;-0.00500;125.3125;124;69;0.38217
4816730;-0.04500;122.6250;124;69;0.38291
4816740;-0.06000;121.0625;124;69;0.38291
4816750;-0.07500;119.3750;124;69;0.38315
4816760;-0.08500;115.6875;124;69;0.38339
4816770;-0.09500;113.6875;124;69;0.38486
4816780;-0.09500;111.6875;124;69;0.38803
4816790;-0.10000;109.5000;124;69;0.39438
4816800;-0.10000;109.5000;124;69;0.39438
4816810;-0.10500;102.6250;124;69;0.43932
4816820;-0.10000;100.3750;124;69;0.46325
4816830;-0.09500;98.1875;124;69;0.49084
4816840;-0.09500;94.6875;124;69;0.55263
4816850;-0.09000;93.4375;124;69;0.57973
4816860;-0.08500;92.3750;124;69;0.60440
4816870;-0.08500;91.5625;124;69;0.63126
4816880;-0.08500;90.5000;124;69;0.68327
4816890;-0.08000;90.1875;124;69;0.70623
4816900;-0.08000;90.0000;124;69;0.72698
4816910;-0.08000;89.8750;124;69;0.74505
4816920;-0.07500;89.6250;124;69;0.77289
4816930;-0.08000;89.5000;124;69;0.78339
4816940;-0.08000;89.3125;124;69;0.79145
4816950;-0.08500;89.1250;124;69;0.79560
4816960;-0.08500;88.8750;124;69;0.79707
4816970;-0.08500;88.2500;124;69;0.79780
4816980;-0.07500;87.8750;124;69;0.79585
4816990;-0.06000;87.4375;124;69;0.79219
4817000;-0.03500;86.5000;124;69;0.78681
4817010;-0.00500;86.0625;124;69;0.77070
4817020;0.00000;85.5625;124;69;0.76020
4817030;0.01000;85.0625;124;69;0.74799
4817040;0.03500;84.0000;124;69;0.71893
4817050;0.06000;83.5000;124;69;0.70403
4817060;0.06000;83.0000;124;69;0.68913
4817070;0.04000;82.5625;124;69;0.67253
4817080;0.01000;82.0625;124;69;0.64274
4817090;-0.04500;81.1250;124;69;0.58022
4817100;-0.08500;80.6875;124;69;0.55922
4817110;-0.11500;80.2500;124;69;0.54164
4817120;-0.13000;79.3750;124;69;0.51306
4817130;-0.13500;78.9375;124;69;0.50159
4817140;-0.13500;78.5625;124;69;0.49182
4817150;-0.12500;78.1875;124;69;0.48400
4817160;-0.12500;77.8750;124;69;0.47766
4817170;-0.11000;77.1875;124;69;0.46667
4817180;0.03000;76.9375;124;69;0.46227
4817190;0.65500;76.6875;124;69;0.45861
4817200;1.06500;76.5000;124;69;0.45519
4817210;0.83500;76.1250;124;69;0.44908
4817220;0.05000;76.0000;124;69;0.44591
4817230;-0.26500;75.8125;124;69;0.44274
4817240;-0.21500;75.6875;124;69;0.43956
4817250;-0.19000;75.3750;124;69;0.43321
4817260;-0.19000;75.1875;124;69;0.43004
4817270;-0.19000;75.0000;124;69;0.42637
4817280;-0.18000;74.8125;124;69;0.42222
4817290;-0.17000;74.3125;124;69;0.41368
4817300;-0.16000;74.0625;124;69;0.40904
4817310;-0.15500;73.7500;124;69;0.40415
4817320;-0.15500;73.5000;124;69;0.39927
4817330;-0.14500;72.8750;124;69;0.38999
4817340;-0.13000;72.5000;124;69;0.38535
4817350;-0.12000;72.1875;124;69;0.38120
4817360;-0.11500;71.8125;124;69;0.37753
4817370;-0.10500;71.1875;124;69;0.36850
4817380;-0.09500;71.0000;124;69;0.36361
4817390;-0.08500;71.0000;124;69;0.35873
4817400;-0.07500;72.6250;124;69;0.34896
4817410;-0.06500;74.6875;124;69;0.34432
4817420;-0.04500;77.6250;124;69;0.33993
4817430;-0.02500;81.3750;124;69;0.33578
4817440;-0.01000;85.7500;124;69;0.33211
4817450;0.00500;95.5000;124;69;0.32674
4817460;0.03000;100.5625;124;69;0.32527
4817470;0.04500;105.4375;124;69;0.32357
4817480;0.06000;110.0625;124;69;0.32234
4817490;0.08500;117.8125;124;69;0.32088
4817500;0.10000;120.8125;124;69;0.32088
4817510;0.12500;123.1875;124;69;0.32137
4817520;0.16000;126.3125;124;69;0.32405
4817530;0.18500;127.1250;124;69;0.32576
4817540;0.20500;127.6250;124;69;0.32796
4817550;0.20500;127.7500;124;69;0.33016
4817560;0.17500;127.5625;124;69;0.33236
4817570;0.11500;126.5625;124;69;0.33700
4817580;0.06500;125.7500;124;69;0.33895
4817590;0.00500;124.6875;124;69;0.34042
4817600;-0.03500;123.4375;124;69;0.34164
4817610;-0.06500;120.5000;124;69;0.34310
4817620;-0.08500;118.8125;124;69;0.34310
4817630;-0.09500;117.0625;124;69;0.34286
4817640;-0.10500;115.1875;124;69;0.34286
4817650;-0.10500;113.1875;124;69;0.34359
4817660;-0.10500;111.0625;124;69;0.34579
4817670;-0.10500;108.9375;124;69;0.35018
4817680;-0.10500;104.3125;124;69;0.36947
4817690;-0.10500;101.9375;124;69;0.38559
4817700;-0.10000;99.5000;124;69;0.40610
4817710;-0.09500;97.1250;124;69;0.43028
4817720;-0.09000;94.8750;124;69;0.45714
4817730;-0.08500;91.1875;124;69;0.51429
4817740;-0.08000;89.8125;124;69;0.54237
4817750;-0.08000;88.7500;124;69;0.56874
4817760;-0.07500;88.0000;124;69;0.58974
4817770;-0.07500;87.1250;124;69;0.62466
4817780;-0.07500;86.8750;124;69;0.64103
4817790;-0.07000;86.8125;124;69;0.65543
4817800;-0.07000;86.8125;124;69;0.65543
4817810;-0.07500;86.6250;124;69;0.68376
4817820;-0.07500;86.5000;124;69;0.68840
4817830;-0.07500;86.3125;124;69;0.69084
4817840;-0.07500;86.1250;124;69;0.69109
4817850;-0.07500;85.5625;124;69;0.68474
4817860;-0.04500;85.1875;124;69;0.67888
4817870;-0.02000;84.7500;124;69;0.67155
4817880;-0.03000;83.8125;124;69;0.65201
4817890;-0.02500;83.3125;124;69;0.64005
4817900;0.01000;82.7500;124;69;0.62662
4817910;0.05000;82.2500;124;69;0.61172
4817920;0.07500;81.7500;124;69;0.59560
4817930;0.05500;80.6875;124;69;0.55995
4817940;0.02500;80.1875;124;69;0.54066
4817950;-0.00500;79.6875;124;69;0.52039
4817960;-0.04000;78.6875;124;69;0.50183
4817970;-0.09000;78.1875;124;69;0.46520
4817980;-0.10500;77.6875;124;69;0.44542
4817990;-0.11500;77.2500;124;69;0.42613
4818000;-0.11500;76.4375;124;69;0.39072
4818010;-0.11500;76.0000;124;69;0.37509
4818020;-0.10500;75.6250;124;69;0.36117
4818030;-0.10500;75.2500;124;69;0.34872
4818040;-0.03500;74.5000;124;69;0.32845
4818050;0.18000;74.1875;124;69;0.32137
4818060;0.68500;73.9375;124;69;0.31575
4818070;0.93000;73.6250;124;69;0.30965
4818080;0.45500;73.4375;124;69;0.30403
4818090;-0.17000;72.9375;124;69;0.29353
4818100;-0.24000;72.6875;124;69;0.28864
4818110;-0.18000;72.5000;124;69;0.28400
4818120;-0.15500;72.0625;124;69;0.27497
4818130;-0.14500;71.8125;124;69;0.27057
4818140;-0.14500;71.5625;124;69;0.26618
4818150;-0.14000;71.3125;124;69;0.26178
4818160;-0.13500;70.8125;124;69;0.25592
4818170;-0.12500;70.5625;124;69;0.25226
4818180;-0.12000;70.2500;124;69;0.24811
4818190;-0.11500;70.0000;124;69;0.24371
4818200;-0.11000;69.4375;124;69;0.23468
4818210;-0.10500;69.1875;124;69;0.23004
4818220;-0.09500;68.8750;124;69;0.22515
4818230;-0.09500;68.5625;124;69;0.22027
4818240;-0.08000;68.3750;124;69;0.21538
4818250;-0.06500;68.0000;124;69;0.20659
4818260;-0.05500;67.8750;124;69;0.20366
4818270;-0.04500;67.9375;124;69;0.19927
4818280;-0.03000;68.3750;124;69;0.19438
4818290;-0.01000;71.3125;124;69;0.18462
4818300;0.00500;73.9375;124;69;0.17973
4818310;0.02000;77.3750;124;69;0.17485
4818320;0.04000;85.8125;124;69;0.16606
4818330;0.05000;90.5000;124;69;0.16190
4818340;0.07500;95.2500;124;69;0.15800
4818350;0.09500;99.9375;124;69;0.15433
4818360;0.12000;104.3750;124;69;0.15238
4818370;0.14500;111.9375;124;69;0.14921
4818380;0.18500;114.8750;124;69;0.14725
4818390;0.21500;117.2500;124;69;0.14579
4818400;0.25500;120.2500;124;69;0.14457
4818410;0.27500;121.0000;124;69;0.14383
4818420;0.26500;121.3750;124;69;0.14432
4818430;0.20500;121.3125;124;69;0.14554
4818440;0.15000;120.9375;124;69;0.14725
4818450;0.08500;119.3750;124;69;0.15238
4818460;0.03000;118.1875;124;69;0.15629
4818470;-0.01000;116.8125;124;69;0.15995
4818480;-0.03000;115.2500;124;69;0.16386
4818490;-0.04500;111.8125;124;69;0.17216
4818500;-0.05500;109.8750;124;69;0.17631
4818510;-0.06000;107.8750;124;69;0.18071
4818520;-0.06500;105.8125;124;69;0.18559
4818530;-0.07500;101.5625;124;69;0.19878
4818540;-0.07500;99.3125;124;69;0.20879
4818550;-0.07500;97.1250;124;69;0.22222
4818560;-0.07500;92.8125;124;69;0.25470
4818570;-0.07000;90.9375;124;69;0.27766
4818580;-0.06500;89.3125;124;69;0.30501
4818590;-0.06500;87.9375;124;69;0.33553
4818600;-0.06000;86.8750;124;69;0.36801
4818610;-0.05500;85.4375;124;69;0.43419
4818620;-0.05500;85.0000;124;69;0.46618
4818630;-0.05500;84.6875;124;69;0.49621
4818640;-0.05500;84.5000;124;69;0.52381
4818650;-0.05500;84.3125;124;69;0.56777
4818660;-0.06000;84.2500;124;69;0.58291
4818670;-0.06500;84.2500;124;69;0.59780
4818680;-0.06500;84.1875;124;69;0.61074
4818690;-0.07000;83.9375;124;69;0.62930
4818700;-0.07000;83.7500;124;69;0.63468
4818710;-0.06500;83.5000;124;69;0.63736
4818720;-0.05500;83.1875;124;69;0.63761
4818730;-0.03500;82.5000;124;69;0.63126
4818740;-0.00500;82.0625;124;69;0.62491
4818750;0.00500;81.6250;124;69;0.61636
4818760;0.02000;80.6875;124;69;0.59634
4818770;0.05000;80.1875;124;69;0.58413
4818780;0.08500;79.6875;124;69;0.57021
4818790;0.08000;79.1875;124;69;0.55507
4818800;0.05000;78.6875;124;69;0.53895
4818810;0.01000;77.7500;124;69;0.50403
4818820;-0.03500;77.2500;124;69;0.48596
4818830;-0.07000;76.8125;124;69;0.46789
4818840;-0.10500;75.9375;124;69;0.43394
4818850;-0.11000;75.5000;124;69;0.42002
4818860;-0.11000;75.0625;124;69;0.40830
4818870;-0.11000;74.6875;124;69;0.39658
4818880;-0.10500;74.3125;124;69;0.38559
4818890;-0.10500;73.6875;124;69;0.36679
4818900;-0.09500;73.3750;124;69;0.35946
4818910;0.04000;73.1250;124;69;0.35311
4818920;0.56000;72.6250;124;69;0.34310
4818930;0.90000;72.3750;124;69;0.33919
4818940;0.68000;72.1875;124;69;0.33578
4818950;-0.03000;72.0000;124;69;0.33260
4818960;-0.30000;71.6250;124;69;0.32869
4818970;-0.23000;71.4375;124;69;0.32674
4818980;-0.18500;71.3125;124;69;0.32454
4818990;-0.18000;71.1250;124;69;0.32234
4819000;-0.17000;70.8750;124;69;0.31990
4819010;-0.17000;70.4375;124;69;0.31551
4819020;-0.16000;70.1875;124;69;0.31306
4819030;-0.15500;69.9375;124;69;0.31038
4819040;-0.14500;69.6875;124;69;0.30769
4819050;-0.14000;69.1250;124;69;0.30256
4819060;-0.13000;68.8125;124;69;0.30061
4819070;-0.12500;68.5000;124;69;0.29792
4819080;-0.11000;67.8750;124;69;0.29133
4819090;-0.10000;67.6250;124;69;0.28742
4819100;-0.08500;67.3125;124;69;0.28327
4819110;-0.07500;67.0625;124;69;0.27912
4819120;-0.06500;66.8750;124;69;0.27497
4819130;-0.05500;66.7500;124;69;0.29011
4819140;-0.04000;67.1875;124;69;0.32161
4819150;-0.02500;68.1875;124;69;0.33529
4819160;-0.01000;69.9375;124;69;0.34090
4819170;0.01000;75.7500;124;69;0.34164
4819180;0.02000;79.5625;124;69;0.33895
4819190;0.03500;83.8750;124;69;0.33578
4819200;0.03500;83.8750;124;69;0.33578
4819210;0.03500;83.8750;124;69;0.33578
4819220;0.03500;83.8750;124;69;0.33578
4819230;0.13000;106.1875;124;69;0.31868
4819240;0.16000;109.7500;124;69;0.31600
4819250;0.20500;115.1875;124;69;0.31282
4819260;0.23000;117.0625;124;69;0.31258
4819270;0.25500;118.3750;124;69;0.31209
4819280;0.25500;119.6250;124;69;0.31160
4819290;0.22500;119.6875;124;69;0.31184
4819300;0.16500;119.3750;124;69;0.31258
4819310;0.08500;118.7500;124;69;0.31380
4819320;0.04000;117.8125;124;69;0.31526
4819330;-0.00500;115.3750;124;69;0.31844
4819340;-0.03500;113.8125;124;69;0.32015
4819350;-0.06500;112.1875;124;69;0.32234
4819360;-0.07000;110.3125;124;69;0.32479
4819370;-0.08000;106.4375;124;69;0.32918
4819380;-0.09000;104.3125;124;69;0.33187
4819390;-0.09000;102.1875;124;69;0.33504
4819400;-0.09500;100.0625;124;69;0.33968
4819410;-0.09500;95.6875;124;69;0.35629
4819420;-0.09000;93.4375;124;69;0.36947
4819430;-0.09000;91.3125;124;69;0.38681
4819440;-0.08500;87.5000;124;69;0.43272
4819450;-0.08500;86.0000;124;69;0.45617
4819460;-0.08000;84.8750;124;69;0.47961
4819470;-0.07500;84.0000;124;69;0.50672
4819480;-0.07500;83.3125;124;69;0.53553
4819490;-0.07500;82.5625;124;69;0.59170
4819500;-0.07500;82.4375;124;69;0.61734
4819510;-0.07500;82.3750;124;69;0.64029
4819520;-0.08000;82.3750;124;69;0.66056
4819530;-0.08000;82.4375;124;69;0.69328
4819540;-0.08500;82.4375;124;69;0.70549
4819550;-0.08500;82.4375;124;69;0.71331
4819560;-0.08500;82.3125;124;69;0.71819
4819570;-0.08500;82.0000;124;69;0.72479
4819580;-0.08000;81.7500;124;69;0.72552
4819590;-0.06500;81.4375;124;69;0.72405
4819600;-0.04000;80.7500;124;69;0.71526
4819610;-0.02500;80.3750;124;69;0.70794
4819620;-0.01500;80.0000;124;69;0.69890
4819630;-0.00500;79.6250;124;69;0.68816
4819640;0.03000;78.7500;124;69;0.67619
4819650;0.06000;78.3125;124;69;0.64982
4819660;0.04500;77.8125;124;69;0.63663
4819670;-0.00500;77.3750;124;69;0.62149
4819680;-0.02500;76.8750;124;69;0.60513
4819690;-0.06500;76.0625;124;69;0.57045
4819700;-0.10500;75.6250;124;69;0.55287
4819710;-0.13500;75.2500;124;69;0.53602
4819720;-0.14000;74.8750;124;69;0.52015
4819730;-0.14000;74.1250;124;69;0.49304
4819740;-0.14000;73.7500;124;69;0.48181
4819750;-0.13000;73.3750;124;69;0.47326
4819760;-0.12500;73.0625;124;69;0.46642
4819770;-0.09500;72.4375;124;69;0.45397
4819780;0.16000;72.1875;124;69;0.44884
4819790;0.55500;71.9375;124;69;0.44444
4819800;0.55500;71.9375;124;69;0.44444
4819810;0.54500;71.3125;124;69;0.43541
4819820;-0.27500;71.0625;124;69;0.43346
4819830;-0.30000;70.8750;124;69;0.43175
4819840;-0.21000;70.5625;124;69;0.42857
4819850;-0.19000;70.3750;124;69;0.42735
4819860;-0.18500;70.1875;124;69;0.42637
4819870;-0.18000;70.0000;124;69;0.42491
4819880;-0.18000;69.7500;124;69;0.42320
4819890;-0.17000;69.2500;124;69;0.41954
4819900;-0.16500;69.0000;124;69;0.41758
4819910;-0.16000;68.6875;124;69;0.41538
4819920;-0.15500;68.1250;124;69;0.41050
4819930;-0.14500;67.8125;124;69;0.40806
4819940;-0.14000;67.5625;124;69;0.40537
4819950;-0.12500;67.2500;124;69;0.40317
4819960;-0.11500;66.9375;124;69;0.40147
4819970;-0.11000;66.3750;124;69;0.39560
4819980;-0.09500;66.1250;124;69;0.39219
4819990;-0.08500;66.0000;124;69;0.38852
4820000;-0.07000;66.0000;124;69;0.38462
4820010;-0.04500;67.1875;124;69;0.37680
4820020;-0.03500;68.8125;124;69;0.37265
4820030;-0.01500;71.2500;124;69;0.36850
4820040;0.00500;78.2500;124;69;0.35995
4820050;0.02500;82.6250;124;69;0.35678
4820060;0.04500;87.2500;124;69;0.35433
4820070;0.10000;92.0625;124;69;0.35165
4820080;0.13000;96.8125;124;69;0.34872
4820090;0.15500;105.6250;124;69;0.34261
4820100;0.19000;109.3125;124;69;0.33968
4820110;0.19500;112.5625;124;69;0.33724
4820120;0.21500;115.1875;124;69;0.33504
4820130;0.24000;118.8125;124;69;0.33211
4820140;0.28500;119.8125;124;69;0.33114
4820150;0.29000;120.4375;124;69;0.33138
4820160;0.23500;120.6250;124;69;0.33211
4820170;0.16500;120.0000;124;69;0.33358
4820180;0.09000;119.3125;124;69;0.33431
4820190;0.04500;118.3125;124;69;0.33529
4820200;-0.01000;115.6875;124;69;0.33797
4820210;-0.03000;114.1250;124;69;0.33993
4820220;-0.04500;112.4375;124;69;0.34188
4820230;-0.05500;110.6250;124;69;0.34383
4820240;-0.06000;108.6875;124;69;0.34603
4820250;-0.08000;104.6250;124;69;0.35140
4820260;-0.09000;102.5000;124;69;0.35556
4820270;-0.07500;100.3750;124;69;0.36142
4820280;-0.07000;96.0625;124;69;0.38120
4820290;-0.07000;93.9375;124;69;0.39658
4820300;-0.07000;91.8750;124;69;0.41612
4820310;-0.05500;90.0625;124;69;0.43932
4820320;-0.03500;88.4375;124;69;0.46569
4820330;-0.02500;86.0000;124;69;0.52430
4820340;-0.03000;85.1250;124;69;0.55433
4820350;-0.04000;84.4375;124;69;0.57973
4820360;-0.04500;83.9375;124;69;0.60195
4820370;-0.04500;83.3125;124;69;0.64835
4820380;-0.04500;83.1250;124;69;0.66935
4820390;-0.04500;83.0000;124;69;0.68791
4820400;-0.04000;82.8750;124;69;0.70403
4820410;-0.04500;82.7500;124;69;0.72821
4820420;-0.04500;82.6875;124;69;0.73651
4820430;-0.04500;82.5625;124;69;0.74237
4820440;-0.04500;82.3750;124;69;0.74579
4820450;-0.04000;81.8750;124;69;0.74505
4820460;-0.02500;81.5000;124;69;0.74115
4820470;0.00500;81.1250;124;69;0.73626
4820480;0.02000;80.6875;124;69;0.72967
4820490;0.03000;79.8125;124;69;0.71136
4820500;0.05000;79.3750;124;69;0.69988
4820510;0.07500;78.9375;124;69;0.68694
4820520;0.10500;78.5000;124;69;0.67253
4820530;0.08000;77.6250;124;69;0.64029
4820540;0.04500;77.1875;124;69;0.62320
4820550;0.01500;76.8125;124;69;0.60733
4820560;-0.02500;75.9375;124;69;0.57582
4820570;-0.05500;75.5625;124;69;0.55922
4820580;-0.08500;75.1250;124;69;0.54261
4820590;-0.08500;74.7500;124;69;0.52674
4820600;-0.08500;74.3125;124;69;0.51184
4820610;-0.08500;73.5625;124;69;0.48596
4820620;-0.08500;73.2500;124;69;0.47473
4820630;-0.08000;72.8750;124;69;0.46471
4820640;-0.03500;72.3125;124;69;0.44884
4820650;0.15500;72.0000;124;69;0.44298
4820660;0.75500;71.7500;124;69;0.43834
4820670;0.99000;71.5000;124;69;0.43370
4820680;0.55500;71.0000;124;69;0.42930
4820690;-0.11500;70.7500;124;69;0.42125
4820700;-0.24000;70.5625;124;69;0.41758
4820710;-0.14500;70.3750;124;69;0.41441
4820720;-0.13000;70.1875;124;69;0.41123
4820730;-0.13000;69.8750;124;69;0.40562
4820740;-0.12500;69.6875;124;69;0.40293
4820750;-0.11500;69.5000;124;69;0.40073
4820760;-0.11000;69.2500;124;69;0.39902
4820770;-0.09500;68.7500;124;69;0.39414
4820780;-0.07000;68.5000;124;69;0.39121
4820790;-0.06500;68.1875;124;69;0.38828
4820800;-0.06500;68.1875;124;69;0.38828
4820810;-0.05000;67.3125;124;69;0.37802
4820820;0.00000;67.0000;124;69;0.37411
4820830;0.02500;66.7500;124;69;0.37021
4820840;0.02500;66.3125;124;69;0.36264
4820850;0.02500;66.1250;124;69;0.35995
4820860;0.02000;66.0625;124;69;0.35775
4820870;0.00500;66.1875;124;69;0.35458
4820880;0.00000;66.8125;124;69;0.35116
4820890;0.00000;70.2500;124;69;0.34408
4820900;0.01000;73.2500;124;69;0.34042
4820910;0.01500;76.9375;124;69;0.33651
4820920;0.03000;81.1875;124;69;0.33260
4820930;0.05000;90.6875;124;69;0.32527
4820940;0.06500;95.5625;124;69;0.32186
4820950;0.08500;100.3125;124;69;0.31966
4820960;0.13000;108.8125;124;69;0.31600
4820970;0.16500;112.3125;124;69;0.31355
4820980;0.19000;115.2500;124;69;0.31111
4820990;0.21500;117.6250;124;69;0.30891
4821000;0.24000;119.3750;124;69;0.30696
4821010;0.26000;121.4375;124;69;0.30379
4821020;0.25500;121.8125;124;69;0.30256
4821030;0.22000;121.8750;124;69;0.30183
4821040;0.16500;121.0000;124;69;0.30134
4821050;0.10500;120.1875;124;69;0.30232
4821060;0.04500;119.1250;124;69;0.30403
4821070;0.01000;117.9375;124;69;0.30574
4821080;0.00000;116.5000;124;69;0.30745
4821090;-0.00500;113.2500;124;69;0.31160
4821100;-0.02500;111.4375;124;69;0.31380
4821110;-0.04000;109.5000;124;69;0.31624
4821120;-0.04500;105.5000;124;69;0.32405
4821130;-0.05000;103.4375;124;69;0.33040
4821140;-0.05500;101.3125;124;69;0.33944
4821150;-0.06500;99.1875;124;69;0.34994
4821160;-0.07000;97.0000;124;69;0.36264
4821170;-0.07000;92.7500;124;69;0.40244
4821180;-0.06500;90.8125;124;69;0.42051
4821190;-0.05500;89.0625;124;69;0.43858
4821200;-0.04500;87.6875;124;69;0.46569
4821210;-0.03500;85.6250;124;69;0.53065
4821220;-0.02500;85.0000;124;69;0.56386
4821230;-0.02000;84.5000;124;69;0.59536
4821240;-0.01500;83.9375;124;69;0.64811
4821250;-0.02500;83.8750;124;69;0.66716
4821260;-0.03500;83.8125;124;69;0.68645
4821270;-0.06500;83.7500;124;69;0.70452
4821280;-0.10500;83.6875;124;69;0.73480
4821290;-0.11500;83.5625;124;69;0.74603
4821300;-0.11000;83.3750;124;69;0.75458
4821310;-0.08500;83.1875;124;69;0.76020
4821320;-0.06000;83.0000;124;69;0.76337
4821330;-0.01500;82.3125;124;69;0.76190
4821340;0.04000;81.9375;124;69;0.75775
4821350;0.07000;81.5625;124;69;0.75140
4821360;0.07000;81.2500;124;69;0.74359
4821370;0.10000;80.6250;124;69;0.72259
4821380;0.13000;80.3125;124;69;0.70965
4821390;0.13500;80.0625;124;69;0.69499
4821400;0.08000;79.5625;124;69;0.66178
4821410;0.03500;79.2500;124;69;0.64347
4821420;-0.00500;78.9375;124;69;0.62393
4821430;-0.06500;78.5625;124;69;0.60391
4821440;-0.10000;78.1875;124;69;0.58339
4821450;-0.12500;77.4375;124;69;0.54823
4821460;-0.14500;77.0000;124;69;0.53040
4821470;-0.15500;76.6250;124;69;0.51282
4821480;-0.16500;75.8750;124;69;0.48156
4821490;-0.17000;75.5625;124;69;0.46838
4821500;-0.17000;75.2500;124;69;0.45665
4821510;-0.10000;74.9375;124;69;0.44640
4821520;0.23000;74.2500;124;69;0.43761
4821530;0.86000;73.9375;124;69;0.42320
4821540;0.83500;73.6250;124;69;0.41685
4821550;0.15000;73.3750;124;69;0.41148
4821560;-0.33500;73.0625;124;69;0.40659
4821570;-0.31000;72.6250;124;69;0.39463
4821580;-0.25000;72.3750;124;69;0.38779
4821590;-0.23000;72.1875;124;69;0.38095
4821600;-0.23000;71.9375;124;69;0.37460
4821610;-0.22500;71.4375;124;69;0.36386
4821620;-0.22000;71.1875;124;69;0.35995
4821630;-0.21500;70.8750;124;69;0.35726
4821640;-0.20500;70.1875;124;69;0.35507
4821650;-0.19500;69.7500;124;69;0.35531
4821660;-0.18000;69.3750;124;69;0.35580
4821670;-0.17000;68.9375;124;69;0.35629
4821680;-0.15500;68.5000;124;69;0.35653
4821690;-0.13500;67.8125;124;69;0.35580
4821700;-0.12500;67.4375;124;69;0.35409
4821710;-0.10500;67.1250;124;69;0.35189
4821720;-0.09000;66.8125;124;69;0.34945
4821730;-0.07500;66.7500;124;69;0.34359
4821740;-0.05500;67.3125;124;69;0.34115
4821750;-0.04500;68.5625;124;69;0.33968
4821760;-0.02000;73.6250;124;69;0.33846
4821770;-0.00500;77.3750;124;69;0.33822
4821780;0.01000;81.8125;124;69;0.33797
4821790;0.03000;86.6250;124;69;0.33797
4821800;0.03000;86.6250;124;69;0.33797
4821810;0.06500;101.7500;124;69;0.33797
4821820;0.08500;106.4375;124;69;0.33797
4821830;0.10000;110.6875;124;69;0.33748
4821840;0.12500;117.5625;124;69;0.33700
4821850;0.15000;120.1250;124;69;0.33724
4821860;0.17500;122.1250;124;69;0.33700
4821870;0.19500;123.6250;124;69;0.33651
4821880;0.20000;125.1875;124;69;0.33480
4821890;0.17500;125.4375;124;69;0.33407
4821900;0.12500;125.3750;124;69;0.33333
4821910;0.06000;125.0000;124;69;0.33260
4821920;-0.00500;124.3125;124;69;0.33211
4821930;-0.06500;122.3125;124;69;0.33162
4821940;-0.09500;121.0000;124;69;0.33162
4821950;-0.12000;119.4375;124;69;0.33211
4821960;-0.13500;116.0000;124;69;0.33260
4821970;-0.15500;114.1250;124;69;0.33236
4821980;-0.16000;112.1875;124;69;0.33236
4821990;-0.16000;110.1250;124;69;0.33333
4822000;-0.16000;105.8125;124;69;0.34115
4822010;-0.16000;103.5625;124;69;0.34994
4822020;-0.16000;101.3125;124;69;0.36361
4822030;-0.16000;99.1250;124;69;0.38242
4822040;-0.15500;97.0000;124;69;0.40635
4822050;-0.15500;93.4375;124;69;0.45543
4822060;-0.15500;92.0000;124;69;0.48620
4822070;-0.15500;90.8125;124;69;0.51990
4822080;-0.15000;89.8125;124;69;0.55458
4822090;-0.14500;88.3750;124;69;0.62149
4822100;-0.14500;87.9375;124;69;0.65226
4822110;-0.14000;87.6250;124;69;0.68059
4822120;-0.14000;87.3750;124;69;0.70623
4822130;-0.14500;87.0000;124;69;0.74969
4822140;-0.14500;86.8750;124;69;0.76728
4822150;-0.14500;86.6875;124;69;0.77949
4822160;-0.14500;86.5000;124;69;0.78803
4822170;-0.15500;86.0625;124;69;0.80366
4822180;-0.16000;85.8125;124;69;0.80904
4822190;-0.15500;85.5000;124;69;0.81197
4822200;-0.14500;84.8125;124;69;0.81270
4822210;-0.11500;84.3750;124;69;0.80659
4822220;-0.09500;83.9375;124;69;0.80049
4822230;-0.08500;83.5000;124;69;0.79219
4822240;-0.07500;83.1250;124;69;0.78217
4822250;-0.04500;82.2500;124;69;0.75873
4822260;-0.02500;81.7500;124;69;0.74481
4822270;-0.04500;81.3125;124;69;0.72943
4822280;-0.07000;80.8750;124;69;0.71282
4822290;-0.09500;80.1250;124;69;0.67741
4822300;-0.15500;79.6875;124;69;0.65934
4822310;-0.19000;79.3125;124;69;0.64176
4822320;-0.22000;78.9375;124;69;0.62466
4822330;-0.22000;78.1250;124;69;0.59316
4822340;-0.22500;77.7500;124;69;0.57924
4822350;-0.22000;77.3750;124;69;0.56752
4822360;-0.21000;76.6875;124;69;0.54774
4822370;-0.21000;76.3125;124;69;0.53895
4822380;-0.19000;76.0000;124;69;0.53138
4822390;0.00500;75.6875;124;69;0.52479
4822400;0.55000;75.4375;124;69;0.51893
4822410;1.00000;74.9375;124;69;0.50891
4822420;0.39000;74.6875;124;69;0.50452
4822430;-0.19500;74.4375;124;69;0.50037
4822440;-0.35500;74.2500;124;69;0.49621
4822450;-0.28000;73.8750;124;69;0.48938
4822460;-0.27000;73.7500;124;69;0.48571
4822470;-0.26500;73.5000;124;69;0.48181
4822480;-0.26000;73.0625;124;69;0.47790
4822490;-0.25000;72.8750;124;69;0.47033
4822500;-0.25000;72.6250;124;69;0.46667
4822510;-0.24500;72.3125;124;69;0.46276
4822520;-0.24000;72.0625;124;69;0.45861
4822530;-0.23500;71.4375;124;69;0.45031
4822540;-0.23000;71.1250;124;69;0.44615
4822550;-0.21000;70.8750;124;69;0.44249
4822560;-0.20000;70.5625;124;69;0.43883
4822570;-0.20000;70.0000;124;69;0.43077
4822580;-0.19500;69.7500;124;69;0.42637
4822590;-0.18000;69.5625;124;69;0.42173
4822600;-0.17000;69.5625;124;69;0.41734
4822610;-0.16000;70.6875;124;69;0.40855
4822620;-0.14500;72.3125;124;69;0.40440
4822630;-0.13000;74.8125;124;69;0.40024
4822640;-0.11000;78.1250;124;69;0.39609
4822650;-0.09000;86.8750;124;69;0.39023
4822660;-0.07000;91.8750;124;69;0.38706
4822670;-0.03500;97.0000;124;69;0.38364
4822680;-0.01500;102.0625;124;69;0.38046
4822690;0.01000;111.3750;124;69;0.37534
4822700;0.03500;115.3750;124;69;0.37314
4822710;0.07000;118.8125;124;69;0.37167
4822720;0.09500;121.6250;124;69;0.37045
4822730;0.13000;125.5625;124;69;0.36972
4822740;0.16500;126.7500;124;69;0.36996
4822750;0.17500;127.5625;124;69;0.37070
4822760;0.17000;127.9375;124;69;0.37167
4822770;0.13000;127.8750;124;69;0.37314
4822780;0.08000;127.4375;124;69;0.37387
4822790;0.02000;126.7500;124;69;0.37436
4822800;0.02000;126.7500;124;69;0.37436
4822810;-0.07500;123.5000;124;69;0.37558
4822820;-0.07500;123.5000;124;69;0.37558
4822830;-0.13000;120.4375;124;69;0.37558
4822840;-0.14000;116.9375;124;69;0.37558
4822850;-0.14500;115.0625;124;69;0.37705
4822860;-0.15500;113.0625;124;69;0.37875
4822870;-0.15500;111.0000;124;69;0.38217
4822880;-0.15500;106.6875;124;69;0.39805
4822890;-0.15000;104.3750;124;69;0.41245
4822900;-0.14500;102.1250;124;69;0.43175
4822910;-0.14500;99.9375;124;69;0.45543
4822920;-0.14500;97.9375;124;69;0.48278
4822930;-0.14000;94.6875;124;69;0.54530
4822940;-0.13500;93.4375;124;69;0.57778
4822950;-0.13000;92.4375;124;69;0.60537
4822960;-0.12500;91.0000;124;69;0.62979
4822970;-0.12500;90.5625;124;69;0.68205
4822980;-0.12500;90.2500;124;69;0.70623
4822990;-0.12500;90.0000;124;69;0.72821
4823000;-0.12000;89.6250;124;69;0.76435
4823010;-0.12000;89.5000;124;69;0.77851
4823020;-0.12000;89.3125;124;69;0.79023
4823030;-0.12000;89.1875;124;69;0.80000
4823040;-0.12000;88.6875;124;69;0.81074
4823050;-0.12000;88.3750;124;69;0.81148
4823060;-0.10500;88.0000;124;69;0.81172
4823070;-0.08500;87.6250;124;69;0.81074
4823080;-0.05500;87.1875;124;69;0.80806
4823090;-0.03500;86.2500;124;69;0.79683
4823100;-0.02500;85.7500;124;69;0.78877
4823110;-0.00500;85.2500;124;69;0.77900
4823120;0.02000;84.3125;124;69;0.76752
4823130;0.03000;83.8125;124;69;0.74017
4823140;0.00500;83.3125;124;69;0.72576
4823150;-0.02500;82.8125;124;69;0.71136
4823160;-0.07500;81.8750;124;69;0.67888
4823170;-0.11500;81.4375;124;69;0.66178
4823180;-0.15500;80.9375;124;69;0.64493
4823190;-0.18000;80.5000;124;69;0.62857
4823200;-0.18000;80.0625;124;69;0.61294
4823210;-0.18000;79.1875;124;69;0.58535
4823220;-0.17500;78.8125;124;69;0.57338
4823230;-0.17000;78.4375;124;69;0.54408
4823240;-0.17500;77.7500;124;69;0.48498
4823250;-0.11500;77.4375;124;69;0.47155
4823260;0.24500;77.1875;124;69;0.46203
4823270;0.95000;76.8750;124;69;0.45470
4823280;0.98000;76.6250;124;69;0.44884
4823290;0.28000;76.0625;124;69;0.43932
4823300;-0.30500;75.8125;124;69;0.43516
4823310;-0.28000;75.5625;124;69;0.43126
4823320;-0.27000;75.3125;124;69;0.42735
4823330;-0.26000;74.8125;124;69;0.41905
4823340;-0.23500;74.5000;124;69;0.41490
4823350;-0.22000;74.1875;124;69;0.41099
4823360;-0.21000;73.5000;124;69;0.40171
4823370;-0.20000;73.1250;124;69;0.39658
4823380;-0.18000;72.6875;124;69;0.39170
4823390;-0.17000;72.2500;124;69;0.38681
4823400;-0.16000;71.8125;124;69;0.38193
4823410;-0.14500;71.0625;124;69;0.37265
4823420;-0.13000;70.6875;124;69;0.36801
4823430;-0.12000;70.3125;124;69;0.36337
4823440;-0.10500;69.8750;124;69;0.35873
4823450;-0.09000;69.1875;124;69;0.35116
4823460;-0.07500;69.0000;124;69;0.34676
4823470;-0.06500;69.0000;124;69;0.34237
4823480;-0.04500;70.7500;124;69;0.33333
4823490;-0.03500;72.8125;124;69;0.32894
4823500;-0.01500;75.7500;124;69;0.32503
4823510;-0.00500;79.5000;124;69;0.32137
4823520;0.02000;88.6875;124;69;0.31477
4823530;0.03000;93.7500;124;69;0.31209
4823540;0.05000;98.8750;124;69;0.31038
4823550;0.07500;103.8125;124;69;0.30916
4823560;0.09000;108.5000;124;69;0.30769
4823570;0.12000;116.1875;124;69;0.30525
4823580;0.13500;119.1875;124;69;0.30427
4823590;0.16500;121.5625;124;69;0.30354
4823600;0.19500;124.7500;124;69;0.30281
4823610;0.21000;125.6875;124;69;0.30305
4823620;0.22000;126.1875;124;69;0.30330
4823630;0.19500;126.3750;124;69;0.30354
4823640;0.15500;126.2500;124;69;0.30354
4823650;0.09000;125.2500;124;69;0.30403
4823660;0.05000;124.4375;124;69;0.30403
4823670;0.00000;123.3750;124;69;0.30354
4823680;-0.03500;120.6875;124;69;0.30134
4823690;-0.05500;119.0625;124;69;0.29988
4823700;-0.06500;117.3750;124;69;0.29817
4823710;-0.07500;115.5000;124;69;0.29646
4823720;-0.08000;111.5000;124;69;0.29475
4823730;-0.08500;109.4375;124;69;0.29451
4823740;-0.08500;107.2500;124;69;0.29719
4823750;-0.08500;105.0000;124;69;0.30232
4823760;-0.08500;100.4375;124;69;0.32527
4823770;-0.09000;98.2500;124;69;0.34359
4823780;-0.09000;96.1875;124;69;0.36630
4823790;-0.09000;94.3750;124;69;0.39243
4823800;-0.08500;91.5000;124;69;0.45031
4823810;-0.08500;91.5000;124;69;0.45031
4823820;-0.08500;89.5625;124;69;0.50769
4823830;-0.08500;88.8750;124;69;0.53382
4823840;-0.09000;87.9375;124;69;0.57558
4823850;-0.09000;87.6250;124;69;0.58950
4823860;-0.08500;87.4375;124;69;0.60342
4823870;-0.09000;87.2500;124;69;0.61563
4823880;-0.09500;87.0625;124;69;0.62589
4823890;-0.09500;86.6875;124;69;0.63932
4823900;-0.09500;86.4375;124;69;0.64249
4823910;-0.08500;86.1250;124;69;0.64322
4823920;-0.07500;85.8125;124;69;0.64176
4823930;-0.05000;85.0000;124;69;0.63248
4823940;-0.02500;84.5625;124;69;0.62540
4823950;-0.01000;84.1250;124;69;0.61685
4823960;0.00000;83.1250;124;69;0.59487
4823970;0.02500;82.6250;124;69;0.58169
4823980;0.06000;82.1250;124;69;0.56728
4823990;0.05000;81.6250;124;69;0.55165
4824000;0.01500;81.1250;123;69;0.53455
4824010;-0.02500;80.1250;123;69;0.49744
4824020;-0.05500;79.6250;123;69;0.47766
4824030;-0.10000;79.1250;123;69;0.45763
4824040;-0.13500;78.2500;123;69;0.42051
4824050;-0.14500;77.8125;123;69;0.40488
4824060;-0.15000;77.3750;123;69;0.38852
4824070;-0.15000;76.9375;123;69;0.37216
4824080;-0.14500;76.1250;123;69;0.34237
4824090;-0.14500;75.8125;123;69;0.32943
4824100;-0.13500;75.4375;123;69;0.31770
4824110;0.06000;75.1250;123;69;0.30720
4824120;0.41500;74.8125;123;69;0.29792
4824130;0.89000;74.2500;123;69;0.28254
4824140;0.51500;73.9375;123;69;0.27741
4824150;-0.06500;73.6875;123;69;0.27326
4824160;-0.32500;73.5000;123;69;0.26911
4824170;-0.23000;73.0000;123;69;0.26129
4824180;-0.20000;72.7500;123;69;0.25763
4824190;-0.19000;72.5000;123;69;0.25421
4824200;-0.19000;72.0000;123;69;0.25079
4824210;-0.18000;71.7500;123;69;0.24371
4824220;-0.17500;71.4375;123;69;0.24029
4824230;-0.16000;71.1875;123;69;0.23687
4824240;-0.15500;70.8750;123;69;0.23346
4824250;-0.15000;70.1875;123;69;0.22930
4824260;-0.14000;69.8125;123;69;0.22662
4824270;-0.13500;69.5000;123;69;0.22344
4824280;-0.12500;69.1250;123;69;0.22002
4824290;-0.12000;68.5000;123;69;0.21294
4824300;-0.11000;68.2500;123;69;0.20928
4824310;-0.09500;67.9375;123;69;0.20562
4824320;-0.08500;67.5000;123;69;0.19805
4824330;-0.07000;67.5000;123;69;0.19438
4824340;-0.06500;67.9375;123;69;0.19170
4824350;-0.05500;68.9375;123;69;0.18950
4824360;-0.03500;73.2500;123;69;0.18242
4824370;-0.02500;76.5625;123;69;0.17827
4824380;-0.00500;80.4375;123;69;0.17436
4824390;0.02000;84.7500;123;69;0.17021
4824400;0.03500;89.3125;123;69;0.16630
4824410;0.06500;98.5625;123;69;0.15922
4824420;0.09000;102.9375;123;69;0.15604
4824430;0.12000;106.8750;123;69;0.15311
4824440;0.15500;113.1875;123;69;0.14994
4824450;0.18000;115.5000;123;69;0.14994
4824460;0.21500;117.1875;123;69;0.14921
4824470;0.23500;118.3750;123;69;0.14847
4824480;0.23000;119.3750;123;69;0.14725
4824490;0.19500;119.2500;123;69;0.14701
4824500;0.14000;118.8125;123;69;0.14750
4824510;0.07500;118.1250;123;69;0.14823
4824520;0.00500;115.8750;123;69;0.15140
4824530;-0.02500;114.4375;123;69;0.15336
4824540;-0.06000;112.8125;123;69;0.15604
4824550;-0.09000;111.0625;123;69;0.15946
4824560;-0.10500;109.1875;123;69;0.16239
4824570;-0.11500;105.2500;123;69;0.16850
4824580;-0.11500;103.1875;123;69;0.17167
4824590;-0.11500;101.1250;123;69;0.17534
4824600;-0.11500;96.8125;123;69;0.18730
4824610;-0.11000;94.5625;123;69;0.19780
4824620;-0.11000;92.3750;123;69;0.21221
4824630;-0.11000;90.3125;123;69;0.23077
4824640;-0.10500;86.8750;123;69;0.27717
4824650;-0.10500;85.5625;123;69;0.30134
4824660;-0.10000;84.5625;123;69;0.33065
4824670;-0.09500;83.8125;123;69;0.36264
4824680;-0.09500;83.2500;123;69;0.39560
4824690;-0.09500;82.6250;123;69;0.45934
4824700;-0.09000;82.5000;123;69;0.48840
4824710;-0.09000;82.4375;123;69;0.51477
4824720;-0.09500;82.4375;123;69;0.53797
4824730;-0.09500;82.4375;123;69;0.57534
4824740;-0.09500;82.3750;123;69;0.58730
4824750;-0.10000;82.3125;123;69;0.59585
4824760;-0.10500;81.9375;123;69;0.60904
4824770;-0.09500;81.6875;123;69;0.61221
4824780;-0.08500;81.4375;123;69;0.61294
4824790;-0.05500;81.1250;123;69;0.61148
4824800;-0.05500;81.1250;123;69;0.61148
4824810;-0.02500;79.9375;123;69;0.59316
4824820;-0.01500;79.5000;123;69;0.58266
4824830;0.02000;79.1250;123;69;0.57021
4824840;0.05000;78.6250;123;69;0.55775
4824850;0.05500;77.7500;123;69;0.52918
4824860;0.01000;77.3125;123;69;0.51209
4824870;-0.01500;76.8750;123;69;0.49377
4824880;-0.06000;76.0000;123;69;0.45519
4824890;-0.09500;75.5625;123;69;0.43565
4824900;-0.13000;75.1250;123;69;0.41661
4824910;-0.14500;74.7500;123;69;0.39853
4824920;-0.14500;74.3125;123;69;0.38144
4824930;-0.15000;73.5625;123;69;0.35165
4824940;-0.14500;73.2500;123;69;0.34066
4824950;-0.14000;72.8750;123;69;0.33162
4824960;-0.13000;72.5625;123;69;0.32283
4824970;0.03500;72.0000;123;69;0.30745
4824980;0.36000;71.7500;123;69;0.30134
4824990;0.84000;71.5000;123;69;0.29597
4825000;0.70000;71.0625;123;69;0.29158
4825010;-0.09500;70.8750;123;69;0.28498
4825020;-0.31500;70.6875;123;69;0.28230
4825030;-0.25000;70.5000;123;69;0.27985
4825040;-0.20500;70.3750;123;69;0.27814
4825050;-0.20000;70.0625;123;69;0.27546
4825060;-0.19500;69.8750;123;69;0.27375
4825070;-0.19000;69.6250;123;69;0.27179
4825080;-0.18500;69.1875;123;69;0.26984
4825090;-0.18000;68.9375;123;69;0.26642
4825100;-0.17000;68.6875;123;69;0.26447
4825110;-0.16500;68.3750;123;69;0.26227
4825120;-0.16000;68.1250;123;69;0.26007
4825130;-0.15500;67.5000;123;69;0.25519
4825140;-0.15500;67.1875;123;69;0.25348
4825150;-0.14000;66.8750;123;69;0.25201
4825160;-0.13500;66.5625;123;69;0.24957
4825170;-0.13500;66.0625;123;69;0.24347
4825180;-0.12000;65.8750;123;69;0.24005
4825190;-0.11000;65.7500;123;69;0.23639
4825200;-0.10000;65.9375;123;69;0.23248
4825210;-0.08000;68.0000;123;69;0.22442
4825220;-0.06500;70.1875;123;69;0.22051
4825230;-0.04500;73.1250;123;69;0.21661
4825240;-0.02500;80.8750;123;69;0.21172
4825250;-0.01000;85.3750;123;69;0.20855
4825260;0.01000;90.0000;123;69;0.20513
4825270;0.04500;94.6250;123;69;0.20147
4825280;0.07000;99.0625;123;69;0.22369
4825290;0.09500;106.8750;123;69;0.27497
4825300;0.12500;110.0625;123;69;0.28156
4825310;0.16500;112.6875;123;69;0.28376
4825320;0.19500;114.6875;123;69;0.28425
4825330;0.21500;117.1875;123;69;0.28352
4825340;0.21500;117.7500;123;69;0.28376
4825350;0.18500;117.9375;123;69;0.28474
4825360;0.13000;117.7500;123;69;0.28523
4825370;0.06500;116.4375;123;69;0.28620
4825380;0.00000;115.4375;123;69;0.28669
4825390;-0.03500;114.1875;123;69;0.28718
4825400;-0.07500;111.0625;123;69;0.28791
4825410;-0.09500;109.3125;123;69;0.29035
4825420;-0.10500;107.5000;123;69;0.29182
4825430;-0.11500;105.5625;123;69;0.29377
4825440;-0.12000;103.5625;123;69;0.29621
4825450;-0.12500;99.5000;123;69;0.30281
4825460;-0.12500;97.3750;123;69;0.30769
4825470;-0.12500;95.2500;123;69;0.31526
4825480;-0.12500;93.1250;123;69;0.32625
4825490;-0.12000;89.1250;123;69;0.36166
4825500;-0.11500;87.4375;123;69;0.38632
4825510;-0.11000;86.0000;123;69;0.41514
4825520;-0.10000;84.0000;123;69;0.48083
4825530;-0.09500;83.3125;123;69;0.51551
4825540;-0.09500;82.8125;123;69;0.54554
4825550;-0.09000;82.4375;123;69;0.57216
4825560;-0.08500;82.2500;123;69;0.60073
4825570;-0.08500;82.0000;123;69;0.65568
4825580;-0.08000;81.9375;123;69;0.67961
4825590;-0.08000;81.8750;123;69;0.70085
4825600;-0.08500;81.8750;123;69;0.71868
4825610;-0.08000;81.6875;123;69;0.74530
4825620;-0.08000;81.5625;123;69;0.75409
4825630;-0.08500;81.3750;123;69;0.75995
4825640;-0.08500;81.3750;123;69;0.75995
4825650;-0.12000;67.4375;123;69;0.38388
4825660;-0.12000;67.4375;123;69;0.38388
4825670;-0.12000;67.4375;123;69;0.38388
4825680;-0.12000;67.4375;123;69;0.38388
4825690;-0.12000;67.4375;123;69;0.38388
4825700;-0.12000;67.4375;123;69;0.38388
4825710;-0.12000;67.4375;123;69;0.38388
4825720;-0.12000;67.4375;123;69;0.38388
4825730;-0.04000;71.5000;123;69;0.34505
4825740;-0.04000;71.5000;123;69;0.34505
4825750;-0.04000;71.5000;123;69;0.34505
4825760;-0.04000;71.5000;123;69;0.34505
4825770;-0.04000;71.5000;123;69;0.34505
4825780;-0.04000;71.5000;123;69;0.34505
4825790;-0.04000;71.5000;123;69;0.34505
4825800;-0.04000;71.5000;123;69;0.34505
4825810;-0.04000;71.5000;123;69;0.34505
4825820;-0.04000;71.5000;123;69;0.34505
4825830;-0.04000;71.5000;123;69;0.34505
4825840;-0.04000;71.5000;123;69;0.34505
4825850;-0.04000;71.5000;123;69;0.34505
4825860;-0.04000;71.5000;123;69;0.34505
4825870;-0.04000;71.5000;123;69;0.34505
4825880;-0.04000;71.5000;123;69;0.34505
4825890;-0.04000;71.5000;123;69;0.34505
4825900;-0.04000;71.5000;123;69;0.34505
4825910;-0.04000;71.5000;123;69;0.34505
4825920;-0.03000;74.8750;123;69;0.34139
4825930;-0.03000;74.8750;123;69;0.34139
4825940;-0.03000;74.8750;123;69;0.34139
4825950;-0.03000;74.8750;123;69;0.34139
4825960;-0.03000;74.8750;123;69;0.34139
4825970;-0.03000;74.8750;123;69;0.34139
4825980;-0.03000;74.8750;123;69;0.34139
4825990;-0.03000;74.8750;123;69;0.34139
4826000;-0.03000;74.8750;123;68;0.34139
4826010;-0.03000;74.8750;123;68;0.34139
4826020;-0.03000;74.8750;123;68;0.34139
4826030;-0.03000;74.8750;123;68;0.34139
4826040;-0.03000;74.8750;123;68;0.34139
4826050;-0.03000;74.8750;123;68;0.34139
4826060;-0.03000;74.8750;123;68;0.34139
4826070;-0.03000;74.8750;123;68;0.34139
4826080;-0.03000;74.8750;123;68;0.34139
4826090;-0.03000;74.8750;123;68;0.34139
4826100;-0.03000;74.8750;123;68;0.34139
4826110;-0.01500;78.8125;123;68;0.33797
4826120;0.00500;87.7500;123;68;0.33455
4826130;0.03000;92.4375;123;68;0.32796
4826140;0.05500;97.0625;123;68;0.32576
4826150;0.08000;101.4375;123;68;0.32430
4826160;0.11000;109.0000;123;68;0.31990
4826170;0.13000;112.0000;123;68;0.31795
4826180;0.15500;114.5000;123;68;0.31600
4826190;0.20500;116.4375;123;68;0.31404
4826200;0.23500;117.8750;123;68;0.31233
4826210;0.25000;119.3125;123;68;0.30989
4826220;0.20500;119.4375;123;68;0.30916
4826230;0.16000;119.2500;123;68;0.30891
4826240;0.09000;118.8125;123;68;0.30965
4826250;0.03000;117.0625;123;68;0.31209
4826260;-0.03500;115.8125;123;68;0.31355
4826270;-0.06500;114.3750;123;68;0.31526
4826280;-0.09000;112.8125;123;68;0.31722
4826290;-0.11000;109.2500;123;68;0.32161
4826300;-0.11500;107.3750;123;68;0.32381
4826310;-0.11500;105.3750;123;68;0.32625
4826320;-0.11500;101.3125;123;68;0.33260
4826330;-0.11500;99.1250;123;68;0.33846
4826340;-0.12000;97.0000;123;68;0.34603
4826350;-0.12500;94.8125;123;68;0.35604
4826360;-0.12000;92.7500;123;68;0.37094
4826370;-0.11500;88.9375;123;68;0.41538
4826380;-0.11500;87.4375;123;68;0.44444
4826390;-0.12500;86.2500;123;68;0.47668
4826400;-0.12500;84.6875;123;68;0.51087
4826410;-0.12500;84.1875;123;68;0.58046
4826420;-0.13000;83.8125;123;68;0.61392
4826430;-0.13500;83.5000;123;68;0.64542
4826440;-0.12500;83.3125;123;68;0.67057
4826450;-0.12000;83.1250;123;68;0.71258
4826460;-0.11500;83.0000;123;68;0.73187
4826470;-0.11500;82.8750;123;68;0.74872
4826480;-0.10500;82.7500;123;68;0.76288
4826490;-0.10500;82.3750;123;68;0.78217
4826500;-0.10000;82.1250;123;68;0.78755
4826510;-0.09500;81.8125;123;68;0.78999
4826520;-0.08500;81.0625;123;68;0.78803
4826530;-0.06000;80.6250;123;68;0.78339
4826540;-0.03000;80.1250;123;68;0.77680
4826550;-0.02500;79.6875;123;68;0.76850
4826560;-0.01500;79.2500;123;68;0.75849
4826570;0.01500;78.4375;123;68;0.73284
4826580;0.04500;78.0000;123;68;0.71770
4826590;0.03000;77.5625;123;68;0.70110
4826600;-0.01500;77.1250;123;68;0.68303
4826610;-0.04250;76.1875;123;68;0.64420
4826620;-0.07000;75.7500;123;68;0.62393
4826630;-0.11500;75.3125;123;68;0.60366
4826640;-0.15500;74.4375;123;68;0.56972
4826650;-0.16000;74.0000;123;68;0.55311
4826660;-0.16500;73.5625;123;68;0.53700
4826670;-0.16000;73.1875;123;68;0.52186
4826680;-0.14500;72.5000;123;68;0.49524
4826690;-0.14000;72.1875;123;68;0.48400
4826700;-0.13000;71.8125;123;68;0.47399
4826710;-0.00500;71.5625;123;68;0.46496
4826720;0.39000;71.3125;123;68;0.45714
4826730;0.87500;70.8750;123;68;0.44493
4826740;0.59500;70.6875;123;68;0.44078
4826750;0.02500;70.5625;123;68;0.43663
4826760;-0.31000;70.4375;123;68;0.43272
4826770;-0.24000;70.1250;123;68;0.42589
4826780;-0.21000;70.0000;123;68;0.42320
4826790;-0.21000;69.8750;123;68;0.42051
4826800;-0.21000;69.8750;123;68;0.42051
4826810;-0.21000;69.2500;123;68;0.41270
4826820;-0.20000;69.0000;123;68;0.40977
4826830;-0.19500;68.7500;123;68;0.40684
4826840;-0.18500;68.1875;123;68;0.40220
4826850;-0.18000;67.8750;123;68;0.39927
4826860;-0.17000;67.5625;123;68;0.39585
4826870;-0.16500;67.1875;123;68;0.39219
4826880;-0.15500;66.8750;123;68;0.38803
4826890;-0.14500;66.3125;123;68;0.37949
4826900;-0.13500;66.0000;123;68;0.37509
4826910;-0.12500;65.6875;123;68;0.37070
4826920;-0.11000;65.5000;123;68;0.36630
4826930;-0.08500;65.7500;123;68;0.35873
4826940;-0.07500;66.5625;123;68;0.35604
4826950;-0.07000;68.1250;123;68;0.35263
4826960;-0.06500;73.6875;123;68;0.34408
4826970;-0.05500;77.5625;123;68;0.33968
4826980;-0.03000;81.9375;123;68;0.33480
4826990;-0.00500;86.6250;123;68;0.33016
4827000;0.05000;91.5625;124;68;0.32552
4827010;0.11000;101.1250;124;68;0.31722
4827020;0.14000;105.5000;124;68;0.31355
4827030;0.15500;109.4375;124;68;0.31013
4827040;0.19000;112.8750;124;68;0.30818
4827050;0.23000;118.1875;124;68;0.30525
4827060;0.26500;120.0000;124;68;0.30330
4827070;0.27500;121.3750;124;68;0.30110
4827080;0.25500;122.2500;124;68;0.29890
4827090;0.20000;122.8750;124;68;0.29573
4827100;0.14500;122.6250;124;68;0.29451
4827110;0.07500;122.0625;124;68;0.29353
4827120;-0.00500;119.9375;124;68;0.29280
4827130;-0.04500;118.5625;124;68;0.29328
4827140;-0.08500;117.0000;124;68;0.29451
4827150;-0.11000;115.2500;124;68;0.29499
4827160;-0.14000;111.5000;124;68;0.29597
4827170;-0.15500;109.5000;124;68;0.29646
4827180;-0.16000;107.5000;124;68;0.29768
4827190;-0.17000;105.3750;124;68;0.30012
4827200;-0.17000;103.2500;124;68;0.30476
4827210;-0.16500;98.7500;124;68;0.32405
4827220;-0.16000;96.4375;124;68;0.34066
4827230;-0.15500;94.1875;124;68;0.36239
4827240;-0.14500;92.0000;124;68;0.38486
4827250;-0.14000;88.3750;124;68;0.43858
4827260;-0.13500;87.0625;124;68;0.47155
4827270;-0.13500;86.0000;124;68;0.50623
4827280;-0.13500;84.6875;124;68;0.57582
4827290;-0.13000;84.2500;124;68;0.60928
4827300;-0.13000;83.9375;124;68;0.64127
4827310;-0.12500;83.6875;124;68;0.67131
4827320;-0.12000;83.5625;124;68;0.69939
4827330;-0.11500;83.2500;124;68;0.71770
4827340;-0.11000;83.0625;124;68;0.72503
4827350;-0.11000;82.8750;124;68;0.73626
4827360;-0.10500;82.6250;124;68;0.74799
4827370;-0.09500;82.0625;124;68;0.76606
4827380;-0.08500;81.7500;124;68;0.77045
4827390;-0.06000;81.4375;124;68;0.77167
4827400;-0.02500;80.7500;124;68;0.76557
4827410;-0.00500;80.3750;124;68;0.75873
4827420;0.00000;80.0625;124;68;0.75018
4827430;0.03000;79.6875;124;68;0.73993
4827440;0.05500;79.3750;124;68;0.72918
4827450;0.07000;78.6875;124;68;0.70476
4827460;0.04500;78.3750;124;68;0.69084
4827470;0.00000;78.0625;124;68;0.67570
4827480;-0.02500;77.7500;124;68;0.65934
4827490;-0.06500;77.0625;124;68;0.62344
4827500;-0.11500;76.7500;124;68;0.60464
4827510;-0.13000;76.4375;124;68;0.58559
4827520;-0.14500;75.7500;124;68;0.56703
4827530;-0.15500;75.4375;124;68;0.53431
4827540;-0.15500;75.1250;124;68;0.52137
4827550;-0.15000;74.8125;124;68;0.50842
4827560;-0.15000;74.1875;124;68;0.48620
4827570;-0.10500;73.8750;124;68;0.47717
4827580;0.27000;73.5625;124;68;0.46960
4827590;0.70500;73.3125;124;68;0.46325
4827600;0.93000;73.0625;124;68;0.45788
4827610;0.17500;72.5625;124;68;0.44957
4827620;-0.25000;72.3750;124;68;0.44591
4827630;-0.28500;72.1875;124;68;0.44249
4827640;-0.22000;71.8125;124;68;0.43639
4827650;-0.21000;71.6250;124;68;0.43321
4827660;-0.21000;71.4375;124;68;0.42979
4827670;-0.20000;71.1875;124;68;0.42613
4827680;-0.20000;70.9375;124;68;0.42222
4827690;-0.19000;70.3750;124;68;0.41416
4827700;-0.18000;70.0625;124;68;0.40977
4827710;-0.17500;69.7500;124;68;0.40537
4827720;-0.16500;69.3750;124;68;0.40122
4827730;-0.15500;68.6875;124;68;0.39341
4827740;-0.15000;68.3750;124;68;0.39023
4827750;-0.13500;68.0000;124;68;0.38657
4827760;-0.12500;67.4375;124;68;0.37851
4827770;-0.12000;67.1875;124;68;0.37411
4827780;-0.10500;67.0625;124;68;0.36923
4827790;-0.09500;67.1875;124;68;0.36410
4827800;-0.09500;67.1875;124;68;0.36410
4827810;-0.07500;70.7500;124;68;0.34823
4827820;-0.05500;73.5625;124;68;0.34310
4827830;-0.04000;77.1250;124;68;0.33797
4827840;-0.03000;81.3750;124;68;0.33382
4827850;-0.04500;90.9375;124;68;0.32625
4827860;-0.04000;96.0000;124;68;0.32186
4827870;-0.00500;100.8750;124;68;0.31770
4827880;0.03500;109.7500;124;68;0.31013
4827890;0.06000;113.5000;124;68;0.30696
4827900;0.09000;116.6250;124;68;0.30427
4827910;0.13000;119.2500;124;68;0.30183
4827920;0.15500;121.2500;124;68;0.29988
4827930;0.18500;123.8750;124;68;0.29792
4827940;0.20500;124.5000;124;68;0.29792
4827950;0.19500;124.8125;124;68;0.29768
4827960;0.15500;124.8125;124;68;0.29768
4827970;0.09000;124.0000;124;68;0.29744
4827980;0.02000;123.1875;124;68;0.29744
4827990;-0.01500;122.1250;124;68;0.29744
4828000;-0.05500;120.9375;124;69;0.29744
4828010;-0.09000;117.9375;124;69;0.29792
4828020;-0.10500;116.1875;124;69;0.29841
4828030;-0.11500;114.3750;124;69;0.29890
4828040;-0.12500;110.4375;124;69;0.30208
4828050;-0.13000;108.3750;124;69;0.30476
4828060;-0.13000;106.2500;124;69;0.30940
4828070;-0.13000;104.1250;124;69;0.31697
4828080;-0.13000;102.0000;124;69;0.32869
4828090;-0.13000;97.8125;124;69;0.36703
4828100;-0.12500;95.9375;124;69;0.39365
4828110;-0.12500;94.3125;124;69;0.42418
4828120;-0.11500;92.8750;124;69;0.45739
4828130;-0.11500;90.6875;124;69;0.52308
4828140;-0.11000;89.9375;124;69;0.55092
4828150;-0.10500;89.3125;124;69;0.58144
4828160;-0.10500;88.8125;124;69;0.61221
4828170;-0.10500;88.1875;124;69;0.66911
4828180;-0.10500;87.9375;124;69;0.69402
4828190;-0.10000;87.7500;124;69;0.71624
4828200;-0.10000;87.4375;124;69;0.75263
4828210;-0.10000;87.1875;124;69;0.76679
4828220;-0.10000;87.0000;124;69;0.77802
4828230;-0.10500;86.7500;124;69;0.78657
4828240;-0.10500;86.1250;124;69;0.79219
4828250;-0.10000;85.7500;124;69;0.79267
4828260;-0.07500;85.3750;124;69;0.79194
4828270;-0.03500;84.9375;124;69;0.78926
4828280;-0.02500;84.4375;124;69;0.78486
4828290;-0.01500;83.5625;124;69;0.77021
4828300;0.01000;83.0625;124;69;0.75995
4828310;0.04000;82.6250;124;69;0.74774
4828320;0.05000;82.1250;124;69;0.73407
4828330;0.02500;81.1875;124;69;0.70379
4828340;-0.01500;80.7500;124;69;0.68864
4828350;-0.04000;80.3125;124;69;0.67204
4828360;-0.08500;79.5000;124;69;0.63712
4828370;-0.13500;79.0625;124;69;0.62027
4828380;-0.14500;78.6250;124;69;0.60415
4828390;-0.14500;78.2500;124;69;0.58901
4828400;-0.14000;77.8750;124;69;0.57509
4828410;-0.13500;77.1250;124;69;0.55116
4828420;-0.13000;76.7500;124;69;0.54115
4828430;-0.13500;76.4375;124;69;0.53284
4828440;-0.08500;76.1250;124;69;0.52576
4828450;0.35000;75.6250;124;69;0.51306
4828460;0.84500;75.3750;124;69;0.50769
4828470;0.93500;75.1250;124;69;0.50281
4828480;0.35500;74.8750;124;69;0.49817
4828490;-0.21500;74.5000;124;69;0.48962
4828500;-0.25000;74.3750;124;69;0.48547
4828510;-0.20000;74.1875;124;69;0.48132
4828520;-0.19500;74.0000;124;69;0.47717
4828530;-0.19500;73.6875;124;69;0.46935
4828540;-0.19500;73.5000;124;69;0.46593
4828550;-0.19000;73.2500;124;69;0.46203
4828560;-0.18000;72.6875;124;69;0.45788
4828570;-0.17000;72.3750;124;69;0.44908
4828580;-0.16000;72.1250;124;69;0.44444
4828590;-0.15500;71.8125;124;69;0.43980
4828600;-0.15000;71.5000;124;69;0.43516
4828610;-0.14500;70.9375;124;69;0.42613
4828620;-0.13500;70.5625;124;69;0.42173
4828630;-0.13000;70.2500;124;69;0.41807
4828640;-0.11500;70.0000;124;69;0.41465
4828650;-0.10000;69.8125;124;69;0.40708
4828660;-0.09500;70.1875;124;69;0.40317
4828670;-0.08500;71.1250;124;69;0.39927
4828680;-0.07500;72.8125;124;69;0.39536
4828690;-0.06500;78.8750;124;69;0.38779
4828700;-0.04500;83.0625;124;69;0.38437
4828710;-0.02500;87.7500;124;69;0.38120
4828720;-0.01500;92.7500;124;69;0.37827
4828730;0.00500;102.9375;124;69;0.37387
4828740;0.03000;107.6875;124;69;0.37265
4828750;0.04500;112.1250;124;69;0.37167
4828760;0.07000;116.0000;124;69;0.37070
4828770;0.09500;122.0000;124;69;0.36996
4828780;0.12000;124.1250;124;69;0.36996
4828790;0.15500;125.6875;124;69;0.37045
4828800;0.15000;126.7500;124;69;0.37118
4828810;0.14000;127.6875;124;69;0.37289
4828820;0.12000;127.7500;124;69;0.37387
4828830;0.09500;127.4375;124;69;0.37509
4828840;0.06000;126.9375;124;69;0.37607
4828850;-0.00500;125.2500;124;69;0.37680
4828860;-0.04000;124.0625;124;69;0.37680
4828870;-0.08500;122.6875;124;69;0.37680
4828880;-0.10000;121.2500;124;69;0.37656
4828890;-0.11500;117.8750;124;69;0.37534
4828900;-0.12500;116.0625;124;69;0.37460
4828910;-0.12500;114.1250;124;69;0.37436
4828920;-0.12500;112.1875;124;69;0.37509
4828930;-0.12500;108.0000;124;69;0.38266
4828940;-0.12500;105.8125;124;69;0.38999
4828950;-0.12500;103.6250;124;69;0.40220
4828960;-0.11500;99.3125;124;69;0.41905
4828970;-0.11000;97.4375;124;69;0.46691
4828980;-0.10500;95.7500;124;69;0.49621
4828990;-0.10500;94.3750;124;69;0.52747
4829000;-0.10500;92.2500;123;69;0.59170
4829010;-0.09500;91.5000;123;69;0.62271
4829020;-0.09000;90.9375;123;69;0.65177
4829030;-0.08500;90.5000;123;69;0.67497
4829040;-0.08000;90.0000;123;69;0.71380
4829050;-0.08000;89.8125;123;69;0.73260
4829060;-0.08000;89.6250;123;69;0.74945
4829070;-0.07500;89.4375;123;69;0.76435
4829080;-0.07000;89.2500;123;69;0.77705
4829090;-0.06500;88.8125;123;69;0.79487
4829100;-0.06500;88.5000;123;69;0.80024
4829110;-0.06500;88.1875;123;69;0.80342
4829120;-0.05500;87.8125;123;69;0.80440
4829130;-0.03500;86.9375;123;69;0.79902
4829140;0.00000;86.4375;123;69;0.79316
4829150;0.02500;85.8750;123;69;0.78632
4829160;0.04000;85.3750;123;69;0.77827
4829170;0.05500;84.2500;123;69;0.75751
4829180;0.09500;83.7500;123;69;0.74505
4829190;0.11500;83.3125;123;69;0.73138
4829200;0.11000;82.8125;123;69;0.71648
4829210;0.07000;81.8125;123;69;0.68400
4829220;0.05000;81.3750;123;69;0.66691
4829230;0.00000;80.8750;123;69;0.65104
4829240;-0.05500;80.0000;123;69;0.62027
4829250;-0.07000;79.5625;123;69;0.60464
4829260;-0.07500;79.1875;123;69;0.58974
4829270;-0.08500;78.8125;123;69;0.57582
4829280;-0.08500;78.0625;123;69;0.56288
4829290;-0.08000;77.6875;123;69;0.54090
4829300;-0.08000;77.4375;123;69;0.53187
4829310;-0.05000;77.1250;123;69;0.52405
4829320;0.23500;76.6250;123;69;0.51136
4829330;0.70000;76.3125;123;69;0.50647
4829340;1.14500;76.0625;123;69;0.50208
4829350;0.52000;75.8125;123;69;0.49792
4829360;-0.06500;75.5625;123;69;0.49426
4829370;-0.21500;75.0000;123;69;0.47448
4829380;-0.17000;74.7500;123;69;0.45177
4829390;-0.16000;74.5000;123;69;0.43858
4829400;-0.16000;73.8750;123;69;0.42369
4829410;-0.16000;73.5625;123;69;0.41856
4829420;-0.15500;73.1875;123;69;0.41368
4829430;-0.14500;72.8125;123;69;0.40952
4829440;-0.14500;72.4375;123;69;0.40562
4829450;-0.14000;71.6875;123;69;0.39609
4829460;-0.13000;71.3750;123;69;0.39096
4829470;-0.12500;71.0000;123;69;0.38559
4829480;-0.11500;70.1875;123;69;0.37534
4829490;-0.10500;69.8125;123;69;0.37045
4829500;-0.09500;69.4375;123;69;0.36557
4829510;-0.08500;69.1250;123;69;0.36093
4829520;-0.07500;68.8125;123;69;0.35165
4829530;-0.07000;68.9375;123;69;0.34799
4829540;-0.05500;69.5625;123;69;0.34481
4829550;-0.04500;70.9375;123;69;0.34115
4829560;-0.03500;73.1250;123;69;0.33748
4829570;-0.01500;80.0625;123;69;0.33016
4829580;0.00000;84.5000;123;69;0.32650
4829590;0.01500;89.3125;123;69;0.32308
4829600;0.03500;94.3125;123;69;0.31990
4829610;0.06000;104.1875;123;69;0.31429
4829620;0.07500;108.6875;123;69;0.31209
4829630;0.09500;112.6875;123;69;0.31062
4829640;0.12000;119.0625;123;69;0.30891
4829650;0.14000;121.3750;123;69;0.30818
4829660;0.17000;123.1250;123;69;0.30794
4829670;0.20000;124.3750;123;69;0.30794
4829680;0.22000;125.6250;123;69;0.30867
4829690;0.21500;125.7500;123;69;0.30916
4829700;0.18500;125.5000;123;69;0.30989
4829710;0.11500;125.0625;123;69;0.31038
4829720;0.07000;124.3750;123;69;0.31062
4829730;0.01500;122.3125;123;69;0.31111
4829740;-0.03500;120.9375;123;69;0.31160
4829750;-0.05500;119.4375;123;69;0.31184
4829760;-0.07500;117.7500;123;69;0.31160
4829770;-0.09000;114.1250;123;69;0.30989
4829780;-0.10500;112.1875;123;69;0.30891
4829790;-0.11000;110.1250;123;69;0.30867
4829800;-0.11000;105.8125;123;69;0.30965
4829810;-0.10500;103.5000;123;69;0.31917
4829820;-0.10000;101.2500;123;69;0.32943
4829830;-0.10000;98.8750;123;69;0.34139
4829840;-0.10000;94.5000;123;69;0.37534
4829850;-0.10000;92.6250;123;69;0.39902
4829860;-0.09000;91.0625;123;69;0.42540
4829870;-0.09000;89.7500;123;69;0.45324
4829880;-0.09000;88.6875;123;69;0.48132
4829890;-0.09500;87.1875;123;69;0.53407
4829900;-0.09500;86.7500;123;69;0.55751
4829910;-0.09000;86.3750;123;69;0.57851
4829920;-0.08500;86.1250;123;69;0.59683
4829930;-0.08500;85.8750;123;69;0.62320
4829940;-0.08000;85.8125;123;69;0.63077
4829950;-0.08500;85.6875;123;69;0.63761
4829960;-0.08500;85.2500;123;69;0.64322
4829970;-0.08500;85.0000;123;69;0.64811
4829980;-0.07500;84.6875;123;69;0.64737
4829990;-0.05500;84.3750;123;69;0.64469
