RelativeTimeMilliseconds;ECG;ART;ART (Sys);ART (Dia);PPG
5400000;-0.10500;80.4375;122;69;0.57851
5400010;-0.12500;80.0625;122;69;0.56557
5400020;-0.13000;79.6250;122;69;0.55409
5400030;-0.13000;79.2500;122;69;0.54383
5400040;-0.12500;78.8750;122;69;0.53529
5400050;-0.12500;78.0625;122;69;0.52088
5400060;-0.12500;77.6875;122;69;0.51453
5400070;-0.07000;77.3750;122;69;0.50842
5400080;0.26000;76.7500;122;69;0.49792
5400090;0.84500;76.4375;122;69;0.49280
5400100;0.97000;76.1875;122;69;0.48791
5400110;0.28500;75.8750;122;69;0.48327
5400120;-0.26500;75.3750;122;69;0.47399
5400130;-0.25000;75.1250;122;69;0.46984
5400140;-0.20000;74.8750;122;69;0.46569
5400150;-0.19000;74.6250;122;69;0.46105
5400160;-0.19000;74.3750;122;69;0.45641
5400170;-0.19000;73.8125;122;69;0.44615
5400180;-0.18000;73.5000;122;69;0.44078
5400190;-0.18000;73.1875;122;69;0.43565
5400200;-0.17000;72.9375;122;69;0.43077
5400210;-0.17000;72.2500;122;69;0.42125
5400220;-0.16500;71.9375;122;69;0.41661
5400230;-0.15500;71.5625;122;69;0.41221
5400240;-0.14500;71.1875;122;69;0.40855
5400250;-0.13500;70.3750;122;69;0.40147
5400260;-0.12500;70.0000;122;69;0.39756
5400270;-0.11000;69.6250;122;69;0.39390
5400280;-0.10500;69.3125;122;69;0.39023
5400290;-0.09500;69.1875;122;69;0.38291
5400300;-0.08000;69.6875;122;69;0.37949
5400310;-0.06500;70.8750;122;69;0.37607
5400320;-0.05500;72.8750;122;69;0.37289
5400330;-0.03500;79.3750;122;69;0.36801
5400340;-0.02500;83.5000;122;69;0.36654
5400350;-0.00500;88.0625;122;69;0.36484
5400360;0.01500;97.6875;122;69;0.36166
5400370;0.03000;102.3750;122;69;0.36020
5400380;0.05500;106.8750;122;69;0.35873
5400390;0.08000;110.8750;122;69;0.35775
5400400;0.10500;114.3125;122;69;0.35726
5400410;0.13500;119.5625;122;69;0.35580
5400420;0.16500;121.3125;122;69;0.35531
5400430;0.19500;122.6250;122;69;0.35482
5400440;0.20500;123.5000;122;69;0.35482
5400450;0.19500;124.2500;122;69;0.35482
5400460;0.15500;124.1250;122;69;0.35458
5400470;0.11000;123.8125;122;69;0.35433
5400480;0.05500;122.5000;122;69;0.35385
5400490;-0.00500;121.6250;122;69;0.35189
5400500;-0.04000;120.5625;122;69;0.35043
5400510;-0.07000;119.3750;122;69;0.34872
5400520;-0.08500;118.0000;122;69;0.34676
5400530;-0.10000;114.9375;122;69;0.34359
5400540;-0.10500;113.2500;122;69;0.34335
5400550;-0.11000;111.3750;122;69;0.34408
5400560;-0.11000;109.5000;122;69;0.34701
5400570;-0.10500;105.3125;122;69;0.36435
5400580;-0.10000;103.0625;122;69;0.37973
5400590;-0.09500;100.8125;122;69;0.40000
5400600;-0.09500;96.3750;122;69;0.45153
5400610;-0.09500;94.4375;122;69;0.48083
5400620;-0.09000;92.6875;122;69;0.51111
5400630;-0.08500;91.2500;122;69;0.54115
5400640;-0.08000;90.0625;122;69;0.56581
5400650;-0.07500;88.2500;122;69;0.60977
5400660;-0.06500;87.6875;122;69;0.63126
5400670;-0.06500;87.2500;122;69;0.65079
5400680;-0.06500;86.9375;122;69;0.66764
5400690;-0.06500;86.5000;122;69;0.69328
5400700;-0.06500;86.3125;122;69;0.70208
5400710;-0.07000;86.1250;122;69;0.70818
5400720;-0.07000;85.7500;122;69;0.71209
5400730;-0.07000;85.5000;122;69;0.68327
5400740;-0.07000;85.1875;122;69;0.67155
5400750;-0.06500;84.8750;122;69;0.66325
5400760;-0.04500;84.0625;122;69;0.64786
5400770;-0.02500;83.6250;122;69;0.63883
5400780;0.00000;83.1875;122;69;0.62857
5400790;0.00500;82.6875;122;69;0.61709
5400800;0.00500;82.6875;122;69;0.61709
5400810;0.05000;81.1875;122;69;0.57436
5400820;0.07500;80.6875;122;69;0.55775
5400830;0.05500;80.1875;122;69;0.53993
5400840;0.02000;79.1875;122;69;0.50720
5400850;-0.00500;78.6875;122;69;0.48938
5400860;-0.04500;78.1875;122;69;0.47057
5400870;-0.09500;77.6875;122;69;0.45177
5400880;-0.11500;77.2500;122;69;0.43370
5400890;-0.12000;76.4375;122;69;0.40024
5400900;-0.12000;76.0000;122;69;0.38559
5400910;-0.11500;75.6250;122;69;0.37241
5400920;-0.11000;74.9375;122;69;0.34969
5400930;-0.10500;74.6250;122;69;0.34139
5400940;-0.07000;74.3125;122;69;0.33455
5400950;0.25500;74.0625;122;69;0.32601
5400960;0.66000;73.7500;122;69;0.31819
5400970;0.86500;73.3125;122;69;0.30720
5400980;0.35000;73.1250;122;69;0.30159
5400990;-0.21500;72.9375;122;69;0.29646
5401000;-0.27000;72.7500;122;69;0.29133
5401010;-0.19000;72.3750;122;69;0.28132
5401020;-0.18000;72.1875;122;69;0.27643
5401030;-0.17500;72.0000;122;69;0.27155
5401040;-0.17500;71.8125;122;69;0.26764
5401050;-0.17000;71.3125;122;69;0.26081
5401060;-0.17000;71.0625;122;69;0.25617
5401070;-0.17000;70.7500;122;69;0.25104
5401080;-0.16000;70.1875;122;69;0.24591
5401090;-0.15500;69.8125;122;69;0.23541
5401100;-0.15500;69.5000;122;69;0.23004
5401110;-0.15000;69.1875;122;69;0.22466
5401120;-0.14500;68.6250;122;69;0.21416
5401130;-0.13500;68.3125;122;69;0.21026
5401140;-0.12500;68.0625;122;69;0.20708
5401150;-0.11500;67.7500;122;69;0.20317
5401160;-0.10500;67.5000;122;69;0.19878
5401170;-0.09000;67.3750;122;69;0.18999
5401180;-0.07500;67.7500;122;69;0.18559
5401190;-0.06500;68.7500;122;69;0.18144
5401200;-0.06000;70.3750;122;69;0.17729
5401210;-0.04500;75.8750;122;69;0.16947
5401220;-0.03000;79.5000;122;69;0.16606
5401230;-0.01500;83.5000;122;69;0.16288
5401240;0.01000;92.1250;122;69;0.16117
5401250;0.04000;96.4375;122;69;0.15849
5401260;0.06000;100.5625;122;69;0.15678
5401270;0.09000;104.3750;122;69;0.15531
5401280;0.12000;110.5000;122;69;0.15385
5401290;0.16500;112.6875;122;69;0.15238
5401300;0.19000;114.3750;122;69;0.15214
5401310;0.21500;115.5000;122;69;0.15214
5401320;0.21000;116.5625;122;69;0.15287
5401330;0.18000;116.5625;122;69;0.15458
5401340;0.13500;116.2500;122;69;0.15678
5401350;0.07000;115.6875;122;69;0.15873
5401360;-0.00500;113.7500;122;69;0.16313
5401370;-0.04500;112.5625;122;69;0.16557
5401380;-0.08000;111.1875;122;69;0.16825
5401390;-0.09500;109.6875;122;69;0.17094
5401400;-0.08500;106.3750;122;69;0.17705
5401410;-0.08500;104.5625;122;69;0.18046
5401420;-0.09500;102.6875;122;69;0.18462
5401430;-0.10000;100.8125;122;69;0.19023
5401440;-0.10500;98.8125;122;69;0.20073
5401450;-0.11000;94.6250;122;69;0.22198
5401460;-0.11000;92.5000;122;69;0.23810
5401470;-0.10500;90.4375;122;69;0.25910
5401480;-0.10500;88.6250;122;69;0.28474
5401490;-0.10000;85.7500;122;69;0.34628
5401500;-0.09500;84.7500;122;69;0.37998
5401510;-0.09500;83.9375;122;69;0.41392
5401520;-0.10500;82.9375;122;69;0.47839
5401530;-0.10500;82.6250;122;69;0.50403
5401540;-0.10500;82.5000;122;69;0.52552
5401550;-0.09500;82.3750;122;69;0.54725
5401560;-0.09000;82.3125;122;69;0.56752
5401570;-0.08500;82.2500;122;69;0.60049
5401580;-0.08500;82.1875;122;69;0.61270
5401590;-0.08500;82.0625;122;69;0.62222
5401600;-0.08000;81.8750;122;69;0.63346
5401610;-0.08500;81.6875;122;69;0.63516
5401620;-0.09000;81.4375;122;69;0.63468
5401630;-0.09000;81.1250;122;69;0.63199
5401640;-0.08500;80.7500;122;69;0.62711
5401650;-0.05500;79.9375;122;69;0.61245
5401660;-0.03500;79.4375;122;69;0.60244
5401670;-0.02000;78.9375;122;69;0.59072
5401680;-0.00500;77.9375;122;69;0.55629
5401690;0.02000;77.4375;122;69;0.54359
5401700;0.06000;76.9375;122;69;0.52796
5401710;0.06000;76.5000;122;69;0.50598
5401720;0.03500;76.0625;122;69;0.48083
5401730;0.00000;75.1875;122;69;0.45275
5401740;-0.03000;74.8125;122;69;0.43687
5401750;-0.07500;74.4375;122;69;0.42100
5401760;-0.11500;73.6875;122;69;0.39463
5401770;-0.12500;73.3125;122;69;0.37900
5401780;-0.12500;72.9375;122;69;0.36679
5401790;-0.12500;72.6250;122;69;0.35678
5401800;-0.11500;72.0000;122;69;0.34164
5401810;-0.11500;71.7500;122;69;0.33724
5401820;-0.10000;71.5000;122;69;0.33382
5401830;0.03000;71.3125;122;69;0.33016
5401840;0.45500;71.0625;122;69;0.32698
5401850;0.89500;70.6875;122;69;0.32210
5401860;0.61000;70.5625;122;69;0.31844
5401870;-0.08000;70.4375;122;69;0.31502
5401880;-0.29500;70.1250;122;69;0.30818
5401890;-0.22500;70.0000;122;69;0.30452
5401900;-0.19000;69.8125;122;69;0.30061
5401910;-0.18500;69.6875;122;69;0.29695
5401920;-0.18500;69.3125;122;69;0.29353
5401930;-0.18000;69.1250;122;69;0.28913
5401940;-0.17000;68.8750;122;69;0.28669
5401950;-0.16000;68.6250;122;69;0.28425
5401960;-0.14500;68.1250;122;69;0.27888
5401970;-0.14000;67.8125;122;69;0.27595
5401980;-0.13500;67.5000;122;69;0.27302
5401990;-0.11500;67.2500;122;69;0.27009
5402000;-0.10500;66.6250;122;69;0.26325
5402010;-0.09500;66.3750;122;69;0.25958
5402020;-0.09000;66.1250;122;69;0.25665
5402030;-0.08000;65.8750;122;69;0.25397
5402040;-0.07500;65.6875;122;69;0.25055
5402050;-0.06500;65.6875;122;69;0.24298
5402060;-0.05500;66.1875;122;69;0.23956
5402070;-0.04500;67.3125;122;69;0.23614
5402080;-0.03500;69.1250;122;69;0.23272
5402090;-0.02500;74.9375;122;69;0.22662
5402100;-0.01000;78.6875;122;69;0.22369
5402110;0.00000;82.8125;122;69;0.22076
5402120;0.02000;87.1250;122;69;0.21807
5402130;0.05000;95.8750;122;69;0.21587
5402140;0.06500;100.0000;122;69;0.21441
5402150;0.09000;103.8125;122;69;0.21294
5402160;0.12000;107.1250;122;69;0.21123
5402170;0.15000;112.1875;122;69;0.20806
5402180;0.19500;113.9375;122;69;0.20684
5402190;0.22000;115.1250;122;69;0.20586
5402200;0.22500;116.3750;122;69;0.20488
5402210;0.20500;116.5000;122;69;0.20488
5402220;0.15500;116.3125;122;69;0.20562
5402230;0.08000;115.8125;122;69;0.20684
5402240;0.03000;115.1250;122;69;0.20757
5402250;-0.02000;113.0625;122;69;0.20928
5402260;-0.06500;111.7500;122;69;0.21050
5402270;-0.08000;110.3125;122;69;0.21221
5402280;-0.09500;108.6875;122;69;0.21392
5402290;-0.10500;105.3125;122;69;0.21929
5402300;-0.10500;103.5000;122;69;0.22369
5402310;-0.10500;101.5625;122;69;0.23053
5402320;-0.10500;99.6250;122;69;0.24078
5402330;-0.10500;95.5625;122;69;0.26813
5402340;-0.10500;93.5000;122;69;0.28864
5402350;-0.10000;91.5000;122;69;0.31429
5402360;-0.09500;89.6875;122;69;0.34408
5402370;-0.09000;86.8125;122;69;0.41099
5402380;-0.09000;85.7500;122;69;0.44591
5402390;-0.09000;84.8750;122;69;0.48034
5402400;-0.09000;84.1875;122;69;0.51306
5402410;-0.08500;83.3125;122;69;0.57192
5402420;-0.08500;83.0625;122;69;0.59389
5402430;-0.08500;82.8750;122;69;0.61148
5402440;-0.08500;82.7500;122;69;0.62930
5402450;-0.07500;82.5625;122;69;0.65934
5402460;-0.07500;82.4375;122;69;0.67057
5402470;-0.07500;82.2500;122;69;0.67912
5402480;-0.07500;82.0625;122;69;0.68498
5402490;-0.07500;81.6250;122;69;0.68962
5402500;-0.07500;81.3125;122;69;0.68840
5402510;-0.07500;81.0000;122;69;0.68498
5402520;-0.06500;80.2500;122;69;0.67937
5402530;-0.04500;79.8125;122;69;0.66325
5402540;-0.02500;79.3125;122;69;0.65250
5402550;0.00000;78.8750;122;69;0.64005
5402560;0.01000;77.9375;122;69;0.61074
5402570;0.02000;77.5000;122;69;0.59389
5402580;0.06000;77.0625;122;69;0.57631
5402590;0.08000;76.6250;122;69;0.55775
5402600;0.06000;75.8125;122;69;0.51990
5402610;0.03000;75.3750;122;69;0.50159
5402620;0.00000;75.0000;122;69;0.48571
5402630;-0.03500;74.6250;122;69;0.47155
5402640;-0.06500;74.2500;122;69;0.45739
5402650;-0.09500;73.5000;122;69;0.43150
5402660;-0.10000;73.1875;122;69;0.42027
5402670;-0.10000;72.8125;122;69;0.41026
5402680;-0.10000;72.5000;122;69;0.40122
5402690;-0.09500;71.8750;122;69;0.38584
5402700;-0.09000;71.6250;122;69;0.37924
5402710;-0.04500;71.3125;122;69;0.37338
5402720;0.21000;71.0625;122;69;0.36801
5402730;0.79000;70.6250;122;69;0.35995
5402740;0.91500;70.5000;122;69;0.35604
5402750;0.38000;70.3125;122;69;0.35189
5402760;-0.25000;70.0625;122;69;0.36508
5402770;-0.25000;69.8750;122;69;0.39292
5402780;-0.18500;69.7500;122;69;0.40537
5402790;-0.17000;69.5625;122;69;0.40977
5402800;-0.17000;69.5625;122;69;0.40977
5402810;-0.16500;69.0625;122;69;0.40537
5402820;-0.16000;68.8125;122;69;0.40269
5402830;-0.15500;68.6250;122;69;0.40000
5402840;-0.15500;68.3750;122;69;0.39658
5402850;-0.14500;67.8125;122;69;0.38901
5402860;-0.14000;67.5625;122;69;0.38535
5402870;-0.13000;67.3125;122;69;0.38169
5402880;-0.12500;66.7500;122;69;0.37802
5402890;-0.11000;66.4375;122;69;0.37070
5402900;-0.10500;66.1875;122;69;0.36679
5402910;-0.09000;65.9375;122;69;0.36288
5402920;-0.08000;65.7500;122;69;0.35873
5402930;-0.07000;65.5625;122;69;0.35287
5402940;-0.06500;65.8125;122;69;0.34945
5402950;-0.05500;66.5625;122;69;0.34579
5402960;-0.04500;70.1875;122;69;0.34188
5402970;-0.02500;73.1250;122;69;0.33455
5402980;-0.01000;76.6250;122;69;0.33138
5402990;0.00000;80.5625;122;69;0.32821
5403000;0.01000;84.8750;122;69;0.32527
5403010;0.03000;93.8125;122;69;0.32039
5403020;0.05000;98.1250;122;69;0.31917
5403030;0.07000;102.1875;122;69;0.31844
5403040;0.09500;105.8750;122;69;0.31722
5403050;0.12000;111.6875;122;69;0.31429
5403060;0.15500;113.8125;122;69;0.31282
5403070;0.19500;115.3750;122;69;0.31160
5403080;0.21000;116.5000;122;69;0.31062
5403090;0.21000;117.5625;122;69;0.30891
5403100;0.17000;117.6250;122;69;0.30867
5403110;0.12500;117.4375;122;69;0.30867
5403120;0.06000;117.0000;122;69;0.30891
5403130;-0.00500;115.4375;122;69;0.31136
5403140;-0.03500;114.3750;122;69;0.31233
5403150;-0.05500;113.1250;122;69;0.31306
5403160;-0.07500;110.1875;122;69;0.31526
5403170;-0.08500;108.5000;122;69;0.31697
5403180;-0.09000;106.7500;122;69;0.31966
5403190;-0.09500;104.9375;122;69;0.32430
5403200;-0.10000;101.1250;122;69;0.34237
5403210;-0.09500;99.0625;122;69;0.35702
5403220;-0.09500;96.9375;122;69;0.37289
5403230;-0.09500;94.7500;122;69;0.39096
5403240;-0.09500;92.5625;122;69;0.41441
5403250;-0.09500;88.5000;122;69;0.47204
5403260;-0.09500;86.8750;122;69;0.50354
5403270;-0.08500;85.5625;122;69;0.53553
5403280;-0.08500;84.5000;122;69;0.56679
5403290;-0.08500;83.1250;122;69;0.62466
5403300;-0.08500;82.6875;122;69;0.65055
5403310;-0.08500;82.4375;122;69;0.67375
5403320;-0.08500;82.3125;122;69;0.69426
5403330;-0.09000;82.3125;122;69;0.72137
5403340;-0.09000;82.3125;122;69;0.73260
5403350;-0.08500;82.3125;122;69;0.74237
5403360;-0.08500;82.2500;122;69;0.75580
5403370;-0.08500;82.0625;122;69;0.75897
5403380;-0.08500;81.8750;122;69;0.75995
5403390;-0.08000;81.6250;122;69;0.75897
5403400;-0.07500;81.0625;122;69;0.75067
5403410;-0.05500;80.6875;122;69;0.74359
5403420;-0.02500;80.3125;122;69;0.73529
5403430;0.00000;79.9375;122;69;0.72601
5403440;0.00500;79.5000;122;69;0.71502
5403450;0.03000;78.5625;122;69;0.68840
5403460;0.06500;78.1250;122;69;0.67302
5403470;0.09000;77.6875;122;69;0.65641
5403480;0.06500;77.2500;122;69;0.63883
5403490;0.02500;76.3125;122;69;0.60195
5403500;-0.01000;75.8750;122;69;0.58364
5403510;-0.04500;75.4375;122;69;0.56606
5403520;-0.09500;75.0000;122;69;0.54945
5403530;-0.11500;74.1875;122;69;0.52405
5403540;-0.12500;73.8125;122;69;0.51258
5403550;-0.12500;73.4375;122;69;0.50232
5403560;-0.12500;73.0625;122;69;0.49304
5403570;-0.12000;72.3750;122;69;0.47814
5403580;-0.11500;72.0625;122;69;0.47228
5403590;-0.06500;71.7500;122;69;0.46716
5403600;0.23500;71.3125;122;69;0.46276
5403610;0.82500;71.1250;122;69;0.45495
5403620;0.85000;70.9375;122;69;0.45201
5403630;0.23500;70.6875;122;69;0.44957
5403640;-0.29000;70.3750;122;69;0.44420
5403650;-0.25000;70.2500;122;69;0.44151
5403660;-0.19000;70.1250;122;69;0.43883
5403670;-0.18000;69.9375;122;69;0.43639
5403680;-0.17500;69.7500;122;69;0.43370
5403690;-0.17000;69.3125;122;69;0.42808
5403700;-0.16000;69.0625;122;69;0.42515
5403710;-0.15500;68.8125;122;69;0.42198
5403720;-0.15500;68.5625;122;69;0.41929
5403730;-0.14500;67.9375;122;69;0.41441
5403740;-0.14000;67.6875;122;69;0.41148
5403750;-0.13500;67.3750;122;69;0.40830
5403760;-0.12500;67.0625;122;69;0.40488
5403770;-0.11500;66.3750;122;69;0.39805
5403780;-0.10000;66.1250;122;69;0.39463
5403790;-0.09000;65.8125;122;69;0.39096
5403800;-0.09000;65.8125;122;69;0.39096
5403810;-0.07000;65.5000;122;69;0.37900
5403820;-0.06000;65.9375;122;69;0.37582
5403830;-0.05000;66.8750;122;69;0.37338
5403840;-0.04500;68.6250;122;69;0.37021
5403850;-0.03500;74.2500;122;69;0.36337
5403860;-0.01500;78.0000;122;69;0.35995
5403870;0.00000;82.1250;122;69;0.35653
5403880;0.01000;91.1250;122;69;0.35336
5403890;0.03000;95.6250;122;69;0.34725
5403900;0.05000;99.9375;122;69;0.34432
5403910;0.08500;103.9375;122;69;0.34164
5403920;0.11000;110.5000;122;69;0.34017
5403930;0.14500;113.0000;122;69;0.33846
5403940;0.17000;114.9375;122;69;0.33724
5403950;0.20000;116.4375;122;69;0.33602
5403960;0.21500;118.1250;122;69;0.33431
5403970;0.21500;118.4375;122;69;0.33358
5403980;0.17500;118.4375;122;69;0.33333
5403990;0.12000;118.1875;122;69;0.33309
5404000;0.05500;117.7500;122;69;0.33309
5404010;0.00500;116.1250;122;69;0.33358
5404020;-0.04000;115.0625;122;69;0.33431
5404030;-0.06000;113.8125;122;69;0.33529
5404040;-0.07500;110.9375;122;69;0.33578
5404050;-0.09500;109.3125;122;69;0.33773
5404060;-0.10500;107.6250;122;69;0.34017
5404070;-0.10500;105.8125;122;69;0.34457
5404080;-0.11000;102.0000;122;69;0.36264
5404090;-0.11000;99.9375;122;69;0.37802
5404100;-0.10500;97.8750;122;69;0.39780
5404110;-0.10500;95.8125;122;69;0.42173
5404120;-0.10000;93.6250;122;69;0.44518
5404130;-0.09500;89.8125;122;69;0.49744
5404140;-0.09500;88.2500;122;69;0.52796
5404150;-0.08500;87.0625;122;69;0.55922
5404160;-0.08500;86.0625;122;69;0.58974
5404170;-0.08000;84.6875;122;69;0.64615
5404180;-0.07500;84.2500;122;69;0.67082
5404190;-0.07500;83.9375;122;69;0.69280
5404200;-0.07000;83.6250;122;69;0.72894
5404210;-0.07000;83.5625;122;69;0.74286
5404220;-0.07500;83.5000;122;69;0.75214
5404230;-0.07500;83.3750;122;69;0.75824
5404240;-0.07000;83.0625;122;69;0.76801
5404250;-0.07000;82.8125;122;69;0.77021
5404260;-0.07500;82.5625;122;69;0.77045
5404270;-0.07500;82.3125;122;69;0.76825
5404280;-0.07500;81.9375;122;69;0.76410
5404290;-0.06500;81.1875;122;69;0.74994
5404300;-0.04000;80.8125;122;69;0.74017
5404310;-0.02000;80.3750;122;69;0.72894
5404320;-0.00500;79.5000;122;69;0.70452
5404330;0.00000;79.0625;122;69;0.69011
5404340;0.03000;78.6250;122;69;0.67424
5404350;0.07000;78.1875;122;69;0.65690
5404360;0.07000;77.7500;122;69;0.63883
5404370;0.04000;76.9375;122;69;0.60147
5404380;0.00500;76.5000;122;69;0.58315
5404390;-0.01500;76.1250;122;69;0.56557
5404400;-0.06500;75.7500;122;69;0.54896
5404410;-0.10000;74.9375;122;69;0.51941
5404420;-0.11500;74.6250;122;69;0.50769
5404430;-0.11500;74.2500;122;69;0.49792
5404440;-0.11500;73.6250;122;69;0.48864
5404450;-0.11000;73.3125;122;69;0.47253
5404460;-0.10500;73.0625;122;69;0.46545
5404470;-0.09500;72.8125;122;69;0.45910
5404480;0.01500;72.5625;122;69;0.45348
5404490;0.43500;72.1875;122;69;0.44322
5404500;1.00000;72.0000;122;69;0.43883
5404510;0.77500;71.8125;122;69;0.43492
5404520;0.05000;71.6250;122;69;0.43175
5404530;-0.27000;71.3125;122;69;0.42662
5404540;-0.22000;71.1875;122;69;0.42369
5404550;-0.18500;71.0000;122;69;0.42100
5404560;-0.18500;70.6875;122;69;0.41514
5404570;-0.18000;70.5000;122;69;0.41197
5404580;-0.17500;70.3125;122;69;0.40904
5404590;-0.16500;70.1250;122;69;0.40586
5404600;-0.16000;69.8750;122;69;0.40269
5404610;-0.15000;69.3750;122;69;0.39634
5404620;-0.14500;69.1250;122;69;0.39390
5404630;-0.13500;68.8125;122;69;0.39194
5404640;-0.12000;68.1875;122;69;0.38681
5404650;-0.11500;67.8750;122;69;0.38388
5404660;-0.10500;67.5625;122;69;0.38095
5404670;-0.09500;67.3125;122;69;0.37778
5404680;-0.09000;67.0625;122;69;0.37460
5404690;-0.08000;66.9375;122;69;0.36777
5404700;-0.07500;67.2500;122;69;0.36459
5404710;-0.06000;68.0625;122;69;0.36142
5404720;-0.05500;69.6250;122;69;0.35922
5404730;-0.04000;75.1875;122;69;0.35507
5404740;-0.02500;78.9375;122;69;0.35214
5404750;-0.01500;83.2500;122;69;0.34945
5404760;0.00000;92.5625;122;69;0.34652
5404770;0.02000;97.2500;122;69;0.34139
5404780;0.03000;101.7500;122;69;0.33944
5404790;0.05500;106.0000;122;69;0.33797
5404800;0.05500;106.0000;122;69;0.33797
5404810;0.11000;115.7500;122;69;0.32234
5404820;0.13500;117.9375;122;69;0.30183
5404830;0.16500;119.5625;122;69;0.29231
5404840;0.19500;120.7500;122;69;0.28767
5404850;0.20000;122.0000;122;69;0.28425
5404860;0.18500;122.1250;122;69;0.28400
5404870;0.14500;122.0625;122;69;0.28400
5404880;0.09000;121.1875;122;69;0.28449
5404890;0.03500;120.4375;122;69;0.28498
5404900;-0.01500;119.5625;122;69;0.28571
5404910;-0.04500;118.4375;122;69;0.28645
5404920;-0.07000;115.9375;122;69;0.28962
5404930;-0.08500;114.5000;122;69;0.29158
5404940;-0.09000;112.9375;122;69;0.29402
5404950;-0.09500;111.3125;122;69;0.29817
5404960;-0.09500;109.5625;122;69;0.30525
5404970;-0.10000;105.8750;122;69;0.33114
5404980;-0.10000;103.8750;122;69;0.35116
5404990;-0.10000;101.8750;122;69;0.37582
5405000;-0.09500;97.7500;121;69;0.40464
5405010;-0.09500;95.7500;121;69;0.47082
5405020;-0.08500;94.0000;121;69;0.50110
5405030;-0.07500;92.5000;121;69;0.52918
5405040;-0.07500;90.2500;121;69;0.59194
5405050;-0.07500;89.4375;121;69;0.62247
5405060;-0.06500;88.8750;121;69;0.65104
5405070;-0.06500;88.4375;121;69;0.67692
5405080;-0.07000;88.1250;121;69;0.69988
5405090;-0.07500;87.8125;121;69;0.73748
5405100;-0.07500;87.7500;121;69;0.75238
5405110;-0.08000;87.6250;121;69;0.76435
5405120;-0.08000;87.3125;121;69;0.77607
5405130;-0.08000;87.0625;121;69;0.77998
5405140;-0.08000;86.8125;121;69;0.78266
5405150;-0.07500;86.5000;121;69;0.78364
5405160;-0.07500;85.6875;121;69;0.78022
5405170;-0.06500;85.2500;121;69;0.77582
5405180;-0.05000;84.8125;121;69;0.76948
5405190;-0.01500;84.3750;121;69;0.76166
5405200;0.00500;83.8750;121;69;0.75238
5405210;0.01500;82.9375;121;69;0.72869
5405220;0.04000;82.4375;121;69;0.71575
5405230;0.07000;81.9375;121;69;0.70208
5405240;0.09000;81.4375;121;69;0.68694
5405250;0.07000;80.5000;121;69;0.65397
5405260;0.04000;80.0625;121;69;0.63687
5405270;0.00500;79.6250;121;69;0.62002
5405280;-0.02500;79.1250;121;69;0.60415
5405290;-0.08500;78.3125;121;69;0.57509
5405300;-0.10500;77.9375;121;69;0.56264
5405310;-0.11500;77.5625;121;69;0.55140
5405320;-0.11500;77.1875;121;69;0.54188
5405330;-0.11000;76.5000;121;69;0.52601
5405340;-0.10500;76.1875;121;69;0.51868
5405350;-0.09500;75.9375;121;69;0.51209
5405360;-0.11000;75.6875;121;69;0.50623
5405370;0.05500;75.2500;121;69;0.49573
5405380;0.54500;75.0000;121;69;0.49084
5405390;1.01000;74.8125;121;69;0.48596
5405400;0.29000;74.5000;121;69;0.47643
5405410;-0.17000;74.3125;121;69;0.47155
5405420;-0.22000;74.1875;121;69;0.46716
5405430;-0.16500;74.0000;121;69;0.46300
5405440;-0.16000;73.8125;121;69;0.45836
5405450;-0.16000;73.4375;121;69;0.44835
5405460;-0.15500;73.2500;121;69;0.44322
5405470;-0.15500;73.0000;121;69;0.43834
5405480;-0.15000;72.5625;121;69;0.42882
5405490;-0.14500;72.3125;121;69;0.42418
5405500;-0.14500;72.0625;121;69;0.41978
5405510;-0.13500;71.7500;121;69;0.41514
5405520;-0.13500;71.5000;121;69;0.41099
5405530;-0.12500;70.9375;121;69;0.40342
5405540;-0.11500;70.6875;121;69;0.39951
5405550;-0.10500;70.4375;121;69;0.39560
5405560;-0.09500;70.0000;121;69;0.38828
5405570;-0.09000;69.9375;121;69;0.38486
5405580;-0.07500;70.1250;121;69;0.38144
5405590;-0.06500;70.7500;121;69;0.37851
5405600;-0.06000;72.0000;121;69;0.37582
5405610;-0.04500;77.0000;121;69;0.37143
5405620;-0.03500;80.6250;121;69;0.36996
5405630;-0.01500;84.7500;121;69;0.36825
5405640;0.00500;94.0000;121;69;0.36532
5405650;0.02000;98.7500;121;69;0.36410
5405660;0.04000;103.3750;121;69;0.36288
5405670;0.06500;107.6875;121;69;0.36190
5405680;0.09000;111.5625;121;69;0.36142
5405690;0.11000;114.9375;121;69;0.36117
5405700;0.13500;117.7500;121;69;0.36093
5405710;0.16500;120.0625;121;69;0.36093
5405720;0.20500;123.1875;121;69;0.36117
5405730;0.22000;124.0625;121;69;0.36166
5405740;0.22500;124.6875;121;69;0.36190
5405750;0.20000;124.9375;121;69;0.36190
5405760;0.14000;124.6250;121;69;0.36117
5405770;0.09000;124.1875;121;69;0.36068
5405780;0.03000;123.6250;121;69;0.35995
5405790;-0.02500;122.8125;121;69;0.35946
5405800;-0.05000;121.8125;121;69;0.35873
5405810;-0.07500;119.5000;121;69;0.35678
5405820;-0.09500;118.1250;121;69;0.35653
5405830;-0.10500;116.6250;121;69;0.35702
5405840;-0.10500;113.3125;121;69;0.36215
5405850;-0.10500;111.5625;121;69;0.36874
5405860;-0.10500;109.6875;121;69;0.37949
5405870;-0.10500;107.6250;121;69;0.39487
5405880;-0.10500;103.3125;121;69;0.43932
5405890;-0.10500;101.1250;121;69;0.46740
5405900;-0.09500;98.9375;121;69;0.49817
5405910;-0.09500;96.8750;121;69;0.53016
5405920;-0.08500;95.1250;121;69;0.56239
5405930;-0.08000;92.3750;121;69;0.61368
5405940;-0.07500;91.4375;121;69;0.63956
5405950;-0.07000;90.7500;121;69;0.66520
5405960;-0.06500;90.1875;121;69;0.68938
5405970;-0.06500;89.5000;121;69;0.73040
5405980;-0.06500;89.3125;121;69;0.74701
5405990;-0.06500;89.1875;121;69;0.76117
5406000;-0.07000;89.0625;121;68;0.77289
5406010;-0.07000;88.7500;121;68;0.78901
5406020;-0.07500;88.6250;121;68;0.79219
5406030;-0.07500;88.3750;121;68;0.79267
5406040;-0.07000;87.6875;121;68;0.79194
5406050;-0.07000;87.3125;121;68;0.78950
5406060;-0.06500;86.8750;121;68;0.78535
5406070;-0.03500;86.3750;121;68;0.77973
5406080;-0.01500;85.8750;121;68;0.77241
5406090;0.01000;84.8125;121;68;0.75336
5406100;0.02500;84.2500;121;68;0.74139
5406110;0.04000;83.6875;121;68;0.72796
5406120;0.08000;82.5625;121;68;0.69866
5406130;0.09000;82.0000;121;68;0.68376
5406140;0.07000;81.4375;121;68;0.66740
5406150;0.03500;80.8750;121;68;0.65006
5406160;-0.00500;79.8125;121;68;0.61563
5406170;-0.04500;79.2500;121;68;0.59927
5406180;-0.09500;78.7500;121;68;0.58388
5406190;-0.11000;78.2500;121;68;0.56972
5406200;-0.11500;77.7500;121;68;0.55702
5406210;-0.11500;76.8750;121;68;0.53553
5406220;-0.11500;76.4375;121;68;0.52698
5406230;-0.11000;76.0625;121;68;0.51966
5406240;-0.10500;75.6875;121;68;0.51233
5406250;0.00000;75.0000;121;68;0.49963
5406260;0.30000;74.6875;121;68;0.49402
5406270;0.85500;74.3750;121;68;0.48864
5406280;0.90500;73.8750;121;68;0.48352
5406290;0.06000;73.6250;121;68;0.47326
5406300;-0.26000;73.4375;121;68;0.46813
5406310;-0.23000;73.1875;121;68;0.46276
5406320;-0.17500;72.8125;121;68;0.45299
5406330;-0.17000;72.6250;121;68;0.44860
5406340;-0.16500;72.3750;121;68;0.44347
5406350;-0.16000;72.1875;121;68;0.43810
5406360;-0.16000;71.9375;121;68;0.43248
5406370;-0.15500;71.3125;121;68;0.42125
5406380;-0.14500;71.0000;121;68;0.41563
5406390;-0.14500;70.6875;121;68;0.41001
5406400;-0.13000;70.0625;121;68;0.40440
5406410;-0.12000;69.6875;121;68;0.39267
5406420;-0.11500;69.3125;121;68;0.38779
5406430;-0.11500;69.0000;121;68;0.38315
5406440;-0.10500;68.3125;121;68;0.37265
5406450;-0.09500;68.0000;121;68;0.36703
5406460;-0.08500;67.7500;121;68;0.36142
5406470;-0.07000;67.6250;121;68;0.35580
5406480;-0.06000;67.6250;121;68;0.35018
5406490;-0.04500;69.0625;121;68;0.33919
5406500;-0.02500;70.8750;121;68;0.33407
5406510;-0.01500;73.5000;121;68;0.32918
5406520;0.00000;76.8125;121;68;0.32454
5406530;0.02000;84.9375;121;68;0.31844
5406540;0.03500;89.5000;121;68;0.31502
5406550;0.05500;94.1250;121;68;0.31160
5406560;0.08000;98.6875;121;68;0.30794
5406570;0.10000;106.9375;121;68;0.30134
5406580;0.13000;110.3750;121;68;0.29841
5406590;0.15500;113.3125;121;68;0.29597
5406600;0.19500;117.4375;121;68;0.29280
5406610;0.21500;118.6875;121;68;0.29158
5406620;0.23500;119.5625;121;68;0.29133
5406630;0.21500;120.1250;121;68;0.29182
5406640;0.18500;120.3125;121;68;0.29182
5406650;0.13000;119.8125;121;68;0.29158
5406660;0.07000;119.2500;121;68;0.29158
5406670;0.01500;118.4375;121;68;0.29182
5406680;-0.01000;117.5000;121;68;0.29255
5406690;-0.04500;115.1250;121;68;0.29377
5406700;-0.06500;113.6875;121;68;0.29402
5406710;-0.07500;112.1875;121;68;0.29451
5406720;-0.08000;110.5625;121;68;0.29524
5406730;-0.08000;107.0000;121;68;0.30037
5406740;-0.08000;105.1250;121;68;0.30574
5406750;-0.08000;103.1250;121;68;0.31429
5406760;-0.08000;99.0000;121;68;0.34383
5406770;-0.07500;96.9375;121;68;0.36557
5406780;-0.07000;94.9375;121;68;0.39121
5406790;-0.07000;93.1250;121;68;0.41978
5406800;-0.07000;93.1250;121;68;0.41978
5406810;-0.06500;88.8750;121;68;0.51013
5406820;-0.06000;87.9375;121;68;0.53480
5406830;-0.05500;87.1250;121;68;0.55580
5406840;-0.05500;86.0625;121;68;0.59853
5406850;-0.05500;85.6875;121;68;0.61734
5406860;-0.05000;85.4375;121;68;0.63346
5406870;-0.04500;85.1875;121;68;0.63590
5406880;-0.04000;85.0000;121;68;0.63004
5406890;-0.04500;84.6250;121;68;0.63028
5406900;-0.04500;84.4375;121;68;0.63101
5406910;-0.04500;84.1875;121;68;0.63053
5406920;-0.04500;83.5625;121;68;0.62466
5406930;-0.04500;83.1875;121;68;0.61929
5406940;-0.02500;82.8125;121;68;0.61270
5406950;0.00000;82.3750;121;68;0.60488
5406960;0.01500;81.9375;121;68;0.59560
5406970;0.02000;81.0625;121;68;0.57241
5406980;0.03000;80.5625;121;68;0.55897
5406990;0.07500;80.0625;121;68;0.54432
5407000;0.10000;79.5625;120;68;0.52845
5407010;0.08000;78.6250;120;68;0.49499
5407020;0.04000;78.1875;120;68;0.47961
5407030;0.00000;77.7500;120;68;0.46496
5407040;-0.03500;77.3125;120;68;0.44884
5407050;-0.08500;76.4375;120;68;0.41636
5407060;-0.11500;76.0000;120;68;0.40049
5407070;-0.11500;75.6250;120;68;0.38584
5407080;-0.12000;74.8750;120;68;0.37216
5407090;-0.11500;74.5625;120;68;0.34896
5407100;-0.11000;74.1875;120;68;0.33944
5407110;-0.10500;73.8750;120;68;0.33114
5407120;-0.07500;73.5625;120;68;0.32381
5407130;0.15000;73.0625;120;68;0.31429
5407140;0.62000;72.7500;120;68;0.30989
5407150;0.83000;72.5000;120;68;0.30549
5407160;0.37000;72.3125;120;68;0.30110
5407170;-0.21500;71.9375;120;68;0.29255
5407180;-0.26000;71.6875;120;68;0.28840
5407190;-0.20000;71.5000;120;68;0.28400
5407200;-0.18000;71.1875;120;68;0.27985
5407210;-0.17000;70.9375;120;68;0.27204
5407220;-0.17000;70.6875;120;68;0.26911
5407230;-0.16000;70.5000;120;68;0.26667
5407240;-0.15500;69.9375;120;68;0.26032
5407250;-0.15000;69.6875;120;68;0.25665
5407260;-0.14500;69.4375;120;68;0.25275
5407270;-0.14000;69.1250;120;68;0.24884
5407280;-0.13500;68.5000;120;68;0.24469
5407290;-0.13000;68.1875;120;68;0.23614
5407300;-0.12500;67.9375;120;68;0.23199
5407310;-0.12000;67.6250;120;68;0.22808
5407320;-0.10500;67.0000;120;68;0.22320
5407330;-0.09500;66.7500;120;68;0.22002
5407340;-0.08500;66.5000;120;68;0.21636
5407350;-0.07000;66.3750;120;68;0.21245
5407360;-0.06000;66.4375;120;68;0.20830
5407370;-0.04500;67.8125;120;68;0.20049
5407380;-0.03500;69.4375;120;68;0.19683
5407390;-0.01500;71.7500;120;68;0.19341
5407400;0.00000;78.3125;120;68;0.19023
5407410;0.02500;82.2500;120;68;0.18486
5407420;0.04500;86.4375;120;68;0.18339
5407430;0.07000;90.6875;120;68;0.18266
5407440;0.10000;99.0000;120;68;0.18022
5407450;0.12500;102.7500;120;68;0.17875
5407460;0.15500;106.0000;120;68;0.17753
5407470;0.19500;108.7500;120;68;0.17631
5407480;0.22500;110.9375;120;68;0.17534
5407490;0.24500;113.7500;120;68;0.17460
5407500;0.24000;114.5000;120;68;0.17485
5407510;0.21500;114.8125;120;68;0.17534
5407520;0.15500;114.8125;120;68;0.17680
5407530;0.07500;113.8750;120;68;0.18071
5407540;0.02500;113.0625;120;68;0.18242
5407550;-0.02500;112.0625;120;68;0.18413
5407560;-0.06000;109.5000;120;68;0.18852
5407570;-0.07500;108.0000;120;68;0.19072
5407580;-0.08000;106.3750;120;68;0.19316
5407590;-0.08500;104.6875;120;68;0.19585
5407600;-0.09000;102.9375;120;68;0.19927
5407610;-0.09500;99.1875;120;68;0.21001
5407620;-0.09500;97.3125;120;68;0.21783
5407630;-0.09500;95.3125;120;68;0.22808
5407640;-0.09500;93.3125;120;68;0.24200
5407650;-0.09500;89.5000;120;68;0.28303
5407660;-0.09000;87.8750;120;68;0.30965
5407670;-0.08500;86.4375;120;68;0.33919
5407680;-0.08500;85.2500;120;68;0.37094
5407690;-0.08500;83.5625;120;68;0.43590
5407700;-0.08000;83.0625;120;68;0.46764
5407710;-0.07500;82.6250;120;68;0.49768
5407720;-0.07500;82.3750;120;68;0.52186
5407730;-0.07500;82.0000;120;68;0.56239
5407740;-0.07500;81.8750;120;68;0.58120
5407750;-0.07000;81.8125;120;68;0.59780
5407760;-0.07000;81.6875;120;68;0.61172
5407770;-0.09000;81.4375;120;68;0.63077
5407780;-0.10000;81.2500;120;68;0.63590
5407790;-0.09500;81.0625;120;68;0.63883
5407800;-0.09500;81.0625;120;68;0.63883
5407810;-0.08500;80.0625;120;68;0.63346
5407820;-0.06500;79.6875;120;68;0.62759
5407830;-0.04500;79.3125;120;68;0.62002
5407840;-0.01500;78.4375;120;68;0.60024
5407850;-0.00500;78.0000;120;68;0.58803
5407860;0.00500;77.5625;120;68;0.57436
5407870;0.05000;77.0625;120;68;0.55922
5407880;0.07000;76.6250;120;68;0.54310
5407890;0.06000;75.8125;120;68;0.50891
5407900;0.02000;75.4375;120;68;0.49158
5407910;-0.01500;75.0000;120;68;0.47424
5407920;-0.02500;74.6250;120;68;0.45934
5407930;-0.05000;73.8750;120;68;0.43248
5407940;-0.07500;73.5000;120;68;0.41929
5407950;-0.08500;73.1250;120;68;0.40684
5407960;-0.09000;72.4375;120;68;0.39560
5407970;-0.09500;72.1250;120;68;0.37705
5407980;-0.09000;71.8125;120;68;0.36972
5407990;-0.08500;71.5625;120;68;0.36361
5408000;-0.05500;71.2500;120;68;0.35824
5408010;0.15500;70.8125;120;68;0.34921
5408020;0.63000;70.6250;120;68;0.34579
5408030;0.87500;70.3750;120;68;0.34286
5408040;0.42000;70.1875;120;68;0.33968
5408050;-0.19000;69.8125;120;68;0.33358
5408060;-0.25000;69.6250;120;68;0.33040
5408070;-0.19000;69.5000;120;68;0.32747
5408080;-0.16000;69.1875;120;68;0.32161
5408090;-0.16000;69.0000;120;68;0.31844
5408100;-0.16000;68.7500;120;68;0.31502
5408110;-0.16000;68.5625;120;68;0.31184
5408120;-0.15500;68.3125;120;68;0.30916
5408130;-0.14500;67.8750;120;68;0.30354
5408140;-0.14500;67.6250;120;68;0.30012
5408150;-0.14000;67.3750;120;68;0.29646
5408160;-0.13000;66.8125;120;68;0.28864
5408170;-0.12500;66.5000;120;68;0.28474
5408180;-0.11500;66.2500;120;68;0.28083
5408190;-0.11000;65.9375;120;68;0.27643
5408200;-0.09500;65.6250;120;68;0.27204
5408210;-0.08500;65.1875;120;68;0.26252
5408220;-0.07500;65.0625;120;68;0.25885
5408230;-0.06500;64.9375;120;68;0.25568
5408240;-0.05500;65.5625;120;68;0.25177
5408250;-0.04000;66.6875;120;68;0.24347
5408260;-0.03000;68.5000;120;68;0.23932
5408270;-0.01500;71.0625;120;68;0.23516
5408280;-0.00500;74.2500;120;68;0.23126
5408290;0.01500;81.9375;120;68;0.22442
5408300;0.04000;86.2500;120;68;0.22125
5408310;0.06000;90.5625;120;68;0.21832
5408320;0.09000;94.7500;120;68;0.21636
5408330;0.12500;102.3125;120;68;0.21294
5408340;0.15500;105.5000;120;68;0.21099
5408350;0.19000;108.1875;120;68;0.20904
5408360;0.22500;111.8750;120;68;0.20757
5408370;0.25500;113.0625;120;68;0.20537
5408380;0.25500;113.7500;120;68;0.20464
5408390;0.21500;114.1250;120;68;0.20440
5408400;0.16500;114.1250;120;68;0.20415
5408410;0.10000;113.3125;120;68;0.20513
5408420;0.03000;112.5625;120;68;0.20659
5408430;-0.00500;111.6250;120;68;0.20879
5408440;-0.03500;110.5000;120;68;0.21074
5408450;-0.06500;107.7500;120;68;0.21441
5408460;-0.08000;106.2500;120;68;0.21612
5408470;-0.09000;104.5625;120;68;0.21807
5408480;-0.10000;101.1250;120;68;0.22393
5408490;-0.10000;99.2500;120;68;0.22955
5408500;-0.09500;97.3750;120;68;0.23810
5408510;-0.09000;95.3750;120;68;0.25079
5408520;-0.09500;91.3125;120;68;0.28181
5408530;-0.09000;89.3125;120;68;0.30427
5408540;-0.08500;87.3750;120;68;0.33114
5408550;-0.08500;85.6875;120;68;0.36117
5408560;-0.08000;84.2500;120;68;0.39341
5408570;-0.07500;82.3125;120;68;0.45983
5408580;-0.07500;81.6250;120;68;0.49231
5408590;-0.07500;81.1250;120;68;0.52283
5408600;-0.07000;80.6250;120;68;0.55092
5408610;-0.06500;80.5000;120;68;0.59780
5408620;-0.06000;80.5000;120;68;0.61392
5408630;-0.05500;80.5000;120;68;0.62613
5408640;-0.05500;80.5000;120;68;0.63785
5408650;-0.05500;80.4375;120;68;0.65641
5408660;-0.05500;80.3125;120;68;0.66203
5408670;-0.06000;80.1250;120;68;0.66545
5408680;-0.06500;79.6875;120;68;0.66545
5408690;-0.06000;79.3750;120;68;0.66203
5408700;-0.04500;79.0625;120;68;0.65665
5408710;-0.02500;78.6875;120;68;0.64908
5408720;0.00000;78.3125;120;68;0.64005
5408730;0.01500;77.5000;120;68;0.61832
5408740;0.02000;77.0625;120;68;0.60488
5408750;0.04500;76.6875;120;68;0.58974
5408760;0.08000;75.8125;120;68;0.55580
5408770;0.08500;75.3750;120;68;0.53748
5408780;0.05000;74.9375;120;68;0.51868
5408790;0.01000;74.5000;120;68;0.49963
5408800;0.01000;74.5000;120;68;0.49963
5408810;-0.05500;73.3125;120;68;0.44713
5408820;-0.09500;72.9375;120;68;0.43346
5408830;-0.10500;72.6250;120;68;0.42198
5408840;-0.10500;71.9375;120;68;0.41050
5408850;-0.10500;71.6250;120;68;0.39072
5408860;-0.09500;71.3125;120;68;0.38242
5408870;-0.08500;71.0625;120;68;0.37534
5408880;-0.06500;70.6250;120;68;0.36386
5408890;0.06000;70.4375;120;68;0.35922
5408900;0.56500;70.1875;120;68;0.35507
5408910;0.94500;69.9375;120;68;0.35140
5408920;0.69500;69.7500;120;68;0.36801
5408930;0.01000;69.3125;120;68;0.40684
5408940;-0.25500;69.0625;120;68;0.41123
5408950;-0.20000;68.8750;120;68;0.41172
5408960;-0.16000;68.6875;120;68;0.41050
5408970;-0.16000;68.3750;120;68;0.40537
5408980;-0.15500;68.1250;120;68;0.40244
5408990;-0.14500;67.9375;120;68;0.39951
5409000;-0.13500;67.5625;121;68;0.39634
5409010;-0.13500;67.3125;121;68;0.38974
5409020;-0.12500;67.0625;121;68;0.38730
5409030;-0.11500;66.8125;121;68;0.38486
5409040;-0.11000;66.5000;121;68;0.38193
5409050;-0.10500;66.0000;121;68;0.37509
5409060;-0.09500;65.7500;121;68;0.37143
5409070;-0.09000;65.5000;121;68;0.36752
5409080;-0.08000;65.0000;121;68;0.36361
5409090;-0.06500;64.8125;121;68;0.35458
5409100;-0.06000;64.6250;121;68;0.34994
5409110;-0.04500;64.5000;121;68;0.34554
5409120;-0.03500;65.0625;121;68;0.33944
5409130;-0.02500;66.0625;121;68;0.33578
5409140;-0.01500;67.8125;121;68;0.33211
5409150;-0.00500;70.2500;121;68;0.32845
5409160;0.01500;76.9375;121;68;0.32112
5409170;0.03000;81.0000;121;68;0.31746
5409180;0.04500;85.3125;121;68;0.31380
5409190;0.07000;89.6250;121;68;0.31038
5409200;0.08500;93.9375;121;68;0.30696
5409210;0.11000;101.8125;121;68;0.30232
5409220;0.14500;105.1250;121;68;0.30110
5409230;0.17000;108.0000;121;68;0.29963
5409240;0.20500;110.3125;121;68;0.29817
5409250;0.23000;113.5625;121;68;0.29597
5409260;0.24500;114.5625;121;68;0.29524
5409270;0.22500;115.0625;121;68;0.29499
5409280;0.18000;115.3125;121;68;0.29499
5409290;0.10000;114.8750;121;68;0.29573
5409300;0.05000;114.3125;121;68;0.29646
5409310;-0.00500;113.5000;121;68;0.29744
5409320;-0.04500;111.3750;121;68;0.30110
5409330;-0.06500;110.0625;121;68;0.30256
5409340;-0.08000;108.6250;121;68;0.30379
5409350;-0.09500;107.1250;121;68;0.30525
5409360;-0.09500;103.7500;121;68;0.30989
5409370;-0.09500;101.9375;121;68;0.31453
5409380;-0.10000;100.0625;121;68;0.32186
5409390;-0.10000;98.1875;121;68;0.33284
5409400;-0.09500;96.1875;121;68;0.34823
5409410;-0.09500;92.1250;121;68;0.38901
5409420;-0.09500;90.1875;121;68;0.41148
5409430;-0.09500;88.3750;121;68;0.43907
5409440;-0.09500;85.4375;121;68;0.50354
5409450;-0.09500;84.3750;121;68;0.53724
5409460;-0.09500;83.6250;121;68;0.57070
5409470;-0.09500;83.0000;121;68;0.60269
5409480;-0.09500;82.5625;121;68;0.63248
5409490;-0.09500;82.0000;121;68;0.68376
5409500;-0.09000;81.8750;121;68;0.70476
5409510;-0.08000;81.7500;121;68;0.72259
5409520;-0.07500;81.6875;121;68;0.73504
5409530;-0.07500;81.5000;121;68;0.75214
5409540;-0.09000;81.3750;121;68;0.75897
5409550;-0.10000;81.1875;121;68;0.76386
5409560;-0.10500;80.9375;121;68;0.76654
5409570;-0.10500;80.3750;121;68;0.76581
5409580;-0.10000;80.0625;121;68;0.76215
5409590;-0.08000;79.7500;121;68;0.75653
5409600;-0.05500;79.0625;121;68;0.73895
5409610;-0.04500;78.6875;121;68;0.72796
5409620;-0.03500;78.3125;121;68;0.71575
5409630;0.00000;77.9375;121;68;0.70183
5409640;0.03000;77.5000;121;68;0.68620
5409650;0.03000;76.5625;121;68;0.65104
5409660;-0.01000;76.0625;121;68;0.63223
5409670;-0.04000;75.5625;121;68;0.61319
5409680;-0.07000;74.6250;121;68;0.59438
5409690;-0.12500;74.2500;121;68;0.55849
5409700;-0.15500;73.8125;121;68;0.54212
5409710;-0.17000;73.4375;121;68;0.52698
5409720;-0.17500;72.7500;121;68;0.50452
5409730;-0.17500;72.3750;121;68;0.49426
5409740;-0.17000;72.0625;121;68;0.48474
5409750;-0.16500;71.7500;121;68;0.47619
5409760;-0.15500;71.5000;121;68;0.46862
5409770;-0.00500;71.0000;121;68;0.45592
5409780;0.53500;70.8125;121;68;0.45055
5409790;0.88000;70.6250;121;68;0.44591
5409800;0.57000;70.4375;121;68;0.44176
5409810;-0.23000;70.0625;121;68;0.43492
5409820;-0.33500;69.9375;121;68;0.43223
5409830;-0.27000;69.7500;121;68;0.42955
5409840;-0.23000;69.5625;121;68;0.42686
5409850;-0.22500;69.1875;121;68;0.42149
5409860;-0.22500;68.9375;121;68;0.41880
5409870;-0.22000;68.7500;121;68;0.41587
5409880;-0.21000;68.3125;121;68;0.40977
5409890;-0.20500;68.0625;121;68;0.40635
5409900;-0.19500;67.8125;121;68;0.40269
5409910;-0.19000;67.5625;121;68;0.39878
5409920;-0.18500;67.2500;121;68;0.39560
5409930;-0.18000;66.7500;121;68;0.38950
5409940;-0.17000;66.4375;121;68;0.38584
5409950;-0.16000;66.1875;121;68;0.38217
5409960;-0.15500;65.8750;121;68;0.37851
5409970;-0.14500;65.3750;121;68;0.37094
5409980;-0.13500;65.1875;121;68;0.36703
5409990;-0.12500;65.0625;121;68;0.36313
5410000;-0.11500;65.7500;121;68;0.35580
5410010;-0.10500;66.8750;121;68;0.35311
5410020;-0.09500;68.7500;121;68;0.35067
5410030;-0.08000;71.3750;121;68;0.34750
5410040;-0.07000;74.6250;121;68;0.34383
5410050;-0.05000;82.5000;121;68;0.33651
5410060;-0.02500;86.8750;121;68;0.33284
5410070;-0.00500;91.3750;121;68;0.32943
5410080;0.02500;95.7500;121;68;0.32625
5410090;0.05000;103.7500;121;68;0.32112
5410100;0.08000;107.0625;121;68;0.31917
5410110;0.11000;109.9375;121;68;0.31770
5410120;0.14500;114.0625;121;68;0.31722
5410130;0.17500;115.3750;121;68;0.31722
5410140;0.18000;116.3125;121;68;0.31697
5410150;0.16000;116.8750;121;68;0.31673
5410160;0.10000;117.0625;121;68;0.31722
5410170;0.04500;116.6875;121;68;0.31795
5410180;-0.02000;116.1250;121;68;0.31868
5410190;-0.07500;115.3750;121;68;0.31941
5410200;-0.10500;114.3750;121;68;0.32015
5410210;-0.13000;112.0000;121;68;0.32210
5410220;-0.14500;110.5625;121;68;0.32357
5410230;-0.15500;109.0000;121;68;0.32503
5410240;-0.15500;107.3750;121;68;0.32698
5410250;-0.16000;103.8125;121;68;0.33455
5410260;-0.16000;101.9375;121;68;0.34188
5410270;-0.16000;100.0000;121;68;0.35263
5410280;-0.15500;95.9375;121;68;0.38755
5410290;-0.15500;93.8750;121;68;0.41197
5410300;-0.15500;91.8125;121;68;0.44054
5410310;-0.15000;89.9375;121;68;0.47204
5410320;-0.14500;88.2500;121;68;0.50085
5410330;-0.14000;85.7500;121;68;0.55922
5410340;-0.13500;84.8750;121;68;0.59096
5410350;-0.12500;84.1875;121;68;0.62173
5410360;-0.12500;83.4375;121;68;0.67766
5410370;-0.12000;83.1875;121;68;0.70159
5410380;-0.12000;83.0625;121;68;0.72283
5410390;-0.12000;82.9375;121;68;0.74090
5410400;-0.12000;82.8750;121;68;0.75604
5410410;-0.12000;82.6875;121;68;0.77558
5410420;-0.12500;82.5625;121;68;0.77973
5410430;-0.12500;82.3750;121;68;0.78315
5410440;-0.12500;82.1250;121;68;0.78486
5410450;-0.12500;81.5625;121;68;0.78242
5410460;-0.12000;81.1875;121;68;0.77802
5410470;-0.10000;80.8125;121;68;0.77167
5410480;-0.08000;80.4375;121;68;0.76361
5410490;-0.05500;79.6250;121;68;0.74164
5410500;-0.04500;79.1875;121;68;0.72821
5410510;-0.03500;78.7500;121;68;0.71306
5410520;0.00000;77.8125;121;68;0.69792
5410530;0.03000;77.3750;121;68;0.66496
5410540;0.01000;77.0000;121;68;0.64664
5410550;-0.02000;76.5625;121;68;0.62759
5410560;-0.04000;76.1250;121;68;0.60855
5410570;-0.07500;75.3750;121;68;0.57192
5410580;-0.12500;75.0000;121;68;0.55482
5410590;-0.14500;74.6250;121;68;0.53895
5410600;-0.14500;74.2500;121;68;0.52454
5410610;-0.14500;73.6250;121;68;0.50134
5410620;-0.14500;73.3125;121;68;0.49255
5410630;-0.13500;73.0000;121;68;0.48425
5410640;-0.13000;72.6875;121;68;0.47668
5410650;-0.11000;72.1250;121;68;0.46398
5410660;0.10000;71.8750;121;68;0.45861
5410670;0.62000;71.6875;121;68;0.45397
5410680;0.99000;71.5000;121;68;0.45006
5410690;0.39000;71.1875;121;68;0.44347
5410700;-0.22000;71.0625;121;68;0.44054
5410710;-0.28000;70.8750;121;68;0.43761
5410720;-0.22000;70.5625;121;68;0.43516
5410730;-0.20000;70.4375;121;68;0.43077
5410740;-0.20000;70.3125;121;68;0.42784
5410750;-0.20000;70.1250;121;68;0.42491
5410760;-0.20000;69.7500;121;68;0.41880
5410770;-0.19500;69.5625;121;68;0.41563
5410780;-0.19000;69.3750;121;68;0.41245
5410790;-0.18500;69.1250;121;68;0.40904
5410800;-0.18500;69.1250;121;68;0.40904
5410810;-0.17500;68.2500;121;68;0.39927
5410820;-0.17000;68.0000;121;68;0.39683
5410830;-0.16000;67.7500;121;68;0.39414
5410840;-0.14500;67.1875;121;68;0.38755
5410850;-0.13000;66.9375;121;68;0.38413
5410860;-0.11500;66.7500;121;68;0.38046
5410870;-0.11500;66.6250;121;68;0.37705
5410880;-0.10500;67.2500;121;68;0.37338
5410890;-0.08500;68.3125;121;68;0.36557
5410900;-0.07500;70.2500;121;68;0.36190
5410910;-0.06000;72.8750;121;68;0.35824
5410920;-0.04500;76.2500;121;68;0.35531
5410930;-0.02000;84.5000;121;68;0.35043
5410940;0.00000;89.1250;121;68;0.34774
5410950;0.02000;93.7500;121;68;0.34530
5410960;0.05500;102.5625;121;68;0.32991
5410970;0.07500;106.5000;121;68;0.31184
5410980;0.11000;110.0000;121;68;0.30232
5410990;0.13500;112.9375;121;68;0.29744
5411000;0.15500;115.3750;120;68;0.29499
5411010;0.19000;118.7500;120;68;0.29402
5411020;0.21500;119.8125;120;68;0.29499
5411030;0.22000;120.5000;120;68;0.29573
5411040;0.19500;120.8750;120;68;0.29646
5411050;0.13500;120.8125;120;68;0.29792
5411060;0.09000;120.4375;120;68;0.29866
5411070;0.03000;119.9375;120;68;0.29939
5411080;-0.02000;118.3125;120;68;0.30110
5411090;-0.04500;117.2500;120;68;0.30208
5411100;-0.07500;116.0000;120;68;0.30305
5411110;-0.09000;114.6250;120;68;0.30452
5411120;-0.10500;111.6250;120;68;0.30940
5411130;-0.11000;109.9375;120;68;0.31380
5411140;-0.11500;108.1875;120;68;0.32063
5411150;-0.11500;106.3750;120;68;0.33089
5411160;-0.11000;104.4375;120;68;0.34554
5411170;-0.11000;100.3125;120;68;0.38828
5411180;-0.11000;98.2500;120;68;0.41636
5411190;-0.11000;96.3125;120;68;0.44762
5411200;-0.10500;94.5625;120;68;0.48132
5411210;-0.10500;91.6250;120;68;0.54554
5411220;-0.10500;90.5000;120;68;0.57216
5411230;-0.10500;89.5625;120;68;0.60122
5411240;-0.10500;88.8125;120;68;0.63028
5411250;-0.10000;87.6875;120;68;0.68376
5411260;-0.10000;87.3125;120;68;0.70696
5411270;-0.09500;87.0625;120;68;0.72747
5411280;-0.10000;86.6875;120;68;0.76044
5411290;-0.10000;86.5000;120;68;0.77289
5411300;-0.10000;86.2500;120;68;0.78242
5411310;-0.10000;86.0625;120;68;0.78779
5411320;-0.09500;85.4375;120;68;0.79170
5411330;-0.09500;85.0625;120;68;0.79219
5411340;-0.09000;84.6875;120;68;0.79072
5411350;-0.08000;84.2500;120;68;0.78730
5411360;-0.06000;83.8750;120;68;0.78217
5411370;-0.03000;83.0000;120;68;0.76606
5411380;-0.00500;82.5625;120;68;0.75531
5411390;0.00000;82.0625;120;68;0.74310
5411400;0.02500;81.5625;120;68;0.72918
5411410;0.06000;80.6250;120;68;0.69841
5411420;0.06000;80.1875;120;68;0.68303
5411430;0.04000;79.6875;120;68;0.66618
5411440;0.01000;79.2500;120;68;0.64835
5411450;-0.03500;78.3750;120;68;0.61245
5411460;-0.07500;78.0000;120;68;0.59512
5411470;-0.12000;77.6250;120;68;0.57851
5411480;-0.12500;77.2500;120;68;0.56288
5411490;-0.13000;76.5000;120;68;0.53529
5411500;-0.13500;76.1250;120;68;0.52357
5411510;-0.13000;75.8125;120;68;0.51404
5411520;-0.12500;75.5625;120;68;0.50574
5411530;-0.12500;74.9375;120;68;0.49084
5411540;0.01000;74.6875;120;68;0.48425
5411550;0.45500;74.4375;120;68;0.47839
5411560;1.05500;74.0625;120;68;0.46764
5411570;0.81500;73.8750;120;68;0.46300
5411580;0.06000;73.6875;120;68;0.45836
5411590;-0.27000;73.5625;120;68;0.45421
5411600;-0.22500;73.4375;120;68;0.45006
5411610;-0.20000;73.1875;120;68;0.44225
5411620;-0.20000;73.0000;120;68;0.43883
5411630;-0.20500;72.8125;120;68;0.43492
5411640;-0.20500;72.5000;120;68;0.42686
5411650;-0.20000;72.2500;120;68;0.42271
5411660;-0.20000;72.0000;120;68;0.41832
5411670;-0.19000;71.7500;120;68;0.41368
5411680;-0.19000;71.5000;120;68;0.40928
5411690;-0.18000;71.0000;120;68;0.39976
5411700;-0.17500;70.7500;120;68;0.39487
5411710;-0.16500;70.4375;120;68;0.39096
5411720;-0.15500;70.1875;120;68;0.38730
5411730;-0.14000;69.5625;120;68;0.37924
5411740;-0.13500;69.3125;120;68;0.37485
5411750;-0.12000;69.1875;120;68;0.37070
5411760;-0.10500;69.5625;120;68;0.36264
5411770;-0.09500;70.5000;120;68;0.35873
5411780;-0.08500;72.2500;120;68;0.35507
5411790;-0.06500;74.8125;120;68;0.35140
5411800;-0.06500;74.8125;120;68;0.35140
5411810;-0.03500;86.4375;120;68;0.34237
5411820;-0.03500;86.4375;120;68;0.34237
5411830;0.00500;95.8125;120;68;0.33895
5411840;0.03000;104.8125;120;68;0.33651
5411850;0.05000;108.8125;120;68;0.33578
5411860;0.07500;112.3750;120;68;0.33553
5411870;0.11000;115.4375;120;68;0.33553
5411880;0.14500;120.0000;120;68;0.33578
5411890;0.16500;121.5000;120;68;0.33626
5411900;0.19500;122.5625;120;68;0.33675
5411910;0.19500;123.3125;120;68;0.33748
5411920;0.18000;123.6875;120;68;0.33846
5411930;0.13000;123.8125;120;68;0.33993
5411940;0.08000;123.5625;120;68;0.34042
5411950;0.03000;123.1250;120;68;0.34090
5411960;-0.02500;121.5625;120;68;0.34139
5411970;-0.05500;120.5625;120;68;0.34115
5411980;-0.08500;119.4375;120;68;0.34090
5411990;-0.10500;118.1875;120;68;0.34066
5412000;-0.11000;116.8125;119;68;0.34090
5412010;-0.11500;113.6250;119;68;0.34505
5412020;-0.11500;111.9375;119;68;0.34969
5412030;-0.11500;110.0625;119;68;0.35775
5412040;-0.11500;108.1250;119;68;0.36996
5412050;-0.11000;104.0000;119;68;0.40781
5412060;-0.10500;101.9375;119;68;0.43346
5412070;-0.10500;99.8750;119;68;0.46252
5412080;-0.10500;97.9375;119;68;0.49377
5412090;-0.09500;94.6875;119;68;0.55971
5412100;-0.09500;93.3750;119;68;0.59219
5412110;-0.08500;92.2500;119;68;0.61880
5412120;-0.08000;90.5625;119;68;0.66569
5412130;-0.07500;89.9375;119;68;0.68913
5412140;-0.07500;89.3750;119;68;0.71062
5412150;-0.06500;88.9375;119;68;0.72967
5412160;-0.06500;88.5625;119;68;0.74628
5412170;-0.07000;87.8750;119;68;0.77241
5412180;-0.06500;87.5625;119;68;0.78193
5412190;-0.06500;87.1875;119;68;0.78926
5412200;-0.06500;86.8125;119;68;0.79414
5412210;-0.06000;86.0000;119;68;0.79634
5412220;-0.06500;85.5625;119;68;0.79365
5412230;-0.06000;85.0625;119;68;0.78999
5412240;-0.04500;84.5625;119;68;0.78535
5412250;-0.02500;83.5000;119;68;0.77167
5412260;0.00000;82.9375;119;68;0.76264
5412270;0.01500;82.3750;119;68;0.75214
5412280;0.03000;81.3125;119;68;0.72674
5412290;0.05500;80.7500;119;68;0.71209
5412300;0.08000;80.2500;119;68;0.69646
5412310;0.07000;79.7500;119;68;0.68107
5412320;0.04500;79.1875;119;68;0.66593
5412330;0.01500;78.2500;119;68;0.63297
5412340;-0.03500;77.7500;119;68;0.61685
5412350;-0.07500;77.3125;119;68;0.60122
5412360;-0.10500;76.8750;119;68;0.58608
5412370;-0.11500;76.0000;119;68;0.55873
5412380;-0.11500;75.6250;119;68;0.54676
5412390;-0.09500;75.2500;119;68;0.53602
5412400;-0.09000;74.8750;119;68;0.52601
5412410;-0.09500;74.1875;119;68;0.50940
5412420;-0.06500;73.9375;119;68;0.50281
5412430;0.25500;73.6875;119;68;0.49621
5412440;0.69000;73.4375;119;68;0.48938
5412450;0.98500;72.9375;119;68;0.47595
5412460;0.28500;72.7500;119;68;0.46935
5412470;-0.19000;72.5625;119;68;0.46276
5412480;-0.23000;72.1875;119;68;0.45006
5412490;-0.17500;72.0000;119;68;0.44371
5412500;-0.16500;71.8125;119;68;0.43736
5412510;-0.16000;71.6250;119;68;0.43150
5412520;-0.16000;71.4375;119;68;0.42589
5412530;-0.15500;70.9375;119;68;0.41221
5412540;-0.15500;70.6875;119;68;0.40464
5412550;-0.14500;70.4375;119;68;0.39683
5412560;-0.14000;69.7500;119;68;0.38901
5412570;-0.13500;69.4375;119;68;0.37314
5412580;-0.13500;69.1250;119;68;0.36532
5412590;-0.12500;68.8125;119;68;0.35751
5412600;-0.11500;68.2500;119;68;0.34188
5412610;-0.10500;67.9375;119;68;0.33553
5412620;-0.08500;67.6875;119;68;0.32991
5412630;-0.07500;67.5000;119;68;0.32308
5412640;-0.06500;67.3125;119;68;0.31575
5412650;-0.05500;67.3750;119;68;0.30110
5412660;-0.04000;68.0625;119;68;0.29377
5412670;-0.03000;69.4375;119;68;0.28669
5412680;-0.00500;74.3750;119;68;0.27302
5412690;0.01000;77.8750;119;68;0.26667
5412700;0.03000;81.8125;119;68;0.26056
5412710;0.06000;86.0625;119;68;0.25641
5412720;0.09500;95.0000;119;68;0.24933
5412730;0.11500;99.3125;119;68;0.24567
5412740;0.13500;103.3125;119;68;0.24200
5412750;0.16000;106.9375;119;68;0.23883
5412760;0.18000;110.0625;119;68;0.23590
5412770;0.21000;114.7500;119;68;0.23101
5412780;0.24500;116.3750;119;68;0.22906
5412790;0.26000;117.5000;119;68;0.22735
5412800;0.26000;117.5000;119;68;0.22735
5412810;0.22500;118.5625;119;68;0.22564
5412820;0.18000;118.3125;119;68;0.22564
5412830;0.12000;117.8750;119;68;0.22540
5412840;0.05000;116.3750;119;68;0.22564
5412850;0.01000;115.3125;119;68;0.22637
5412860;-0.02000;114.1250;119;68;0.22784
5412870;-0.04500;112.7500;119;68;0.22955
5412880;-0.05500;111.2500;119;68;0.23175
5412890;-0.06500;107.9375;119;68;0.23761
5412900;-0.06500;106.1250;119;68;0.24225
5412910;-0.06500;104.2500;119;68;0.24835
5412920;-0.06500;102.2500;119;68;0.25641
5412930;-0.06500;98.2500;119;68;0.28303
5412940;-0.06500;96.1875;119;68;0.30256
5412950;-0.06000;94.0625;119;68;0.32625
5412960;-0.06000;90.2500;119;68;0.38413
5412970;-0.06000;88.6875;119;68;0.41636
5412980;-0.06000;87.3750;119;68;0.44933
5412990;-0.06500;86.3125;119;68;0.48205
5413000;-0.06000;84.7500;119;67;0.53993
5413010;-0.06000;84.2500;119;67;0.55653
5413020;-0.06500;83.9375;119;67;0.57021
5413030;-0.06500;83.6875;119;67;0.58608
5413040;-0.07000;83.5625;119;67;0.60195
5413050;-0.07000;83.3750;119;67;0.62882
5413060;-0.07000;83.2500;119;67;0.63883
5413070;-0.07500;83.1875;119;67;0.64640
5413080;-0.07500;82.8750;119;67;0.65495
5413090;-0.07500;82.6250;119;67;0.65592
5413100;-0.07500;82.3750;119;67;0.65470
5413110;-0.06500;82.0000;119;67;0.65153
5413120;-0.04500;81.6250;119;67;0.64664
5413130;-0.01500;80.7500;119;67;0.63297
5413140;0.00500;80.3125;119;67;0.62418
5413150;0.01000;79.8750;119;67;0.61416
5413160;0.05000;78.9375;119;67;0.59023
5413170;0.08000;78.5000;119;67;0.57656
5413180;0.08500;78.0625;119;67;0.56190
5413190;0.05000;77.6250;119;67;0.54652
5413200;0.00500;76.8125;119;67;0.51600
5413210;-0.01500;76.3750;119;67;0.50232
5413220;-0.06500;75.9375;119;67;0.48742
5413230;-0.10500;75.5625;119;67;0.47253
5413240;-0.11500;75.1875;119;67;0.45812
5413250;-0.11500;74.3750;119;67;0.43150
5413260;-0.12000;74.0000;119;67;0.42027
5413270;-0.11500;73.6875;119;67;0.41026
5413280;-0.11500;73.3750;119;67;0.40147
5413290;-0.09500;72.8125;119;67;0.38730
5413300;0.03000;72.5000;119;67;0.38169
5413310;0.43500;72.2500;119;67;0.37778
5413320;0.84500;72.0000;119;67;0.37485
5413330;0.61000;71.5625;119;67;0.36899
5413340;-0.06500;71.3125;119;67;0.36606
5413350;-0.30500;71.1250;119;67;0.36313
5413360;-0.21000;70.7500;119;67;0.35726
5413370;-0.18000;70.5625;119;67;0.35409
5413380;-0.16500;70.3750;119;67;0.35092
5413390;-0.16000;70.1250;119;67;0.34774
5413400;-0.15500;69.9375;119;67;0.34457
5413410;-0.14500;69.5000;119;67;0.34042
5413420;-0.14000;69.2500;119;67;0.33797
5413430;-0.13500;69.0000;119;67;0.33529
5413440;-0.13500;68.6875;119;67;0.33260
5413450;-0.12500;68.1250;119;67;0.32601
5413460;-0.11000;67.8125;119;67;0.32259
5413470;-0.09500;67.5000;119;67;0.31917
5413480;-0.08500;67.1875;119;67;0.31551
5413490;-0.07500;66.6250;119;67;0.30794
5413500;-0.06500;66.3750;119;67;0.30403
5413510;-0.05500;66.1250;119;67;0.30110
5413520;-0.04500;65.9375;119;67;0.29890
5413530;-0.03000;66.1250;119;67;0.29255
5413540;-0.01500;66.8125;119;67;0.28913
5413550;-0.00500;68.1250;119;67;0.28596
5413560;0.01500;72.9375;119;67;0.27912
5413570;0.03000;76.2500;119;67;0.27595
5413580;0.05000;80.0000;119;67;0.27302
5413590;0.07500;84.0625;119;67;0.27009
5413600;0.09000;88.3125;119;67;0.26740
5413610;0.11500;96.6875;119;67;0.26496
5413620;0.14500;100.5000;119;67;0.26374
5413630;0.17000;103.8750;119;67;0.26227
5413640;0.20500;106.8125;119;67;0.26081
5413650;0.23500;111.1250;119;67;0.25861
5413660;0.27500;112.5000;119;67;0.25788
5413670;0.28000;113.3750;119;67;0.25763
5413680;0.25000;114.1250;119;67;0.25788
5413690;0.20500;113.9375;119;67;0.25861
5413700;0.14000;113.5625;119;67;0.25958
5413710;0.06000;112.9375;119;67;0.26105
5413720;0.02000;112.0625;119;67;0.26300
5413730;-0.01500;109.7500;119;67;0.26642
5413740;-0.05000;108.3125;119;67;0.26789
5413750;-0.07000;106.8125;119;67;0.26935
5413760;-0.08500;103.5625;119;67;0.27082
5413770;-0.09500;101.8125;119;67;0.27497
5413780;-0.10000;100.0000;119;67;0.27839
5413790;-0.10500;98.1250;119;67;0.28400
5413800;-0.10500;98.1250;119;67;0.28400
5413810;-0.10500;92.1875;119;67;0.31282
5413820;-0.10000;90.3125;119;67;0.32869
5413830;-0.10000;88.5625;119;67;0.34872
5413840;-0.09500;87.0000;119;67;0.37241
5413850;-0.09500;84.6250;119;67;0.42662
5413860;-0.09000;83.8125;119;67;0.45568
5413870;-0.08500;83.1250;119;67;0.48474
5413880;-0.08000;82.2500;119;67;0.51282
5413890;-0.08000;82.0000;119;67;0.56386
5413900;-0.07500;81.8125;119;67;0.58584
5413910;-0.07500;81.6875;119;67;0.60244
5413920;-0.07500;81.6250;119;67;0.61538
5413930;-0.07500;81.4375;119;67;0.63883
5413940;-0.07500;81.2500;119;67;0.64786
5413950;-0.08000;81.0625;119;67;0.65470
5413960;-0.08500;80.8750;119;67;0.65885
5413970;-0.08500;80.3125;119;67;0.66056
5413980;-0.08000;80.0000;119;67;0.65812
5413990;-0.07000;79.6250;119;67;0.65397
5414000;-0.05500;78.8750;119;67;0.64811
5414010;-0.02500;78.5000;119;67;0.63297
5414020;-0.00500;78.0625;119;67;0.62320
5414030;0.00000;77.6250;119;67;0.61197
5414040;0.02500;76.8125;119;67;0.58584
5414050;0.05500;76.3750;119;67;0.57118
5414060;0.07500;76.0000;119;67;0.55580
5414070;0.04000;75.5625;119;67;0.53968
5414080;0.01000;75.1250;119;67;0.52357
5414090;-0.01500;74.3750;119;67;0.49231
5414100;-0.06000;74.0000;119;67;0.47766
5414110;-0.11000;73.6250;119;67;0.46545
5414120;-0.12500;73.2500;119;67;0.45495
5414130;-0.13000;72.5625;119;67;0.43468
5414140;-0.13000;72.2500;119;67;0.42613
5414150;-0.12500;71.9375;119;67;0.41856
5414160;-0.11500;71.6250;119;67;0.41172
5414170;-0.10500;71.0625;119;67;0.40073
5414180;-0.02000;70.8125;119;67;0.39609
5414190;0.40000;70.6250;119;67;0.39219
5414200;0.78500;70.4375;119;67;0.38852
5414210;0.66500;70.0625;119;67;0.38364
5414220;0.12000;69.8750;119;67;0.38120
5414230;-0.30000;69.6875;119;67;0.37875
5414240;-0.25000;69.3750;119;67;0.37338
5414250;-0.18000;69.2500;119;67;0.37094
5414260;-0.17000;69.0625;119;67;0.36825
5414270;-0.16500;68.8750;119;67;0.36557
5414280;-0.16000;68.6875;119;67;0.36313
5414290;-0.15000;68.2500;119;67;0.35800
5414300;-0.14500;68.0625;119;67;0.35507
5414310;-0.13500;67.8125;119;67;0.35263
5414320;-0.13500;67.6250;119;67;0.35043
5414330;-0.12500;67.1250;119;67;0.34481
5414340;-0.12500;66.8125;119;67;0.34139
5414350;-0.11500;66.5000;119;67;0.33797
5414360;-0.10500;65.9375;119;67;0.33089
5414370;-0.10000;65.6250;119;67;0.32698
5414380;-0.09500;65.4375;119;67;0.32283
5414390;-0.09000;65.1875;119;67;0.31893
5414400;-0.08000;65.0000;119;67;0.31160
5414410;-0.06500;65.2500;119;67;0.30891
5414420;-0.06500;65.9375;119;67;0.30574
5414430;-0.05500;67.3125;119;67;0.30232
5414440;-0.04500;69.3750;119;67;0.29890
5414450;-0.03500;75.4375;119;67;0.29206
5414460;-0.01500;79.2500;119;67;0.28889
5414470;0.00000;83.3750;119;67;0.28571
5414480;0.02000;87.6875;119;67;0.28278
5414490;0.05000;96.1875;119;67;0.27692
5414500;0.07500;100.1250;119;67;0.27424
5414510;0.11000;103.6250;119;67;0.27277
5414520;0.13000;106.6250;119;67;0.27204
5414530;0.16500;111.1250;119;67;0.26984
5414540;0.20500;112.6250;119;67;0.26886
5414550;0.22500;113.6250;119;67;0.26838
5414560;0.21000;114.3125;119;67;0.26813
5414570;0.15500;114.5625;119;67;0.26838
5414580;0.11000;114.2500;119;67;0.26886
5414590;0.04000;113.6875;119;67;0.26935
5414600;-0.01500;112.9375;119;67;0.27033
5414610;-0.05500;110.7500;119;67;0.27399
5414620;-0.08000;109.4375;119;67;0.27570
5414630;-0.09500;108.0000;119;67;0.27717
5414640;-0.10500;106.4375;119;67;0.27888
5414650;-0.11166;103.0625;119;67;0.28278
5414660;-0.11500;101.2500;119;67;0.28596
5414670;-0.11500;99.4375;119;67;0.29084
5414680;-0.11500;95.6250;119;67;0.30891
5414690;-0.11500;93.6250;119;67;0.32332
5414700;-0.11500;91.6875;119;67;0.33895
5414710;-0.11500;89.7500;119;67;0.35653
5414720;-0.11000;86.5000;119;67;0.40513
5414730;-0.10500;85.2500;119;67;0.43370
5414740;-0.10500;84.3125;119;67;0.46374
5414750;-0.10500;83.5000;119;67;0.49402
5414760;-0.10500;82.8750;119;67;0.52357
5414770;-0.10000;82.1250;119;67;0.57778
5414780;-0.10000;81.9375;119;67;0.60122
5414790;-0.10000;81.7500;119;67;0.62198
5414800;-0.09500;81.6875;119;67;0.64005
5414810;-0.09500;81.5625;119;67;0.66300
5414820;-0.09500;81.4375;119;67;0.67228
5414830;-0.09500;81.3125;119;67;0.67985
5414840;-0.09500;81.1250;119;67;0.68571
5414850;-0.09500;80.6250;119;67;0.69060
5414860;-0.09500;80.3125;119;67;0.68987
5414870;-0.08500;80.0000;119;67;0.68694
5414880;-0.07000;79.6250;119;67;0.68230
5414890;-0.04000;78.7500;119;67;0.66789
5414900;-0.02000;78.3750;119;67;0.65885
5414910;-0.01500;77.9375;119;67;0.64908
5414920;0.00500;77.5000;119;67;0.63761
5414930;0.04500;76.6250;119;67;0.61074
5414940;0.06000;76.2500;119;67;0.59536
5414950;0.04000;75.8125;119;67;0.57924
5414960;-0.00500;75.0000;119;67;0.54652
5414970;-0.02500;74.6250;119;67;0.53040
5414980;-0.06500;74.2500;119;67;0.51477
5414990;-0.10500;73.8750;119;67;0.49988
5415000;-0.13000;73.1250;119;67;0.47497
5415010;-0.13500;72.7500;119;67;0.46545
5415020;-0.13500;72.4375;119;67;0.45592
5415030;-0.13500;72.1250;119;67;0.44737
5415040;-0.12000;71.5000;119;67;0.43956
5415050;-0.11500;71.1875;119;67;0.42686
5415060;-0.01500;70.9375;119;67;0.42564
5415070;0.23500;70.7500;119;67;0.42686
5415080;0.73000;70.5625;119;67;0.42540
5415090;0.81500;70.1250;119;67;0.41954
5415100;0.07500;69.9375;119;67;0.41685
5415110;-0.27500;69.7500;119;67;0.41416
5415120;-0.27000;69.4375;119;67;0.40781
5415130;-0.20000;69.2500;119;67;0.40440
5415140;-0.19000;69.0625;119;67;0.40098
5415150;-0.18500;68.8750;119;67;0.39731
5415160;-0.18000;68.6250;119;67;0.39365
5415170;-0.17500;68.1875;119;67;0.38657
5415180;-0.17000;67.9375;119;67;0.38315
5415190;-0.16000;67.6875;119;67;0.37949
5415200;-0.15500;67.5000;119;67;0.37558
5415210;-0.15500;66.9375;119;67;0.36947
5415220;-0.14500;66.6875;119;67;0.36606
5415230;-0.14500;66.3750;119;67;0.36239
5415240;-0.13500;66.0625;119;67;0.35849
5415250;-0.12000;65.5000;119;67;0.34969
5415260;-0.11500;65.2500;119;67;0.34481
5415270;-0.10500;65.0625;119;67;0.33968
5415280;-0.09000;64.8750;119;67;0.33455
5415290;-0.07500;65.1875;119;67;0.32479
5415300;-0.06500;66.0625;119;67;0.32112
5415310;-0.05500;67.6250;119;67;0.31819
5415320;-0.04500;69.8750;119;67;0.31477
5415330;-0.02500;76.4375;119;67;0.30672
5415340;-0.00500;80.4375;119;67;0.30256
5415350;0.00500;84.6875;119;67;0.29866
5415360;0.03000;89.0000;119;67;0.29524
5415370;0.05500;97.5000;119;67;0.28864
5415380;0.07000;101.3750;119;67;0.28571
5415390;0.10000;104.8125;119;67;0.28303
5415400;0.14000;110.2500;119;67;0.27985
5415410;0.17000;112.1250;119;67;0.27937
5415420;0.20500;113.6250;119;67;0.27863
5415430;0.22500;114.6250;119;67;0.27814
5415440;0.21500;115.5625;119;67;0.27766
5415450;0.18500;115.5625;119;67;0.27790
5415460;0.12500;115.3125;119;67;0.27814
5415470;0.05000;114.8750;119;67;0.27888
5415480;0.00500;114.1875;119;67;0.27961
5415490;-0.03500;112.1875;119;67;0.28156
5415500;-0.05500;110.9375;119;67;0.28303
5415510;-0.07500;109.5000;119;67;0.28449
5415520;-0.09000;108.0000;119;67;0.28571
5415530;-0.10000;104.6875;119;67;0.28816
5415540;-0.10500;102.9375;119;67;0.29084
5415550;-0.10500;101.1250;119;67;0.29573
5415560;-0.10500;99.1875;119;67;0.30379
5415570;-0.10000;95.1250;119;67;0.33187
5415580;-0.09500;93.0625;119;67;0.35311
5415590;-0.09500;90.9375;119;67;0.37875
5415600;-0.08500;87.0625;119;67;0.43565
5415610;-0.08500;85.5000;119;67;0.46276
5415620;-0.08500;84.2500;119;67;0.49377
5415630;-0.08500;83.3750;119;67;0.52650
5415640;-0.08500;82.6875;119;67;0.55922
5415650;-0.08500;81.8125;119;67;0.61954
5415660;-0.08000;81.5625;119;67;0.64591
5415670;-0.08000;81.4375;119;67;0.66935
5415680;-0.08000;81.3750;119;67;0.70745
5415690;-0.08000;81.3750;119;67;0.72186
5415700;-0.08500;81.3125;119;67;0.73138
5415710;-0.08500;81.1875;119;67;0.73748
5415720;-0.09000;80.8750;119;67;0.74603
5415730;-0.09500;80.6875;119;67;0.74750
5415740;-0.09500;80.3750;119;67;0.74676
5415750;-0.09000;80.0625;119;67;0.74408
5415760;-0.07500;79.6875;119;67;0.73919
5415770;-0.05500;78.8750;119;67;0.72308
5415780;-0.02500;78.4375;119;67;0.71233
5415790;-0.00500;78.0000;119;67;0.69988
5415800;-0.00500;78.0000;119;67;0.69988
5415810;0.03500;76.6250;119;67;0.65714
5415820;0.07000;76.2500;119;67;0.64054
5415830;0.06500;75.8125;119;67;0.62222
5415840;0.03000;75.4375;119;67;0.60293
5415850;-0.00500;74.5625;119;67;0.56361
5415860;-0.04500;74.1250;119;67;0.54432
5415870;-0.08000;73.7500;119;67;0.52601
5415880;-0.11500;73.0000;119;67;0.49304
5415890;-0.12500;72.6250;119;67;0.47888
5415900;-0.12500;72.3125;119;67;0.46764
5415910;-0.12500;72.0625;119;67;0.45836
5415920;-0.12000;71.7500;119;67;0.44957
5415930;-0.11500;71.2500;119;67;0.43443
5415940;-0.09000;71.0000;119;67;0.42833
5415950;0.05500;70.7500;119;67;0.42295
5415960;0.60000;70.3125;119;67;0.41392
5415970;0.89000;70.1250;119;67;0.41001
5415980;0.56500;69.9375;119;67;0.40635
5415990;-0.21000;69.7500;119;67;0.40293
5416000;-0.30000;69.5625;119;67;0.39976
5416010;-0.21000;69.1875;119;67;0.39512
5416020;-0.19000;69.0000;119;67;0.39243
5416030;-0.18000;68.8125;119;67;0.38926
5416040;-0.17000;68.4375;119;67;0.38242
5416050;-0.16500;68.2500;119;67;0.37875
5416060;-0.15500;68.0000;119;67;0.37509
5416070;-0.15000;67.7500;119;67;0.37143
5416080;-0.14500;67.1875;119;67;0.36801
5416090;-0.14000;66.9375;119;67;0.36068
5416100;-0.13500;66.6875;119;67;0.35800
5416110;-0.12500;66.4375;119;67;0.35556
5416120;-0.11500;66.0000;119;67;0.35238
5416130;-0.11000;65.7500;119;67;0.34432
5416140;-0.09500;65.5625;119;67;0.33968
5416150;-0.08500;65.3750;119;67;0.33480
5416160;-0.07500;65.2500;119;67;0.32967
5416170;-0.06500;65.5000;119;67;0.32015
5416180;-0.05000;66.1875;119;67;0.31551
5416190;-0.04000;67.5000;119;67;0.31111
5416200;-0.03000;69.6250;119;67;0.30672
5416210;-0.01500;75.8125;119;67;0.30134
5416220;0.00000;79.6250;119;67;0.29817
5416230;0.02000;83.8750;119;67;0.29475
5416240;0.04000;88.2500;119;67;0.29109
5416250;0.06500;96.9375;119;67;0.28474
5416260;0.08000;101.0000;119;67;0.28181
5416270;0.10000;104.6875;119;67;0.27912
5416280;0.13000;107.9375;119;67;0.27668
5416290;0.16500;112.8750;119;67;0.27302
5416300;0.19500;114.5625;119;67;0.27253
5416310;0.22000;115.7500;119;67;0.27277
5416320;0.22500;117.0625;119;67;0.27277
5416330;0.20500;117.2500;119;67;0.27277
5416340;0.16000;117.1250;119;67;0.27326
5416350;0.09500;116.8125;119;67;0.27375
5416360;0.02000;115.5625;119;67;0.27595
5416370;-0.02000;114.6250;119;67;0.27717
5416380;-0.06500;113.5625;119;67;0.27839
5416390;-0.08000;112.3125;119;67;0.27985
5416400;-0.09500;110.9375;119;67;0.28181
5416410;-0.10500;107.8750;119;67;0.28645
5416420;-0.11000;106.2500;119;67;0.28938
5416430;-0.12000;104.5000;119;67;0.29402
5416440;-0.12500;100.8125;119;67;0.31233
5416450;-0.12500;98.8750;119;67;0.32772
5416460;-0.12000;96.8750;119;67;0.34750
5416470;-0.11500;94.8125;119;67;0.37192
5416480;-0.11000;92.7500;119;67;0.40049
5416490;-0.11000;88.8125;119;67;0.46642
5416500;-0.11000;87.1875;119;67;0.49719
5416510;-0.11000;85.9375;119;67;0.52576
5416520;-0.11000;84.9375;119;67;0.55775
5416530;-0.11000;83.6875;119;67;0.62149
5416540;-0.11000;83.3125;119;67;0.65079
5416550;-0.11000;83.1250;119;67;0.67717
5416560;-0.11000;83.0000;119;67;0.72088
5416570;-0.11000;83.0000;119;67;0.73822
5416580;-0.10500;83.0000;119;67;0.75287
5416590;-0.10000;83.0000;119;67;0.76459
5416600;-0.10000;82.9375;119;67;0.77167
5416610;-0.10000;82.6875;119;67;0.77900
5416620;-0.10000;82.5000;119;67;0.78071
5416630;-0.10000;82.1875;119;67;0.78071
5416640;-0.09500;81.8750;119;67;0.77851
5416650;-0.07500;81.1250;119;67;0.76752
5416660;-0.04500;80.6875;119;67;0.75897
5416670;-0.02500;80.3125;119;67;0.74872
5416680;-0.02000;79.4375;119;67;0.72332
5416690;-0.00500;79.0000;119;67;0.70842
5416700;0.03000;78.6250;119;67;0.69353
5416710;0.05000;78.1875;119;67;0.67814
5416720;0.03000;77.8125;119;67;0.66081
5416730;-0.00500;77.0000;119;67;0.62344
5416740;-0.04500;76.6250;119;67;0.60440
5416750;-0.07500;76.2500;119;67;0.58535
5416760;-0.12500;75.5000;119;67;0.54969
5416770;-0.14500;75.1875;119;67;0.53407
5416780;-0.15000;74.8750;119;67;0.51990
5416790;-0.15500;74.5000;119;67;0.50769
5416800;-0.15500;74.5000;119;67;0.50769
5416810;-0.15000;73.5625;119;67;0.48254
5416820;-0.15000;73.3125;119;67;0.47643
5416830;-0.06500;73.0000;119;67;0.47106
5416840;0.31000;72.5625;119;67;0.46300
5416850;0.76000;72.3125;119;67;0.45958
5416860;0.83500;72.1250;119;67;0.45641
5416870;0.28500;71.9375;119;67;0.45324
5416880;-0.27000;71.6250;119;67;0.45031
5416890;-0.27000;71.5000;119;67;0.44444
5416900;-0.23000;71.3750;119;67;0.44200
5416910;-0.22000;71.1875;119;67;0.43956
5416920;-0.22000;71.0000;119;67;0.43687
5416930;-0.22000;70.5625;119;67;0.43077
5416940;-0.21500;70.3125;119;67;0.42735
5416950;-0.21000;70.0625;119;67;0.42418
5416960;-0.20000;69.8125;119;67;0.42100
5416970;-0.19500;69.3125;119;67;0.41441
5416980;-0.19000;69.0000;119;67;0.41099
5416990;-0.18500;68.6875;119;67;0.40757
5417000;-0.17500;68.1250;119;67;0.40464
5417010;-0.16500;67.8750;119;67;0.39951
5417020;-0.15500;67.5625;119;67;0.39634
5417030;-0.14500;67.3750;119;67;0.39316
5417040;-0.13000;67.0625;119;67;0.38608
5417050;-0.12000;67.1875;119;67;0.38217
5417060;-0.10500;67.8125;119;67;0.37827
5417070;-0.09500;69.0625;119;67;0.37436
5417080;-0.07500;73.9375;119;67;0.37070
5417090;-0.05500;77.4375;119;67;0.36410
5417100;-0.04000;81.5000;119;67;0.36190
5417110;-0.02000;85.9375;119;67;0.35482
5417120;-0.00500;90.5625;119;67;0.34457
5417130;0.01500;99.7500;119;67;0.33553
5417140;0.03500;104.0000;119;67;0.33358
5417150;0.06000;107.8750;119;67;0.33236
5417160;0.08500;111.3125;119;67;0.33162
5417170;0.12000;116.5000;119;67;0.33089
5417180;0.14500;118.3125;119;67;0.33065
5417190;0.17500;119.6875;119;67;0.33089
5417200;0.19500;121.1875;119;67;0.33260
5417210;0.19000;121.4375;119;67;0.33333
5417220;0.16000;121.4375;119;67;0.33407
5417230;0.09500;121.1875;119;67;0.33455
5417240;0.04500;120.7500;119;67;0.33480
5417250;-0.00500;119.4375;119;67;0.33480
5417260;-0.05000;118.5000;119;67;0.33431
5417270;-0.08500;117.4375;119;67;0.33382
5417280;-0.10500;114.8750;119;67;0.33333
5417290;-0.12000;113.3750;119;67;0.33284
5417300;-0.12500;111.7500;119;67;0.33382
5417310;-0.13500;110.0625;119;67;0.33602
5417320;-0.13500;108.2500;119;67;0.34017
5417330;-0.13500;104.4375;119;67;0.35946
5417340;-0.13000;102.4375;119;67;0.37607
5417350;-0.12500;100.3125;119;67;0.39756
5417360;-0.12500;98.1250;119;67;0.42344
5417370;-0.12500;93.6875;119;67;0.48498
5417380;-0.12500;91.6250;119;67;0.51819
5417390;-0.12500;89.8125;119;67;0.55165
5417400;-0.12000;88.3750;119;67;0.57973
5417410;-0.11500;86.4375;119;67;0.63004
5417420;-0.11000;85.8750;119;67;0.65519
5417430;-0.10500;85.5000;119;67;0.67839
5417440;-0.09500;85.2500;119;67;0.69915
5417450;-0.09000;85.0625;119;67;0.73260
5417460;-0.09000;85.1250;119;67;0.74579
5417470;-0.09000;85.1250;119;67;0.75678
5417480;-0.08500;85.1250;119;67;0.76557
5417490;-0.08500;85.0000;119;67;0.77680
5417500;-0.08000;84.8750;119;67;0.77778
5417510;-0.07500;84.6875;119;67;0.77656
5417520;-0.07500;84.4375;119;67;0.77460
5417530;-0.05500;83.8125;119;67;0.76581
5417540;-0.02500;83.4375;119;67;0.75873
5417550;-0.00500;83.0000;119;67;0.74969
5417560;0.01500;82.1875;119;67;0.72650
5417570;0.02500;81.7500;119;67;0.71282
5417580;0.05000;81.3125;119;67;0.69768
5417590;0.08000;80.8125;119;67;0.68156
5417600;0.08000;80.3750;119;67;0.66569
5417610;0.04000;79.5000;119;67;0.63297
5417620;0.00500;79.0625;119;67;0.61490
5417630;-0.04000;78.6875;119;67;0.59634
5417640;-0.10000;77.8750;119;67;0.55971
5417650;-0.13000;77.4375;119;67;0.54261
5417660;-0.15000;77.0625;119;67;0.52650
5417670;-0.15500;76.6875;119;67;0.51209
5417680;-0.15500;75.9375;119;67;0.48816
5417690;-0.14500;75.6250;119;67;0.47863
5417700;-0.14000;75.2500;119;67;0.47106
5417710;-0.12500;74.9375;119;67;0.46496
5417720;0.02000;74.6875;119;67;0.45934
5417730;0.51500;74.1875;119;67;0.45055
5417740;1.02500;73.9375;119;67;0.44737
5417750;0.72000;73.6875;119;67;0.44444
5417760;-0.02500;73.5000;119;67;0.44200
5417770;-0.27000;73.0000;119;67;0.43761
5417780;-0.21500;72.8125;119;67;0.43541
5417790;-0.19500;72.6250;119;67;0.43321
5417800;-0.19000;72.3125;119;67;0.42882
5417810;-0.19000;72.0625;119;67;0.42637
5417820;-0.18500;71.8125;119;67;0.42369
5417830;-0.18000;71.6250;119;67;0.42051
5417840;-0.17000;71.0625;119;67;0.41368
5417850;-0.16000;70.8125;119;67;0.40977
5417860;-0.15500;70.5625;119;67;0.40586
5417870;-0.15000;70.2500;119;67;0.40171
5417880;-0.14500;70.0000;119;67;0.39756
5417890;-0.13500;69.5000;119;67;0.38950
5417900;-0.13000;69.2500;119;67;0.38608
5417910;-0.12000;69.0625;119;67;0.38315
5417920;-0.11000;68.8750;119;67;0.37973
5417930;-0.10500;68.9375;119;67;0.37192
5417940;-0.09500;69.4375;119;67;0.36801
5417950;-0.08500;70.5000;119;67;0.36386
5417960;-0.07500;72.3750;119;67;0.35971
5417970;-0.06500;78.3750;119;67;0.35189
5417980;-0.05500;82.3750;119;67;0.34823
5417990;-0.04000;86.7500;119;67;0.34481
5418000;-0.01500;96.0625;118;67;0.34042
5418010;-0.00500;100.6875;118;67;0.33846
5418020;0.02000;105.0625;118;67;0.33651
5418030;0.04000;109.0625;118;67;0.33529
5418040;0.07000;112.5625;118;67;0.33431
5418050;0.10000;118.0625;118;67;0.33382
5418060;0.14000;119.9375;118;67;0.33382
5418070;0.16500;121.3750;118;67;0.33431
5418080;0.19500;122.9375;118;67;0.33504
5418090;0.21000;123.1875;118;67;0.33675
5418100;0.19500;123.1875;118;67;0.33773
5418110;0.15000;122.9375;118;67;0.33895
5418120;0.08500;121.8750;118;67;0.34017
5418130;0.04000;121.1250;118;67;0.34042
5418140;-0.00500;120.1875;118;67;0.34066
5418150;-0.04500;119.0625;118;67;0.34066
5418160;-0.06500;117.8750;118;67;0.34066
5418170;-0.07500;115.1250;118;67;0.34139
5418180;-0.08500;113.5625;118;67;0.34261
5418190;-0.09500;111.9375;118;67;0.34530
5418200;-0.09500;110.1875;118;67;0.34945
5418210;-0.09500;106.5000;118;67;0.36508
5418220;-0.10000;104.5625;118;67;0.37924
5418230;-0.10000;102.5000;118;67;0.39805
5418240;-0.10000;98.3750;118;67;0.44737
5418250;-0.09500;96.4375;118;67;0.47668
5418260;-0.08500;94.6875;118;67;0.50769
5418270;-0.08500;93.1250;118;67;0.53919
5418280;-0.08000;91.8125;118;67;0.57045
5418290;-0.07500;89.8125;118;67;0.62442
5418300;-0.08000;89.0625;118;67;0.64469
5418310;-0.07500;88.5000;118;67;0.66593
5418320;-0.07500;87.6250;118;67;0.68620
5418330;-0.07500;87.3125;118;67;0.72039
5418340;-0.07500;87.0625;118;67;0.73382
5418350;-0.07000;86.8125;118;67;0.74481
5418360;-0.06500;86.2500;118;67;0.75922
5418370;-0.06500;85.9375;118;67;0.76313
5418380;-0.06500;85.5625;118;67;0.76459
5418390;-0.06500;85.1875;118;67;0.76435
5418400;-0.06500;84.3750;118;67;0.75678
5418410;-0.06500;83.8750;118;67;0.75116
5418420;-0.05000;83.3750;118;67;0.74432
5418430;-0.03000;82.8750;118;67;0.73602
5418440;0.00000;82.3750;118;67;0.72625
5418450;0.02000;81.3125;118;67;0.70183
5418460;0.02500;80.8125;118;67;0.68742
5418470;0.04500;80.2500;118;67;0.67179
5418480;0.08500;79.3125;118;67;0.65519
5418490;0.09000;78.8750;118;67;0.62100
5418500;0.06000;78.3750;118;67;0.60488
5418510;0.02000;77.8750;118;67;0.58730
5418520;-0.01500;76.9375;118;67;0.55165
5418530;-0.04500;76.5000;118;67;0.53431
5418540;-0.08500;76.0625;118;67;0.51770
5418550;-0.10500;75.6250;118;67;0.50208
5418560;-0.11500;75.1875;118;67;0.48767
5418570;-0.11500;74.3750;118;67;0.46227
5418580;-0.10500;74.0000;118;67;0.45104
5418590;-0.09500;73.6250;118;67;0.44054
5418600;-0.07500;73.3125;118;67;0.43199
5418610;0.06000;72.7500;118;67;0.41709
5418620;0.57500;72.5000;118;67;0.40952
5418630;0.91000;72.2500;118;67;0.40220
5418640;0.70000;72.0000;118;67;0.39512
5418650;-0.11500;71.6250;118;67;0.38144
5418660;-0.27000;71.4375;118;67;0.37460
5418670;-0.20000;71.2500;118;67;0.36777
5418680;-0.16500;70.8750;118;67;0.35482
5418690;-0.16000;70.6875;118;67;0.34969
5418700;-0.16000;70.5000;118;67;0.34481
5418710;-0.16000;70.2500;118;67;0.33919
5418720;-0.15500;70.0000;118;67;0.33309
5418730;-0.15500;69.5000;118;67;0.31990
5418740;-0.15000;69.2500;118;67;0.31331
5418750;-0.14500;68.9375;118;67;0.30672
5418760;-0.14000;68.5625;118;67;0.30012
5418770;-0.14000;67.8750;118;67;0.28742
5418780;-0.13500;67.5625;118;67;0.28132
5418790;-0.12000;67.2500;118;67;0.27521
5418800;-0.12000;67.2500;118;67;0.27521
5418810;-0.09500;66.4375;118;67;0.26129
5418820;-0.08500;66.2500;118;67;0.25592
5418830;-0.07500;66.1250;118;67;0.25031
5418840;-0.06500;66.9375;118;67;0.23956
5418850;-0.05500;68.2500;118;67;0.23468
5418860;-0.04000;70.3125;118;67;0.23028
5418870;-0.02500;73.0000;118;67;0.22589
5418880;-0.00500;80.1250;118;67;0.21758
5418890;0.01000;84.1875;118;67;0.21490
5418900;0.03000;88.5000;118;67;0.21319
5418910;0.05500;92.8750;118;67;0.21099
5418920;0.07500;97.0625;118;67;0.20855
5418930;0.10000;104.5625;118;67;0.20440
5418940;0.14000;107.6250;118;67;0.20293
5418950;0.17000;110.1875;118;67;0.20195
5418960;0.19500;112.2500;118;67;0.20147
5418970;0.23500;114.9375;118;67;0.20147
5418980;0.25000;115.6250;118;67;0.20195
5418990;0.23500;116.0000;118;67;0.20269
5419000;0.18500;115.8125;118;67;0.20440
5419010;0.13000;115.3125;118;67;0.20806
5419020;0.05000;114.6250;118;67;0.20977
5419030;0.01000;113.7500;118;67;0.21148
5419040;-0.03000;112.6875;118;67;0.21319
5419050;-0.05500;110.0625;118;67;0.21734
5419060;-0.06500;108.5625;118;67;0.21978
5419070;-0.07500;106.9375;118;67;0.22222
5419080;-0.08000;103.5625;118;67;0.22857
5419090;-0.08000;101.7500;118;67;0.23321
5419100;-0.08500;99.8125;118;67;0.23980
5419110;-0.08500;97.8750;118;67;0.24908
5419120;-0.09500;95.8125;118;67;0.26178
5419130;-0.09500;91.6250;118;67;0.29915
5419140;-0.10000;89.6250;118;67;0.32405
5419150;-0.09500;87.8125;118;67;0.35214
5419160;-0.09500;85.0000;118;67;0.38681
5419170;-0.08500;84.0000;118;67;0.45617
5419180;-0.08000;83.2500;118;67;0.48547
5419190;-0.06500;82.6250;118;67;0.51233
5419200;-0.05500;81.8750;118;67;0.55165
5419210;-0.06000;81.7500;118;67;0.56972
5419220;-0.06500;81.6875;118;67;0.58657
5419230;-0.06500;81.6250;118;67;0.60171
5419240;-0.06500;81.5000;118;67;0.61441
5419250;-0.07000;81.2500;118;67;0.63248
5419260;-0.07000;81.0625;118;67;0.63810
5419270;-0.06500;80.8750;118;67;0.64151
5419280;-0.06000;80.3125;118;67;0.64225
5419290;-0.05500;80.0000;118;67;0.63956
5419300;-0.05500;79.6250;118;67;0.63516
5419310;-0.03000;79.2500;118;67;0.62955
5419320;0.00500;78.5000;118;67;0.61416
5419330;0.02000;78.0625;118;67;0.60440
5419340;0.02500;77.6875;118;67;0.59341
5419350;0.06000;77.2500;118;67;0.58120
5419360;0.09000;76.8750;118;67;0.56777
5419370;0.10000;76.0625;118;67;0.53871
5419380;0.07000;75.6250;118;67;0.52308
5419390;0.03000;75.2500;118;67;0.50720
5419400;0.00500;74.8750;118;67;0.49304
5419410;-0.03500;74.1875;118;67;0.46545
5419420;-0.08500;73.8125;118;67;0.45128
5419430;-0.09500;73.5000;118;67;0.43810
5419440;-0.10500;72.8125;118;67;0.42589
5419450;-0.10500;72.5000;118;67;0.40513
5419460;-0.10000;72.1250;118;67;0.39658
5419470;-0.09500;71.8750;118;67;0.38926
5419480;-0.08500;71.3125;118;67;0.37827
5419490;0.00000;71.0000;118;67;0.37460
5419500;0.37000;70.7500;118;67;0.37192
5419510;0.84500;70.5000;118;67;0.36899
5419520;0.71000;70.3125;118;67;0.36654
5419530;0.04000;69.9375;118;67;0.36190
5419540;-0.29500;69.7500;118;67;0.35971
5419550;-0.23000;69.5625;118;67;0.35775
5419560;-0.17500;69.1875;118;67;0.35360
5419570;-0.17000;69.0000;118;67;0.35140
5419580;-0.16500;68.8125;118;67;0.34921
5419590;-0.16000;68.5625;118;67;0.34701
5419600;-0.16000;68.3750;118;67;0.34554
5419610;-0.15500;67.9375;118;67;0.34212
5419620;-0.14500;67.6875;118;67;0.33993
5419630;-0.14000;67.4375;118;67;0.33724
5419640;-0.13500;66.8750;118;67;0.33138
5419650;-0.13000;66.5625;118;67;0.32821
5419660;-0.12500;66.3125;118;67;0.32503
5419670;-0.11500;66.0000;118;67;0.32186
5419680;-0.11000;65.7500;118;67;0.31844
5419690;-0.09500;65.2500;118;67;0.31258
5419700;-0.08500;65.0625;118;67;0.31062
5419710;-0.07500;65.0000;118;67;0.30769
5419720;-0.06500;65.6875;118;67;0.30061
5419730;-0.05500;66.8125;118;67;0.29670
5419740;-0.04500;68.6250;118;67;0.29304
5419750;-0.03000;71.1875;118;67;0.28938
5419760;-0.01500;74.3125;118;67;0.28571
5419770;0.00000;81.9375;118;67;0.27888
5419780;0.01500;86.0625;118;67;0.27595
5419790;0.03500;90.3125;118;67;0.27326
5419800;0.06500;98.3125;118;67;0.27131
5419810;0.09000;101.8125;118;67;0.27033
5419820;0.12000;104.8125;118;67;0.26911
5419830;0.15500;107.3750;118;67;0.26813
5419840;0.19500;109.4375;118;67;0.26740
5419850;0.23500;112.1250;118;67;0.26667
5419860;0.24500;112.8750;118;67;0.26691
5419870;0.23500;113.1875;118;67;0.26716
5419880;0.17500;113.0000;118;67;0.26789
5419890;0.12000;112.5000;118;67;0.26911
5419900;0.05500;111.8125;118;67;0.27106
5419910;-0.00500;110.9375;118;67;0.27253
5419920;-0.03500;109.9375;118;67;0.27399
5419930;-0.06000;107.3750;118;67;0.27741
5419940;-0.07500;105.9375;118;67;0.27912
5419950;-0.09000;104.3750;118;67;0.28107
5419960;-0.09500;102.7500;118;67;0.28327
5419970;-0.10500;99.1250;118;67;0.28987
5419980;-0.10500;97.2500;118;67;0.29573
5419990;-0.10500;95.3750;118;67;0.30427
5420000;-0.10000;93.3750;118;67;0.31404
5420010;-0.09500;89.6250;118;67;0.34237
5420020;-0.09500;87.8750;118;67;0.36264
5420030;-0.09000;86.4375;118;67;0.38632
5420040;-0.08500;85.1875;118;67;0.41221
5420050;-0.08500;83.3750;118;67;0.46789
5420060;-0.07500;82.7500;118;67;0.49597
5420070;-0.07500;82.2500;118;67;0.52308
5420080;-0.07500;81.6250;118;67;0.54872
5420090;-0.07500;81.5000;118;67;0.59072
5420100;-0.07000;81.3125;118;67;0.60562
5420110;-0.06500;81.1875;118;67;0.62051
5420120;-0.07000;80.9375;118;67;0.64542
5420130;-0.07000;80.8125;118;67;0.65470
5420140;-0.07000;80.6250;118;67;0.66178
5420150;-0.07000;80.3750;118;67;0.66642
5420160;-0.07000;80.1250;118;67;0.66911
5420170;-0.06500;79.4375;118;67;0.66764
5420180;-0.06500;79.0625;118;67;0.66398
5420190;-0.05000;78.6875;118;67;0.65885
5420200;-0.02000;77.9375;118;67;0.64469
5420210;0.00000;77.5000;118;67;0.63541
5420220;0.01500;77.0625;118;67;0.62491
5420230;0.02000;76.6250;118;67;0.61319
5420240;0.04500;76.1875;118;67;0.60049
5420250;0.08500;75.3750;118;67;0.57192
5420260;0.08000;75.0000;118;67;0.55678
5420270;0.05000;74.5625;118;67;0.54139
5420280;0.00500;73.8125;118;67;0.51111
5420290;-0.02000;73.3750;118;67;0.49817
5420300;-0.07500;73.0000;118;67;0.48669
5420310;-0.10000;72.6250;118;67;0.47497
5420320;-0.11500;72.3125;118;67;0.46398
5420330;-0.11500;71.5625;118;67;0.44493
5420340;-0.11500;71.3125;118;67;0.43712
5420350;-0.10500;71.0000;118;67;0.43053
5420360;-0.10000;70.5000;118;67;0.42002
5420370;-0.08500;70.2500;118;67;0.41587
5420380;0.12000;70.0000;118;67;0.41221
5420390;0.47500;69.8125;118;67;0.40928
5420400;0.88000;69.4375;118;67;0.40464
5420410;0.47500;69.2500;118;67;0.40195
5420420;-0.06500;69.1250;118;67;0.39951
5420430;-0.30000;68.9375;118;67;0.39683
5420440;-0.20500;68.6250;118;67;0.39194
5420450;-0.18000;68.5000;118;67;0.38926
5420460;-0.17000;68.3125;118;67;0.38657
5420470;-0.17000;68.1875;118;67;0.38388
5420480;-0.16500;67.6875;118;67;0.38120
5420490;-0.16000;67.5000;118;67;0.37656
5420500;-0.16000;67.2500;118;67;0.37460
5420510;-0.15000;67.0625;118;67;0.37241
5420520;-0.14500;66.5625;118;67;0.36654
5420530;-0.14000;66.3125;118;67;0.36313
5420540;-0.13500;66.0000;118;67;0.35971
5420550;-0.12000;65.7500;118;67;0.35604
5420560;-0.11500;65.1875;118;67;0.35214
5420570;-0.10500;64.9375;118;67;0.34383
5420580;-0.10000;64.6250;118;67;0.33944
5420590;-0.09000;64.4375;118;67;0.33602
5420600;-0.07500;64.5625;118;67;0.32943
5420610;-0.06500;65.2500;118;67;0.32576
5420620;-0.05500;66.5625;118;67;0.32186
5420630;-0.03500;68.6250;118;67;0.31795
5420640;-0.02500;71.3750;118;67;0.31429
5420650;-0.00500;78.5000;118;67;0.30745
5420660;0.00500;82.6250;118;67;0.30427
5420670;0.02000;86.9375;118;67;0.30134
5420680;0.05000;95.5000;118;67;0.29548
5420690;0.07000;99.3750;118;67;0.29377
5420700;0.09000;102.9375;118;67;0.29280
5420710;0.12500;106.0000;118;67;0.29133
5420720;0.15000;108.5625;118;67;0.28987
5420730;0.19000;112.0625;118;67;0.28742
5420740;0.21000;113.1250;118;67;0.28669
5420750;0.22500;113.8125;118;67;0.28620
5420760;0.21000;114.1875;118;67;0.28596
5420770;0.17000;114.0000;118;67;0.28596
5420780;0.10500;113.5000;118;67;0.28645
5420790;0.04000;112.8750;118;67;0.28742
5420800;0.04000;112.8750;118;67;0.28742
5420810;-0.04500;109.6875;118;67;0.29109
5420820;-0.06500;108.3750;118;67;0.29206
5420830;-0.08000;106.9375;118;67;0.29304
5420840;-0.09500;105.3750;118;67;0.29426
5420850;-0.10000;102.0000;118;67;0.29792
5420860;-0.10000;100.2500;118;67;0.30159
5420870;-0.10000;98.3750;118;67;0.30720
5420880;-0.10000;96.4375;118;67;0.31575
5420890;-0.09500;92.5000;118;67;0.34115
5420900;-0.09500;90.5625;118;67;0.35653
5420910;-0.09500;88.6250;118;67;0.37680
5420920;-0.09500;86.8750;118;67;0.40098
5420930;-0.09500;84.2500;118;67;0.45641
5420940;-0.09500;83.3750;118;67;0.48523
5420950;-0.09500;82.6250;118;67;0.51380
5420960;-0.09500;81.6875;118;67;0.54115
5420970;-0.09500;81.3750;118;67;0.59023
5420980;-0.09500;81.1875;118;67;0.61123
5420990;-0.09500;81.0000;118;67;0.62735
5421000;-0.09500;80.9375;118;67;0.63980
5421010;-0.09500;80.8125;118;67;0.66300
5421020;-0.09500;80.6875;118;67;0.67179
5421030;-0.09000;80.5625;118;67;0.67863
5421040;-0.09000;80.3750;118;67;0.68327
5421050;-0.08500;79.8125;118;67;0.68620
5421060;-0.08500;79.4375;118;67;0.68449
5421070;-0.07500;79.0625;118;67;0.68107
5421080;-0.06000;78.6875;118;67;0.67595
5421090;-0.02500;77.8125;118;67;0.66105
5421100;-0.00500;77.3125;118;67;0.65201
5421110;0.01000;76.8750;118;67;0.64176
5421120;0.02000;76.0000;118;67;0.61685
5421130;0.05000;75.5625;118;67;0.60293
5421140;0.08000;75.1250;118;67;0.58828
5421150;0.08500;74.6875;118;67;0.57289
5421160;0.04000;73.8750;118;67;0.54115
5421170;0.01500;73.4375;118;67;0.52576
5421180;-0.01500;73.0625;118;67;0.51087
5421190;-0.07500;72.6875;118;67;0.49817
5421200;-0.10500;72.3750;118;67;0.48694
5421210;-0.12500;71.6875;118;67;0.47692
5421220;-0.13500;71.4375;118;67;0.47009
5421230;-0.14000;71.1250;118;67;0.46203
5421240;-0.14000;70.8750;118;67;0.45421
5421250;-0.13500;70.3750;118;67;0.44078
5421260;-0.12000;70.1875;118;67;0.43516
5421270;0.01000;70.0000;118;67;0.43028
5421280;0.43500;69.5625;118;67;0.42589
5421290;0.88000;69.3750;118;67;0.41954
5421300;0.61000;69.1875;118;67;0.41709
5421310;-0.16500;69.0000;118;67;0.41416
5421320;-0.30500;68.8125;118;67;0.41123
5421330;-0.23500;68.4375;118;67;0.40513
5421340;-0.20000;68.2500;118;67;0.40195
5421350;-0.19000;68.0625;118;67;0.39878
5421360;-0.19000;67.8750;118;67;0.39560
5421370;-0.18500;67.3750;118;67;0.38877
5421380;-0.18000;67.1250;118;67;0.38535
5421390;-0.17000;66.8750;118;67;0.38242
5421400;-0.16500;66.3750;118;67;0.37656
5421410;-0.16000;66.0625;118;67;0.37265
5421420;-0.15500;65.8125;118;67;0.36850
5421430;-0.14500;65.5000;118;67;0.36435
5421440;-0.13500;65.2500;118;67;0.35995
5421450;-0.12000;64.6875;118;67;0.35092
5421460;-0.11000;64.5000;118;67;0.34628
5421470;-0.10500;64.2500;118;67;0.34164
5421480;-0.09500;64.0625;118;67;0.33675
5421490;-0.08000;64.2500;118;67;0.32772
5421500;-0.07000;64.9375;118;67;0.32454
5421510;-0.06000;66.2500;118;67;0.32039
5421520;-0.04500;71.0000;118;67;0.31111
5421530;-0.03500;74.3750;118;67;0.30672
5421540;-0.01500;78.2500;118;67;0.30232
5421550;0.00500;82.3750;118;67;0.29792
5421560;0.02000;86.7500;118;67;0.29377
5421570;0.05000;95.3125;118;67;0.28547
5421580;0.07000;99.3125;118;67;0.28181
5421590;0.10000;102.8750;118;67;0.27961
5421600;0.13500;108.6875;118;67;0.27595
5421610;0.16000;110.8125;118;67;0.27375
5421620;0.19500;112.4375;118;67;0.27179
5421630;0.22500;113.6875;118;67;0.27009
5421640;0.23500;114.9375;118;67;0.26740
5421650;0.22000;115.1250;118;67;0.26642
5421660;0.17000;115.0000;118;67;0.26593
5421670;0.09500;114.6875;118;67;0.26593
5421680;0.04500;114.1250;118;67;0.26642
5421690;0.00000;112.4375;118;67;0.26862
5421700;-0.03500;111.3125;118;67;0.27057
5421710;-0.06500;110.0000;118;67;0.27228
5421720;-0.08000;107.0625;118;67;0.27399
5421730;-0.09000;105.5000;118;67;0.27790
5421740;-0.09000;103.8125;118;67;0.28083
5421750;-0.09500;102.0625;118;67;0.28498
5421760;-0.09500;98.3750;118;67;0.30159
5421770;-0.09500;96.5000;118;67;0.31575
5421780;-0.09500;94.6250;118;67;0.33431
5421790;-0.09000;92.6875;118;67;0.35409
5421800;-0.09000;90.8750;118;67;0.37582
5421810;-0.09000;87.8125;118;67;0.43468
5421820;-0.08500;86.5625;118;67;0.46838
5421830;-0.08500;85.5000;118;67;0.50305
5421840;-0.08500;83.9375;118;67;0.57021
5421850;-0.08000;83.4375;118;67;0.60122
5421860;-0.08000;83.0000;118;67;0.62979
5421870;-0.08000;82.6875;118;67;0.65543
5421880;-0.08500;82.4375;118;67;0.67814
5421890;-0.08500;82.0000;118;67;0.70745
5421900;-0.08500;81.8125;118;67;0.71990
5421910;-0.08500;81.6250;118;67;0.73089
5421920;-0.08500;81.3750;118;67;0.73968
5421930;-0.08000;80.8125;118;67;0.75043
5421940;-0.07500;80.5000;118;67;0.75214
5421950;-0.07000;80.1875;118;67;0.75189
5421960;-0.06500;79.8125;118;67;0.74945
5421970;-0.04500;79.0000;118;67;0.73797
5421980;-0.01000;78.5000;118;67;0.72894
5421990;0.00500;78.0625;118;67;0.71893
5422000;0.02000;77.2500;119;67;0.69475
5422010;0.03000;76.8125;119;67;0.68034
5422020;0.07000;76.3750;119;67;0.66447
5422030;0.09500;75.9375;119;67;0.64737
5422040;0.08000;75.5000;119;67;0.62955
5422050;0.04000;74.6875;119;67;0.59316
5422060;0.00000;74.3125;119;67;0.57509
5422070;-0.03000;73.9375;119;67;0.55775
5422080;-0.07500;73.5625;119;67;0.54115
5422090;-0.10500;72.8125;119;67;0.51453
5422100;-0.11000;72.5625;119;67;0.50183
5422110;-0.11000;72.2500;119;67;0.48962
5422120;-0.10500;71.6250;119;67;0.46813
5422130;-0.10000;71.3125;119;67;0.45885
5422140;-0.09500;71.0625;119;67;0.45055
5422150;-0.06500;70.8125;119;67;0.44322
5422160;0.20000;70.6250;119;67;0.43687
5422170;0.71000;70.2500;119;67;0.42613
5422180;0.86500;70.0625;119;67;0.42149
5422190;0.36000;69.9375;119;67;0.41783
5422200;-0.21000;69.6250;119;67;0.41465
5422210;-0.24500;69.5000;119;67;0.40708
5422220;-0.20000;69.3750;119;67;0.40293
5422230;-0.19000;69.1875;119;67;0.39902
5422240;-0.19000;68.8125;119;67;0.39096
5422250;-0.19000;68.6875;119;67;0.38706
5422260;-0.19000;68.5000;119;67;0.38291
5422270;-0.18000;68.3125;119;67;0.37875
5422280;-0.17500;68.0625;119;67;0.37460
5422290;-0.16500;67.5625;119;67;0.36874
5422300;-0.16000;67.3750;119;67;0.36557
5422310;-0.15500;67.1250;119;67;0.36190
5422320;-0.15500;66.8125;119;67;0.35775
5422330;-0.15000;66.6250;119;67;0.34994
5422340;-0.14500;66.4375;119;67;0.34603
5422350;-0.14000;66.2500;119;67;0.34188
5422360;-0.13000;66.0625;119;67;0.33748
5422370;-0.12000;65.9375;119;67;0.32869
5422380;-0.10500;66.3750;119;67;0.32454
5422390;-0.09500;67.3125;119;67;0.32137
5422400;-0.08500;68.9375;119;67;0.31868
5422410;-0.07500;74.3750;119;67;0.31160
5422420;-0.06500;78.0000;119;67;0.30794
5422430;-0.05000;82.0625;119;67;0.30427
5422440;-0.02500;90.6875;119;67;0.29744
5422450;-0.00500;95.0625;119;67;0.29451
5422460;0.01500;99.1875;119;67;0.29158
5422470;0.05000;103.0625;119;67;0.28889
5422480;0.07500;106.5000;119;67;0.28669
5422490;0.10500;111.9375;119;67;0.28547
5422500;0.14000;113.8750;119;67;0.28474
5422510;0.18000;115.3750;119;67;0.28400
5422520;0.19500;116.4375;119;67;0.28327
5422530;0.20500;117.5625;119;67;0.28254
5422540;0.16500;117.6875;119;67;0.28254
5422550;0.12500;117.5625;119;67;0.28254
5422560;0.05000;116.6875;119;67;0.28303
5422570;0.00500;115.9375;119;67;0.28376
5422580;-0.04000;115.0000;119;67;0.28498
5422590;-0.07000;113.8750;119;67;0.28669
5422600;-0.08500;111.2500;119;67;0.29035
5422610;-0.10000;109.6875;119;67;0.29182
5422620;-0.11000;108.0625;119;67;0.29353
5422630;-0.11500;106.3750;119;67;0.29621
5422640;-0.12500;104.5625;119;67;0.30061
5422650;-0.12500;100.8125;119;67;0.31893
5422660;-0.12500;98.8750;119;67;0.33431
5422670;-0.11500;96.8750;119;67;0.35433
5422680;-0.11500;94.9375;119;67;0.37900
5422690;-0.11500;91.5000;119;67;0.42882
5422700;-0.11500;90.0625;119;67;0.45958
5422710;-0.11500;88.8750;119;67;0.49304
5422720;-0.11500;87.8750;119;67;0.52772
5422730;-0.11500;86.4375;119;67;0.59487
5422740;-0.11500;85.9375;119;67;0.62589
5422750;-0.10500;85.5625;119;67;0.65446
5422760;-0.10500;85.0000;119;67;0.68034
5422770;-0.10500;84.8125;119;67;0.72332
5422780;-0.10500;84.6250;119;67;0.74066
5422790;-0.10000;84.4375;119;67;0.75287
5422800;-0.10000;84.4375;119;67;0.75287
5422810;-0.10500;83.7500;119;67;0.77802
5422820;-0.10500;83.4375;119;67;0.78388
5422830;-0.10500;83.0625;119;67;0.78755
5422840;-0.10500;82.3125;119;67;0.78828
5422850;-0.10000;81.9375;119;67;0.78535
5422860;-0.08500;81.5000;119;67;0.78022
5422870;-0.05000;81.0625;119;67;0.77314
5422880;-0.03000;80.6250;119;67;0.76435
5422890;-0.01500;79.6875;119;67;0.74310
5422900;0.00500;79.2500;119;67;0.73016
5422910;0.03000;78.7500;119;67;0.71600
5422920;0.06000;77.8125;119;67;0.68425
5422930;0.05000;77.3750;119;67;0.66740
5422940;0.02000;77.0000;119;67;0.65031
5422950;-0.01500;76.5625;119;67;0.63370
5422960;-0.05000;76.1875;119;67;0.61783
5422970;-0.09500;75.5000;119;67;0.58901
5422980;-0.10500;75.1250;119;67;0.57607
5422990;-0.08500;74.8125;119;67;0.56532
5423000;-0.08500;74.5000;118;67;0.55604
5423010;-0.10000;73.8750;118;67;0.53846
5423020;-0.11500;73.5625;118;67;0.53089
5423030;-0.12000;73.3125;118;67;0.52381
5423040;-0.07000;72.8750;118;67;0.51209
5423050;0.14500;72.6875;118;67;0.50672
5423060;0.68000;72.5000;118;67;0.50183
5423070;0.94000;72.3125;118;67;0.49695
5423080;0.47500;72.1875;118;67;0.49231
5423090;-0.17500;71.8750;118;67;0.48425
5423100;-0.26500;71.6875;118;67;0.47985
5423110;-0.20000;71.6250;118;67;0.47521
5423120;-0.19000;71.5000;118;67;0.47033
5423130;-0.19000;71.2500;118;67;0.46056
5423140;-0.19000;71.0625;118;67;0.45568
5423150;-0.18000;70.9375;118;67;0.45079
5423160;-0.17500;70.5000;118;67;0.44103
5423170;-0.17000;70.2500;118;67;0.43639
5423180;-0.16500;70.0000;118;67;0.43175
5423190;-0.16000;69.7500;118;67;0.42759
5423200;-0.15500;69.4375;118;67;0.42393
5423210;-0.15000;68.9375;118;67;0.41514
5423220;-0.14500;68.6250;118;67;0.41074
5423230;-0.13500;68.3750;118;67;0.40635
5423240;-0.12000;67.9375;118;67;0.39780
5423250;-0.11000;67.8750;118;67;0.38803
5423260;-0.10000;68.0000;118;67;0.37558
5423270;-0.08500;68.5000;118;67;0.36752
5423280;-0.07500;69.6250;118;67;0.36166
5423290;-0.07500;74.3125;118;67;0.35531
5423300;-0.06500;77.7500;118;67;0.35238
5423310;-0.04500;81.7500;118;67;0.34945
5423320;-0.03500;86.1250;118;67;0.34652
5423330;-0.01000;95.3125;118;67;0.34188
5423340;0.01000;99.8125;118;67;0.33968
5423350;0.03000;104.0625;118;67;0.33797
5423360;0.05000;107.8750;118;67;0.33675
5423370;0.08000;114.1250;118;67;0.33602
5423380;0.10000;116.4375;118;67;0.33602
5423390;0.13000;118.2500;118;67;0.33651
5423400;0.16000;120.5625;118;67;0.33748
5423410;0.19000;121.1875;118;67;0.33944
5423420;0.19000;121.5000;118;67;0.34042
5423430;0.16500;121.5625;118;67;0.34139
5423440;0.10500;121.0625;118;67;0.34310
5423450;0.05500;120.5625;118;67;0.34383
5423460;-0.01500;119.8750;118;67;0.34432
5423470;-0.05000;119.0000;118;67;0.34457
5423480;-0.08500;118.0000;118;67;0.34457
5423490;-0.10500;115.5625;118;67;0.34505
5423500;-0.11500;114.1875;118;67;0.34505
5423510;-0.12000;112.6875;118;67;0.34554
5423520;-0.12500;111.0625;118;67;0.34701
5423530;-0.12500;107.6250;118;67;0.35702
5423540;-0.12500;105.7500;118;67;0.36728
5423550;-0.12000;103.7500;118;67;0.38193
5423560;-0.11500;99.6250;118;67;0.42418
5423570;-0.11500;97.5000;118;67;0.45079
5423580;-0.11000;95.5000;118;67;0.47985
5423590;-0.10500;93.6875;118;67;0.50574
5423600;-0.10500;92.1875;118;67;0.53016
5423610;-0.10500;90.9479;118;67;0.55759
5423620;-0.10000;89.9375;118;67;0.58608
5423630;-0.09500;89.1250;118;67;0.61368
5423640;-0.09500;88.5000;118;67;0.63956
5423650;-0.09500;87.6875;118;67;0.68523
5423660;-0.10000;87.4375;118;67;0.70452
5423670;-0.10500;87.2500;118;67;0.72112
5423680;-0.10500;86.9375;118;67;0.73529
5423690;-0.10500;86.8125;118;67;0.75458
5423700;-0.10000;86.6250;118;67;0.75946
5423710;-0.09500;86.3750;118;67;0.76386
5423720;-0.09500;85.7500;118;67;0.76923
5423730;-0.09500;85.4375;118;67;0.76948
5423740;-0.09500;85.0625;118;67;0.76777
5423750;-0.07500;84.6250;118;67;0.76435
5423760;-0.05000;84.1875;118;67;0.75922
5423770;-0.02000;83.3125;118;67;0.74457
5423780;0.00000;82.8750;118;67;0.73529
5423790;0.01000;82.4375;118;67;0.72503
5423800;0.01000;82.4375;118;67;0.72503
5423810;0.05000;81.5000;118;67;0.70159
5423820;0.07500;80.5625;118;67;0.67350
5423830;0.04500;80.0625;118;67;0.65812
5423840;0.02000;79.6250;118;67;0.64225
5423850;-0.01000;78.7500;118;67;0.61099
5423860;-0.05500;78.3125;118;67;0.59609
5423870;-0.09500;77.9375;118;67;0.58193
5423880;-0.10500;77.5000;118;67;0.56850
5423890;-0.11000;76.7500;118;67;0.54554
5423900;-0.10500;76.3750;118;67;0.53651
5423910;-0.10000;76.0625;118;67;0.52772
5423920;-0.09500;75.5000;118;67;0.51184
5423930;-0.10000;75.2500;118;67;0.50525
5423940;0.07000;75.0000;118;67;0.49939
5423950;0.44500;74.7500;118;67;0.49377
5423960;1.00000;74.5625;118;67;0.48864
5423970;0.72000;74.1875;118;67;0.47888
5423980;0.09000;74.0625;118;67;0.47424
5423990;-0.25500;73.8750;118;67;0.47009
5424000;-0.22000;73.6250;118;67;0.46593
5424010;-0.19500;73.5000;118;67;0.45714
5424020;-0.20000;73.3750;118;67;0.45250
5424030;-0.19500;73.2500;118;67;0.44762
5424040;-0.19000;73.0625;118;67;0.44274
5424050;-0.19000;72.6250;118;67;0.43248
5424060;-0.19000;72.3750;118;67;0.42735
5424070;-0.18500;72.1250;118;67;0.42222
5424080;-0.18000;71.5000;118;67;0.41221
5424090;-0.17500;71.1875;118;67;0.40806
5424100;-0.16500;70.8750;118;67;0.40415
5424110;-0.16000;70.5000;118;67;0.40000
5424120;-0.14500;69.7500;118;67;0.39194
5424130;-0.14000;69.3750;118;67;0.38779
5424140;-0.12500;69.0625;118;67;0.38388
5424150;-0.11500;68.7500;118;67;0.38022
5424160;-0.10000;68.5625;118;67;0.37680
5424170;-0.07500;69.2500;118;67;0.37070
5424180;-0.06500;70.5000;118;67;0.36801
5424190;-0.04500;72.5625;118;67;0.36654
5424200;-0.02500;78.8750;118;67;0.36410
5424210;-0.00500;82.8125;118;67;0.36264
5424220;0.01000;87.0625;118;67;0.36142
5424230;0.03500;91.5000;118;67;0.36044
5424240;0.05500;95.9375;118;67;0.35995
5424250;0.08000;104.2500;118;67;0.35995
5424260;0.12000;107.8125;118;67;0.36044
5424270;0.14500;110.9375;118;67;0.36142
5424280;0.17500;113.5625;118;67;0.36264
5424290;0.21500;117.3125;118;67;0.36459
5424300;0.23500;118.5000;118;67;0.36557
5424310;0.24500;119.3750;118;67;0.36654
5424320;0.23000;120.1250;118;67;0.36728
5424330;0.20000;120.1250;118;67;0.36703
5424340;0.14500;119.8750;118;67;0.36654
5424350;0.08000;119.5000;118;67;0.36581
5424360;0.04000;118.9375;118;67;0.36459
5424370;0.01000;117.3125;118;67;0.36166
5424380;-0.01500;116.2500;118;67;0.35971
5424390;-0.03000;115.0625;118;67;0.35824
5424400;-0.04500;113.7500;118;67;0.35702
5424410;-0.05500;110.7500;118;67;0.35507
5424420;-0.06000;109.0625;118;67;0.35531
5424430;-0.06500;107.2500;118;67;0.35751
5424440;-0.06500;105.3750;118;67;0.36239
5424450;-0.06500;101.3750;118;67;0.38315
5424460;-0.06500;99.2500;118;67;0.39951
5424470;-0.06500;97.1250;118;67;0.41978
5424480;-0.06500;93.0625;118;67;0.44322
5424490;-0.06500;91.3125;118;67;0.49231
5424500;-0.06500;89.8125;118;67;0.51404
5424510;-0.06500;88.5625;118;67;0.53846
5424520;-0.06500;86.7500;118;67;0.58730
5424530;-0.06000;86.0625;118;67;0.60952
5424540;-0.06000;85.5625;118;67;0.62930
5424550;-0.06500;85.1875;118;67;0.64689
5424560;-0.06500;84.6875;118;67;0.67424
5424570;-0.06500;84.4375;118;67;0.68449
5424580;-0.06500;84.2500;118;67;0.69206
5424590;-0.06500;84.0000;118;67;0.69621
5424600;-0.06500;83.7500;118;67;0.69768
5424610;-0.06500;83.1250;118;67;0.69792
5424620;-0.07000;82.6875;118;67;0.69573
5424630;-0.06500;82.3125;118;67;0.69206
5424640;-0.04500;81.4375;118;67;0.67937
5424650;-0.02000;81.0000;118;67;0.67082
5424660;0.01000;80.5000;118;67;0.66105
5424670;0.01500;80.0000;118;67;0.64982
5424680;0.03500;79.5000;118;67;0.63712
5424690;0.07500;78.5625;118;67;0.60952
5424700;0.09500;78.0625;118;67;0.59560
5424710;0.07000;77.5625;118;67;0.57973
5424720;0.04000;77.0625;118;67;0.56264
5424730;0.01000;76.1875;118;67;0.52650
5424740;-0.03500;75.7500;118;67;0.50842
5424750;-0.07000;75.3125;118;67;0.49060
5424760;-0.09500;74.9375;118;67;0.47350
5424770;-0.09500;74.1875;118;67;0.44176
5424780;-0.09500;73.8750;118;67;0.42759
5424790;-0.09500;73.5000;118;67;0.41587
5424800;-0.09500;73.5000;118;67;0.41587
5424810;-0.08500;72.6250;118;67;0.38706
5424820;-0.01000;72.3750;118;67;0.37851
5424830;0.22500;72.1250;118;67;0.37094
5424840;0.80500;71.6875;118;67;0.35775
5424850;0.87500;71.5000;118;67;0.35214
5424860;0.15500;71.3125;118;67;0.34701
5424870;-0.24000;71.1250;118;67;0.34212
5424880;-0.25500;70.9375;118;67;0.33748
5424890;-0.17500;70.5625;118;67;0.32918
5424900;-0.16500;70.3750;118;67;0.32625
5424910;-0.16000;70.1875;118;67;0.32259
5424920;-0.16000;70.1875;118;67;0.32259
5424930;-0.16000;70.1875;118;67;0.32259
5424940;-0.15000;69.1250;118;67;0.30598
5424950;-0.14500;68.8750;118;67;0.30183
5424960;-0.14000;68.5625;118;67;0.29768
5424970;-0.13500;67.9375;118;67;0.28889
5424980;-0.13000;67.5625;118;67;0.28449
5424990;-0.12500;67.2500;118;67;0.28132
5425000;-0.11000;66.5625;117;67;0.27863
5425010;-0.09500;66.2500;117;67;0.27131
5425020;-0.07500;65.9375;117;67;0.26716
5425030;-0.06500;65.6250;117;67;0.26300
5425040;-0.05000;65.3750;117;67;0.25910
5425050;-0.03500;65.1250;117;67;0.25104
5425060;-0.02500;65.3750;117;67;0.24713
5425070;-0.01500;66.2500;117;67;0.24322
5425080;0.00000;70.0000;117;67;0.23956
5425090;0.01000;72.8750;117;67;0.23370
5425100;0.02500;76.3750;117;67;0.23199
5425110;0.04500;80.3125;117;67;0.22955
5425120;0.07000;88.8125;117;67;0.22418
5425130;0.09000;93.0625;117;67;0.22149
5425140;0.11500;97.1250;117;67;0.21929
5425150;0.14500;100.8750;117;67;0.21709
5425160;0.16500;104.1875;117;67;0.21538
5425170;0.20000;109.2500;117;67;0.21221
5425180;0.23500;111.0000;117;67;0.21099
5425190;0.25500;112.2500;117;67;0.21074
5425200;0.24500;113.1250;117;67;0.21148
5425210;0.21000;113.7500;117;67;0.21245
5425220;0.14000;113.6250;117;67;0.21319
5425230;0.08500;113.2500;117;67;0.21416
5425240;0.03000;112.6250;117;67;0.21538
5425250;-0.02000;110.8125;117;67;0.21758
5425260;-0.04500;109.6250;117;67;0.21880
5425270;-0.06500;108.3125;117;67;0.22027
5425280;-0.08000;106.8750;117;67;0.22173
5425290;-0.08500;103.6250;117;67;0.22564
5425300;-0.09000;101.8125;117;67;0.22857
5425310;-0.09500;100.0000;117;67;0.24127
5425320;-0.09500;98.0625;117;67;0.25958
5425330;-0.09500;94.0000;117;67;0.28523
5425340;-0.09000;91.9375;117;67;0.29915
5425350;-0.08500;89.8750;117;67;0.31600
5425360;-0.08500;86.1250;117;67;0.35946
5425370;-0.08500;84.5625;117;67;0.38535
5425380;-0.08000;83.3750;117;67;0.41294
5425390;-0.07500;82.3750;117;67;0.43761
5425400;-0.07500;81.6250;117;67;0.46056
5425410;-0.07500;80.6875;117;67;0.51136
5425420;-0.07500;80.4375;117;67;0.53578
5425430;-0.07500;80.3125;117;67;0.55824
5425440;-0.07500;80.2500;117;67;0.59683
5425450;-0.07500;80.1875;117;67;0.61221
5425460;-0.07500;80.1250;117;67;0.62515
5425470;-0.07500;80.0625;117;67;0.63590
5425480;-0.07500;80.0000;117;67;0.64420
5425490;-0.07500;79.6875;117;67;0.65275
5425500;-0.08000;79.5000;117;67;0.65324
5425510;-0.08000;79.2500;117;67;0.65250
5425520;-0.07000;78.9375;117;67;0.65031
5425530;-0.04000;78.2500;117;67;0.64029
5425540;-0.01500;77.8125;117;67;0.63297
5425550;0.00000;77.4375;117;67;0.62418
5425560;0.01000;77.0000;117;67;0.61392
5425570;0.01500;76.1250;117;67;0.58999
5425580;0.06000;75.7500;117;67;0.57656
5425590;0.07500;75.3125;117;67;0.56386
5425600;0.06000;74.9375;117;67;0.55116
5425610;0.01000;74.1875;117;67;0.52186
5425620;-0.01500;73.8125;117;67;0.50696
5425630;-0.05500;73.3750;117;67;0.49231
5425640;-0.09500;72.6250;117;67;0.47839
5425650;-0.12500;72.1875;117;67;0.45397
5425660;-0.12500;71.8125;117;67;0.44371
5425670;-0.13000;71.5000;117;67;0.43492
5425680;-0.12500;71.1250;117;67;0.42735
5425690;-0.11500;70.5000;117;67;0.41709
5425700;-0.10500;70.1875;117;67;0.41294
5425710;-0.06000;69.8750;117;67;0.40928
5425720;0.19500;69.3125;117;67;0.40635
5425730;0.77500;69.0625;117;67;0.40171
5425740;0.85500;68.8750;117;67;0.39976
5425750;0.27000;68.6875;117;67;0.39780
5425760;-0.28500;68.3750;117;67;0.39438
5425770;-0.26500;68.1875;117;67;0.39243
5425780;-0.19000;68.0625;117;67;0.39048
5425790;-0.16500;67.9375;117;67;0.38901
5425800;-0.16500;67.9375;117;67;0.38901
5425810;-0.16000;67.5000;117;67;0.38339
5425820;-0.16000;67.3125;117;67;0.38095
5425830;-0.15500;67.1250;117;67;0.37802
5425840;-0.14500;66.6875;117;67;0.37167
5425850;-0.14500;66.4375;117;67;0.36825
5425860;-0.13500;66.1875;117;67;0.36484
5425870;-0.12500;65.9375;117;67;0.36117
5425880;-0.11500;65.4375;117;67;0.35458
5425890;-0.11000;65.1250;117;67;0.35189
5425900;-0.10000;64.8750;117;67;0.34823
5425910;-0.09000;64.6250;117;67;0.34408
5425920;-0.08500;64.3750;117;67;0.33993
5425930;-0.07000;64.0625;117;67;0.33138
5425940;-0.06000;64.0000;117;67;0.32698
5425950;-0.05500;64.2500;117;67;0.32259
5425960;-0.04000;66.1875;117;67;0.31819
5425970;-0.02500;68.2500;117;67;0.30989
5425980;-0.00500;70.8750;117;67;0.30574
5425990;0.02000;74.1875;117;67;0.30281
5426000;0.04500;81.8125;117;66;0.29817
5426010;0.06000;85.9375;117;66;0.29548
5426020;0.08500;90.0625;117;66;0.29280
5426030;0.11000;94.0000;117;66;0.29060
5426040;0.14000;101.0625;117;66;0.28669
5426050;0.16500;103.9375;117;66;0.28523
5426060;0.20500;106.3125;117;66;0.28425
5426070;0.23500;108.1875;117;66;0.28352
5426080;0.26500;109.6250;117;66;0.28303
5426090;0.26000;111.1250;117;66;0.28449
5426100;0.23000;111.3125;117;66;0.28523
5426110;0.17000;111.2500;117;66;0.28596
5426120;0.10000;110.8750;117;66;0.28669
5426130;0.03000;109.4375;117;66;0.28889
5426140;-0.00500;108.4375;117;66;0.29035
5426150;-0.03500;107.2500;117;66;0.29206
5426160;-0.06000;104.6250;117;66;0.29597
5426170;-0.07500;103.0625;117;66;0.29792
5426180;-0.08000;101.4375;117;66;0.29963
5426190;-0.08500;99.7500;117;66;0.30183
5426200;-0.08500;98.0625;117;66;0.30452
5426210;-0.08500;94.3750;117;66;0.31282
5426220;-0.08500;92.5000;117;66;0.31990
5426230;-0.09000;90.5625;117;66;0.33016
5426240;-0.09000;88.6875;117;66;0.34408
5426250;-0.08500;85.1250;117;66;0.38315
5426260;-0.08500;83.6250;117;66;0.40733
5426270;-0.08500;82.4375;117;66;0.43394
5426280;-0.08000;81.4375;117;66;0.46178
5426290;-0.07500;80.1250;117;66;0.50891
5426300;-0.07500;79.7500;117;66;0.53309
5426310;-0.07500;79.4375;117;66;0.55727
5426320;-0.07500;79.2500;117;66;0.58046
5426330;-0.07500;79.0625;117;66;0.62027
5426340;-0.07500;79.0000;117;66;0.63663
5426350;-0.07500;78.9375;117;66;0.65031
5426360;-0.07500;78.8750;117;66;0.66154
5426370;-0.07500;78.6250;117;66;0.67643
5426380;-0.07500;78.4375;117;66;0.68034
5426390;-0.07500;78.2500;117;66;0.68107
5426400;-0.07500;77.7500;117;66;0.67741
5426410;-0.06500;77.3750;117;66;0.67350
5426420;-0.04500;77.0000;117;66;0.66813
5426430;-0.02000;76.6250;117;66;0.66129
5426440;-0.00500;76.1875;117;66;0.65299
5426450;0.00000;75.3750;117;66;0.63199
5426460;0.03000;74.9375;117;66;0.61954
5426470;0.06000;74.5000;117;66;0.60611
5426480;0.07500;73.7500;117;66;0.57827
5426490;0.05000;73.3750;117;66;0.56508
5426500;0.00500;73.0000;117;66;0.55067
5426510;-0.01500;72.6250;117;66;0.53553
5426520;-0.05500;72.2500;117;66;0.52063
5426530;-0.10000;71.5625;117;66;0.49206
5426540;-0.11500;71.2500;117;66;0.47888
5426550;-0.11500;70.9375;117;66;0.46691
5426560;-0.11500;70.3750;117;66;0.45641
5426570;-0.11000;70.1250;117;66;0.43932
5426580;-0.10500;69.8125;117;66;0.43248
5426590;-0.09500;69.5625;117;66;0.42735
5426600;0.02000;69.1250;117;66;0.41978
5426610;0.30000;68.8750;117;66;0.41636
5426620;0.79000;68.6875;117;66;0.41343
5426630;0.68000;68.5625;117;66;0.41050
5426640;0.12000;68.3750;117;66;0.40757
5426650;-0.29000;68.0625;117;66;0.40244
5426660;-0.25500;67.9375;117;66;0.39976
5426670;-0.20000;67.7500;117;66;0.39707
5426680;-0.18500;67.4375;117;66;0.39438
5426690;-0.18000;67.3125;117;66;0.39048
5426700;-0.17500;67.1250;117;66;0.38828
5426710;-0.17000;66.9375;117;66;0.38584
5426720;-0.16000;66.5000;117;66;0.38095
5426730;-0.16000;66.2500;117;66;0.37827
5426740;-0.15500;66.0000;117;66;0.37534
5426750;-0.14500;65.8125;117;66;0.37241
5426760;-0.13500;65.5000;117;66;0.36923
5426770;-0.13000;64.9375;117;66;0.36288
5426780;-0.12000;64.6875;117;66;0.35971
5426790;-0.11000;64.3750;117;66;0.35702
5426800;-0.10000;64.0625;117;66;0.35458
5426810;-0.09000;63.6250;117;66;0.34823
5426820;-0.07500;63.5000;117;66;0.34457
5426830;-0.06500;63.5625;117;66;0.34090
5426840;-0.05500;64.7500;117;66;0.33358
5426850;-0.04500;66.2500;117;66;0.32991
5426860;-0.03000;68.4375;117;66;0.32625
5426870;-0.01500;71.3125;117;66;0.32283
5426880;0.00500;78.5625;117;66;0.31746
5426890;0.02000;82.6875;117;66;0.31551
5426900;0.04000;86.9375;117;66;0.31306
5426910;0.07000;91.0625;117;66;0.31062
5426920;0.09000;95.1250;117;66;0.30818
5426930;0.12000;102.1875;117;66;0.30379
5426940;0.15500;105.0000;117;66;0.30208
5426950;0.18500;107.3750;117;66;0.30061
5426960;0.21500;109.1875;117;66;0.29963
5426970;0.24000;111.5000;117;66;0.29866
5426980;0.23500;112.0625;117;66;0.29866
5426990;0.19500;112.2500;117;66;0.29963
5427000;0.13000;111.8750;117;66;0.30183
5427010;0.06000;111.3125;117;66;0.30256
5427020;0.02000;110.5000;117;66;0.30305
5427030;-0.02500;109.5625;117;66;0.30379
5427040;-0.06000;107.1250;117;66;0.30574
5427050;-0.07500;105.7500;117;66;0.30696
5427060;-0.08500;104.2500;117;66;0.30794
5427070;-0.09000;102.6875;117;66;0.30916
5427080;-0.09000;99.3125;117;66;0.31331
5427090;-0.09000;97.5625;117;66;0.31673
5427100;-0.09500;95.6875;117;66;0.32186
5427110;-0.09500;93.8125;117;66;0.32943
5427120;-0.10000;91.8750;117;66;0.34017
5427130;-0.10000;88.0625;117;66;0.37338
5427140;-0.09000;86.2500;117;66;0.39560
5427150;-0.09000;84.6875;117;66;0.42076
5427160;-0.08500;83.3750;117;66;0.44811
5427170;-0.08500;81.5000;117;66;0.50598
5427180;-0.08000;80.8750;117;66;0.53431
5427190;-0.07500;80.3750;117;66;0.55775
5427200;-0.07000;79.8125;117;66;0.59951
5427210;-0.07000;79.6875;117;66;0.62002
5427220;-0.07000;79.6250;117;66;0.63883
5427230;-0.07000;79.5625;117;66;0.65543
5427240;-0.07000;79.5000;117;66;0.66960
5427250;-0.07000;79.3125;117;66;0.69060
5427260;-0.07500;79.1250;117;66;0.69768
5427270;-0.07500;78.9375;117;66;0.70232
5427280;-0.07500;78.6875;117;66;0.70452
5427290;-0.07500;78.1875;117;66;0.70134
5427300;-0.06500;77.8125;117;66;0.69768
5427310;-0.05000;77.4375;117;66;0.69255
5427320;-0.01500;77.0000;117;66;0.68596
5427330;0.00500;76.1875;117;66;0.66862
5427340;0.01500;75.7500;117;66;0.65788
5427350;0.03500;75.3750;117;66;0.64591
5427360;0.06500;75.0000;117;66;0.63956
5427370;0.09500;74.1250;117;66;0.62369
5427380;0.07500;73.7500;117;66;0.61050
5427390;0.03000;73.3750;117;66;0.59634
5427400;-0.00500;73.0000;117;66;0.57998
5427410;-0.04000;72.1875;117;66;0.54554
5427420;-0.09000;71.8750;117;66;0.52894
5427430;-0.11000;71.5000;117;66;0.51331
5427440;-0.12000;71.1875;117;66;0.49890
5427450;-0.12000;70.5625;117;66;0.47448
5427460;-0.11500;70.2500;117;66;0.46471
5427470;-0.11500;70.0000;117;66;0.45617
5427480;-0.11000;69.4375;117;66;0.44884
5427490;-0.03500;69.1875;117;66;0.43858
5427500;0.20000;69.0000;117;66;0.43419
5427510;0.70000;68.8125;117;66;0.43004
5427520;0.87000;68.4375;117;66;0.42613
5427530;0.12500;68.3125;117;66;0.41929
5427540;-0.27000;68.1250;117;66;0.41587
5427550;-0.27000;67.9375;117;66;0.41245
5427560;-0.20000;67.6250;117;66;0.40562
5427570;-0.19000;67.5000;117;66;0.40220
5427580;-0.18000;67.3125;117;66;0.39927
5427590;-0.17500;67.1250;117;66;0.39658
5427600;-0.17000;66.9375;117;66;0.39365
5427610;-0.16500;66.5000;117;66;0.38706
5427620;-0.16000;66.2500;117;66;0.38339
5427630;-0.15500;66.0625;117;66;0.37949
5427640;-0.14500;65.5000;117;66;0.37167
5427650;-0.14000;65.1875;117;66;0.36752
5427660;-0.13000;64.9375;117;66;0.36337
5427670;-0.11500;64.6250;117;66;0.35897
5427680;-0.10500;64.3125;117;66;0.35433
5427690;-0.10000;63.8125;117;66;0.34774
5427700;-0.09500;63.5625;117;66;0.34359
5427710;-0.08500;63.4375;117;66;0.33919
5427720;-0.07500;63.6250;117;66;0.32991
5427730;-0.06500;64.2500;117;66;0.32527
5427740;-0.04500;65.5625;117;66;0.32088
5427750;-0.03500;67.5625;117;66;0.31648
5427760;-0.01500;70.2500;117;66;0.31233
5427770;0.00500;77.1875;117;66;0.30452
5427780;0.02000;81.2500;117;66;0.30183
5427790;0.04000;85.4375;117;66;0.29988
5427800;0.04000;85.4375;117;66;0.29988
5427810;0.08500;97.6875;117;66;0.29182
5427820;0.11000;101.2500;117;66;0.28913
5427830;0.14000;104.3125;117;66;0.28669
5427840;0.17000;106.9375;117;66;0.28449
5427850;0.20000;110.5625;117;66;0.28181
5427860;0.22500;111.7500;117;66;0.28083
5427870;0.22500;112.5000;117;66;0.28034
5427880;0.20500;112.9375;117;66;0.28010
5427890;0.14500;112.9375;117;66;0.28205
5427900;0.07000;112.5000;117;66;0.28327
5427910;0.02000;111.9375;117;66;0.28449
5427920;-0.02000;110.1875;117;66;0.28571
5427930;-0.05500;109.0625;117;66;0.28816
5427940;-0.07000;107.7500;117;66;0.28913
5427950;-0.08500;106.3125;117;66;0.29011
5427960;-0.09500;103.1250;117;66;0.29255
5427970;-0.09583;101.4375;117;66;0.29451
5427980;-0.09500;99.6250;117;66;0.29768
5427990;-0.10000;97.8750;117;66;0.30232
5428000;-0.09500;96.0000;118;67;0.30916
5428010;-0.09500;92.2500;118;67;0.33431
5428020;-0.09500;90.3125;118;67;0.35336
5428030;-0.09500;88.5625;118;67;0.37680
5428040;-0.09500;86.9375;118;67;0.40415
5428050;-0.08500;84.3750;118;67;0.46691
5428060;-0.08000;83.3750;118;67;0.50061
5428070;-0.07500;82.6250;118;67;0.53407
5428080;-0.07000;81.5625;118;67;0.59365
5428090;-0.07000;81.1875;118;67;0.61612
5428100;-0.07500;80.8750;118;67;0.63956
5428110;-0.07500;80.7500;118;67;0.66203
5428120;-0.07500;80.6250;118;67;0.68230
5428130;-0.08000;80.3125;118;67;0.71453
5428140;-0.08000;80.1250;118;67;0.72650
5428150;-0.08000;79.9375;118;67;0.73602
5428160;-0.07500;79.5625;118;67;0.74725
5428170;-0.07500;79.2500;118;67;0.74896
5428180;-0.07500;79.0000;118;67;0.74774
5428190;-0.07000;78.6875;118;67;0.74457
5428200;-0.05500;78.3750;118;67;0.73993
5428210;-0.03000;77.6250;118;67;0.72527
5428220;-0.00500;77.1875;118;67;0.71526
5428230;0.00500;76.8125;118;67;0.70354
5428240;0.02000;76.0000;118;67;0.67570
5428250;0.05000;75.5625;118;67;0.65958
5428260;0.08000;75.1875;118;67;0.64249
5428270;0.07000;74.7500;118;67;0.62466
5428280;0.02000;74.0000;118;67;0.58974
5428290;0.00000;73.6250;118;67;0.57411
5428300;-0.03500;73.2500;118;67;0.55751
5428310;-0.08000;72.8750;118;67;0.54090
5428320;-0.11500;72.5625;118;67;0.52503
5428330;-0.12000;71.9375;118;67;0.49646
5428340;-0.12500;71.6250;118;67;0.48400
5428350;-0.12500;71.3125;118;67;0.47277
5428360;-0.12500;71.0625;118;67;0.46276
5428370;-0.12000;70.6250;118;67;0.44591
5428380;-0.09000;70.4375;118;67;0.43956
5428390;0.12000;70.1875;118;67;0.43419
5428400;0.72500;69.8125;118;67;0.42369
5428410;0.95000;69.6250;118;67;0.41880
5428420;0.31000;69.5000;118;67;0.41441
5428430;-0.19000;69.3125;118;67;0.41026
5428440;-0.28000;69.1875;118;67;0.40659
5428450;-0.20000;68.8125;118;67;0.39927
5428460;-0.19000;68.6875;118;67;0.39560
5428470;-0.19000;68.5625;118;67;0.39219
5428480;-0.18500;68.3750;118;67;0.38877
5428490;-0.18000;68.0000;118;67;0.38364
5428500;-0.17000;67.8125;118;67;0.38071
5428510;-0.16500;67.6250;118;67;0.37729
5428520;-0.16000;67.4375;118;67;0.37363
5428530;-0.15500;66.9375;118;67;0.36606
5428540;-0.15000;66.6250;118;67;0.36239
5428550;-0.14000;66.3750;118;67;0.35873
5428560;-0.13000;66.1250;118;67;0.35507
5428570;-0.12000;65.6250;118;67;0.34823
5428580;-0.11500;65.3750;118;67;0.34579
5428590;-0.10500;65.1875;118;67;0.34359
5428600;-0.09500;64.9375;118;67;0.34066
5428610;-0.08500;65.1875;118;67;0.33407
5428620;-0.07000;65.8750;118;67;0.33040
5428630;-0.05500;67.3125;118;67;0.32674
5428640;-0.04500;69.3750;118;67;0.32332
5428650;-0.03000;75.5625;118;67;0.31624
5428660;-0.01000;79.4375;118;67;0.31331
5428670;0.00500;83.6250;118;67;0.31038
5428680;0.02000;87.9375;118;67;0.30769
5428690;0.04500;96.5000;118;67;0.30476
5428700;0.06500;100.4375;118;67;0.30330
5428710;0.09500;104.0000;118;67;0.30183
5428720;0.12000;107.1250;118;67;0.30061
5428730;0.15500;111.8750;118;67;0.29939
5428740;0.19500;113.5000;118;67;0.29939
5428750;0.21500;114.6875;118;67;0.29988
5428760;0.21500;115.5000;118;67;0.30037
5428770;0.19500;116.1875;118;67;0.30159
5428780;0.13000;116.1875;118;67;0.30281
5428790;0.06000;115.8750;118;67;0.30427
5428800;0.06000;115.8750;118;67;0.30427
5428810;-0.03500;113.7500;118;67;0.30794
5428820;-0.07000;112.7500;118;67;0.30891
5428830;-0.09500;111.5625;118;67;0.30989
5428840;-0.11000;108.7500;118;67;0.31184
5428850;-0.11500;107.1875;118;67;0.31306
5428860;-0.12000;105.5625;118;67;0.31502
5428870;-0.12500;103.8750;118;67;0.31819
5428880;-0.12500;100.3125;118;67;0.33065
5428890;-0.12500;98.5000;118;67;0.34017
5428900;-0.12500;96.6250;118;67;0.35458
5428910;-0.12000;94.7500;118;67;0.37387
5428920;-0.12000;92.8750;118;67;0.39756
5428930;-0.11500;89.6875;118;67;0.45543
5428940;-0.11500;88.3750;118;67;0.48816
5428950;-0.11000;87.3750;118;67;0.52161
5428960;-0.10500;86.5000;118;67;0.55507
5428970;-0.10000;85.1875;118;67;0.61880
5428980;-0.09500;84.7500;118;67;0.64371
5428990;-0.09500;84.4375;118;67;0.66447
5429000;-0.09500;83.9375;117;67;0.70647
5429010;-0.09500;83.8125;117;67;0.72527
5429020;-0.09500;83.6250;117;67;0.74164
5429030;-0.09500;83.5000;117;67;0.75580
5429040;-0.09500;83.2500;117;67;0.76728
5429050;-0.09500;82.7500;117;67;0.78242
5429060;-0.09500;82.4375;117;67;0.78657
5429070;-0.09500;82.0625;117;67;0.78828
5429080;-0.09500;81.7500;117;67;0.78755
5429090;-0.08500;80.9375;117;67;0.77900
5429100;-0.06000;80.5625;117;67;0.77265
5429110;-0.02500;80.1250;117;67;0.76484
5429120;-0.01500;79.6875;117;67;0.75531
5429130;-0.00500;78.8750;117;67;0.73260
5429140;0.03000;78.4375;117;67;0.71941
5429150;0.06000;78.0000;117;67;0.70501
5429160;0.06500;77.5625;117;67;0.68987
5429170;0.02000;76.7500;117;67;0.65739
5429180;-0.00500;76.3750;117;67;0.64225
5429190;-0.03500;76.0000;117;67;0.62784
5429200;-0.09000;75.2500;117;67;0.59805
5429210;-0.11500;74.8750;117;67;0.58388
5429220;-0.13000;74.5625;117;67;0.57094
5429230;-0.13500;74.2500;117;67;0.55897
5429240;-0.13000;73.9375;117;67;0.54823
5429250;-0.12000;73.3750;117;67;0.53040
5429260;-0.11500;73.0625;117;67;0.52283
5429270;-0.11000;72.7500;117;67;0.51624
5429280;0.09000;72.3125;117;67;0.50623
5429290;0.49000;72.0625;117;67;0.50159
5429300;0.98000;71.8750;117;67;0.49719
5429310;0.72500;71.6875;117;67;0.49280
5429320;-0.02000;71.5000;117;67;0.48840
5429330;-0.29000;71.1875;117;67;0.47985
5429340;-0.23500;71.0625;117;67;0.47570
5429350;-0.21000;70.9375;117;67;0.47155
5429360;-0.21000;70.8125;117;67;0.46716
5429370;-0.20500;70.4375;117;67;0.45836
5429380;-0.20000;70.3125;117;67;0.45446
5429390;-0.19000;70.0625;117;67;0.45079
5429400;-0.18500;69.8125;117;67;0.44640
5429410;-0.18000;69.3750;117;67;0.41636
5429420;-0.17000;69.1250;117;67;0.40562
5429430;-0.17000;68.8750;117;67;0.39805
5429440;-0.15500;68.3125;117;67;0.38706
5429450;-0.15000;68.0000;117;67;0.38217
5429460;-0.13500;67.7500;117;67;0.37753
5429470;-0.12500;67.5000;117;67;0.37338
5429480;-0.11500;67.1250;117;67;0.36703
5429490;-0.10500;67.0625;117;67;0.36361
5429500;-0.10000;67.3125;117;67;0.36020
5429510;-0.09500;67.9375;117;67;0.35653
5429520;-0.09000;71.3125;117;67;0.35287
5429530;-0.07500;74.1250;117;67;0.34628
5429540;-0.06000;77.6250;117;67;0.34335
5429550;-0.04000;81.5625;117;67;0.34066
5429560;-0.02000;85.8750;117;67;0.33822
5429570;0.00500;94.9375;117;67;0.33407
5429580;0.03000;99.3750;117;67;0.33284
5429590;0.05500;103.5625;117;67;0.33236
5429600;0.08000;110.7500;117;67;0.33114
5429610;0.10000;113.5625;117;67;0.33089
5429620;0.12500;115.8750;117;67;0.33114
5429630;0.15500;117.5625;117;67;0.33162
5429640;0.19000;119.6250;117;67;0.33260
5429650;0.20000;120.0625;117;67;0.33333
5429660;0.18500;120.1250;117;67;0.33382
5429670;0.14500;120.0000;117;67;0.33431
5429680;0.09000;119.5625;117;67;0.33504
5429690;0.03000;118.2500;117;67;0.33626
5429700;-0.02500;117.3750;117;67;0.33651
5429710;-0.05000;116.3750;117;67;0.33675
5429720;-0.07500;114.0000;117;67;0.33675
5429730;-0.09000;112.6875;117;67;0.33675
5429740;-0.09500;111.2500;117;67;0.33700
5429750;-0.10000;109.7500;117;67;0.33748
5429760;-0.10500;106.6250;117;67;0.34310
5429770;-0.10000;104.9375;117;67;0.34969
5429780;-0.10000;103.1875;117;67;0.35775
5429790;-0.09500;101.3750;117;67;0.36850
5429800;-0.09500;101.3750;117;67;0.36850
5429810;-0.09500;95.7500;117;67;0.42906
5429820;-0.09500;94.0000;117;67;0.45665
5429830;-0.09000;92.5000;117;67;0.48669
5429840;-0.09000;90.1875;117;67;0.54872
5429850;-0.08500;89.3125;117;67;0.57900
5429860;-0.08500;88.6250;117;67;0.60757
5429870;-0.08000;88.0000;117;67;0.63419
5429880;-0.07500;87.5625;117;67;0.65495
5429890;-0.07000;86.8750;117;67;0.68889
5429900;-0.07000;86.6250;117;67;0.70476
5429910;-0.07000;86.3750;117;67;0.71868
5429920;-0.07500;86.1250;117;67;0.73040
5429930;-0.07500;85.6250;117;67;0.74676
5429940;-0.07500;85.3750;117;67;0.75189
5429950;-0.07500;85.0625;117;67;0.75482
5429960;-0.07500;84.3125;117;67;0.75556
5429970;-0.07500;83.9375;117;67;0.75360
5429980;-0.07500;83.5000;117;67;0.74945
5429990;-0.05500;83.0625;117;67;0.74359
5430000;-0.03500;82.6250;116;67;0.73700
5430010;0.00000;81.6875;116;67;0.72039
5430020;0.01000;81.1875;116;67;0.71013
