cp,st,dt,sw10,dw10,sw10+dw10,dw10/sw10,sw25,dw25,sw25+dw25,dw25/sw25,sw33,dw33,sw33+dw33,dw33/sw33,sw50,dw50,sw50+dw50,dw50/sw50,sw66,dw66,sw66+dw66,dw66/sw66,sw75,dw75,sw75+dw75,dw75/sw75,sys,dia,
900,290,610,180,490,670,2.7222,150,340,490,2.2667,150,280,430,1.8667,130,160,290,1.2308,120,120,240,1,100,90,190,0.9,125,73
910,290,360,190,370,560,1.9474,160,360,520,2.25,150,310,460,2.0667,130,180,310,1.3846,120,120,240,1,100,100,200,1,126,73
890,550,680,570,430,1000,0.75439,490,270,760,0.55102,490,200,690,0.40816,490,130,620,0.26531,490,110,600,0.22449,120,110,230,0.91667,126,73
900,210,600,230,420,650,1.8261,200,300,500,1.5,180,250,430,1.3889,150,160,310,1.0667,130,120,250,0.92308,110,100,210,0.90909,126,73
900,300,610,180,620,800,3.4444,160,470,630,2.9375,150,270,420,1.8,130,160,290,1.2308,110,110,220,1,90,90,180,1,126,74
890,290,660,180,470,650,2.6111,150,330,480,2.2,150,270,420,1.8,130,160,290,1.2308,110,110,220,1,100,90,190,0.9,126,74
910,230,670,180,490,670,2.7222,160,340,500,2.125,150,270,420,1.8,130,170,300,1.3077,110,120,230,1.0909,90,100,190,1.1111,126,73
900,240,680,190,690,880,3.6316,160,370,530,2.3125,150,300,450,2,140,180,320,1.2857,110,120,230,1.0909,100,100,200,1,126,74
840,220,690,180,470,650,2.6111,160,330,490,2.0625,150,270,420,1.8,130,170,300,1.3077,110,130,240,1.1818,90,110,200,1.2222,127,74
970,150,720,170,490,660,2.8824,170,360,530,2.1176,120,300,420,2.5,90,220,310,2.4444,70,180,250,2.5714,60,160,220,2.6667,128,74
910,250,670,180,480,660,2.6667,160,320,480,2,150,270,420,1.8,130,150,280,1.1538,100,120,220,1.2,100,100,200,1,127,74
910,240,620,180,630,810,3.5,170,460,630,2.7059,160,380,540,2.375,130,220,350,1.6923,110,110,220,1,100,90,190,0.9,127,74
910,290,580,180,460,640,2.5556,170,330,500,1.9412,160,260,420,1.625,130,150,280,1.1538,120,110,230,0.91667,100,90,190,0.9,127,74
910,330,630,190,440,630,2.3158,170,360,530,2.1176,150,300,450,2,140,180,320,1.2857,110,120,230,1.0909,110,100,210,0.90909,127,74
900,280,690,200,440,640,2.2,170,310,480,1.8235,160,250,410,1.5625,150,160,310,1.0667,120,120,240,1,110,90,200,0.81818,128,74
900,210,620,230,420,650,1.8261,200,300,500,1.5,170,260,430,1.5294,150,170,320,1.1333,120,130,250,1.0833,120,100,220,0.83333,128,75
910,280,700,210,710,920,3.381,160,410,570,2.5625,150,340,490,2.2667,130,180,310,1.3846,110,120,230,1.0909,100,100,200,1,128,75
920,210,690,170,490,660,2.8824,160,330,490,2.0625,140,260,400,1.8571,130,160,290,1.2308,110,110,220,1,100,90,190,0.9,127,74
900,230,680,190,480,670,2.5263,170,330,500,1.9412,150,270,420,1.8,120,160,280,1.3333,100,110,210,1.1,70,90,160,1.2857,127,74
910,220,590,180,600,780,3.3333,150,370,520,2.4667,150,300,450,2,130,170,300,1.3077,110,120,230,1.0909,100,100,200,1,128,74
910,320,700,340,440,780,1.2941,180,280,460,1.5556,170,230,400,1.3529,140,200,340,1.4286,120,140,260,1.1667,110,120,230,1.0909,128,74
900,210,670,230,440,670,1.913,190,310,500,1.6316,170,250,420,1.4706,150,160,310,1.0667,130,120,250,0.92308,110,100,210,0.90909,128,74
900,230,440,180,450,630,2.5,150,310,460,2.0667,150,250,400,1.6667,120,150,270,1.25,110,110,220,1,100,100,200,1,127,74
910,460,660,190,600,790,3.1579,170,360,530,2.1176,150,300,450,2,130,180,310,1.3846,110,120,230,1.0909,90,100,190,1.1111,127,74
910,250,700,190,460,650,2.4211,160,310,470,1.9375,160,250,410,1.5625,130,150,280,1.1538,120,110,230,0.91667,100,100,200,1,127,74
900,210,640,190,650,840,3.4211,170,350,520,2.0588,160,290,450,1.8125,140,170,310,1.2143,110,110,220,1,110,100,210,0.90909,127,74
890,260,690,190,450,640,2.3684,170,310,480,1.8235,160,260,420,1.625,130,170,300,1.3077,120,130,250,1.0833,100,100,200,1,127,74
910,200,710,220,440,660,2,200,310,510,1.55,170,270,440,1.5882,140,150,290,1.0714,120,110,230,0.91667,100,80,180,0.8,128,74
900,200,640,180,430,610,2.3889,160,290,450,1.8125,140,230,370,1.6429,130,140,270,1.0769,110,110,220,1,90,90,180,1,127,74
910,260,630,180,640,820,3.5556,150,430,580,2.8667,150,360,510,2.4,120,160,280,1.3333,110,110,220,1,100,100,200,1,127,74
920,280,690,180,480,660,2.6667,160,320,480,2,140,270,410,1.9286,130,160,290,1.2308,110,120,230,1.0909,100,100,200,1,127,74
900,230,670,190,500,690,2.6316,170,350,520,2.0588,160,290,450,1.8125,140,160,300,1.1429,120,120,240,1,100,90,190,0.9,127,74
900,230,700,190,450,640,2.3684,170,310,480,1.8235,160,260,420,1.625,130,160,290,1.2308,120,120,240,1,100,100,200,1,128,74
920,200,680,220,440,660,2,180,320,500,1.7778,170,260,430,1.5294,140,170,310,1.2143,120,130,250,1.0833,100,110,210,1.1,128,74
890,240,640,190,650,840,3.4211,170,390,560,2.2941,160,310,470,1.9375,140,170,310,1.2143,120,120,240,1,100,100,200,1,127,74
900,250,640,170,500,670,2.9412,150,320,470,2.1333,150,260,410,1.7333,120,150,270,1.25,110,110,220,1,90,90,180,1,127,74
910,260,640,190,460,650,2.4211,160,330,490,2.0625,150,290,440,1.9333,130,190,320,1.4615,110,140,250,1.2727,90,120,210,1.3333,127,74
920,270,650,190,630,820,3.3158,160,340,500,2.125,150,270,420,1.8,130,180,310,1.3846,110,120,230,1.0909,100,100,200,1,127,74
890,270,680,210,430,640,2.0476,180,300,480,1.6667,170,270,440,1.5882,150,180,330,1.2,120,120,240,1,110,100,210,0.90909,128,74
890,210,640,230,430,660,1.8696,180,310,490,1.7222,180,250,430,1.3889,140,170,310,1.2143,120,130,250,1.0833,110,110,220,1,127,74
900,250,540,170,490,660,2.8824,150,320,470,2.1333,140,260,400,1.8571,120,150,270,1.25,110,120,230,1.0909,90,100,190,1.1111,127,74
900,360,680,240,690,930,2.875,170,390,560,2.2941,160,320,480,2,140,200,340,1.4286,120,120,240,1,100,100,200,1,126,74
910,220,590,180,410,590,2.2778,160,300,460,1.875,140,240,380,1.7143,130,160,290,1.2308,110,120,230,1.0909,100,100,200,1,126,73
900,320,680,190,530,720,2.7895,160,360,520,2.25,150,290,440,1.9333,140,160,300,1.1429,110,120,230,1.0909,100,90,190,0.9,127,74
890,220,670,200,460,660,2.3,170,320,490,1.8824,150,260,410,1.7333,140,160,300,1.1429,120,110,230,0.91667,110,100,210,0.90909,127,74
910,220,680,240,420,660,1.75,240,290,530,1.2083,200,230,430,1.15,160,160,320,1,130,130,260,1,120,120,240,1,127,74
900,230,670,190,160,350,0.84211,160,160,320,1,150,160,310,1.0667,130,150,280,1.1538,110,110,220,1,100,100,200,1,127,74
900,230,360,190,370,560,1.9474,170,330,500,1.9412,160,270,430,1.6875,130,150,280,1.1538,120,100,220,0.83333,100,90,190,0.9,126,74
900,540,680,290,550,840,1.8966,170,330,500,1.9412,150,270,420,1.8,140,160,300,1.1429,110,110,220,1,110,90,200,0.81818,126,73
900,220,670,190,630,820,3.3158,170,380,550,2.2353,160,310,470,1.9375,130,170,300,1.3077,120,120,240,1,100,90,190,0.9,126,73
890,230,670,190,440,630,2.3158,170,310,480,1.8235,160,250,410,1.5625,140,160,300,1.1429,120,110,230,0.91667,110,100,210,0.90909,126,74
870,220,670,240,430,670,1.7917,190,330,520,1.7368,170,270,440,1.5882,150,180,330,1.2,130,140,270,1.0769,110,110,220,1,127,74
930,200,630,150,490,640,3.2667,130,340,470,2.6154,120,280,400,2.3333,100,180,280,1.8,80,130,210,1.625,70,110,180,1.5714,127,74
890,300,670,190,480,670,2.5263,170,330,500,1.9412,150,270,420,1.8,130,170,300,1.3077,120,110,230,0.91667,100,90,190,0.9,127,74
910,220,690,180,530,710,2.9444,160,370,530,2.3125,150,300,450,2,130,160,290,1.2308,110,110,220,1,100,90,190,0.9,127,74
900,220,670,190,660,850,3.4737,170,340,510,2,160,270,430,1.6875,140,170,310,1.2143,120,110,230,0.91667,110,100,210,0.90909,127,74
900,230,600,200,470,670,2.35,170,330,500,1.9412,160,270,430,1.6875,150,160,310,1.0667,120,120,240,1,100,100,200,1,127,74
910,300,690,320,450,770,1.4063,200,320,520,1.6,180,260,440,1.4444,160,180,340,1.125,130,130,260,1,120,100,220,0.83333,128,74
890,220,670,180,440,620,2.4444,150,290,440,1.9333,150,230,380,1.5333,130,150,280,1.1538,110,110,220,1,100,100,200,1,128,75
920,220,690,180,700,880,3.8889,160,390,550,2.4375,150,330,480,2.2,120,180,300,1.5,110,130,240,1.1818,90,100,190,1.1111,128,74
900,230,660,190,460,650,2.4211,160,320,480,2,160,260,420,1.625,140,150,290,1.0714,120,110,230,0.91667,100,100,200,1,127,74
900,240,670,180,470,650,2.6111,160,320,480,2,150,270,420,1.8,140,170,310,1.2143,110,130,240,1.1818,100,120,220,1.2,128,74
900,230,680,190,500,690,2.6316,160,340,500,2.125,160,280,440,1.75,130,180,310,1.3846,120,130,250,1.0833,100,100,200,1,128,75
910,220,670,240,440,680,1.8333,240,320,560,1.3333,190,310,500,1.6316,150,210,360,1.4,130,140,270,1.0769,110,110,220,1,128,75
890,240,560,190,410,600,2.1579,170,290,460,1.7059,160,250,410,1.5625,140,140,280,1,120,110,230,0.91667,100,90,190,0.9,128,74
900,330,540,190,460,650,2.4211,160,320,480,2,150,260,410,1.7333,130,160,290,1.2308,100,120,220,1.2,100,100,200,1,128,74
900,360,650,360,660,1020,1.8333,170,430,600,2.5294,160,350,510,2.1875,130,200,330,1.5385,120,130,250,1.0833,100,100,200,1,127,74
910,250,620,180,630,810,3.5,160,360,520,2.25,150,300,450,2,130,170,300,1.3077,110,120,230,1.0909,100,100,200,1,127,74
900,290,660,200,430,630,2.15,180,300,480,1.6667,170,250,420,1.4706,140,160,300,1.1429,120,120,240,1,100,100,200,1,127,74
900,240,670,260,470,730,1.8077,190,350,540,1.8421,180,300,480,1.6667,150,190,340,1.2667,130,130,260,1,110,110,220,1,128,74
890,230,610,190,380,570,2,170,240,410,1.4118,160,190,350,1.1875,140,130,270,0.92857,120,100,220,0.83333,110,80,190,0.72727,127,74
900,280,650,180,500,680,2.7778,160,340,500,2.125,150,280,430,1.8667,130,160,290,1.2308,110,110,220,1,100,90,190,0.9,127,74
910,250,660,180,500,680,2.7778,160,310,470,1.9375,150,260,410,1.7333,120,160,280,1.3333,110,120,230,1.0909,90,100,190,1.1111,127,74
900,250,640,200,540,740,2.7,170,330,500,1.9412,160,270,430,1.6875,140,160,300,1.1429,120,110,230,0.91667,110,100,210,0.90909,127,74
910,260,680,190,500,690,2.6316,170,340,510,2,160,280,440,1.75,140,160,300,1.1429,120,120,240,1,100,100,200,1,128,74
890,230,680,250,470,720,1.88,210,350,560,1.6667,190,300,490,1.5789,160,180,340,1.125,140,130,270,0.92857,120,100,220,0.83333,128,74
900,210,690,190,410,600,2.1579,160,280,440,1.75,150,220,370,1.4667,130,150,280,1.1538,110,110,220,1,100,90,190,0.9,128,74
910,210,640,180,650,830,3.6111,150,410,560,2.7333,150,330,480,2.2,130,190,320,1.4615,110,120,230,1.0909,100,100,200,1,127,74
910,270,680,180,480,660,2.6667,150,330,480,2.2,140,280,420,2,130,160,290,1.2308,100,120,220,1.2,100,100,200,1,127,74
910,230,620,180,490,670,2.7222,160,360,520,2.25,150,300,450,2,130,160,290,1.2308,110,120,230,1.0909,100,90,190,0.9,127,74
900,290,670,200,660,860,3.3,170,360,530,2.1176,160,290,450,1.8125,140,180,320,1.2857,120,120,240,1,110,90,200,0.81818,128,74
900,230,680,250,470,720,1.88,220,420,640,1.9091,180,350,530,1.9444,160,230,390,1.4375,140,140,280,1,120,110,230,0.91667,128,74
900,220,600,200,420,620,2.1,170,300,470,1.7647,160,250,410,1.5625,140,150,290,1.0714,120,110,230,0.91667,110,90,200,0.81818,128,74
900,300,680,190,500,690,2.6316,160,350,510,2.1875,140,280,420,2,130,160,290,1.2308,110,120,230,1.0909,100,100,200,1,127,74
900,220,690,200,700,900,3.5,170,450,620,2.6471,160,360,520,2.25,130,220,350,1.6923,110,140,250,1.2727,90,110,200,1.2222,128,74
920,210,690,180,490,670,2.7222,150,340,490,2.2667,140,280,420,2,120,160,280,1.3333,100,120,220,1.2,90,110,200,1.2222,128,74
880,230,670,190,390,580,2.0526,170,240,410,1.4118,160,170,330,1.0625,150,110,260,0.73333,120,70,190,0.58333,100,50,150,0.5,129,74
900,210,690,230,500,730,2.1739,170,390,560,2.2941,160,330,490,2.0625,140,210,350,1.5,110,150,260,1.3636,100,120,220,1.2,129,74
900,210,630,210,420,630,2,160,300,460,1.875,150,250,400,1.6667,130,160,290,1.2308,110,130,240,1.1818,90,100,190,1.1111,128,74
910,270,670,180,490,670,2.7222,150,350,500,2.3333,140,270,410,1.9286,120,160,280,1.3333,100,120,220,1.2,90,100,190,1.1111,128,74
890,240,520,190,450,640,2.3684,170,320,490,1.8824,160,250,410,1.5625,130,160,290,1.2308,120,110,230,0.91667,100,90,190,0.9,127,74
910,370,670,180,680,860,3.7778,160,60,220,0.375,150,60,210,0.4,130,60,190,0.46154,100,60,160,0.6,100,60,160,0.6,127,74
910,240,670,190,570,760,3,170,350,520,2.0588,160,290,450,1.8125,140,170,310,1.2143,120,120,240,1,100,100,200,1,127,74
890,240,670,260,490,750,1.8846,200,350,550,1.75,190,300,490,1.5789,170,180,350,1.0588,150,120,270,0.8,120,100,220,0.83333,128,74
890,220,670,240,410,650,1.7083,180,290,470,1.6111,170,240,410,1.4118,140,150,290,1.0714,120,110,230,0.91667,110,90,200,0.81818,127,74
900,220,660,180,670,850,3.7222,150,410,560,2.7333,140,320,460,2.2857,120,180,300,1.5,100,110,210,1.1,90,100,190,1.1111,127,74
910,240,670,180,510,690,2.8333,160,330,490,2.0625,150,260,410,1.7333,130,160,290,1.2308,110,120,230,1.0909,90,100,190,1.1111,127,74
900,240,640,190,430,620,2.2632,160,310,470,1.9375,150,260,410,1.7333,140,150,290,1.0714,120,110,230,0.91667,100,90,190,0.9,126,73
880,260,660,190,530,720,2.7895,170,340,510,2,160,280,440,1.75,140,170,310,1.2143,120,120,240,1,110,90,200,0.81818,126,73
890,220,690,240,650,890,2.7083,170,410,580,2.4118,170,350,520,2.0588,140,210,350,1.5,120,140,260,1.1667,100,130,230,1.3,127,73
890,200,660,220,430,650,1.9545,170,310,480,1.8235,150,250,400,1.6667,140,160,300,1.1429,110,120,230,1.0909,100,110,210,1.1,127,73
940,230,670,170,520,690,3.0588,150,350,500,2.3333,130,280,410,2.1538,120,160,280,1.3333,100,120,220,1.2,80,100,180,1.25,126,73
850,270,630,210,640,850,3.0476,190,400,590,2.1053,180,320,500,1.7778,160,180,340,1.125,130,100,230,0.76923,120,80,200,0.66667,126,73
910,220,670,180,450,630,2.5,150,320,470,2.1333,140,260,400,1.8571,130,160,290,1.2308,100,120,220,1.2,90,100,190,1.1111,126,73
890,240,680,170,410,580,2.4118,170,290,460,1.7059,150,270,420,1.8,130,180,310,1.3846,110,130,240,1.1818,90,100,190,1.1111,127,73
900,210,690,190,480,670,2.5263,160,350,510,2.1875,150,290,440,1.9333,130,180,310,1.3846,110,140,250,1.2727,100,120,220,1.2,127,73
900,210,510,230,400,630,1.7391,170,290,460,1.7059,160,230,390,1.4375,140,160,300,1.1429,120,120,240,1,100,100,200,1,127,73
900,390,590,200,600,800,3,170,380,550,2.2353,150,300,450,2,140,170,310,1.2143,110,110,220,1,100,100,200,1,127,73
900,310,680,180,490,670,2.7222,160,330,490,2.0625,150,270,420,1.8,130,160,290,1.2308,110,120,230,1.0909,90,100,190,1.1111,126,73
900,220,630,180,540,720,3,150,360,510,2.4,140,280,420,2,140,170,310,1.2143,110,120,230,1.0909,100,100,200,1,126,73
1730,270,1060,190,1020,1210,5.3684,160,790,950,4.9375,160,550,710,3.4375,130,280,410,2.1538,110,130,240,1.1818,100,100,200,1,127,74
980,670,730,690,460,1150,0.66667,190,330,520,1.7368,170,280,450,1.6471,150,180,330,1.2,130,130,260,1,110,110,220,1,128,74
940,250,670,190,600,790,3.1579,160,330,490,2.0625,150,260,410,1.7333,130,160,290,1.2308,110,110,220,1,100,100,200,1,127,74
930,270,700,190,490,680,2.5789,160,330,490,2.0625,150,280,430,1.8667,140,170,310,1.2143,120,120,240,1,100,90,190,0.9,127,74
910,230,680,180,500,680,2.7778,160,350,510,2.1875,140,280,420,2,140,170,310,1.2143,110,120,230,1.0909,100,100,200,1,127,74
930,230,690,180,700,880,3.8889,160,380,540,2.375,150,320,470,2.1333,130,190,320,1.4615,110,130,240,1.1818,90,110,200,1.2222,127,74
900,240,690,200,480,680,2.4,180,330,510,1.8333,170,280,450,1.6471,140,170,310,1.2143,120,120,240,1,110,100,210,0.90909,125,75
900,210,650,230,430,660,1.8696,230,310,540,1.3478,200,250,450,1.25,160,160,320,1,120,120,240,1,110,100,210,0.90909,126,74
1810,250,660,190,500,690,2.6316,160,340,500,2.125,150,270,420,1.8,130,160,290,1.2308,110,120,230,1.0909,100,90,190,0.9,126,73
910,1150,690,1080,700,1780,0.64815,840,540,1380,0.64286,680,400,1080,0.58824,460,240,700,0.52174,290,140,430,0.48276,200,110,310,0.55,125,73
910,220,670,190,480,670,2.5263,170,340,510,2,160,310,470,1.9375,140,180,320,1.2857,120,120,240,1,110,100,210,0.90909,126,73
890,240,680,200,480,680,2.4,170,320,490,1.8824,170,260,430,1.5294,150,160,310,1.0667,130,120,250,0.92308,110,90,200,0.81818,127,73
900,210,560,230,430,660,1.8696,190,310,500,1.6316,170,260,430,1.5294,140,170,310,1.2143,120,120,240,1,110,110,220,1,126,73
910,340,690,200,700,900,3.5,170,410,580,2.4118,150,330,480,2.2,130,180,310,1.3846,120,120,240,1,100,100,200,1,126,73
910,220,670,180,520,700,2.8889,160,360,520,2.25,150,300,450,2,130,170,300,1.3077,110,110,220,1,100,100,200,1,126,73
900,240,670,190,560,750,2.9474,150,370,520,2.4667,140,300,440,2.1429,120,170,290,1.4167,110,120,230,1.0909,100,100,200,1,126,73
920,230,690,180,700,880,3.8889,170,420,590,2.4706,150,340,490,2.2667,130,210,340,1.6154,120,130,250,1.0833,100,110,210,1.1,127,73
890,230,680,250,430,680,1.72,190,270,460,1.4211,170,200,370,1.1765,160,140,300,0.875,130,130,260,1,120,110,230,0.91667,128,74
910,210,680,230,450,680,1.9565,190,330,520,1.7368,170,270,440,1.5882,140,170,310,1.2143,120,130,250,1.0833,100,110,210,1.1,128,74
900,230,660,180,670,850,3.7222,160,420,580,2.625,150,270,420,1.8,120,160,280,1.3333,110,110,220,1,90,100,190,1.1111,127,74
920,240,670,180,490,670,2.7222,160,350,510,2.1875,140,280,420,2,130,170,300,1.3077,100,120,220,1.2,100,100,200,1,127,74
910,250,650,180,480,660,2.6667,170,320,490,1.8824,150,260,410,1.7333,140,160,300,1.1429,110,120,230,1.0909,100,90,190,0.9,127,74
910,260,670,190,680,870,3.5789,180,400,580,2.2222,160,320,480,2,140,180,320,1.2857,120,120,240,1,110,90,200,0.81818,128,74
1800,240,1580,260,1300,1560,5,260,810,1070,3.1154,210,400,610,1.9048,170,250,420,1.4706,150,140,290,0.93333,130,110,240,0.84615,128,74
900,220,630,180,490,670,2.7222,160,330,490,2.0625,150,270,420,1.8,130,150,280,1.1538,120,110,230,0.91667,100,90,190,0.9,128,74
910,270,680,180,690,870,3.8333,160,550,710,3.4375,150,430,580,2.8667,130,250,380,1.9231,110,120,230,1.0909,100,90,190,0.9,127,74
910,230,610,180,490,670,2.7222,160,340,500,2.125,150,280,430,1.8667,130,160,290,1.2308,120,110,230,0.91667,100,90,190,0.9,127,74
900,300,670,190,440,630,2.3158,160,360,520,2.25,160,290,450,1.8125,140,170,310,1.2143,120,120,240,1,110,90,200,0.81818,127,74
900,230,680,190,470,660,2.4737,170,330,500,1.9412,160,270,430,1.6875,140,160,300,1.1429,120,120,240,1,100,100,200,1,128,74
900,220,650,240,440,680,1.8333,200,310,510,1.55,180,260,440,1.4444,150,170,320,1.1333,130,130,260,1,120,100,220,0.83333,128,74
900,250,690,210,700,910,3.3333,160,440,600,2.75,150,350,500,2.3333,130,200,330,1.5385,110,130,240,1.1818,100,110,210,1.1,128,74
930,210,680,170,470,640,2.7647,150,330,480,2.2,140,260,400,1.8571,130,160,290,1.2308,100,120,220,1.2,90,100,190,1.1111,127,73
900,250,650,200,490,690,2.45,170,330,500,1.9412,160,270,430,1.6875,130,150,280,1.1538,110,100,210,0.90909,100,90,190,0.9,127,73
900,250,660,200,670,870,3.35,170,360,530,2.1176,160,300,460,1.875,140,180,320,1.2857,120,120,240,1,110,100,210,0.90909,127,74
890,240,680,260,410,670,1.5769,180,280,460,1.5556,170,250,420,1.4706,130,200,330,1.5385,120,130,250,1.0833,110,110,220,1,128,74
900,210,660,230,440,670,1.913,190,320,510,1.6842,170,260,430,1.5294,150,170,320,1.1333,120,130,250,1.0833,100,110,210,1.1,128,74
890,240,460,180,470,650,2.6111,160,330,490,2.0625,150,260,410,1.7333,130,150,280,1.1538,120,110,230,0.91667,100,90,190,0.9,127,74
900,430,640,260,650,910,2.5,170,400,570,2.3529,150,330,480,2.2,130,180,310,1.3846,110,120,230,1.0909,90,100,190,1.1111,127,74
910,260,650,180,480,660,2.6667,150,330,480,2.2,150,270,420,1.8,130,160,290,1.2308,110,120,230,1.0909,100,100,200,1,126,73
890,260,670,190,680,870,3.5789,160,350,510,2.1875,150,280,430,1.8667,140,160,300,1.1429,110,110,220,1,100,90,190,0.9,126,73
890,220,680,190,470,660,2.4737,160,320,480,2,150,270,420,1.8,140,160,300,1.1429,120,110,230,0.91667,110,100,210,0.90909,127,74
910,210,690,230,420,650,1.8261,230,290,520,1.2609,210,220,430,1.0476,160,140,300,0.875,130,100,230,0.76923,120,80,200,0.66667,127,74
900,220,630,180,490,670,2.7222,160,320,480,2,150,270,420,1.8,130,160,290,1.2308,120,110,230,0.91667,100,90,190,0.9,126,73
910,270,680,180,690,870,3.8333,160,690,850,4.3125,150,480,630,3.2,130,170,300,1.3077,110,120,230,1.0909,100,100,200,1,126,73
900,230,680,180,490,670,2.7222,160,330,490,2.0625,150,270,420,1.8,130,170,300,1.3077,120,110,230,0.91667,100,100,200,1,126,73
910,220,670,180,550,730,3.0556,160,390,550,2.4375,150,320,470,2.1333,130,190,320,1.4615,110,120,230,1.0909,100,110,210,1.1,126,73
890,240,680,190,490,680,2.5789,170,340,510,2,160,280,440,1.75,140,170,310,1.2143,120,120,240,1,110,100,210,0.90909,127,73
900,210,650,230,440,670,1.913,200,320,520,1.6,180,270,450,1.5,150,180,330,1.2,130,130,260,1,110,110,220,1,127,74
900,250,670,180,590,770,3.2778,160,370,530,2.3125,150,310,460,2.0667,130,180,310,1.3846,120,120,240,1,100,100,200,1,127,74
910,230,680,180,520,700,2.8889,150,360,510,2.4,140,280,420,2,130,160,290,1.2308,110,110,220,1,100,100,200,1,126,73
900,230,650,180,550,730,3.0556,170,400,570,2.3529,150,340,490,2.2667,130,220,350,1.6923,120,120,240,1,100,100,200,1,126,73
910,250,680,180,660,840,3.6667,160,370,530,2.3125,150,300,450,2,130,180,310,1.3846,110,130,240,1.1818,100,110,210,1.1,127,73
890,230,680,200,410,610,2.05,180,360,540,2,160,300,460,1.875,140,190,330,1.3571,120,130,250,1.0833,100,110,210,1.1,128,74
910,210,680,230,460,690,2,200,340,540,1.7,170,290,460,1.7059,150,190,340,1.2667,120,150,270,1.25,110,120,230,1.0909,127,74
900,230,580,180,460,640,2.5556,150,320,470,2.1333,150,260,410,1.7333,130,160,290,1.2308,100,110,210,1.1,100,100,200,1,127,74
910,320,680,280,690,970,2.4643,160,420,580,2.625,160,340,500,2.125,130,220,350,1.6923,110,140,250,1.2727,100,110,210,1.1,127,74
910,230,700,190,630,820,3.3158,160,350,510,2.1875,150,310,460,2.0667,130,180,310,1.3846,110,120,230,1.0909,100,100,200,1,127,74
910,210,670,180,470,650,2.6111,160,320,480,2,150,240,390,1.6,130,150,280,1.1538,100,110,210,1.1,90,90,180,1,127,74
890,240,670,200,480,680,2.4,170,330,500,1.9412,170,270,440,1.5882,140,160,300,1.1429,130,120,250,0.92308,80,90,170,1.125,128,74
910,220,690,240,440,680,1.8333,240,300,540,1.25,210,240,450,1.1429,160,200,360,1.25,130,150,280,1.1538,110,110,220,1,128,74
890,220,620,190,420,610,2.2105,170,290,460,1.7059,150,230,380,1.5333,140,140,280,1,120,100,220,0.83333,100,90,190,0.9,127,74
910,270,430,180,440,620,2.4444,150,340,490,2.2667,140,280,420,2,120,160,280,1.3333,100,110,210,1.1,100,100,200,1,127,73
920,480,630,480,640,1120,1.3333,170,380,550,2.2353,160,310,470,1.9375,130,180,310,1.3846,120,120,240,1,100,100,200,1,126,73
890,290,690,210,670,880,3.1905,170,340,510,2,170,270,440,1.5882,150,160,310,1.0667,130,110,240,0.84615,110,80,190,0.72727,127,73
900,200,670,180,450,630,2.5,160,310,470,1.9375,150,260,410,1.7333,140,160,300,1.1429,110,120,230,1.0909,110,100,210,0.90909,126,74
890,230,680,250,450,700,1.8,200,330,530,1.65,180,280,460,1.5556,150,180,330,1.2,130,130,260,1,120,100,220,0.83333,126,74
890,210,600,170,480,650,2.8235,150,330,480,2.2,140,260,400,1.8571,130,150,280,1.1538,110,110,220,1,90,80,170,0.88889,126,73
600,290,580,170,520,690,3.0588,140,390,530,2.7857,140,300,440,2.1429,120,160,280,1.3333,100,120,220,1.2,90,100,190,1.1111,125,73
1200,20,990,20,780,800,39,20,640,660,32,20,560,580,28,20,460,480,23,20,420,440,21,20,70,90,3.5,125,73
900,210,690,170,670,840,3.9412,140,390,530,2.7857,140,300,440,2.1429,120,160,280,1.3333,110,120,230,1.0909,90,100,190,1.1111,125,73
910,210,580,190,490,680,2.5789,160,340,500,2.125,150,270,420,1.8,130,160,290,1.2308,110,120,230,1.0909,100,100,200,1,126,73
900,330,680,350,470,820,1.3429,190,340,530,1.7895,170,270,440,1.5882,150,170,320,1.1333,130,120,250,0.92308,120,110,230,0.91667,126,73
870,220,610,190,490,680,2.5789,170,330,500,1.9412,160,250,410,1.5625,140,150,290,1.0714,120,110,230,0.91667,100,90,190,0.9,125,73
920,260,720,170,410,580,2.4118,140,290,430,2.0714,130,220,350,1.6923,120,150,270,1.25,100,120,220,1.2,90,100,190,1.1111,125,73
900,200,620,160,490,650,3.0625,150,340,490,2.2667,140,270,410,1.9286,130,160,290,1.2308,110,110,220,1,90,100,190,1.1111,125,73
910,280,620,180,600,780,3.3333,150,390,540,2.6,150,350,500,2.3333,130,230,360,1.7692,110,110,220,1,100,100,200,1,125,73
900,290,680,200,690,890,3.45,170,330,500,1.9412,160,280,440,1.75,140,190,330,1.3571,120,130,250,1.0833,110,110,220,1,125,73
880,220,680,240,460,700,1.9167,190,370,560,1.9474,180,280,460,1.5556,150,170,320,1.1333,130,120,250,0.92308,120,100,220,0.83333,126,73
900,200,630,220,460,680,2.0909,160,310,470,1.9375,150,270,420,1.8,130,160,290,1.2308,110,120,230,1.0909,100,100,200,1,126,73
900,270,630,170,480,650,2.8235,150,350,500,2.3333,140,280,420,2,130,160,290,1.2308,110,120,230,1.0909,100,90,190,0.9,126,74
910,270,630,240,640,880,2.6667,170,430,600,2.5294,150,350,500,2.3333,140,190,330,1.3571,120,120,240,1,100,110,210,1.1,125,73
870,280,520,180,530,710,2.9444,160,350,510,2.1875,150,280,430,1.8667,140,170,310,1.2143,120,120,240,1,100,100,200,1,125,73
930,350,700,160,490,650,3.0625,130,330,460,2.5385,130,260,390,2,110,170,280,1.5455,90,130,220,1.4444,80,110,190,1.375,126,74
890,230,680,250,490,740,1.96,190,360,550,1.8947,180,310,490,1.7222,140,200,340,1.4286,130,130,260,1,110,110,220,1,126,74
900,210,620,210,410,620,1.9524,170,280,450,1.6471,160,240,400,1.5,140,160,300,1.1429,110,110,220,1,110,100,210,0.90909,126,74
890,280,670,180,490,670,2.7222,160,340,500,2.125,150,270,420,1.8,140,160,300,1.1429,120,110,230,0.91667,100,90,190,0.9,126,74
900,220,490,180,490,670,2.7222,150,350,500,2.3333,140,280,420,2,130,160,290,1.2308,110,110,220,1,100,100,200,1,125,73
900,410,520,190,530,720,2.7895,160,340,500,2.125,160,270,430,1.6875,130,160,290,1.2308,120,110,230,0.91667,100,100,200,1,125,73
900,380,670,190,680,870,3.5789,170,380,550,2.2353,150,310,460,2.0667,140,170,310,1.2143,120,120,240,1,100,100,200,1,125,73
880,230,670,250,500,750,2,210,380,590,1.8095,190,300,490,1.5789,160,180,340,1.125,130,120,250,0.92308,120,100,220,0.83333,126,73
890,210,630,230,430,660,1.8696,170,310,480,1.8235,160,250,410,1.5625,130,160,290,1.2308,120,120,240,1,100,100,200,1,125,73
900,260,640,180,650,830,3.6111,150,370,520,2.4667,140,300,440,2.1429,120,180,300,1.5,100,120,220,1.2,90,110,200,1.2222,125,73
900,260,620,180,480,660,2.6667,160,330,490,2.0625,150,280,430,1.8667,130,160,290,1.2308,110,120,230,1.0909,100,100,200,1,125,73
890,280,640,190,420,610,2.2105,170,330,500,1.9412,150,280,430,1.8667,130,180,310,1.3846,110,120,230,1.0909,100,110,210,1.1,125,73
900,250,650,190,660,850,3.4737,160,420,580,2.625,150,330,480,2.2,130,200,330,1.5385,100,130,230,1.3,100,120,220,1.2,126,73
890,250,690,270,620,890,2.2963,180,420,600,2.3333,160,350,510,2.1875,140,200,340,1.4286,120,140,260,1.1667,110,110,220,1,126,73
890,200,650,220,440,660,2,180,310,490,1.7222,170,250,420,1.4706,140,170,310,1.2143,120,130,250,1.0833,100,110,210,1.1,126,73
920,240,660,180,550,730,3.0556,150,360,510,2.4,140,290,430,2.0714,120,160,280,1.3333,100,120,220,1.2,100,100,200,1,125,73
870,260,630,200,640,840,3.2,180,440,620,2.4444,160,350,510,2.1875,140,200,340,1.4286,110,110,220,1,90,90,180,1,125,73
900,240,670,180,500,680,2.7778,160,340,500,2.125,150,270,420,1.8,130,170,300,1.3077,110,120,230,1.0909,100,100,200,1,126,73
900,230,660,190,460,650,2.4211,170,310,480,1.8235,160,260,420,1.625,140,190,330,1.3571,110,120,230,1.0909,100,110,210,1.1,127,73
870,240,670,200,480,680,2.4,170,330,500,1.9412,170,270,440,1.5882,150,160,310,1.0667,130,120,250,0.92308,110,90,200,0.81818,127,74
910,200,530,220,410,630,1.8636,170,310,480,1.8235,160,260,420,1.625,130,170,300,1.3077,110,140,250,1.2727,90,120,210,1.3333,126,74
890,380,660,180,520,700,2.8889,150,360,510,2.4,150,290,440,1.9333,130,170,300,1.3077,110,120,230,1.0909,90,100,190,1.1111,126,73
900,230,680,170,500,670,2.9412,160,340,500,2.125,140,280,420,2,120,170,290,1.4167,110,120,230,1.0909,90,100,190,1.1111,126,73
900,220,670,180,570,750,3.1667,150,360,510,2.4,140,290,430,2.0714,120,170,290,1.4167,110,120,230,1.0909,100,100,200,1,126,73
890,230,660,190,670,860,3.5263,160,400,560,2.5,160,330,490,2.0625,140,180,320,1.2857,120,120,240,1,100,100,200,1,127,74
890,230,680,250,430,680,1.72,180,270,450,1.5,170,200,370,1.1765,140,160,300,1.1429,130,140,270,1.0769,110,120,230,1.0909,128,74
890,210,600,230,440,670,1.913,210,320,530,1.5238,180,270,450,1.5,150,170,320,1.1333,130,130,260,1,110,110,220,1,128,74
900,290,410,170,420,590,2.4706,160,350,510,2.1875,150,280,430,1.8667,120,170,290,1.4167,110,120,230,1.0909,90,100,190,1.1111,128,74
900,490,670,230,600,830,2.6087,160,370,530,2.3125,150,290,440,1.9333,130,170,300,1.3077,110,120,230,1.0909,100,90,190,0.9,127,74
900,230,680,190,480,670,2.5263,160,330,490,2.0625,150,270,420,1.8,130,160,290,1.2308,120,110,230,0.91667,110,100,210,0.90909,128,74
1780,220,660,190,670,860,3.5263,170,370,540,2.1765,160,300,460,1.875,140,170,310,1.2143,130,120,250,0.92308,110,90,200,0.81818,129,74
890,1120,670,1140,420,1560,0.36842,1110,280,1390,0.25225,840,220,1060,0.2619,610,140,750,0.22951,130,90,220,0.69231,110,60,170,0.54545,129,74
900,220,630,180,460,640,2.5556,160,310,470,1.9375,150,260,410,1.7333,120,150,270,1.25,110,110,220,1,100,100,200,1,128,74
890,270,620,190,630,820,3.3158,160,460,620,2.875,150,360,510,2.4,140,160,300,1.1429,110,110,220,1,110,90,200,0.81818,128,74
900,270,640,190,480,670,2.5263,160,330,490,2.0625,150,260,410,1.7333,130,160,290,1.2308,120,110,230,0.91667,100,100,200,1,128,74
890,260,650,200,560,760,2.8,170,370,540,2.1765,160,290,450,1.8125,140,170,310,1.2143,130,110,240,0.84615,110,90,200,0.81818,128,74
880,240,670,190,480,670,2.5263,170,320,490,1.8824,160,270,430,1.6875,140,170,310,1.2143,120,110,230,0.91667,100,100,200,1,129,74
890,210,660,230,440,670,1.913,190,320,510,1.6842,180,280,460,1.5556,150,180,330,1.2,120,130,250,1.0833,110,110,220,1,128,74
890,230,640,180,600,780,3.3333,160,350,510,2.1875,150,290,440,1.9333,130,170,300,1.3077,110,120,230,1.0909,110,100,210,0.90909,128,74
900,250,680,180,490,670,2.7222,160,340,500,2.125,150,280,430,1.8667,130,160,290,1.2308,110,120,230,1.0909,90,100,190,1.1111,127,74
890,220,670,180,470,650,2.6111,160,350,510,2.1875,150,290,440,1.9333,130,160,290,1.2308,100,120,220,1.2,100,100,200,1,127,74
900,220,670,180,680,860,3.7778,160,370,530,2.3125,150,300,450,2,120,180,300,1.5,110,130,240,1.1818,90,100,190,1.1111,127,74
890,230,670,190,470,660,2.4737,170,350,520,2.0588,160,280,440,1.75,130,170,300,1.3077,120,130,250,1.0833,100,100,200,1,128,74
900,220,680,240,460,700,1.9167,190,340,530,1.7895,170,280,450,1.6471,150,190,340,1.2667,120,140,260,1.1667,100,110,210,1.1,128,74
890,220,670,190,420,610,2.2105,160,300,460,1.875,160,240,400,1.5,130,150,280,1.1538,120,110,230,0.91667,100,90,190,0.9,128,74
890,220,660,180,670,850,3.7222,170,380,550,2.2353,160,300,460,1.875,140,170,310,1.2143,120,120,240,1,100,90,190,0.9,127,74
890,230,670,180,450,630,2.5,160,320,480,2,150,260,410,1.7333,130,150,280,1.1538,110,110,220,1,110,90,200,0.81818,127,74
890,220,670,190,680,870,3.5789,160,400,560,2.5,160,340,500,2.125,130,220,350,1.6923,120,150,270,1.25,100,120,220,1.2,127,74
890,220,670,200,610,810,3.05,160,350,510,2.1875,150,300,450,2,140,180,320,1.2857,120,120,240,1,100,90,190,0.9,128,74
890,220,680,240,460,700,1.9167,240,360,600,1.5,190,350,540,1.8421,160,230,390,1.4375,140,140,280,1,120,120,240,1,128,74
890,210,620,180,420,600,2.3333,160,300,460,1.875,150,240,390,1.6,130,150,280,1.1538,110,120,230,1.0909,110,90,200,0.81818,128,74
890,270,620,180,510,690,2.8333,150,350,500,2.3333,150,290,440,1.9333,130,170,300,1.3077,120,110,230,0.91667,100,100,200,1,127,74
900,270,660,250,670,920,2.68,170,410,580,2.4118,160,330,490,2.0625,130,200,330,1.5385,120,130,250,1.0833,100,100,200,1,127,74
870,240,650,180,600,780,3.3333,160,350,510,2.1875,150,280,430,1.8667,130,160,290,1.2308,110,120,230,1.0909,100,100,200,1,128,74
930,220,700,160,490,650,3.0625,140,330,470,2.3571,130,260,390,2,110,160,270,1.4545,90,120,210,1.3333,80,80,160,1,129,74
890,230,680,250,500,750,2,200,370,570,1.85,180,310,490,1.7222,150,200,350,1.3333,130,130,260,1,120,110,230,0.91667,129,74
890,210,660,200,420,620,2.1,170,290,460,1.7059,160,240,400,1.5,140,150,290,1.0714,110,110,220,1,110,100,210,0.90909,128,74
900,230,660,180,500,680,2.7778,160,350,510,2.1875,150,300,450,2,120,170,290,1.4167,110,110,220,1,90,100,190,1.1111,128,74
900,240,490,180,470,650,2.6111,160,320,480,2,150,260,410,1.7333,130,150,280,1.1538,110,110,220,1,100,90,190,0.9,128,74
900,410,670,190,620,810,3.2632,170,340,510,2,160,280,440,1.75,140,170,310,1.2143,120,120,240,1,110,100,210,0.90909,128,74
880,230,660,190,650,840,3.4211,170,360,530,2.1176,160,290,450,1.8125,140,170,310,1.2143,120,120,240,1,100,100,200,1,128,74
890,220,680,240,510,750,2.125,190,380,570,2,180,320,500,1.7778,150,210,360,1.4,120,140,260,1.1667,110,120,230,1.0909,129,74
900,210,680,230,440,670,1.913,160,310,470,1.9375,150,250,400,1.6667,130,160,290,1.2308,110,130,240,1.1818,100,110,210,1.1,128,74
890,220,670,180,680,860,3.7778,160,430,590,2.6875,150,330,480,2.2,130,180,310,1.3846,110,110,220,1,100,90,190,0.9,128,74
900,220,680,180,540,720,3,150,350,500,2.3333,140,290,430,2.0714,130,170,300,1.3077,100,120,220,1.2,90,100,190,1.1111,127,74
890,220,660,180,470,650,2.6111,160,330,490,2.0625,150,270,420,1.8,130,160,290,1.2308,120,110,230,0.91667,100,100,200,1,127,74
900,230,680,180,690,870,3.8333,160,380,540,2.375,150,320,470,2.1333,130,200,330,1.5385,110,130,240,1.1818,90,110,200,1.2222,128,74
890,220,690,240,650,890,2.7083,190,430,620,2.2632,170,350,520,2.0588,150,220,370,1.4667,130,140,270,1.0769,120,110,230,0.91667,128,74
890,200,650,220,440,660,2,170,300,470,1.7647,160,260,420,1.625,130,160,290,1.2308,120,120,240,1,100,90,190,0.9,128,74
920,240,610,180,510,690,2.8333,160,350,510,2.1875,150,280,430,1.8667,140,170,310,1.2143,110,120,230,1.0909,100,100,200,1,127,74
850,310,640,210,650,860,3.0952,180,400,580,2.2222,170,330,500,1.9412,150,180,330,1.2,130,100,230,0.76923,110,80,190,0.72727,127,74
900,210,670,170,520,690,3.0588,150,350,500,2.3333,140,280,420,2,130,170,300,1.3077,110,120,230,1.0909,100,100,200,1,127,74
890,230,660,190,460,650,2.4211,160,300,460,1.875,160,270,430,1.6875,140,180,320,1.2857,130,120,250,0.92308,110,100,210,0.90909,128,74
880,230,670,200,470,670,2.35,170,330,500,1.9412,170,280,450,1.6471,140,170,310,1.2143,130,120,250,0.92308,110,100,210,0.90909,129,74
890,210,530,230,410,640,1.7826,180,290,470,1.6111,170,240,410,1.4118,140,160,300,1.1429,120,130,250,1.0833,110,100,210,0.90909,128,74
880,360,630,190,570,760,3,160,100,260,0.625,150,100,250,0.66667,130,100,230,0.76923,110,100,210,0.90909,100,100,200,1,128,74
910,250,670,180,510,690,2.8333,150,340,490,2.2667,140,280,420,2,120,160,280,1.3333,100,120,220,1.2,100,100,200,1,128,74
880,240,650,180,520,700,2.8889,160,330,490,2.0625,150,270,420,1.8,120,170,290,1.4167,100,120,220,1.2,90,90,180,1,128,74
890,230,670,180,680,860,3.7778,160,410,570,2.5625,150,330,480,2.2,140,190,330,1.3571,110,130,240,1.1818,100,100,200,1,129,74
880,220,680,240,420,660,1.75,180,260,440,1.4444,170,210,380,1.2353,140,200,340,1.4286,120,130,250,1.0833,110,110,220,1,130,75
900,200,680,220,450,670,2.0455,180,330,510,1.8333,160,270,430,1.6875,140,190,330,1.3571,110,140,250,1.2727,100,110,210,1.1,129,75
900,220,450,170,460,630,2.7059,160,330,490,2.0625,140,260,400,1.8571,130,160,290,1.2308,110,120,230,1.0909,90,100,190,1.1111,129,75
890,450,590,180,540,720,3,170,370,540,2.1765,150,290,440,1.9333,140,160,300,1.1429,120,110,230,0.91667,100,90,190,0.9,129,75
890,300,660,190,460,650,2.4211,160,310,470,1.9375,150,260,410,1.7333,140,150,290,1.0714,120,110,230,0.91667,110,90,200,0.81818,129,75
900,230,670,180,680,860,3.7778,160,370,530,2.3125,150,290,440,1.9333,130,170,300,1.3077,120,120,240,1,100,100,200,1,131,75
880,230,670,200,470,670,2.35,180,330,510,1.8333,160,270,430,1.6875,140,160,300,1.1429,130,120,250,0.92308,110,90,200,0.81818,131,75
880,210,630,230,440,670,1.913,230,300,530,1.3043,230,230,460,1,160,150,310,0.9375,140,120,260,0.85714,120,110,230,0.91667,131,75
890,250,650,180,450,630,2.5,150,320,470,2.1333,140,250,390,1.7857,120,160,280,1.3333,100,110,210,1.1,100,100,200,1,131,75
890,240,370,180,380,560,2.1111,150,380,530,2.5333,150,310,460,2.0667,130,170,300,1.3077,110,120,230,1.0909,100,100,200,1,130,75
900,520,660,480,620,1100,1.2917,160,380,540,2.375,160,310,470,1.9375,130,170,300,1.3077,110,120,230,1.0909,100,100,200,1,130,75
890,240,670,180,640,820,3.5556,160,400,560,2.5,150,310,460,2.0667,140,160,300,1.1429,110,120,230,1.0909,100,100,200,1,130,75
880,220,670,190,620,810,3.2632,160,360,520,2.25,150,300,450,2,140,180,320,1.2857,110,130,240,1.1818,110,110,220,1,131,75
890,210,690,230,480,710,2.087,190,350,540,1.8421,170,300,470,1.7647,140,200,340,1.4286,120,150,270,1.25,100,120,220,1.2,131,75
890,200,640,170,420,590,2.4706,150,270,420,1.8,140,200,340,1.4286,120,130,250,1.0833,100,90,190,0.9,90,60,150,0.66667,130,75
890,250,680,160,530,690,3.3125,150,360,510,2.4,140,290,430,2.0714,130,160,290,1.2308,110,120,230,1.0909,90,90,180,1,130,75
890,210,610,180,540,720,3,150,400,550,2.6667,140,290,430,2.0714,130,160,290,1.2308,100,120,220,1.2,100,100,200,1,130,75
890,280,670,190,640,830,3.3684,170,420,590,2.4706,150,320,470,2.1333,140,210,350,1.5,120,140,260,1.1667,110,110,220,1,130,75
890,220,660,200,550,750,2.75,170,360,530,2.1176,160,300,460,1.875,140,180,320,1.2857,120,120,240,1,110,100,210,0.90909,130,75
880,230,670,250,490,740,1.96,190,360,550,1.8947,180,300,480,1.6667,150,190,340,1.2667,130,120,250,0.92308,120,100,220,0.83333,131,75
890,210,650,190,440,630,2.3158,170,300,470,1.7647,150,240,390,1.6,130,150,280,1.1538,120,110,230,0.91667,100,90,190,0.9,130,75
900,240,660,180,670,850,3.7222,160,410,570,2.5625,150,320,470,2.1333,130,180,310,1.3846,110,120,230,1.0909,110,100,210,0.90909,129,75
870,240,660,190,490,680,2.5789,170,330,500,1.9412,160,260,420,1.625,140,150,290,1.0714,120,110,230,0.91667,110,90,200,0.81818,129,75
900,210,670,170,460,630,2.7059,160,340,500,2.125,140,280,420,2,120,170,290,1.4167,100,130,230,1.3,90,110,200,1.2222,129,75
880,230,660,190,580,770,3.0526,170,370,540,2.1765,160,300,460,1.875,130,180,310,1.3846,110,130,240,1.1818,100,110,210,1.1,130,75
900,220,680,240,510,750,2.125,180,410,590,2.2778,170,360,530,2.1176,140,240,380,1.7143,120,150,270,1.25,100,130,230,1.3,130,75
880,220,670,210,430,640,2.0476,170,300,470,1.7647,160,250,410,1.5625,140,150,290,1.0714,120,110,230,0.91667,110,100,210,0.90909,130,75
890,210,670,180,470,650,2.6111,150,310,460,2.0667,150,260,410,1.7333,130,150,280,1.1538,110,110,220,1,100,90,190,0.9,129,75
890,220,660,180,670,850,3.7222,160,400,560,2.5,150,320,470,2.1333,130,180,310,1.3846,120,120,240,1,110,100,210,0.90909,128,74
880,230,640,190,480,670,2.5263,170,310,480,1.8235,160,250,410,1.5625,140,150,290,1.0714,120,110,230,0.91667,110,80,190,0.72727,129,74
880,240,650,190,510,700,2.6842,170,320,490,1.8824,160,250,410,1.5625,140,160,300,1.1429,120,120,240,1,100,100,200,1,129,75
870,230,670,210,480,690,2.2857,180,350,530,1.9444,170,290,460,1.7059,140,180,320,1.2857,120,130,250,1.0833,100,110,210,1.1,129,75
890,200,670,220,450,670,2.0455,170,320,490,1.8824,160,260,420,1.625,130,170,300,1.3077,120,130,250,1.0833,100,110,210,1.1,129,75
890,220,670,170,490,660,2.8824,150,330,480,2.2,130,270,400,2.0769,130,160,290,1.2308,110,110,220,1,100,90,190,0.9,128,74
880,220,670,180,470,650,2.6111,160,320,480,2,150,270,420,1.8,140,160,300,1.1429,110,110,220,1,100,90,190,0.9,128,74
890,210,670,180,680,860,3.7778,160,380,540,2.375,150,310,460,2.0667,130,180,310,1.3846,110,120,230,1.0909,100,100,200,1,128,74
900,220,670,190,680,870,3.5789,160,380,540,2.375,150,300,450,2,130,180,310,1.3846,110,120,230,1.0909,100,100,200,1,129,75
870,230,670,250,440,690,1.76,190,270,460,1.4211,180,200,380,1.1111,160,130,290,0.8125,130,100,230,0.76923,120,90,210,0.75,129,75
880,200,670,220,460,680,2.0909,190,320,510,1.6842,170,260,430,1.5294,140,170,310,1.2143,120,130,250,1.0833,100,110,210,1.1,129,75
880,210,380,170,390,560,2.2941,150,340,490,2.2667,140,280,420,2,120,160,280,1.3333,100,120,220,1.2,90,100,190,1.1111,129,75
900,500,680,210,570,780,2.7143,150,370,520,2.4667,140,300,440,2.1429,130,180,310,1.3846,110,120,230,1.0909,90,100,190,1.1111,128,74
600,220,590,180,480,660,2.6667,150,320,470,2.1333,140,270,410,1.9286,130,160,290,1.2308,110,120,230,1.0909,100,100,200,1,128,74
1180,10,950,20,960,980,48,20,680,700,34,20,600,620,30,20,480,500,24,20,420,440,21,20,90,110,4.5,130,75
880,230,670,190,510,700,2.6842,160,340,500,2.125,160,280,440,1.75,140,180,320,1.2857,120,120,240,1,110,100,210,0.90909,130,75
880,210,650,230,430,660,1.8696,230,290,520,1.2609,190,230,420,1.2105,160,140,300,0.875,130,100,230,0.76923,120,80,200,0.66667,129,75
880,230,660,170,460,630,2.7059,160,320,480,2,140,260,400,1.8571,120,160,280,1.3333,110,120,230,1.0909,90,100,190,1.1111,129,75
890,220,660,170,670,840,3.9412,150,490,640,3.2667,140,350,490,2.5,120,170,290,1.4167,100,120,220,1.2,90,100,190,1.1111,129,75
890,230,600,170,490,660,2.8824,160,360,520,2.25,150,290,440,1.9333,130,170,300,1.3077,110,120,230,1.0909,90,100,190,1.1111,129,75
900,290,660,190,670,860,3.5263,160,430,590,2.6875,150,350,500,2.3333,140,190,330,1.3571,110,120,230,1.0909,110,100,210,0.90909,130,75
880,240,660,200,560,760,2.8,180,370,550,2.0556,170,300,470,1.7647,150,180,330,1.2,130,120,250,0.92308,120,90,210,0.75,130,76
870,220,670,240,480,720,2,200,340,540,1.7,180,290,470,1.6111,160,180,340,1.125,130,130,260,1,130,100,230,0.76923,130,76
900,200,640,200,430,630,2.15,150,280,430,1.8667,150,210,360,1.4,120,130,250,1.0833,110,90,200,0.81818,90,70,160,0.77778,130,76
880,260,660,190,530,720,2.7895,170,350,520,2.0588,160,290,450,1.8125,130,170,300,1.3077,120,110,230,0.91667,110,80,190,0.72727,130,76
890,220,660,180,660,840,3.6667,160,410,570,2.5625,150,340,490,2.2667,130,170,300,1.3077,110,120,230,1.0909,100,100,200,1,130,76
900,230,670,190,520,710,2.7368,160,350,510,2.1875,150,280,430,1.8667,130,170,300,1.3077,110,120,230,1.0909,100,110,210,1.1,131,76
890,230,660,200,540,740,2.7,170,380,550,2.2353,170,300,470,1.7647,150,180,330,1.2,120,130,250,1.0833,110,100,210,0.90909,132,76
880,230,670,250,480,730,1.92,200,360,560,1.8,180,300,480,1.6667,160,200,360,1.25,140,130,270,0.92857,120,110,230,0.91667,132,76
880,210,670,190,420,610,2.2105,170,290,460,1.7059,150,240,390,1.6,140,150,290,1.0714,120,110,230,0.91667,100,90,190,0.9,132,76
900,210,680,170,690,860,4.0588,150,410,560,2.7333,140,340,480,2.4286,130,200,330,1.5385,100,130,230,1.3,90,100,190,1.1111,132,76
890,220,670,180,470,650,2.6111,160,330,490,2.0625,150,270,420,1.8,130,150,280,1.1538,110,110,220,1,100,90,190,0.9,132,76
910,220,680,180,690,870,3.8333,160,380,540,2.375,150,320,470,2.1333,130,170,300,1.3077,110,120,230,1.0909,100,100,200,1,132,76
880,230,660,200,670,870,3.35,170,370,540,2.1765,160,300,460,1.875,150,180,330,1.2,120,110,230,0.91667,120,100,220,0.83333,132,76
890,220,680,240,490,730,2.0417,200,420,620,2.1,180,360,540,2,150,230,380,1.5333,130,150,280,1.1538,110,110,220,1,133,76
890,210,670,230,430,660,1.8696,170,300,470,1.7647,160,260,420,1.625,140,160,300,1.1429,120,110,230,0.91667,110,90,200,0.81818,133,76
880,220,650,180,520,700,2.8889,170,340,510,2,150,280,430,1.8667,130,160,290,1.2308,110,110,220,1,100,90,190,0.9,132,76
880,230,650,170,660,830,3.8824,170,460,630,2.7059,160,370,530,2.3125,130,210,340,1.6154,120,130,250,1.0833,100,110,210,1.1,132,76
900,230,660,170,610,780,3.5882,160,360,520,2.25,150,280,430,1.8667,130,170,300,1.3077,110,120,230,1.0909,100,100,200,1,132,76
880,240,660,190,430,620,2.2632,170,280,450,1.6471,160,210,370,1.3125,150,130,280,0.86667,120,110,230,0.91667,110,100,210,0.90909,133,76
890,220,680,240,520,760,2.1667,190,380,570,2,170,320,490,1.8824,150,190,340,1.2667,130,130,260,1,110,110,220,1,133,76
880,210,650,230,430,660,1.8696,190,340,530,1.7895,170,270,440,1.5882,150,170,320,1.1333,130,120,250,0.92308,110,100,210,0.90909,133,76
880,230,670,180,590,770,3.2778,160,330,490,2.0625,150,270,420,1.8,130,160,290,1.2308,110,110,220,1,100,90,190,0.9,132,76
890,210,660,180,490,670,2.7222,160,330,490,2.0625,150,270,420,1.8,120,180,300,1.5,110,120,230,1.0909,100,90,190,0.9,131,76
890,230,650,220,660,880,3,180,430,610,2.3889,160,350,510,2.1875,130,200,330,1.5385,120,120,240,1,100,100,200,1,131,76
890,240,660,180,670,850,3.7222,170,400,570,2.3529,150,320,470,2.1333,140,180,320,1.2857,110,120,230,1.0909,100,100,200,1,132,76
890,230,680,250,440,690,1.76,190,280,470,1.4737,170,200,370,1.1765,150,120,270,0.8,120,80,200,0.66667,110,60,170,0.54545,132,76
880,210,660,230,450,680,1.9565,190,310,500,1.6316,170,250,420,1.4706,150,160,310,1.0667,120,120,240,1,120,100,220,0.83333,132,76
890,220,660,170,620,790,3.6471,160,380,540,2.375,150,260,410,1.7333,120,160,280,1.3333,110,110,220,1,90,90,180,1,131,76
890,230,680,170,490,660,2.8824,160,340,500,2.125,150,280,430,1.8667,130,160,290,1.2308,110,110,220,1,100,90,190,0.9,131,76
900,210,670,180,490,670,2.7222,150,340,490,2.2667,150,280,430,1.8667,130,160,290,1.2308,100,120,220,1.2,90,100,190,1.1111,131,76
890,230,660,190,670,860,3.5263,170,380,550,2.2353,160,300,460,1.875,140,170,310,1.2143,120,120,240,1,110,100,210,0.90909,131,76
850,230,680,190,490,680,2.5789,170,330,500,1.9412,160,270,430,1.6875,140,170,310,1.2143,120,120,240,1,110,100,210,0.90909,132,76
930,170,710,190,480,670,2.5263,190,330,520,1.7368,150,280,430,1.8667,110,190,300,1.7273,90,150,240,1.6667,80,120,200,1.5,132,76
890,220,630,180,480,660,2.6667,150,330,480,2.2,150,270,420,1.8,130,150,280,1.1538,110,110,220,1,100,90,190,0.9,131,76
880,260,640,180,650,830,3.6111,160,440,600,2.75,150,370,520,2.4667,130,160,290,1.2308,120,110,230,0.91667,100,90,190,0.9,131,75
900,240,650,180,480,660,2.6667,160,330,490,2.0625,140,270,410,1.9286,120,170,290,1.4167,110,120,230,1.0909,90,100,190,1.1111,131,75
890,250,660,180,560,740,3.1111,160,380,540,2.375,150,300,450,2,130,170,300,1.3077,110,120,230,1.0909,100,100,200,1,132,75
870,230,670,190,500,690,2.6316,170,340,510,2,160,280,440,1.75,140,170,310,1.2143,120,120,240,1,110,100,210,0.90909,132,76
890,200,680,220,200,420,0.90909,190,200,390,1.0526,160,200,360,1.25,140,190,330,1.3571,110,140,250,1.2727,100,120,220,1.2,132,76
890,210,670,180,640,820,3.5556,150,380,530,2.5333,150,310,460,2.0667,130,170,300,1.3077,120,120,240,1,100,100,200,1,131,76
890,220,660,180,520,700,2.8889,160,350,510,2.1875,150,290,440,1.9333,130,180,310,1.3846,110,120,230,1.0909,100,90,190,0.9,130,75
880,230,660,180,490,670,2.7222,160,350,510,2.1875,150,300,450,2,130,160,290,1.2308,120,110,230,0.91667,100,90,190,0.9,130,75
890,220,670,180,680,860,3.7778,160,350,510,2.1875,150,290,440,1.9333,130,170,300,1.3077,110,120,230,1.0909,100,90,190,0.9,131,75
880,220,660,190,460,650,2.4211,170,360,530,2.1176,160,290,450,1.8125,140,180,320,1.2857,120,120,240,1,100,100,200,1,131,75
880,220,670,240,480,720,2,190,360,550,1.8947,180,300,480,1.6667,150,200,350,1.3333,120,130,250,1.0833,110,110,220,1,131,75
880,210,670,180,430,610,2.3889,160,310,470,1.9375,150,240,390,1.6,130,160,290,1.2308,100,120,220,1.2,100,100,200,1,129,75
890,210,670,170,680,850,4,140,460,600,3.2857,140,360,500,2.5714,130,200,330,1.5385,110,130,240,1.1818,100,110,210,1.1,129,75
900,220,670,180,490,670,2.7222,150,340,490,2.2667,150,270,420,1.8,120,160,280,1.3333,110,110,220,1,90,100,190,1.1111,129,75
880,230,660,190,670,860,3.5263,170,400,570,2.3529,160,320,480,2,140,220,360,1.5714,120,130,250,1.0833,110,90,200,0.81818,130,75
890,220,670,190,680,870,3.5789,170,390,560,2.2941,160,320,480,2,130,180,310,1.3846,120,130,250,1.0833,100,100,200,1,130,75
870,220,670,240,470,710,1.9583,210,400,610,1.9048,190,370,560,1.9474,160,240,400,1.5,140,140,280,1,120,120,240,1,130,75
900,200,660,200,450,650,2.25,160,330,490,2.0625,150,260,410,1.7333,130,170,300,1.3077,110,120,230,1.0909,100,110,210,1.1,130,75
890,240,660,180,530,710,2.9444,150,350,500,2.3333,150,290,440,1.9333,130,160,290,1.2308,110,110,220,1,100,100,200,1,129,75
880,230,640,210,650,860,3.0952,180,420,600,2.3333,160,340,500,2.125,150,190,340,1.2667,120,120,240,1,110,90,200,0.81818,130,75
880,240,660,180,490,670,2.7222,160,340,500,2.125,150,270,420,1.8,130,160,290,1.2308,110,120,230,1.0909,100,90,190,0.9,130,75
880,220,660,180,490,670,2.7222,160,300,460,1.875,150,230,380,1.5333,140,130,270,0.92857,120,90,210,0.75,100,80,180,0.8,131,75
880,220,680,210,500,710,2.381,170,370,540,2.1765,170,310,480,1.8235,140,200,340,1.4286,120,130,250,1.0833,110,110,220,1,131,75
890,200,670,220,430,650,1.9545,220,360,580,1.6364,170,310,480,1.8235,150,180,330,1.2,120,140,260,1.1667,120,100,220,0.83333,131,75
870,220,640,190,470,660,2.4737,170,320,490,1.8824,150,260,410,1.7333,130,150,280,1.1538,120,110,230,0.91667,100,90,190,0.9,131,75
880,230,620,180,460,640,2.5556,160,340,500,2.125,160,270,430,1.6875,130,160,290,1.2308,120,110,230,0.91667,100,100,200,1,130,75
880,260,660,250,670,920,2.68,180,500,680,2.7778,160,370,530,2.3125,140,220,360,1.5714,120,130,250,1.0833,110,100,210,0.90909,130,75
880,220,660,190,670,860,3.5263,160,390,550,2.4375,160,320,480,2,140,180,320,1.2857,120,130,250,1.0833,100,100,200,1,131,75
890,220,670,200,450,650,2.25,170,280,450,1.6471,160,200,360,1.25,140,130,270,0.92857,120,80,200,0.66667,110,50,160,0.45455,132,76
880,220,660,240,440,680,1.8333,190,310,500,1.6316,170,260,430,1.5294,140,160,300,1.1429,130,130,260,1,110,100,210,0.90909,131,76
880,220,630,170,640,810,3.7647,150,390,540,2.6,140,280,420,2,130,170,300,1.3077,110,120,230,1.0909,90,100,190,1.1111,131,76
890,250,670,180,490,670,2.7222,160,330,490,2.0625,140,270,410,1.9286,130,160,290,1.2308,110,110,220,1,90,90,180,1,131,76
900,220,640,180,480,660,2.6667,150,320,470,2.1333,150,270,420,1.8,130,160,290,1.2308,110,110,220,1,100,100,200,1,131,75
880,260,640,200,650,850,3.25,170,390,560,2.2941,160,320,480,2,140,180,320,1.2857,120,110,230,0.91667,110,100,210,0.90909,131,75
840,240,670,190,450,640,2.3684,170,330,500,1.9412,160,280,440,1.75,130,180,310,1.3846,120,130,250,1.0833,100,100,200,1,132,76
930,170,720,190,480,670,2.5263,190,350,540,1.8421,140,290,430,2.0714,110,200,310,1.8182,80,150,230,1.875,70,130,200,1.8571,132,76
890,210,680,170,490,660,2.8824,150,330,480,2.2,140,270,410,1.9286,120,160,280,1.3333,100,120,220,1.2,90,100,190,1.1111,131,76
900,210,670,180,680,860,3.7778,150,460,610,3.0667,140,380,520,2.7143,120,160,280,1.3333,100,120,220,1.2,90,100,190,1.1111,131,75
890,230,670,190,490,680,2.5789,160,340,500,2.125,160,280,440,1.75,140,170,310,1.2143,120,120,240,1,100,100,200,1,130,75
890,220,670,180,560,740,3.1111,160,390,550,2.4375,150,320,470,2.1333,130,180,310,1.3846,110,130,240,1.1818,100,100,200,1,130,75
880,220,660,190,500,690,2.6316,170,340,510,2,150,280,430,1.8667,140,160,300,1.1429,120,120,240,1,100,100,200,1,131,75
890,220,680,240,470,710,1.9583,200,330,530,1.65,180,280,460,1.5556,150,180,330,1.2,130,130,260,1,110,110,220,1,131,75
880,210,640,180,650,830,3.6111,160,380,540,2.375,160,310,470,1.9375,140,170,310,1.2143,110,110,220,1,110,100,210,0.90909,130,75
890,240,660,180,510,690,2.8333,150,350,500,2.3333,150,280,430,1.8667,120,160,280,1.3333,110,110,220,1,100,100,200,1,130,75
880,230,660,180,540,720,3,170,380,550,2.2353,160,340,500,2.125,130,230,360,1.7692,120,110,230,0.91667,100,100,200,1,130,75
890,220,660,180,670,850,3.7222,160,370,530,2.3125,150,300,450,2,130,170,300,1.3077,110,120,230,1.0909,100,100,200,1,130,75
890,230,670,190,460,650,2.4211,170,380,550,2.2353,160,320,480,2,140,200,340,1.4286,120,130,250,1.0833,100,110,210,1.1,131,76
880,220,660,240,480,720,2,200,350,550,1.75,180,300,480,1.6667,150,190,340,1.2667,140,130,270,0.92857,120,110,230,0.91667,131,76
880,220,620,190,420,610,2.2105,170,300,470,1.7647,150,240,390,1.6,140,150,290,1.0714,120,110,230,0.91667,100,90,190,0.9,131,76
850,260,640,180,650,830,3.6111,170,390,560,2.2941,150,320,470,2.1333,140,180,320,1.2857,120,120,240,1,110,100,210,0.90909,130,75
900,210,690,160,620,780,3.875,130,30,160,0.23077,120,10,130,0.083333,110,10,120,0.090909,80,10,90,0.125,70,10,80,0.14286,130,75
890,210,670,170,540,710,3.1765,150,370,520,2.4667,140,320,460,2.2857,130,200,330,1.5385,100,130,230,1.3,90,110,200,1.2222,131,75
890,220,660,190,610,800,3.2105,170,360,530,2.1176,150,300,450,2,140,170,310,1.2143,120,120,240,1,100,100,200,1,132,76
870,230,670,250,480,730,1.92,230,410,640,1.7826,200,370,570,1.85,160,240,400,1.5,140,140,280,1,120,110,230,0.91667,132,76
880,200,660,220,430,650,1.9545,170,310,480,1.8235,160,250,410,1.5625,140,160,300,1.1429,120,120,240,1,100,100,200,1,131,76
880,220,650,180,510,690,2.8333,160,350,510,2.1875,150,290,440,1.9333,130,160,290,1.2308,110,110,220,1,100,90,190,0.9,131,76
880,230,670,180,680,860,3.7778,170,550,720,3.2353,160,410,570,2.5625,140,240,380,1.7143,120,130,250,1.0833,110,110,220,1,131,76
900,210,660,180,500,680,2.7778,160,340,500,2.125,150,280,430,1.8667,130,170,300,1.3077,100,120,220,1.2,100,100,200,1,132,76
890,240,660,200,430,630,2.15,170,290,460,1.7059,160,210,370,1.3125,150,140,290,0.93333,130,110,240,0.84615,110,100,210,0.90909,133,76
870,230,670,210,490,700,2.3333,170,360,530,2.1176,170,300,470,1.7647,150,180,330,1.2,130,120,250,0.92308,110,100,210,0.90909,133,76
880,200,620,220,420,640,1.9091,190,320,510,1.6842,170,270,440,1.5882,140,170,310,1.2143,120,120,240,1,110,100,210,0.90909,132,76
890,260,680,170,520,690,3.0588,150,340,490,2.2667,140,290,430,2.0714,130,170,300,1.3077,100,120,220,1.2,90,90,180,1,132,76
890,210,650,180,490,670,2.7222,160,340,500,2.125,150,280,430,1.8667,130,160,290,1.2308,110,120,230,1.0909,100,90,190,0.9,132,76
870,240,640,220,650,870,2.9545,180,420,600,2.3333,170,340,510,2,140,200,340,1.4286,120,120,240,1,110,100,210,0.90909,133,76
890,230,660,170,670,840,3.9412,160,390,550,2.4375,130,330,460,2.5385,130,180,310,1.3846,100,130,230,1.3,90,110,200,1.2222,133,76
870,230,670,250,430,680,1.72,180,270,450,1.5,160,200,360,1.25,140,120,260,0.85714,120,90,210,0.75,100,80,180,0.8,133,76
880,200,630,220,450,670,2.0455,180,320,500,1.7778,160,280,440,1.75,130,170,300,1.3077,120,130,250,1.0833,100,110,210,1.1,132,76
880,250,650,170,660,830,3.8824,150,370,520,2.4667,140,280,420,2,120,160,280,1.3333,100,120,220,1.2,100,100,200,1,132,76
890,230,670,170,570,740,3.3529,150,370,520,2.4667,140,300,440,2.1429,130,170,300,1.3077,100,130,230,1.3,90,100,190,1.1111,132,76
880,220,670,180,480,660,2.6667,160,320,480,2,150,260,410,1.7333,130,160,290,1.2308,110,120,230,1.0909,100,100,200,1,132,76
890,210,670,180,680,860,3.7778,160,380,540,2.375,140,320,460,2.2857,130,190,320,1.4615,110,120,230,1.0909,100,110,210,1.1,132,76
880,220,670,190,500,690,2.6316,160,340,500,2.125,150,270,420,1.8,140,170,310,1.2143,110,120,230,1.0909,100,110,210,1.1,132,76
880,210,670,230,440,670,1.913,220,300,520,1.3636,180,240,420,1.3333,150,140,290,0.93333,130,100,230,0.76923,110,70,180,0.63636,132,76
890,210,630,170,430,600,2.5294,150,310,460,2.0667,140,240,380,1.7143,120,150,270,1.25,110,110,220,1,90,100,190,1.1111,132,76
890,260,640,180,650,830,3.6111,160,460,620,2.875,150,340,490,2.2667,130,170,300,1.3077,120,110,230,0.91667,100,90,190,0.9,131,76
880,250,650,190,450,640,2.3684,170,310,480,1.8235,160,250,410,1.5625,140,150,290,1.0714,120,110,230,0.91667,100,90,190,0.9,131,75
880,230,660,180,610,790,3.3889,170,360,530,2.1176,150,280,430,1.8667,140,170,310,1.2143,110,120,230,1.0909,100,90,190,0.9,131,75
880,220,660,180,530,710,2.9444,170,350,520,2.0588,150,290,440,1.9333,130,170,300,1.3077,110,130,240,1.1818,100,100,200,1,131,75
880,220,680,240,480,720,2,190,350,540,1.8421,170,290,460,1.7059,150,190,340,1.2667,130,130,260,1,110,110,220,1,131,76
880,200,620,170,460,630,2.7059,150,300,450,2,130,240,370,1.8462,120,150,270,1.25,100,100,200,1,90,80,170,0.88889,130,75
880,260,640,180,490,670,2.7222,160,330,490,2.0625,140,270,410,1.9286,130,160,290,1.2308,110,110,220,1,100,90,190,0.9,130,75
890,240,650,180,450,630,2.5,160,330,490,2.0625,150,240,390,1.6,130,150,280,1.1538,110,110,220,1,90,90,180,1,130,75
870,240,640,190,520,710,2.7368,170,320,490,1.8824,160,270,430,1.6875,140,150,290,1.0714,120,110,230,0.91667,110,90,200,0.81818,130,75
880,230,660,180,500,680,2.7778,170,330,500,1.9412,150,270,420,1.8,130,170,300,1.3077,120,130,250,1.0833,100,100,200,1,131,75
880,220,670,240,490,730,2.0417,180,370,550,2.0556,170,300,470,1.7647,140,190,330,1.3571,130,130,260,1,110,110,220,1,131,76
860,210,660,190,400,590,2.1053,170,280,450,1.6471,150,220,370,1.4667,130,150,280,1.1538,120,110,230,0.91667,100,90,190,0.9,131,76
900,200,670,160,680,840,4.25,140,390,530,2.7857,130,330,460,2.5385,110,180,290,1.6364,90,130,220,1.4444,80,110,190,1.375,130,76
870,230,650,180,460,640,2.5556,170,320,490,1.8824,160,250,410,1.5625,140,150,290,1.0714,110,110,220,1,100,90,190,0.9,130,75
880,220,650,180,480,660,2.6667,160,340,500,2.125,150,260,410,1.7333,130,160,290,1.2308,110,120,230,1.0909,90,100,190,1.1111,131,75
880,230,650,190,660,850,3.4737,160,380,540,2.375,160,300,460,1.875,140,180,320,1.2857,120,120,240,1,110,100,210,0.90909,132,76
870,230,660,250,580,830,2.32,190,380,570,2,170,320,490,1.8824,150,200,350,1.3333,130,130,260,1,120,100,220,0.83333,132,76
870,210,660,230,430,660,1.8696,180,310,490,1.7222,160,250,410,1.5625,140,160,300,1.1429,120,120,240,1,110,110,220,1,132,76
910,210,670,170,530,700,3.1176,150,350,500,2.3333,150,280,430,1.8667,120,160,280,1.3333,100,120,220,1.2,90,100,190,1.1111,131,76
860,240,640,200,650,850,3.25,170,410,580,2.4118,170,330,500,1.9412,140,190,330,1.3571,120,110,230,0.91667,100,90,190,0.9,131,75
890,220,660,180,470,650,2.6111,160,320,480,2,150,270,420,1.8,130,150,280,1.1538,110,110,220,1,100,90,190,0.9,131,75
1750,230,1540,200,1230,1430,6.15,160,850,1010,5.3125,160,390,550,2.4375,140,200,340,1.4286,130,110,240,0.84615,110,90,200,0.81818,132,76
880,210,560,230,430,660,1.8696,180,310,490,1.7222,160,250,410,1.5625,140,170,310,1.2143,120,130,250,1.0833,110,110,220,1,132,76
890,320,670,180,550,730,3.0556,150,350,500,2.3333,150,280,430,1.8667,120,160,280,1.3333,110,120,230,1.0909,90,100,190,1.1111,132,76
890,220,670,170,480,650,2.8235,160,340,500,2.125,150,270,420,1.8,120,160,280,1.3333,110,110,220,1,90,90,180,1,131,76
880,220,660,170,500,670,2.9412,150,340,490,2.2667,140,280,420,2,120,170,290,1.4167,90,120,210,1.3333,60,90,150,1.5,131,76
880,220,660,180,670,850,3.7222,160,390,550,2.4375,150,320,470,2.1333,130,180,310,1.3846,110,120,230,1.0909,100,100,200,1,132,76
880,220,650,210,410,620,1.9524,170,280,450,1.6471,160,260,420,1.625,130,180,310,1.3846,120,120,240,1,100,110,210,1.1,133,76
870,230,660,250,440,690,1.76,200,320,520,1.6,180,270,450,1.5,160,170,330,1.0625,130,120,250,0.92308,120,110,230,0.91667,132,76
880,210,540,170,450,620,2.6471,150,300,450,2,140,250,390,1.7857,120,150,270,1.25,100,120,220,1.2,90,100,190,1.1111,132,76
880,340,660,190,540,730,2.8421,170,350,520,2.0588,150,290,440,1.9333,130,170,300,1.3077,120,110,230,0.91667,100,100,200,1,131,76
880,220,620,180,440,620,2.4444,160,300,460,1.875,150,260,410,1.7333,130,150,280,1.1538,110,110,220,1,100,100,200,1,132,76
880,260,650,190,650,840,3.4211,160,350,510,2.1875,150,280,430,1.8667,120,160,280,1.3333,110,110,220,1,90,100,190,1.1111,132,76
860,230,650,200,530,730,2.65,170,340,510,2,160,270,430,1.6875,140,190,330,1.3571,120,120,240,1,110,90,200,0.81818,133,76
890,210,680,230,470,700,2.0435,210,330,540,1.5714,180,280,460,1.5556,140,240,380,1.7143,120,160,280,1.3333,110,130,240,1.1818,132,76
880,210,660,180,440,620,2.4444,160,310,470,1.9375,150,240,390,1.6,130,150,280,1.1538,110,110,220,1,100,90,190,0.9,132,76
870,220,530,190,450,640,2.3684,160,310,470,1.9375,150,250,400,1.6667,130,140,270,1.0769,120,100,220,0.83333,100,90,190,0.9,132,76
890,340,660,330,670,1000,2.0303,170,410,580,2.4118,150,320,470,2.1333,130,190,320,1.4615,110,130,240,1.1818,100,110,210,1.1,132,76
890,230,650,190,500,690,2.6316,160,320,480,2,150,260,410,1.7333,130,150,280,1.1538,110,110,220,1,100,100,200,1,133,76
870,240,650,200,500,700,2.5,160,330,490,2.0625,160,260,420,1.625,150,150,300,1,130,110,240,0.84615,120,100,220,0.83333,133,76
880,220,680,240,500,740,2.0833,170,370,540,2.1765,160,310,470,1.9375,140,190,330,1.3571,120,140,260,1.1667,100,110,210,1.1,133,76
890,200,670,220,410,630,1.8636,170,270,440,1.5882,150,250,400,1.6667,130,160,290,1.2308,110,120,230,1.0909,100,110,210,1.1,132,76
890,220,660,180,500,680,2.7778,160,330,490,2.0625,150,260,410,1.7333,120,150,270,1.25,110,110,220,1,100,100,200,1,132,76
880,230,500,190,480,670,2.5263,170,330,500,1.9412,150,270,420,1.8,130,160,290,1.2308,120,110,230,0.91667,100,80,180,0.8,132,76
890,380,610,360,590,950,1.6389,170,430,600,2.5294,160,350,510,2.1875,130,230,360,1.7692,110,160,270,1.4545,100,130,230,1.3,132,76
870,280,650,200,660,860,3.3,180,660,840,3.6667,170,440,610,2.5882,140,240,380,1.7143,120,130,250,1.0833,110,110,220,1,132,76
880,220,670,210,490,700,2.3333,180,350,530,1.9444,170,290,460,1.7059,140,180,320,1.2857,130,130,260,1,120,100,220,0.83333,132,76
870,210,610,230,440,670,1.913,190,300,490,1.5789,170,240,410,1.4118,140,160,300,1.1429,130,120,250,0.92308,110,100,210,0.90909,133,76
890,260,640,170,450,620,2.6471,150,300,450,2,140,240,380,1.7143,120,170,290,1.4167,100,120,220,1.2,80,100,180,1.25,132,76
880,250,670,180,540,720,3,160,350,510,2.1875,150,290,440,1.9333,130,170,300,1.3077,110,110,220,1,100,90,190,0.9,132,76
880,210,650,180,490,670,2.7222,160,340,500,2.125,150,280,430,1.8667,130,170,300,1.3077,110,120,230,1.0909,100,90,190,0.9,132,76
880,230,660,180,670,850,3.7222,160,400,560,2.5,150,330,480,2.2,130,200,330,1.5385,110,130,240,1.1818,100,100,200,1,131,76
880,220,680,180,470,650,2.6111,170,340,510,2,150,280,430,1.8667,140,170,310,1.2143,120,120,240,1,100,100,200,1,132,76
870,200,650,220,440,660,2,220,310,530,1.4091,220,260,480,1.1818,170,160,330,0.94118,140,130,270,0.92857,140,100,240,0.71429,133,76
880,220,640,180,500,680,2.7778,160,330,490,2.0625,150,270,420,1.8,120,150,270,1.25,110,110,220,1,100,100,200,1,133,76
880,240,660,180,670,850,3.7222,160,560,720,3.5,150,420,570,2.8,130,220,350,1.6923,110,110,220,1,100,90,190,0.9,132,76
880,220,660,180,500,680,2.7778,160,340,500,2.125,150,280,430,1.8667,130,160,290,1.2308,110,120,230,1.0909,90,100,190,1.1111,132,76
890,220,670,180,620,800,3.4444,160,410,570,2.5625,150,330,480,2.2,130,180,310,1.3846,110,130,240,1.1818,90,100,190,1.1111,132,76
880,220,670,180,540,720,3,170,360,530,2.1176,160,290,450,1.8125,140,170,310,1.2143,120,130,250,1.0833,100,100,200,1,132,76
880,210,670,230,470,700,2.0435,200,350,550,1.75,180,290,470,1.6111,150,190,340,1.2667,130,130,260,1,110,110,220,1,133,76
880,210,640,180,420,600,2.3333,160,300,460,1.875,150,240,390,1.6,130,150,280,1.1538,110,110,220,1,100,90,190,0.9,133,76
880,240,650,170,490,660,2.8824,160,340,500,2.125,140,290,430,2.0714,130,170,300,1.3077,110,120,230,1.0909,90,100,190,1.1111,133,76
870,230,660,170,530,700,3.1176,150,380,530,2.5333,140,330,470,2.3571,130,210,340,1.6154,100,120,220,1.2,90,90,180,1,132,76
880,210,650,170,660,830,3.8824,160,360,520,2.25,150,290,440,1.9333,130,170,300,1.3077,110,120,230,1.0909,90,100,190,1.1111,132,76
880,230,660,190,460,650,2.4211,170,360,530,2.1176,160,290,450,1.8125,130,170,300,1.3077,120,130,250,1.0833,100,100,200,1,133,76
870,220,660,240,480,720,2,190,350,540,1.8421,170,300,470,1.7647,150,200,350,1.3333,130,130,260,1,120,100,220,0.83333,133,76
1750,210,640,190,430,620,2.2632,160,300,460,1.875,150,250,400,1.6667,130,150,280,1.1538,110,110,220,1,100,110,210,1.1,134,77
890,1110,680,1050,690,1740,0.65714,710,450,1160,0.6338,600,360,960,0.6,130,210,340,1.6154,110,140,250,1.2727,100,110,210,1.1,134,77
890,210,660,180,440,620,2.4444,150,330,480,2.2,150,280,430,1.8667,130,190,320,1.4615,110,120,230,1.0909,100,100,200,1,133,76
890,230,660,190,490,680,2.5789,160,330,490,2.0625,160,270,430,1.6875,140,160,300,1.1429,120,110,230,0.91667,110,100,210,0.90909,133,76
870,230,660,250,480,730,1.92,190,410,600,2.1579,180,340,520,1.8889,160,200,360,1.25,130,130,260,1,120,100,220,0.83333,134,77
890,210,640,230,430,660,1.8696,170,300,470,1.7647,160,240,400,1.5,130,150,280,1.1538,120,110,230,0.91667,100,100,200,1,134,77
880,250,650,180,530,710,2.9444,160,340,500,2.125,150,280,430,1.8667,130,160,290,1.2308,110,110,220,1,90,90,180,1,134,77
880,230,670,180,680,860,3.7778,170,500,670,2.9412,160,380,540,2.375,140,210,350,1.5,120,120,240,1,100,100,200,1,133,76
890,210,670,170,540,710,3.1765,150,330,480,2.2,140,270,410,1.9286,130,170,300,1.3077,100,120,220,1.2,90,100,190,1.1111,132,76
890,220,670,180,480,660,2.6667,160,310,470,1.9375,150,240,390,1.6,140,140,280,1,110,110,220,1,100,110,210,1.1,132,76
870,220,670,200,490,690,2.45,170,350,520,2.0588,160,290,450,1.8125,140,180,320,1.2857,120,120,240,1,110,110,220,1,133,76
880,200,670,220,440,660,2,220,390,610,1.7727,180,320,500,1.7778,140,200,340,1.4286,120,130,250,1.0833,110,110,220,1,133,76
880,210,650,180,500,680,2.7778,150,340,490,2.2667,140,280,420,2,130,150,280,1.1538,100,120,220,1.2,100,90,190,0.9,133,76
870,230,660,180,490,670,2.7222,160,330,490,2.0625,150,270,420,1.8,130,150,280,1.1538,110,110,220,1,100,90,190,0.9,132,76
870,210,660,200,670,870,3.35,170,450,620,2.6471,160,370,530,2.3125,130,200,330,1.5385,120,130,250,1.0833,100,110,210,1.1,132,76
890,210,660,170,670,840,3.9412,160,430,590,2.6875,140,350,490,2.5,120,200,320,1.6667,110,140,250,1.2727,90,110,200,1.2222,132,76
860,230,650,250,420,670,1.68,180,260,440,1.4444,170,190,360,1.1176,150,130,280,0.86667,130,110,240,0.84615,120,100,220,0.83333,133,76
870,210,660,230,470,700,2.0435,200,330,530,1.65,180,270,450,1.5,150,180,330,1.2,120,130,250,1.0833,110,100,210,0.90909,133,76
870,210,650,170,660,830,3.8824,150,320,470,2.1333,140,260,400,1.8571,120,150,270,1.25,100,120,220,1.2,90,100,190,1.1111,132,76
880,220,660,170,490,660,2.8824,150,340,490,2.2667,140,290,430,2.0714,130,170,300,1.3077,110,120,230,1.0909,90,100,190,1.1111,132,76
860,220,650,180,450,630,2.5,170,320,490,1.8824,150,250,400,1.6667,140,150,290,1.0714,120,110,230,0.91667,100,90,190,0.9,132,76
890,210,670,170,680,850,4,150,430,580,2.8667,140,350,490,2.5,120,190,310,1.5833,100,130,230,1.3,90,110,200,1.2222,133,76
870,220,650,190,480,670,2.5263,160,330,490,2.0625,160,270,430,1.6875,140,170,310,1.2143,120,120,240,1,110,90,200,0.81818,134,77
860,220,630,240,430,670,1.7917,240,300,540,1.25,200,230,430,1.15,160,170,330,1.0625,140,140,280,1,120,110,230,0.91667,134,77
870,230,660,180,440,620,2.4444,160,310,470,1.9375,150,250,400,1.6667,130,170,300,1.3077,110,120,230,1.0909,90,100,190,1.1111,134,77
870,210,460,180,470,650,2.6111,160,370,530,2.3125,150,300,450,2,120,170,290,1.4167,110,120,230,1.0909,90,100,190,1.1111,134,77
880,410,670,410,680,1090,1.6585,170,470,640,2.7647,160,380,540,2.375,140,220,360,1.5714,110,140,250,1.2727,110,100,210,0.90909,133,77
870,210,640,180,650,830,3.6111,160,360,520,2.25,150,280,430,1.8667,130,160,290,1.2308,110,110,220,1,110,100,210,0.90909,133,77
870,230,660,180,480,660,2.6667,160,330,490,2.0625,150,280,430,1.8667,140,160,300,1.1429,110,120,230,1.0909,100,100,200,1,133,77
880,210,670,230,520,750,2.2609,180,380,560,2.1111,170,330,500,1.9412,140,210,350,1.5,120,140,260,1.1667,100,120,220,1.2,135,77
870,210,610,230,410,640,1.7826,180,270,450,1.5,170,210,380,1.2353,140,160,300,1.1429,130,120,250,0.92308,110,90,200,0.81818,135,77
870,260,640,180,550,730,3.0556,160,360,520,2.25,150,300,450,2,130,160,290,1.2308,120,110,230,0.91667,100,100,200,1,135,77
870,230,490,180,490,670,2.7222,160,340,500,2.125,150,280,430,1.8667,130,160,290,1.2308,110,110,220,1,100,100,200,1,134,77
890,380,660,190,670,860,3.5263,160,420,580,2.625,150,330,480,2.2,130,190,320,1.4615,110,130,240,1.1818,100,110,210,1.1,134,77
780,230,650,190,660,850,3.4737,170,390,560,2.2941,150,320,470,2.1333,140,190,330,1.3571,120,120,240,1,110,100,210,0.90909,134,77
950,130,740,150,560,710,3.7333,100,430,530,4.3,90,370,460,4.1111,70,260,330,3.7143,60,210,270,3.5,50,190,240,3.8,135,77
860,210,660,230,430,660,1.8696,200,310,510,1.55,180,260,440,1.4444,150,150,300,1,130,120,250,0.92308,120,100,220,0.83333,136,78
880,200,660,170,670,840,3.9412,150,430,580,2.8667,140,340,480,2.4286,120,160,280,1.3333,100,120,220,1.2,90,100,190,1.1111,136,78
880,220,670,170,510,680,3,150,340,490,2.2667,140,280,420,2,120,160,280,1.3333,100,120,220,1.2,90,100,190,1.1111,136,78
880,210,640,190,480,670,2.5263,150,330,480,2.2,140,280,420,2,130,160,290,1.2308,110,110,220,1,100,100,200,1,136,78
870,240,650,180,660,840,3.6667,160,380,540,2.375,150,310,460,2.0667,130,180,310,1.3846,110,120,230,1.0909,100,100,200,1,135,78
830,220,670,170,510,680,3,160,340,500,2.125,150,290,440,1.9333,130,180,310,1.3846,110,130,240,1.1818,100,120,220,1.2,136,78
930,160,720,180,480,660,2.6667,180,340,520,1.8889,130,300,430,2.3077,110,200,310,1.8182,90,160,250,1.7778,70,140,210,2,137,78
870,210,630,180,430,610,2.3889,160,310,470,1.9375,150,260,410,1.7333,130,160,290,1.2308,110,110,220,1,100,90,190,0.9,136,78
880,240,660,170,670,840,3.9412,160,430,590,2.6875,140,350,490,2.5,120,150,270,1.25,110,110,220,1,90,100,190,1.1111,136,78
880,220,660,180,560,740,3.1111,170,360,530,2.1176,150,300,450,2,130,170,300,1.3077,110,120,230,1.0909,100,100,200,1,136,78
880,220,530,190,540,730,2.8421,170,40,210,0.23529,160,40,200,0.25,140,40,180,0.28571,120,40,160,0.33333,110,40,150,0.36364,136,78
880,350,650,190,510,700,2.6842,160,340,500,2.125,160,270,430,1.6875,140,170,310,1.2143,120,120,240,1,110,100,210,0.90909,136,78
820,230,660,250,490,740,1.96,200,330,530,1.65,190,280,470,1.4737,160,180,340,1.125,130,130,260,1,120,100,220,0.83333,136,78
920,160,710,150,450,600,3,120,340,460,2.8333,110,280,390,2.5455,90,180,270,2,70,140,210,2,60,120,180,2,136,78
880,210,670,180,540,720,3,150,340,490,2.2667,150,280,430,1.8667,130,160,290,1.2308,110,120,230,1.0909,90,100,190,1.1111,136,78
880,210,670,180,680,860,3.7778,150,460,610,3.0667,140,370,510,2.6429,130,150,280,1.1538,110,110,220,1,100,90,190,0.9,136,78
890,210,660,180,670,850,3.7222,160,350,510,2.1875,140,280,420,2,130,170,300,1.3077,110,120,230,1.0909,100,100,200,1,135,78
870,230,650,200,550,750,2.75,170,370,540,2.1765,160,300,460,1.875,150,170,320,1.1333,120,110,230,0.91667,120,100,220,0.83333,136,78
860,220,660,240,510,750,2.125,180,380,560,2.1111,170,320,490,1.8824,150,200,350,1.3333,130,140,270,1.0769,110,120,230,1.0909,137,78
850,200,670,170,420,590,2.4706,150,290,440,1.9333,140,240,380,1.7143,120,160,280,1.3333,100,120,220,1.2,90,100,190,1.1111,137,78
910,180,710,140,570,710,4.0714,120,390,510,3.25,110,320,430,2.9091,100,200,300,2,80,150,230,1.875,60,120,180,2,136,78
880,200,630,170,470,640,2.7647,150,320,470,2.1333,140,260,400,1.8571,120,150,270,1.25,110,110,220,1,90,90,180,1,135,78
890,250,660,180,600,780,3.3333,160,380,540,2.375,150,320,470,2.1333,130,160,290,1.2308,120,110,230,0.91667,100,90,190,0.9,135,77
870,230,650,190,660,850,3.4737,170,390,560,2.2941,160,320,480,2,140,180,320,1.2857,120,120,240,1,110,100,210,0.90909,136,77
870,220,660,240,570,810,2.375,180,410,590,2.2778,170,340,510,2,150,220,370,1.4667,130,140,270,1.0769,110,110,220,1,136,78
870,210,620,230,420,650,1.8261,190,300,490,1.5789,170,250,420,1.4706,150,160,310,1.0667,120,110,230,0.91667,110,100,210,0.90909,136,78
890,250,650,180,490,670,2.7222,160,320,480,2,140,260,400,1.8571,130,150,280,1.1538,100,110,210,1.1,100,90,190,0.9,135,77
860,240,630,190,640,830,3.3684,170,430,600,2.5294,160,350,510,2.1875,140,190,330,1.3571,120,110,230,0.91667,100,80,180,0.8,135,77
880,230,600,180,460,640,2.5556,170,320,490,1.8824,150,250,400,1.6667,140,150,290,1.0714,120,110,230,0.91667,100,80,180,0.8,135,77
870,280,640,190,510,700,2.6842,170,330,500,1.9412,160,290,450,1.8125,140,180,320,1.2857,130,110,240,0.84615,110,90,200,0.81818,135,77
860,230,660,200,460,660,2.3,170,330,500,1.9412,160,270,430,1.6875,140,170,310,1.2143,120,120,240,1,110,100,210,0.90909,136,77
870,200,590,220,430,650,1.9545,200,320,520,1.6,170,260,430,1.5294,140,170,310,1.2143,120,130,250,1.0833,100,110,210,1.1,136,78
880,280,670,270,680,950,2.5185,160,600,760,3.75,150,390,540,2.6,130,210,340,1.6154,100,130,230,1.3,100,110,210,1.1,136,78
920,210,620,190,430,620,2.2632,160,310,470,1.9375,150,250,400,1.6667,130,150,280,1.1538,110,110,220,1,100,90,190,0.9,135,77
830,300,610,230,520,750,2.2609,210,330,540,1.5714,190,270,460,1.4211,170,160,330,0.94118,150,90,240,0.6,130,70,200,0.53846,135,77
870,220,650,180,660,840,3.6667,160,360,520,2.25,160,290,450,1.8125,130,170,300,1.3077,120,120,240,1,100,90,190,0.9,135,77
870,220,660,190,390,580,2.0526,170,340,510,2,160,300,460,1.875,140,190,330,1.3571,120,130,250,1.0833,110,100,210,0.90909,136,78
870,210,670,230,470,700,2.0435,190,340,530,1.7895,180,280,460,1.5556,140,190,330,1.3571,130,130,260,1,110,110,220,1,136,78
860,200,630,170,450,620,2.6471,150,310,460,2.0667,140,250,390,1.7857,120,160,280,1.3333,100,120,220,1.2,100,100,200,1,136,78
890,230,660,180,670,850,3.7222,150,390,540,2.6,140,310,450,2.2143,120,180,300,1.5,100,130,230,1.3,80,100,180,1.25,136,78
870,230,650,180,480,660,2.6667,160,330,490,2.0625,150,260,410,1.7333,130,150,280,1.1538,120,110,230,0.91667,100,90,190,0.9,136,78
880,220,660,180,500,680,2.7778,150,340,490,2.2667,150,280,430,1.8667,130,180,310,1.3846,110,130,240,1.1818,100,110,210,1.1,135,78
880,220,650,190,580,770,3.0526,170,340,510,2,150,290,440,1.9333,140,180,320,1.2857,110,120,230,1.0909,110,100,210,0.90909,135,78
860,230,660,250,470,720,1.88,210,370,580,1.7619,190,360,550,1.8947,150,230,380,1.5333,130,140,270,1.0769,110,110,220,1,136,78
870,200,610,220,410,630,1.8636,160,290,450,1.8125,150,240,390,1.6,140,160,300,1.1429,110,120,230,1.0909,100,100,200,1,137,78
860,260,640,170,480,650,2.8235,160,320,480,2,140,260,400,1.8571,120,160,280,1.3333,110,110,220,1,90,90,180,1,137,78
880,220,660,190,670,860,3.5263,170,480,650,2.8235,150,370,520,2.4667,130,220,350,1.6923,110,140,250,1.2727,100,110,210,1.1,136,78
880,220,650,180,480,660,2.6667,150,320,470,2.1333,140,260,400,1.8571,130,160,290,1.2308,110,110,220,1,100,100,200,1,136,78
870,230,630,190,480,670,2.5263,170,300,470,1.7647,150,230,380,1.5333,140,140,280,1,120,110,230,0.91667,100,90,190,0.9,136,78
850,240,650,210,460,670,2.1905,180,330,510,1.8333,170,270,440,1.5882,150,160,310,1.0667,130,110,240,0.84615,120,90,210,0.75,137,78
870,200,660,220,440,660,2,210,320,530,1.5238,180,270,450,1.5,150,170,320,1.1333,120,120,240,1,100,110,210,1.1,137,78
880,210,650,170,490,660,2.8824,150,320,470,2.1333,140,270,410,1.9286,120,160,280,1.3333,100,130,230,1.3,90,90,180,1,137,78
870,230,660,180,490,670,2.7222,160,320,480,2,150,280,430,1.8667,130,160,290,1.2308,120,110,230,0.91667,100,90,190,0.9,137,78
870,210,650,180,660,840,3.6667,160,410,570,2.5625,160,330,490,2.0625,130,180,310,1.3846,120,120,240,1,110,100,210,0.90909,136,78
880,220,650,180,660,840,3.6667,160,400,560,2.5,150,330,480,2.2,130,190,320,1.4615,110,120,230,1.0909,100,110,210,1.1,137,78
870,230,660,250,400,650,1.6,180,260,440,1.4444,170,190,360,1.1176,150,160,310,1.0667,120,130,250,1.0833,110,110,220,1,138,79
870,210,660,230,440,670,1.913,210,320,530,1.5238,180,270,450,1.5,150,170,320,1.1333,130,120,250,0.92308,110,110,220,1,138,79
870,210,450,170,430,600,2.5294,160,300,460,1.875,140,240,380,1.7143,130,140,270,1.0769,110,110,220,1,100,90,190,0.9,138,79
880,420,670,190,520,710,2.7368,160,350,510,2.1875,150,290,440,1.9333,130,170,300,1.3077,110,120,230,1.0909,100,100,200,1,138,79
880,210,660,180,460,640,2.5556,160,300,460,1.875,150,250,400,1.6667,130,150,280,1.1538,110,110,220,1,100,100,200,1,137,79
870,220,630,180,640,820,3.5556,160,390,550,2.4375,150,290,440,1.9333,130,160,290,1.2308,120,110,230,0.91667,110,100,210,0.90909,137,79
870,240,650,190,550,740,2.8947,160,350,510,2.1875,160,290,450,1.8125,130,170,300,1.3077,120,120,240,1,100,100,200,1,138,79
870,220,660,240,450,690,1.875,240,320,560,1.3333,190,250,440,1.3158,160,200,360,1.25,140,150,290,1.0714,120,120,240,1,139,79
880,210,610,180,440,620,2.4444,160,310,470,1.9375,150,250,400,1.6667,140,160,300,1.1429,110,120,230,1.0909,100,100,200,1,138,79
870,270,480,180,490,670,2.7222,160,370,530,2.3125,150,290,440,1.9333,130,160,290,1.2308,110,110,220,1,100,90,190,0.9,138,79
870,390,650,390,660,1050,1.6923,170,440,610,2.5882,160,350,510,2.1875,140,190,330,1.3571,120,120,240,1,100,100,200,1,137,79
880,220,660,180,580,760,3.2222,160,330,490,2.0625,150,260,410,1.7333,130,160,290,1.2308,110,110,220,1,100,100,200,1,137,79
870,220,650,190,480,670,2.5263,170,330,500,1.9412,160,270,430,1.6875,150,170,320,1.1333,130,110,240,0.84615,110,100,210,0.90909,137,79
870,220,670,240,520,760,2.1667,190,380,570,2,170,310,480,1.8235,140,200,340,1.4286,130,130,260,1,110,110,220,1,138,79
870,200,650,220,410,630,1.8636,180,260,440,1.4444,170,240,410,1.4118,140,170,310,1.2143,120,120,240,1,110,100,210,0.90909,138,79
870,220,660,170,580,750,3.4118,150,370,520,2.4667,140,300,440,2.1429,120,170,290,1.4167,110,120,230,1.0909,90,100,190,1.1111,138,79
880,210,530,170,470,640,2.7647,150,320,470,2.1333,140,270,410,1.9286,120,160,280,1.3333,110,110,220,1,100,100,200,1,138,79
890,350,640,350,650,1000,1.8571,160,420,580,2.625,160,330,490,2.0625,130,190,320,1.4615,110,130,240,1.1818,100,110,210,1.1,138,79
810,250,650,200,660,860,3.3,170,410,580,2.4118,170,340,510,2,140,180,320,1.2857,120,120,240,1,110,100,210,0.90909,139,79
930,160,730,180,530,710,2.9444,130,380,510,2.9231,110,320,430,2.9091,90,200,290,2.2222,80,160,240,2,60,140,200,2.3333,139,79
870,200,650,220,440,660,2,190,310,500,1.6316,180,260,440,1.4444,140,160,300,1.1429,130,120,250,0.92308,110,100,210,0.90909,139,79
870,220,630,170,640,810,3.7647,150,380,530,2.5333,140,310,450,2.2143,130,160,290,1.2308,110,110,220,1,90,90,180,1,139,79
860,240,660,170,520,690,3.0588,150,350,500,2.3333,140,290,430,2.0714,120,160,280,1.3333,100,110,210,1.1,90,100,190,1.1111,139,79
880,200,670,160,490,650,3.0625,140,340,480,2.4286,140,280,420,2,120,170,290,1.4167,100,120,220,1.2,90,100,190,1.1111,138,79
860,210,650,180,580,760,3.2222,160,350,510,2.1875,150,280,430,1.8667,130,170,300,1.3077,110,120,230,1.0909,100,90,190,0.9,139,79
840,210,660,170,550,720,3.2353,160,330,490,2.0625,140,280,420,2,130,180,310,1.3846,110,120,230,1.0909,90,100,190,1.1111,140,80
900,180,680,200,470,670,2.35,200,340,540,1.7,160,280,440,1.75,120,180,300,1.5,100,140,240,1.4,90,110,200,1.2222,140,80
860,220,650,180,450,630,2.5,150,310,460,2.0667,150,240,390,1.6,130,150,280,1.1538,110,110,220,1,100,90,190,0.9,139,80
880,210,670,170,680,850,4,150,520,670,3.4667,140,390,530,2.7857,120,160,280,1.3333,110,110,220,1,90,100,190,1.1111,139,79
870,210,650,170,490,660,2.8824,150,340,490,2.2667,140,270,410,1.9286,130,170,300,1.3077,110,120,230,1.0909,90,100,190,1.1111,138,79
870,220,650,180,660,840,3.6667,160,350,510,2.1875,150,280,430,1.8667,130,160,290,1.2308,120,110,230,0.91667,100,100,200,1,138,79
870,220,660,190,550,740,2.8947,160,350,510,2.1875,150,280,430,1.8667,140,180,320,1.2857,110,120,230,1.0909,100,110,210,1.1,138,79
860,210,660,230,490,720,2.1304,180,360,540,2,170,300,470,1.7647,140,190,330,1.3571,130,130,260,1,110,110,220,1,139,79
870,200,660,220,410,630,1.8636,160,270,430,1.6875,150,210,360,1.4,130,130,260,1,120,100,220,0.83333,100,70,170,0.7,139,79
870,210,660,180,490,670,2.7222,150,340,490,2.2667,140,280,420,2,130,160,290,1.2308,100,110,210,1.1,100,90,190,0.9,139,79
870,210,620,170,630,800,3.7059,160,350,510,2.1875,150,260,410,1.7333,140,150,290,1.0714,110,110,220,1,100,90,190,0.9,138,79
870,250,650,180,580,760,3.2222,160,330,490,2.0625,150,270,420,1.8,130,150,280,1.1538,120,110,230,0.91667,100,100,200,1,138,79
870,220,670,190,670,860,3.5263,170,380,550,2.2353,160,310,470,1.9375,140,190,330,1.3571,110,120,230,1.0909,110,100,210,0.90909,138,79
860,200,660,220,490,710,2.2273,180,360,540,2,170,300,470,1.7647,140,190,330,1.3571,130,120,250,0.92308,110,100,210,0.90909,138,79
870,200,640,220,420,640,1.9091,170,300,470,1.7647,160,240,400,1.5,140,150,290,1.0714,120,120,240,1,110,100,210,0.90909,139,79
860,230,660,180,670,850,3.7222,160,360,520,2.25,150,300,450,2,120,150,270,1.25,110,110,220,1,100,90,190,0.9,139,79
880,200,660,170,490,660,2.8824,140,340,480,2.4286,130,280,410,2.1538,120,170,290,1.4167,90,120,210,1.3333,90,100,190,1.1111,138,79
860,220,620,180,440,620,2.4444,160,310,470,1.9375,140,250,390,1.7857,130,160,290,1.2308,110,110,220,1,100,90,190,0.9,138,79
870,240,660,180,670,850,3.7222,150,390,540,2.6,150,320,470,2.1333,130,190,320,1.4615,110,130,240,1.1818,100,100,200,1,138,79
870,210,670,180,490,670,2.7222,160,340,500,2.125,140,280,420,2,130,170,300,1.3077,100,130,230,1.3,100,110,210,1.1,138,79
870,200,610,220,450,670,2.0455,220,310,530,1.4091,190,260,450,1.3684,150,170,320,1.1333,130,130,260,1,110,100,210,0.90909,139,79
1730,260,640,180,430,610,2.3889,160,310,470,1.9375,150,260,410,1.7333,120,150,270,1.25,110,110,220,1,100,90,190,0.9,139,80
880,1090,660,1040,670,1710,0.64423,1010,470,1480,0.46535,950,330,1280,0.34737,670,190,860,0.28358,610,130,740,0.21311,570,100,670,0.17544,138,79
880,220,610,190,620,810,3.2632,170,400,570,2.3529,160,310,470,1.9375,140,170,310,1.2143,120,120,240,1,110,100,210,0.90909,138,79
860,270,650,190,530,720,2.7895,170,340,510,2,160,290,450,1.8125,130,170,300,1.3077,120,120,240,1,110,100,210,0.90909,138,79
880,210,670,230,480,710,2.087,190,350,540,1.8421,160,300,460,1.875,140,200,340,1.4286,110,140,250,1.2727,100,120,220,1.2,139,79
870,210,610,180,410,590,2.2778,160,290,450,1.8125,150,230,380,1.5333,140,150,290,1.0714,120,110,230,0.91667,110,90,200,0.81818,140,80
870,260,640,180,560,740,3.1111,150,360,510,2.4,150,290,440,1.9333,130,160,290,1.2308,110,120,230,1.0909,100,100,200,1,139,80
870,230,660,170,670,840,3.9412,150,420,570,2.8,140,350,490,2.5,130,160,290,1.2308,100,120,220,1.2,100,100,200,1,138,79
890,210,660,170,490,660,2.8824,150,320,470,2.1333,140,260,400,1.8571,120,160,280,1.3333,100,120,220,1.2,90,100,190,1.1111,138,79
870,230,650,190,520,710,2.7368,170,370,540,2.1765,160,300,460,1.875,140,170,310,1.2143,130,120,250,0.92308,110,90,200,0.81818,139,79
860,220,660,240,500,740,2.0833,190,380,570,2,170,320,490,1.8824,150,200,350,1.3333,130,130,260,1,120,100,220,0.83333,139,79
870,200,660,220,440,660,2,170,310,480,1.8235,150,250,400,1.6667,130,160,290,1.2308,110,110,220,1,100,100,200,1,140,80
870,210,590,180,600,780,3.3333,160,490,650,3.0625,150,370,520,2.4667,130,210,340,1.6154,120,120,240,1,100,100,200,1,139,79
860,280,650,180,530,710,2.9444,160,360,520,2.25,150,300,450,2,130,170,300,1.3077,120,110,230,0.91667,100,100,200,1,138,79
870,210,650,180,440,620,2.4444,150,320,470,2.1333,150,280,430,1.8667,130,160,290,1.2308,100,120,220,1.2,100,100,200,1,138,79
880,220,650,180,660,840,3.6667,160,390,550,2.4375,150,320,470,2.1333,130,200,330,1.5385,110,130,240,1.1818,90,110,200,1.2222,138,79
850,230,650,250,570,820,2.28,180,380,560,2.1111,170,320,490,1.8824,150,190,340,1.2667,130,120,250,0.92308,120,100,220,0.83333,139,79
860,200,650,220,440,660,2,180,320,500,1.7778,170,270,440,1.5882,140,170,310,1.2143,120,120,240,1,100,110,210,1.1,139,79
920,210,660,160,480,640,3,150,330,480,2.2,130,270,400,2.0769,120,160,280,1.3333,100,120,220,1.2,90,100,190,1.1111,139,79
820,260,610,220,620,840,2.8182,200,450,650,2.25,190,330,520,1.7368,170,220,390,1.2941,160,110,270,0.6875,140,80,220,0.57143,138,79
870,210,650,180,470,650,2.6111,150,320,470,2.1333,140,270,410,1.9286,120,160,280,1.3333,100,120,220,1.2,100,100,200,1,138,79
880,220,650,180,490,670,2.7222,160,350,510,2.1875,150,290,440,1.9333,130,160,290,1.2308,110,120,230,1.0909,100,100,200,1,138,79
860,230,650,200,510,710,2.55,180,320,500,1.7778,170,270,440,1.5882,140,150,290,1.0714,130,110,240,0.84615,110,90,200,0.81818,139,79
870,210,640,230,450,680,1.9565,190,320,510,1.6842,180,270,450,1.5,150,180,330,1.2,120,130,250,1.0833,110,110,220,1,139,79
860,230,640,200,650,850,3.25,170,370,540,2.1765,150,300,450,2,140,170,310,1.2143,110,120,230,1.0909,100,100,200,1,138,79
880,220,660,170,560,730,3.2941,150,350,500,2.3333,140,290,430,2.0714,120,170,290,1.4167,100,120,220,1.2,90,100,190,1.1111,138,79
870,220,620,180,490,670,2.7222,160,340,500,2.125,150,290,440,1.9333,130,190,320,1.4615,110,130,240,1.1818,100,100,200,1,138,79
880,250,650,180,660,840,3.6667,160,370,530,2.3125,150,300,450,2,130,170,300,1.3077,110,120,230,1.0909,100,100,200,1,138,79
870,230,650,200,420,620,2.1,170,360,530,2.1176,160,310,470,1.9375,150,190,340,1.2667,120,120,240,1,110,100,210,0.90909,139,79
870,220,660,240,480,720,2,190,360,550,1.8947,180,300,480,1.6667,150,190,340,1.2667,130,130,260,1,110,110,220,1,140,80
860,210,610,210,430,640,2.0476,170,300,470,1.7647,160,240,400,1.5,140,150,290,1.0714,120,110,230,0.91667,110,90,200,0.81818,140,80
870,250,660,180,670,850,3.7222,160,510,670,3.1875,160,390,550,2.4375,130,230,360,1.7692,110,130,240,1.1818,100,100,200,1,139,79
870,210,660,180,480,660,2.6667,150,320,470,2.1333,140,270,410,1.9286,130,150,280,1.1538,110,110,220,1,100,90,190,0.9,139,79
