cp,st,dt,sw10,dw10,sw10+dw10,dw10/sw10,sw25,dw25,sw25+dw25,dw25/sw25,sw33,dw33,sw33+dw33,dw33/sw33,sw50,dw50,sw50+dw50,dw50/sw50,sw66,dw66,sw66+dw66,dw66/sw66,sw75,dw75,sw75+dw75,dw75/sw75,sys,dia,
980,710,610,190,500,690,2.6316,160,360,520,2.25,150,310,460,2.0667,130,190,320,1.4615,110,120,230,1.0909,100,100,200,1,131,76
970,370,620,200,630,830,3.15,170,450,620,2.6471,160,370,530,2.3125,140,250,390,1.7857,120,140,260,1.1667,100,100,200,1,131,76
960,350,660,200,470,670,2.35,180,350,530,1.9444,170,300,470,1.7647,140,190,330,1.3571,130,120,250,0.92308,110,90,200,0.81818,130,75
980,300,700,320,470,790,1.4688,190,360,550,1.8947,170,320,490,1.8824,150,220,370,1.4667,130,140,270,1.0769,110,120,230,1.0909,130,75
980,280,610,210,540,750,2.5714,180,370,550,2.0556,170,300,470,1.7647,150,190,340,1.2667,130,120,250,0.92308,110,100,210,0.90909,130,75
950,370,730,220,480,700,2.1818,190,330,520,1.7368,180,270,450,1.5,160,170,330,1.0625,130,130,260,1,120,100,220,0.83333,130,76
980,220,680,240,460,700,1.9167,200,340,540,1.7,180,290,470,1.6111,150,200,350,1.3333,120,140,260,1.1667,110,120,230,1.0909,130,75
990,300,690,190,700,890,3.6842,170,460,630,2.7059,150,380,530,2.5333,140,200,340,1.4286,110,130,240,1.1818,100,110,210,1.1,129,75
970,300,690,210,500,710,2.381,170,370,540,2.1765,170,300,470,1.7647,140,200,340,1.4286,130,130,260,1,110,100,210,0.90909,129,75
990,280,620,200,440,640,2.2,180,360,540,2,160,310,470,1.9375,140,200,340,1.4286,120,130,250,1.0833,100,110,210,1.1,129,75
960,370,610,210,490,700,2.3333,180,360,540,2,170,320,490,1.8824,150,210,360,1.4,130,130,260,1,120,100,220,0.83333,130,75
990,350,740,200,480,680,2.4,170,370,540,2.1765,160,320,480,2,140,200,340,1.4286,120,140,260,1.1667,100,120,220,1.2,130,75
1000,250,770,210,470,680,2.2381,180,340,520,1.8889,160,290,450,1.8125,150,190,340,1.2667,130,130,260,1,110,100,210,0.90909,130,75
980,230,530,250,420,670,1.68,190,320,510,1.6842,170,270,440,1.5882,150,170,320,1.1333,130,130,260,1,120,100,220,0.83333,130,75
990,450,600,210,610,820,2.9048,160,400,560,2.5,150,350,500,2.3333,130,230,360,1.7692,110,140,250,1.2727,100,110,210,1.1,129,75
990,390,590,200,550,750,2.75,170,420,590,2.4706,150,360,510,2.4,130,240,370,1.8462,110,140,250,1.2727,100,110,210,1.1,129,74
1000,400,610,210,450,660,2.1429,170,340,510,2,160,290,450,1.8125,140,180,320,1.2857,120,130,250,1.0833,110,100,210,0.90909,130,74
1010,390,710,200,550,750,2.75,170,360,530,2.1176,160,300,460,1.875,140,190,330,1.3571,120,130,250,1.0833,100,100,200,1,130,75
980,300,750,210,490,700,2.3333,190,360,550,1.8947,170,330,500,1.9412,160,210,370,1.3125,130,130,260,1,120,100,220,0.83333,130,75
980,230,690,250,500,750,2,190,390,580,2.0526,180,340,520,1.8889,160,240,400,1.5,130,150,280,1.1538,120,110,230,0.91667,129,74
1000,290,610,210,450,660,2.1429,170,330,500,1.9412,160,290,450,1.8125,140,180,320,1.2857,120,130,250,1.0833,110,110,220,1,129,74
990,390,610,210,550,760,2.619,170,380,550,2.2353,170,320,490,1.8824,140,200,340,1.4286,120,120,240,1,110,100,210,0.90909,129,74
980,380,630,220,620,840,2.8182,180,410,590,2.2778,170,350,520,2.0588,150,220,370,1.4667,120,130,250,1.0833,110,100,210,0.90909,128,74
990,350,640,190,490,680,2.5789,180,370,550,2.0556,160,310,470,1.9375,140,200,340,1.4286,120,120,240,1,100,100,200,1,129,74
980,350,610,210,480,690,2.2857,180,360,540,2,180,300,480,1.6667,140,190,330,1.3571,120,130,250,1.0833,100,100,200,1,129,74
910,370,730,210,490,700,2.3333,190,350,540,1.8421,180,310,490,1.7222,160,220,380,1.375,130,140,270,1.0769,120,110,230,0.91667,129,74
1030,180,750,200,540,740,2.7,200,430,630,2.15,170,380,550,2.2353,120,270,390,2.25,90,200,290,2.2222,80,160,240,2,129,74
980,280,590,190,440,630,2.3158,170,320,490,1.8824,160,280,440,1.75,130,170,300,1.3077,120,120,240,1,100,100,200,1,129,74
940,390,720,200,730,930,3.65,180,730,910,4.0556,160,730,890,4.5625,150,350,500,2.3333,120,190,310,1.5833,110,130,240,1.1818,128,74
990,220,640,180,460,640,2.5556,150,360,510,2.4,140,310,450,2.2143,130,190,320,1.4615,100,140,240,1.4,90,120,210,1.3333,128,73
970,350,710,300,470,770,1.5667,190,340,530,1.7895,170,300,470,1.7647,150,190,340,1.2667,130,130,260,1,120,100,220,0.83333,128,74
980,260,740,200,750,950,3.75,170,410,580,2.4118,170,340,510,2,140,210,350,1.5,120,130,250,1.0833,100,110,210,1.1,129,74
960,240,730,200,420,620,2.1,180,310,490,1.7222,170,280,450,1.6471,150,190,340,1.2667,130,120,250,0.92308,110,100,210,0.90909,129,74
970,230,600,250,460,710,1.84,250,340,590,1.36,200,300,500,1.5,160,210,370,1.3125,140,140,280,1,120,110,230,0.91667,128,74
960,370,380,200,390,590,1.95,170,360,530,2.1176,160,300,460,1.875,140,180,320,1.2857,120,120,240,1,110,100,210,0.90909,128,74
900,580,660,230,620,850,2.6957,170,420,590,2.4706,160,350,510,2.1875,130,200,330,1.5385,120,130,250,1.0833,100,100,200,1,128,74
950,240,660,230,580,810,2.5217,180,400,580,2.2222,160,340,500,2.125,140,220,360,1.5714,110,140,250,1.2727,100,110,210,1.1,128,74
940,290,660,190,450,640,2.3684,170,340,510,2,160,290,450,1.8125,130,180,310,1.3846,110,120,230,1.0909,100,100,200,1,128,74
960,280,610,190,440,630,2.3158,170,330,500,1.9412,160,270,430,1.6875,140,180,320,1.2857,110,120,230,1.0909,110,100,210,0.90909,129,74
970,350,740,200,550,750,2.75,180,360,540,2,170,310,480,1.8235,150,200,350,1.3333,120,140,260,1.1667,110,110,220,1,129,75
1950,230,620,250,470,720,1.88,240,360,600,1.5,200,300,500,1.5,160,210,370,1.3125,140,140,280,1,130,120,250,0.92308,129,75
970,1330,670,1170,680,1850,0.5812,1100,680,1780,0.61818,820,580,1400,0.70732,630,330,960,0.52381,140,170,310,1.2143,120,120,240,1,128,75
950,300,700,220,450,670,2.0455,200,340,540,1.7,180,290,470,1.6111,160,160,320,1,130,100,230,0.76923,110,70,180,0.63636,128,75
970,250,650,200,450,650,2.25,180,340,520,1.8889,170,290,460,1.7059,150,180,330,1.2,120,120,240,1,110,100,210,0.90909,128,75
980,320,740,210,450,660,2.1429,180,330,510,1.8333,160,270,430,1.6875,150,160,310,1.0667,120,120,240,1,110,100,210,0.90909,129,75
970,240,760,210,480,690,2.2857,190,360,550,1.8947,170,310,480,1.8235,150,200,350,1.3333,130,130,260,1,110,110,220,1,129,75
990,210,620,230,450,680,1.9565,230,330,560,1.4348,230,270,500,1.1739,160,210,370,1.3125,140,150,290,1.0714,120,120,240,1,128,74
1000,370,630,190,570,760,3,170,400,570,2.3529,150,340,490,2.2667,140,210,350,1.5,110,130,240,1.1818,100,110,210,1.1,128,74
1000,370,710,210,720,930,3.4286,180,720,900,4,180,720,900,4,150,350,500,2.3333,130,120,250,0.92308,120,100,220,0.83333,128,74
990,290,720,210,520,730,2.4762,180,390,570,2.1667,170,320,490,1.8824,150,210,360,1.4,130,120,250,0.92308,110,100,210,0.90909,128,74
1000,270,630,210,450,660,2.1429,190,350,540,1.8421,180,330,510,1.8333,150,220,370,1.4667,130,130,260,1,120,100,220,0.83333,128,74
990,370,750,220,760,980,3.4545,200,540,740,2.7,190,420,610,2.2105,170,280,450,1.6471,140,160,300,1.1429,130,110,240,0.84615,128,74
980,240,750,260,510,770,1.9615,200,390,590,1.95,200,370,570,1.85,170,260,430,1.5294,140,160,300,1.1429,120,120,240,1,128,74
990,230,650,250,470,720,1.88,210,360,570,1.7143,180,310,490,1.7222,160,190,350,1.1875,140,140,280,1,120,120,240,1,127,73
980,340,650,200,660,860,3.3,170,400,570,2.3529,170,340,510,2,140,210,350,1.5,120,130,250,1.0833,100,100,200,1,127,73
990,330,690,190,550,740,2.8947,170,400,570,2.3529,160,340,500,2.125,140,220,360,1.5714,120,130,250,1.0833,100,110,210,1.1,127,73
990,300,700,200,520,720,2.6,180,390,570,2.1667,160,330,490,2.0625,140,220,360,1.5714,120,140,260,1.1667,100,110,210,1.1,127,73
1000,290,700,200,510,710,2.55,170,380,550,2.2353,170,330,500,1.9412,140,210,350,1.5,130,130,260,1,110,110,220,1,128,73
1000,300,630,220,500,720,2.2727,190,360,550,1.8947,170,300,470,1.7647,160,190,350,1.1875,130,120,250,0.92308,120,100,220,0.83333,129,73
1000,370,770,390,540,930,1.3846,190,410,600,2.1579,180,360,540,2,160,240,400,1.5,130,150,280,1.1538,120,120,240,1,128,73
1010,230,600,210,440,650,2.0952,170,330,500,1.9412,160,280,440,1.75,130,180,310,1.3846,120,130,250,1.0833,100,110,210,1.1,128,73
990,410,640,370,650,1020,1.7568,190,650,840,3.4211,180,510,690,2.8333,150,320,470,2.1333,130,160,290,1.2308,110,120,230,1.0909,127,73
990,350,680,220,470,690,2.1364,170,350,520,2.0588,170,300,470,1.7647,140,190,330,1.3571,120,120,240,1,100,100,200,1,127,73
1010,310,660,200,480,680,2.4,160,360,520,2.25,160,310,470,1.9375,130,200,330,1.5385,120,140,260,1.1667,100,110,210,1.1,128,73
990,350,760,200,770,970,3.85,170,430,600,2.5294,170,360,530,2.1176,140,230,370,1.6429,130,130,260,1,110,110,220,1,128,73
1010,230,770,200,490,690,2.45,170,370,540,2.1765,160,320,480,2,140,220,360,1.5714,130,140,270,1.0769,110,110,220,1,128,73
980,240,640,260,470,730,1.8077,210,370,580,1.7619,190,320,510,1.6842,170,220,390,1.2941,140,140,280,1,130,120,250,0.92308,128,73
990,340,610,190,500,690,2.6316,170,370,540,2.1765,150,310,460,2.0667,140,180,320,1.2857,120,130,250,1.0833,100,110,210,1.1,127,73
990,380,620,190,520,710,2.7368,170,380,550,2.2353,150,320,470,2.1333,140,200,340,1.4286,110,130,240,1.1818,100,110,210,1.1,127,73
960,370,630,190,460,650,2.4211,160,370,530,2.3125,140,300,440,2.1429,130,180,310,1.3846,110,130,240,1.1818,100,100,200,1,127,73
940,330,620,200,440,640,2.2,170,350,520,2.0588,170,300,470,1.7647,140,200,340,1.4286,120,130,250,1.0833,100,100,200,1,126,72
950,320,710,200,470,670,2.35,180,350,530,1.9444,160,280,440,1.75,150,150,300,1,120,110,230,0.91667,110,90,200,0.81818,127,72
980,240,560,200,430,630,2.15,180,320,500,1.7778,170,270,440,1.5882,140,170,310,1.2143,130,120,250,0.92308,110,110,220,1,127,73
1030,420,670,440,460,900,1.0455,320,340,660,1.0625,200,290,490,1.45,160,190,350,1.1875,130,150,280,1.1538,120,130,250,1.0833,127,73
1040,360,610,210,460,670,2.1905,180,330,510,1.8333,170,270,440,1.5882,150,170,320,1.1333,120,120,240,1,110,100,210,0.90909,126,72
1000,430,620,210,630,840,3,180,600,780,3.3333,170,480,650,2.8235,150,340,490,2.2667,120,200,320,1.6667,110,110,220,1,126,72
1000,380,610,190,470,660,2.4737,170,350,520,2.0588,150,300,450,2,140,190,330,1.3571,120,130,250,1.0833,100,100,200,1,126,73
1000,390,610,210,440,650,2.0952,170,330,500,1.9412,160,280,440,1.75,140,190,330,1.3571,110,140,250,1.2727,110,110,220,1,127,73
1000,390,590,200,520,720,2.6,180,380,560,2.1111,160,330,490,2.0625,150,220,370,1.4667,120,140,260,1.1667,110,110,220,1,127,73
990,410,780,430,470,900,1.093,190,340,530,1.7895,180,290,470,1.6111,150,210,360,1.4,140,140,280,1,120,110,230,0.91667,127,73
1980,210,600,230,450,680,1.9565,190,330,520,1.7368,180,280,460,1.5556,150,180,330,1.2,130,120,250,0.92308,110,100,210,0.90909,126,73
990,1380,720,1290,730,2020,0.56589,950,440,1390,0.46316,800,370,1170,0.4625,230,240,470,1.0435,120,140,260,1.1667,120,110,230,0.91667,126,72
990,270,620,190,450,640,2.3684,170,360,530,2.1176,160,310,470,1.9375,140,200,340,1.4286,120,130,250,1.0833,110,110,220,1,125,72
980,370,740,210,750,960,3.5714,180,420,600,2.3333,170,350,520,2.0588,140,210,350,1.5,120,140,260,1.1667,110,110,220,1,126,72
970,240,740,230,450,680,1.9565,190,360,550,1.8947,180,310,490,1.7222,160,200,360,1.25,130,130,260,1,120,100,220,0.83333,126,72
990,230,660,250,490,740,1.96,190,390,580,2.0526,170,340,510,2,150,240,390,1.6,130,160,290,1.2308,110,130,240,1.1818,125,72
990,330,520,200,420,620,2.1,170,320,490,1.8824,160,260,420,1.625,130,160,290,1.2308,120,120,240,1,100,100,200,1,125,72
980,470,600,210,590,800,2.8095,170,390,560,2.2941,160,340,500,2.125,140,210,350,1.5,110,130,240,1.1818,110,110,220,1,124,72
1000,380,600,190,490,680,2.5789,160,370,530,2.3125,150,310,460,2.0667,140,190,330,1.3571,110,130,240,1.1818,90,110,200,1.2222,125,72
990,400,610,220,480,700,2.1818,170,360,530,2.1176,170,300,470,1.7647,140,190,330,1.3571,130,130,260,1,110,100,210,0.90909,125,72
990,380,700,240,520,760,2.1667,190,390,580,2.0526,170,340,510,2,150,230,380,1.5333,120,140,260,1.1667,120,100,220,0.83333,126,72
990,290,550,210,520,730,2.4762,190,380,570,2,170,310,480,1.8235,150,190,340,1.2667,120,130,250,1.0833,110,100,210,0.90909,126,72
970,440,750,290,480,770,1.6552,190,350,540,1.8421,180,310,490,1.7222,150,200,350,1.3333,140,130,270,0.92857,120,110,230,0.91667,125,72
970,220,570,200,420,620,2.1,170,310,480,1.8235,150,260,410,1.7333,140,160,300,1.1429,120,120,240,1,100,110,210,1.1,124,72
1000,400,630,190,500,690,2.6316,160,380,540,2.375,150,330,480,2.2,120,210,330,1.75,100,140,240,1.4,90,120,210,1.3333,124,72
990,370,610,190,520,710,2.7368,160,380,540,2.375,160,320,480,2,140,190,330,1.3571,120,130,250,1.0833,100,100,200,1,124,72
980,380,610,200,460,660,2.3,170,350,520,2.0588,160,300,460,1.875,140,190,330,1.3571,110,130,240,1.1818,100,100,200,1,124,71
980,370,580,210,480,690,2.2857,180,360,540,2,170,300,470,1.7647,140,190,330,1.3571,130,130,260,1,110,110,220,1,124,72
980,400,750,200,440,640,2.2,180,340,520,1.8889,170,290,460,1.7059,150,190,340,1.2667,120,130,250,1.0833,110,110,220,1,124,72
980,230,600,250,430,680,1.72,250,310,560,1.24,220,250,470,1.1364,170,160,330,0.94118,140,120,260,0.85714,130,100,230,0.76923,123,72
980,380,630,200,540,740,2.7,170,380,550,2.2353,150,320,470,2.1333,140,190,330,1.3571,120,130,250,1.0833,100,110,210,1.1,123,71
980,350,600,190,610,800,3.2105,160,610,770,3.8125,150,480,630,3.2,130,340,470,2.6154,110,200,310,1.8182,90,150,240,1.6667,123,71
990,380,610,190,480,670,2.5263,160,360,520,2.25,160,300,460,1.875,130,190,320,1.4615,110,130,240,1.1818,100,100,200,1,123,71
980,380,620,220,430,650,1.9545,180,320,500,1.7778,170,270,440,1.5882,150,190,340,1.2667,130,120,250,0.92308,110,100,210,0.90909,123,71
980,360,550,210,560,770,2.6667,180,390,570,2.1667,160,330,490,2.0625,150,220,370,1.4667,130,140,270,1.0769,120,100,220,0.83333,124,72
970,430,760,230,430,660,1.8696,180,320,500,1.7778,180,280,460,1.5556,150,200,350,1.3333,130,140,270,1.0769,110,110,220,1,123,72
1020,210,590,230,460,690,2,230,330,560,1.4348,180,270,450,1.5,150,180,330,1.2,110,140,250,1.2727,110,120,230,1.0909,123,72
990,430,620,220,630,850,2.8636,170,630,800,3.7059,170,630,800,3.7059,130,280,410,2.1538,120,130,250,1.0833,100,100,200,1,122,71
990,370,650,200,500,700,2.5,170,370,540,2.1765,160,310,470,1.9375,140,190,330,1.3571,120,130,250,1.0833,100,100,200,1,122,71
990,340,680,360,460,820,1.2778,190,400,590,2.1053,170,360,530,2.1176,150,230,380,1.5333,110,150,260,1.3636,110,110,220,1,122,71
1000,310,590,190,520,710,2.7368,170,360,530,2.1176,160,310,470,1.9375,140,190,330,1.3571,100,140,240,1.4,100,120,220,1.2,123,72
1000,410,690,200,480,680,2.4,170,370,540,2.1765,160,320,480,2,140,200,340,1.4286,120,140,260,1.1667,90,110,200,1.2222,123,72
1010,310,750,330,530,860,1.6061,180,390,570,2.1667,170,350,520,2.0588,140,230,370,1.6429,130,150,280,1.1538,100,120,220,1.2,123,72
1010,260,650,210,450,660,2.1429,170,320,490,1.8824,160,270,430,1.6875,140,180,320,1.2857,110,130,240,1.1818,110,110,220,1,123,72
980,360,630,210,640,850,3.0476,180,390,570,2.1667,160,330,490,2.0625,150,210,360,1.4,120,130,250,1.0833,110,100,210,0.90909,122,71
1000,350,540,190,500,690,2.6316,170,380,550,2.2353,150,330,480,2.2,140,220,360,1.5714,100,140,240,1.4,100,120,220,1.2,122,71
990,460,630,200,460,660,2.3,170,350,520,2.0588,160,290,450,1.8125,140,190,330,1.3571,120,130,250,1.0833,100,110,210,1.1,122,70
1000,360,650,190,570,760,3,170,400,570,2.3529,150,330,480,2.2,140,200,340,1.4286,110,140,250,1.2727,90,120,210,1.3333,122,70
1010,350,590,190,460,650,2.4211,170,360,530,2.1176,150,310,460,2.0667,130,210,340,1.6154,110,140,250,1.2727,90,120,210,1.3333,122,71
1000,420,630,440,460,900,1.0455,210,350,560,1.6667,180,300,480,1.6667,150,200,350,1.3333,130,140,270,1.0769,100,120,220,1.2,122,70
650,370,630,360,640,1000,1.7778,180,470,650,2.6111,160,390,550,2.4375,140,240,380,1.7143,110,150,260,1.3636,100,120,220,1.2,122,70
1350,20,990,20,840,860,42,20,710,730,35.5,20,660,680,33,20,540,560,27,20,470,490,23.5,20,450,470,22.5,121,70
970,360,600,200,480,680,2.4,170,350,520,2.0588,160,290,450,1.8125,140,190,330,1.3571,100,120,220,1.2,100,110,210,1.1,121,70
990,370,770,240,500,740,2.0833,180,360,540,2,160,300,460,1.875,140,180,320,1.2857,120,130,250,1.0833,110,100,210,0.90909,120,70
990,220,570,190,480,670,2.5263,170,360,530,2.1176,160,310,470,1.9375,140,200,340,1.4286,110,130,240,1.1818,100,110,210,1.1,121,70
990,420,780,190,470,660,2.4737,170,350,520,2.0588,160,310,470,1.9375,140,200,340,1.4286,120,140,260,1.1667,100,120,220,1.2,121,70
990,210,580,230,450,680,1.9565,230,340,570,1.4783,180,280,460,1.5556,150,180,330,1.2,120,140,260,1.1667,110,120,230,1.0909,121,70
990,410,590,200,590,790,2.95,160,410,570,2.5625,150,340,490,2.2667,130,210,340,1.6154,110,130,240,1.1818,100,110,210,1.1,120,70
980,400,600,190,610,800,3.2105,160,510,670,3.1875,150,420,570,2.8,130,270,400,2.0769,120,150,270,1.25,100,120,220,1.2,119,69
950,380,620,200,470,670,2.35,160,360,520,2.25,160,300,460,1.875,140,190,330,1.3571,120,130,250,1.0833,100,100,200,1,119,69
1020,330,620,210,470,680,2.2381,150,350,500,2.3333,140,310,450,2.2143,120,210,330,1.75,90,150,240,1.6667,80,140,220,1.75,119,69
980,400,550,210,520,730,2.4762,180,370,550,2.0556,170,320,490,1.8824,150,210,360,1.4,130,130,260,1,120,100,220,0.83333,119,69
1000,430,780,450,460,910,1.0222,190,340,530,1.7895,180,280,460,1.5556,150,170,320,1.1333,130,110,240,0.84615,120,90,210,0.75,119,70
1020,220,600,240,460,700,1.9167,240,340,580,1.4167,190,270,460,1.4211,150,170,320,1.1333,120,130,250,1.0833,120,110,230,0.91667,119,69
1000,420,600,260,610,870,2.3462,180,610,790,3.3889,150,610,760,4.0667,140,400,540,2.8571,120,240,360,2,100,160,260,1.6,118,69
1020,400,640,420,510,930,1.2143,180,400,580,2.2222,170,360,530,2.1176,140,250,390,1.7857,120,150,270,1.25,100,130,230,1.3,118,69
1010,380,630,210,640,850,3.0476,180,490,670,2.7222,170,420,590,2.4706,150,280,430,1.8667,130,170,300,1.3077,110,130,240,1.1818,119,69
1000,380,710,210,720,930,3.4286,170,440,610,2.5882,170,370,540,2.1765,140,240,380,1.7143,120,140,260,1.1667,110,120,230,1.0909,120,70
1010,290,760,220,450,670,2.0455,180,340,520,1.8889,170,280,450,1.6471,150,170,320,1.1333,130,150,280,1.1538,110,130,240,1.1818,120,70
1010,250,670,270,510,780,1.8889,220,410,630,1.8636,200,350,550,1.75,170,250,420,1.4706,140,160,300,1.1429,130,120,250,0.92308,119,70
1040,340,660,200,540,740,2.7,180,400,580,2.2222,160,330,490,2.0625,140,210,350,1.5,120,140,260,1.1667,100,120,220,1.2,119,70
1020,380,640,220,560,780,2.5455,190,410,600,2.1579,180,350,530,1.9444,150,230,380,1.5333,130,130,260,1,120,110,230,0.91667,119,69
1000,380,700,210,510,720,2.4286,190,400,590,2.1053,170,340,510,2,160,230,390,1.4375,130,130,260,1,120,100,220,0.83333,119,69
1010,300,660,210,480,690,2.2857,180,350,530,1.9444,170,300,470,1.7647,150,200,350,1.3333,130,130,260,1,120,100,220,0.83333,120,69
1000,350,760,220,490,710,2.2273,190,350,540,1.8421,180,290,470,1.6111,160,210,370,1.3125,140,140,280,1,120,110,230,0.91667,121,70
990,240,770,210,490,700,2.3333,180,360,540,2,170,310,480,1.8235,150,200,350,1.3333,130,130,260,1,110,110,220,1,121,70
1020,220,610,240,450,690,1.875,240,330,570,1.375,230,290,520,1.2609,170,220,390,1.2941,140,150,290,1.0714,120,120,240,1,121,70
990,410,690,210,700,910,3.3333,180,560,740,3.1111,160,460,620,2.875,140,290,430,2.0714,120,150,270,1.25,110,110,220,1,120,69
1000,300,600,190,610,800,3.2105,170,490,660,2.8824,160,360,520,2.25,130,160,290,1.2308,120,120,240,1,90,90,180,1,120,69
1000,400,770,320,500,820,1.5625,170,370,540,2.1765,170,310,480,1.8235,140,190,330,1.3571,120,130,250,1.0833,90,110,200,1.2222,121,69
1000,230,690,190,550,740,2.8947,170,370,540,2.1765,150,340,490,2.2667,140,210,350,1.5,110,140,250,1.2727,90,110,200,1.2222,121,69
1000,310,770,190,580,770,3.0526,170,380,550,2.2353,160,330,490,2.0625,140,210,350,1.5,120,140,260,1.1667,90,120,210,1.3333,122,70
1010,230,790,250,490,740,1.96,200,400,600,2,180,400,580,2.2222,150,260,410,1.7333,130,170,300,1.3077,110,130,240,1.1818,121,70
1010,220,620,240,450,690,1.875,180,330,510,1.8333,170,270,440,1.5882,140,180,320,1.2857,100,130,230,1.3,100,110,210,1.1,121,70
1010,390,420,210,430,640,2.0476,170,400,570,2.3529,160,330,490,2.0625,140,200,340,1.4286,110,130,240,1.1818,100,110,210,1.1,121,70
990,590,640,350,650,1000,1.8571,180,430,610,2.3889,170,360,530,2.1176,150,220,370,1.4667,120,140,260,1.1667,110,100,210,0.90909,120,70
1000,350,630,250,490,740,1.96,180,400,580,2.2222,170,340,510,2,150,200,350,1.3333,110,130,240,1.1818,110,110,220,1,120,69
1000,370,610,200,620,820,3.1,180,420,600,2.3333,160,350,510,2.1875,150,220,370,1.4667,110,140,250,1.2727,110,110,220,1,120,69
970,390,750,200,500,700,2.5,180,350,530,1.9444,170,310,480,1.8235,150,190,340,1.2667,120,130,250,1.0833,110,110,220,1,121,70
990,220,650,240,480,720,2,220,380,600,1.7273,180,340,520,1.8889,150,250,400,1.6667,120,160,280,1.3333,110,140,250,1.2727,121,70
1000,340,600,190,490,680,2.5789,160,360,520,2.25,150,300,450,2,130,180,310,1.3846,110,130,240,1.1818,100,110,210,1.1,120,70
1000,400,640,340,650,990,1.9118,180,150,330,0.83333,160,150,310,0.9375,140,150,290,1.0714,110,140,250,1.2727,100,110,210,1.1,120,69
990,360,630,190,530,720,2.7895,160,400,560,2.5,160,350,510,2.1875,130,230,360,1.7692,110,140,250,1.2727,100,110,210,1.1,119,69
1000,360,600,190,490,680,2.5789,170,380,550,2.2353,150,320,470,2.1333,140,200,340,1.4286,110,140,250,1.2727,100,120,220,1.2,119,69
980,400,750,220,730,950,3.3182,180,400,580,2.2222,180,350,530,1.9444,150,220,370,1.4667,130,130,260,1,120,110,230,0.91667,120,69
980,230,550,200,420,620,2.1,180,320,500,1.7778,170,270,440,1.5882,150,170,320,1.1333,120,120,240,1,120,100,220,0.83333,121,70
980,430,610,450,440,890,0.97778,380,320,700,0.84211,200,280,480,1.4,170,180,350,1.0588,140,120,260,0.85714,130,100,230,0.76923,121,70
1000,370,620,200,630,830,3.15,170,470,640,2.7647,170,400,570,2.3529,140,240,380,1.7143,120,140,260,1.1667,100,120,220,1.2,120,70
980,380,620,200,490,690,2.45,170,380,550,2.2353,160,320,480,2,140,200,340,1.4286,120,130,250,1.0833,110,100,210,0.90909,120,70
990,360,630,200,470,670,2.35,170,360,530,2.1176,160,320,480,2,130,200,330,1.5385,110,130,240,1.1818,110,110,220,1,120,70
940,360,600,210,500,710,2.381,180,360,540,2,170,310,480,1.8235,150,200,350,1.3333,130,130,260,1,110,100,210,0.90909,120,70
1020,340,610,170,550,720,3.2353,150,420,570,2.8,140,360,500,2.5714,120,240,360,2,90,160,250,1.7778,80,130,210,1.625,121,70
980,410,610,220,410,630,1.8636,180,320,500,1.7778,170,270,440,1.5882,150,170,320,1.1333,140,120,260,0.85714,120,100,220,0.83333,122,71
990,370,610,390,450,840,1.1538,390,340,730,0.87179,230,280,510,1.2174,170,180,350,1.0588,140,130,270,0.92857,120,110,230,0.91667,121,71
980,380,630,210,580,790,2.7619,180,410,590,2.2778,160,350,510,2.1875,140,210,350,1.5,120,130,250,1.0833,100,120,220,1.2,121,70
970,350,620,200,630,830,3.15,170,630,800,3.7059,170,490,660,2.8824,140,340,480,2.4286,120,210,330,1.75,100,100,200,1,121,70
980,350,660,200,510,710,2.55,170,380,550,2.2353,160,330,490,2.0625,130,210,340,1.6154,120,130,250,1.0833,100,110,210,1.1,121,70
980,320,590,200,430,630,2.15,170,300,470,1.7647,160,260,420,1.625,140,190,330,1.3571,120,130,250,1.0833,110,100,210,0.90909,122,71
980,390,740,210,500,710,2.381,170,370,540,2.1765,170,320,490,1.8824,140,210,350,1.5,130,130,260,1,110,110,220,1,122,71
980,240,770,260,490,750,1.8846,220,370,590,1.6818,190,340,530,1.7895,160,260,420,1.625,140,150,290,1.0714,120,120,240,1,122,71
990,210,630,230,450,680,1.9565,190,330,520,1.7368,170,280,450,1.6471,140,180,320,1.2857,120,130,250,1.0833,100,110,210,1.1,121,71
990,360,400,200,410,610,2.05,160,340,500,2.125,160,290,450,1.8125,130,170,300,1.3077,120,120,240,1,100,100,200,1,121,70
980,590,620,390,630,1020,1.6154,190,440,630,2.3158,170,360,530,2.1176,150,230,380,1.5333,120,140,260,1.1667,110,110,220,1,121,70
980,360,590,190,470,660,2.4737,170,350,520,2.0588,160,290,450,1.8125,130,180,310,1.3846,110,130,240,1.1818,100,100,200,1,121,70
970,390,710,210,500,710,2.381,180,370,550,2.0556,170,310,480,1.8235,150,190,340,1.2667,120,120,240,1,110,100,210,0.90909,122,71
980,260,750,210,590,800,2.8095,190,390,580,2.0526,170,340,510,2,150,210,360,1.4,130,140,270,1.0769,110,110,220,1,122,71
980,230,620,250,480,730,1.92,200,370,570,1.85,190,320,510,1.6842,160,210,370,1.3125,130,140,270,1.0769,120,120,240,1,121,71
990,360,620,380,440,820,1.1579,190,340,530,1.7895,170,280,450,1.6471,150,170,320,1.1333,120,130,250,1.0833,110,110,220,1,120,70
980,370,630,320,640,960,2,200,550,750,2.75,180,430,610,2.3889,150,270,420,1.8,120,150,270,1.25,110,120,230,1.0909,120,70
990,350,680,190,500,690,2.6316,160,370,530,2.3125,150,320,470,2.1333,130,200,330,1.5385,110,140,250,1.2727,90,120,210,1.3333,120,70
980,310,680,200,470,670,2.35,170,340,510,2,160,290,450,1.8125,140,180,320,1.2857,120,130,250,1.0833,110,100,210,0.90909,120,70
980,300,590,200,560,760,2.8,180,380,560,2.1111,160,310,470,1.9375,140,190,330,1.3571,120,130,250,1.0833,110,110,220,1,121,70
980,390,650,220,430,650,1.9545,190,310,500,1.6316,170,250,420,1.4706,140,170,310,1.2143,120,120,240,1,110,100,210,0.90909,121,70
980,330,630,350,460,810,1.3143,210,350,560,1.6667,180,290,470,1.6111,160,200,360,1.25,140,140,280,1,120,120,240,1,121,70
980,350,580,200,590,790,2.95,160,440,600,2.75,160,360,520,2.25,130,210,340,1.6154,120,140,260,1.1667,100,110,210,1.1,120,70
1030,400,630,180,560,740,3.1111,160,400,560,2.5,150,350,500,2.3333,130,220,350,1.6923,100,140,240,1.4,90,110,200,1.2222,120,69
950,400,560,270,430,700,1.5926,220,320,540,1.4545,200,260,460,1.3,170,150,320,0.88235,150,90,240,0.6,130,70,200,0.53846,120,69
980,390,590,200,440,640,2.2,170,330,500,1.9412,160,270,430,1.6875,140,170,310,1.2143,120,120,240,1,110,100,210,0.90909,120,69
980,390,560,210,480,690,2.2857,180,350,530,1.9444,170,290,460,1.7059,140,160,300,1.1429,130,110,240,0.84615,110,100,210,0.90909,121,69
970,420,760,210,450,660,2.1429,170,340,510,2,160,290,450,1.8125,140,190,330,1.3571,130,130,260,1,110,110,220,1,120,69
980,210,630,230,450,680,1.9565,230,320,550,1.3913,230,260,490,1.1304,160,200,360,1.25,130,150,280,1.1538,110,130,240,1.1818,119,69
990,350,590,190,560,750,2.9474,150,390,540,2.6,150,330,480,2.2,120,180,300,1.5,110,130,240,1.1818,90,110,200,1.2222,119,69
1000,400,290,190,300,490,1.5789,160,300,460,1.875,140,290,430,2.0714,130,190,320,1.4615,100,130,230,1.3,90,110,200,1.2222,118,69
990,710,650,200,470,670,2.35,170,360,530,2.1176,160,300,460,1.875,140,190,330,1.3571,110,130,240,1.1818,100,110,210,1.1,118,69
980,340,600,280,450,730,1.6071,180,350,530,1.9444,180,330,510,1.8333,150,200,350,1.3333,130,130,260,1,120,100,220,0.83333,119,69
990,380,590,210,600,810,2.8571,190,420,610,2.2105,170,360,530,2.1176,150,230,380,1.5333,130,140,270,1.0769,120,110,230,0.91667,119,69
960,400,770,200,780,980,3.9,180,440,620,2.4444,170,330,500,1.9412,140,200,340,1.4286,130,130,260,1,110,110,220,1,118,69
1990,190,650,210,490,700,2.3333,210,370,580,1.7619,190,320,510,1.6842,140,200,340,1.4286,120,150,270,1.25,110,130,240,1.1818,117,69
990,1340,660,1180,670,1850,0.5678,750,670,1420,0.89333,610,530,1140,0.86885,360,360,720,1,250,180,430,0.72,110,130,240,1.1818,117,68
1000,330,680,330,580,910,1.7576,180,480,660,2.6667,160,420,580,2.625,140,280,420,2,130,150,280,1.1538,110,120,230,1.0909,117,68
990,320,580,200,590,790,2.95,180,470,650,2.6111,170,410,580,2.4118,150,260,410,1.7333,120,150,270,1.25,110,120,230,1.0909,118,69
980,410,750,210,630,840,3,190,460,650,2.4211,170,390,560,2.2941,150,280,430,1.8667,130,170,300,1.3077,110,130,240,1.1818,119,69
970,230,750,250,510,760,2.04,210,410,620,1.9524,190,360,550,1.8947,170,250,420,1.4706,140,160,300,1.1429,130,120,250,0.92308,119,69
980,220,600,240,460,700,1.9167,200,340,540,1.7,180,280,460,1.5556,150,180,330,1.2,130,120,250,0.92308,110,110,220,1,119,69
970,380,610,270,620,890,2.2963,200,520,720,2.6,180,430,610,2.3889,150,290,440,1.9333,130,150,280,1.1538,110,110,220,1,119,69
980,360,640,190,500,690,2.6316,170,390,560,2.2941,150,330,480,2.2,130,210,340,1.6154,110,130,240,1.1818,90,110,200,1.2222,119,69
980,340,600,200,470,670,2.35,170,360,530,2.1176,150,300,450,2,140,180,320,1.2857,120,120,240,1,110,100,210,0.90909,119,69
900,380,600,210,580,790,2.7619,180,390,570,2.1667,170,320,490,1.8824,150,200,350,1.3333,130,120,250,0.92308,110,100,210,0.90909,120,70
1020,300,610,150,480,630,3.2,130,390,520,3,110,340,450,3.0909,100,230,330,2.3,80,180,260,2.25,60,150,210,2.5,121,70
990,410,670,430,490,920,1.1395,200,400,600,2,180,360,540,2,150,250,400,1.6667,130,170,300,1.3077,100,130,230,1.3,121,70
970,320,580,190,500,690,2.6316,160,360,520,2.25,160,290,450,1.8125,140,170,310,1.2143,120,120,240,1,100,100,200,1,120,70
980,390,620,210,520,730,2.4762,170,390,560,2.2941,150,330,480,2.2,130,190,320,1.4615,110,120,230,1.0909,90,110,200,1.2222,120,70
980,360,640,200,530,730,2.65,170,400,570,2.3529,150,350,500,2.3333,130,240,370,1.8462,120,130,250,1.0833,100,100,200,1,120,70
960,340,610,190,450,640,2.3684,170,350,520,2.0588,160,290,450,1.8125,140,180,320,1.2857,120,130,250,1.0833,100,100,200,1,121,71
970,350,570,180,460,640,2.5556,160,340,500,2.125,150,280,430,1.8667,130,210,340,1.6154,110,130,240,1.1818,90,110,200,1.2222,122,71
990,400,770,190,480,670,2.5263,170,360,530,2.1176,150,300,450,2,140,190,330,1.3571,110,130,240,1.1818,100,110,210,1.1,122,71
920,220,600,240,430,670,1.7917,240,330,570,1.375,240,320,560,1.3333,170,210,380,1.2353,130,140,270,1.0769,120,120,240,1,121,71
920,320,590,180,500,680,2.7778,160,370,530,2.3125,150,310,460,2.0667,130,170,300,1.3077,100,130,230,1.3,90,100,190,1.1111,121,71
940,330,520,180,480,660,2.6667,160,360,520,2.25,140,310,450,2.2143,130,170,300,1.3077,100,130,230,1.3,90,110,200,1.2222,120,70
920,420,620,430,630,1060,1.4651,190,470,660,2.4737,180,390,570,2.1667,150,240,390,1.6,120,140,260,1.1667,110,110,220,1,120,70
910,300,730,190,470,660,2.4737,160,340,500,2.125,150,270,420,1.8,140,160,300,1.1429,120,110,230,0.91667,110,100,210,0.90909,121,70
980,180,560,170,450,620,2.6471,150,360,510,2.4,140,300,440,2.1429,120,190,310,1.5833,100,140,240,1.4,90,120,210,1.3333,121,71
980,420,630,440,480,920,1.0909,210,380,590,1.8095,190,340,530,1.7895,160,220,380,1.375,130,140,270,1.0769,130,110,240,0.84615,121,71
990,350,590,190,490,680,2.5789,160,340,500,2.125,150,270,420,1.8,140,170,310,1.2143,110,120,230,1.0909,100,110,210,1.1,120,71
980,400,590,210,500,710,2.381,170,370,540,2.1765,160,320,480,2,140,180,320,1.2857,120,120,240,1,100,90,190,0.9,119,70
980,390,590,190,500,690,2.6316,170,360,530,2.1176,160,310,470,1.9375,130,180,310,1.3846,110,120,230,1.0909,80,100,180,1.25,120,70
980,390,570,200,480,680,2.4,180,350,530,1.9444,160,290,450,1.8125,140,180,320,1.2857,120,120,240,1,100,100,200,1,120,71
1000,410,560,190,430,620,2.2632,170,320,490,1.8824,160,260,420,1.625,140,150,290,1.0714,120,110,230,0.91667,100,90,190,0.9,120,71
1000,440,680,460,500,960,1.087,200,390,590,1.95,180,350,530,1.9444,150,240,390,1.6,130,150,280,1.1538,110,120,230,1.0909,120,70
1020,320,590,210,460,670,2.1905,160,340,500,2.125,150,270,420,1.8,130,180,310,1.3846,110,140,250,1.2727,90,110,200,1.2222,120,70
1000,430,630,210,530,740,2.5238,180,390,570,2.1667,170,330,500,1.9412,140,200,340,1.4286,120,120,240,1,100,100,200,1,119,70
1000,370,630,200,640,840,3.2,170,440,610,2.5882,160,380,540,2.375,130,260,390,2,110,150,260,1.3636,100,100,200,1,119,70
750,370,590,200,490,690,2.45,170,370,540,2.1765,160,320,480,2,140,200,340,1.4286,110,140,250,1.2727,100,120,220,1.2,119,70
1280,160,870,100,710,810,7.1,20,610,630,30.5,20,570,590,28.5,20,480,500,24,20,440,460,22,20,110,130,5.5,119,70
1010,410,700,240,520,760,2.1667,200,400,600,2,180,340,520,1.8889,160,210,370,1.3125,130,140,270,1.0769,120,110,230,0.91667,119,70
990,310,690,190,480,670,2.5263,170,330,500,1.9412,160,270,430,1.6875,130,170,300,1.3077,120,130,250,1.0833,100,110,210,1.1,118,69
980,300,630,200,530,730,2.65,170,370,540,2.1765,160,300,460,1.875,140,190,330,1.3571,120,130,250,1.0833,110,100,210,0.90909,118,69
980,350,730,190,540,730,2.8421,170,400,570,2.3529,160,350,510,2.1875,140,210,350,1.5,110,140,250,1.2727,100,110,210,1.1,117,69
980,250,600,200,450,650,2.25,170,330,500,1.9412,160,270,430,1.6875,130,170,300,1.3077,120,130,250,1.0833,100,110,210,1.1,117,69
980,380,590,200,440,640,2.2,170,370,540,2.1765,160,340,500,2.125,140,220,360,1.5714,110,150,260,1.3636,100,120,220,1.2,118,69
1000,390,690,410,500,910,1.2195,180,390,570,2.1667,160,340,500,2.125,150,210,360,1.4,120,140,260,1.1667,110,120,230,1.0909,118,68
990,310,590,220,390,610,1.7727,170,280,450,1.6471,160,220,380,1.375,140,150,290,1.0714,130,120,250,0.92308,110,90,200,0.81818,117,68
980,400,590,210,600,810,2.8571,170,440,610,2.5882,160,360,520,2.25,140,210,350,1.5,110,140,250,1.2727,100,110,210,1.1,117,68
990,390,490,200,440,640,2.2,170,320,490,1.8824,150,270,420,1.8,130,170,300,1.3077,110,130,240,1.1818,100,100,200,1,117,68
980,500,580,220,500,720,2.2727,170,380,550,2.2353,160,300,460,1.875,130,180,310,1.3846,120,130,250,1.0833,100,100,200,1,117,68
980,400,620,210,580,790,2.7619,180,410,590,2.2778,160,350,510,2.1875,140,230,370,1.6429,120,130,250,1.0833,100,110,210,1.1,118,68
980,360,620,360,470,830,1.3056,180,340,520,1.8889,170,290,460,1.7059,150,180,330,1.2,120,130,250,1.0833,110,100,210,0.90909,118,68
990,360,580,380,450,830,1.1842,180,340,520,1.8889,160,280,440,1.75,140,180,320,1.2857,110,130,240,1.1818,110,110,220,1,117,68
990,410,600,330,610,940,1.8485,180,590,770,3.2778,170,460,630,2.7059,140,280,420,2,120,150,270,1.25,100,120,220,1.2,117,68
990,390,600,210,470,680,2.2381,170,360,530,2.1176,160,300,460,1.875,140,180,320,1.2857,120,130,250,1.0833,100,100,200,1,117,68
990,390,600,190,470,660,2.4737,170,350,520,2.0588,150,300,450,2,140,190,330,1.3571,120,130,250,1.0833,100,110,210,1.1,117,68
990,390,560,220,570,790,2.5909,180,410,590,2.2778,160,350,510,2.1875,140,220,360,1.5714,120,140,260,1.1667,100,110,210,1.1,117,68
990,430,790,450,460,910,1.0222,170,350,520,2.0588,160,290,450,1.8125,140,190,330,1.3571,120,140,260,1.1667,100,110,210,1.1,117,68
1010,200,600,220,450,670,2.0455,220,340,560,1.5455,180,280,460,1.5556,140,180,320,1.2857,120,140,260,1.1667,100,120,220,1.2,116,68
990,410,620,230,630,860,2.7391,180,560,740,3.1111,160,450,610,2.8125,140,280,420,2,130,140,270,1.0769,110,110,220,1,116,68
990,370,610,200,490,690,2.45,160,380,540,2.375,150,310,460,2.0667,130,170,300,1.3077,110,120,230,1.0909,100,100,200,1,116,68
990,380,590,400,440,840,1.1,170,320,490,1.8824,160,260,420,1.625,130,160,290,1.2308,100,120,220,1.2,80,110,190,1.375,116,68
980,400,580,200,590,790,2.95,170,430,600,2.5294,160,370,530,2.3125,140,220,360,1.5714,110,130,240,1.1818,100,120,220,1.2,116,68
1000,400,790,210,440,650,2.0952,160,300,460,1.875,160,240,400,1.5,130,150,280,1.1538,110,100,210,0.90909,100,70,170,0.7,117,68
990,210,620,230,450,680,1.9565,230,340,570,1.4783,180,270,450,1.5,150,180,330,1.2,130,140,270,1.0769,110,110,220,1,116,68
990,370,620,210,630,840,3,170,560,730,3.2941,150,450,600,3,130,290,420,2.2308,120,150,270,1.25,100,120,220,1.2,115,68
980,370,630,200,490,690,2.45,170,380,550,2.2353,140,320,460,2.2857,140,190,330,1.3571,110,130,240,1.1818,100,110,210,1.1,115,68
1010,350,640,370,460,830,1.2432,190,360,550,1.8947,170,310,480,1.8235,140,210,350,1.5,120,150,270,1.25,100,130,230,1.3,115,68
980,370,580,210,590,800,2.8095,170,450,620,2.6471,170,380,550,2.2353,130,240,370,1.8462,120,140,260,1.1667,100,120,220,1.2,116,68
980,400,580,190,490,680,2.5789,170,340,510,2,160,260,420,1.625,140,180,320,1.2857,110,130,240,1.1818,110,100,210,0.90909,116,68
1000,400,620,420,450,870,1.0714,200,330,530,1.65,180,280,460,1.5556,150,190,340,1.2667,130,140,270,1.0769,110,120,230,1.0909,116,68
980,380,610,210,530,740,2.5238,170,390,560,2.2941,160,330,490,2.0625,140,170,310,1.2143,120,120,240,1,110,100,210,0.90909,115,68
980,370,630,200,530,730,2.65,170,380,550,2.2353,150,310,460,2.0667,140,190,330,1.3571,110,130,240,1.1818,110,110,220,1,115,68
1000,350,630,220,480,700,2.1818,170,370,540,2.1765,170,320,490,1.8824,140,200,340,1.4286,120,130,250,1.0833,100,110,210,1.1,115,67
990,370,560,210,570,780,2.7143,180,410,590,2.2778,170,340,510,2,140,180,320,1.2857,120,120,240,1,110,100,210,0.90909,115,67
1010,430,790,210,470,680,2.2381,180,370,550,2.0556,170,310,480,1.8235,150,190,340,1.2667,120,130,250,1.0833,110,110,220,1,116,67
1000,220,640,240,450,690,1.875,220,350,570,1.5909,190,300,490,1.5789,160,200,360,1.25,130,140,270,1.0769,120,120,240,1,115,67
1000,360,460,200,470,670,2.35,170,410,580,2.4118,160,330,490,2.0625,130,180,310,1.3846,120,130,250,1.0833,100,100,200,1,115,67
990,540,630,220,530,750,2.4091,180,390,570,2.1667,170,320,490,1.8824,130,190,320,1.4615,120,130,250,1.0833,100,110,210,1.1,115,67
1000,360,620,280,530,810,1.8929,170,410,580,2.4118,160,340,500,2.125,140,210,350,1.5,120,140,260,1.1667,100,110,210,1.1,115,67
990,380,590,200,580,780,2.9,170,410,580,2.4118,160,340,500,2.125,140,210,350,1.5,120,130,250,1.0833,110,110,220,1,115,67
980,400,770,200,470,670,2.35,180,340,520,1.8889,170,290,460,1.7059,150,180,330,1.2,120,130,250,1.0833,110,110,220,1,115,67
1040,210,650,230,460,690,2,210,330,540,1.5714,170,290,460,1.7059,140,190,330,1.3571,120,140,260,1.1667,100,130,230,1.3,116,67
1020,390,600,220,530,750,2.4091,180,370,550,2.0556,170,310,480,1.8235,140,180,320,1.2857,130,120,250,0.92308,110,100,210,0.90909,115,67
1000,420,670,390,680,1070,1.7436,190,420,610,2.2105,170,350,520,2.0588,150,210,360,1.4,130,140,270,1.0769,120,110,230,0.91667,114,67
1010,330,710,240,550,790,2.2917,170,390,560,2.2941,160,340,500,2.125,140,220,360,1.5714,110,150,260,1.3636,110,110,220,1,114,66
1010,300,610,190,620,810,3.2632,160,430,590,2.6875,150,370,520,2.4667,130,210,340,1.6154,110,140,250,1.2727,80,120,200,1.5,114,66
1030,400,680,200,500,700,2.5,170,400,570,2.3529,160,340,500,2.125,130,220,350,1.6923,120,150,270,1.25,90,130,220,1.4444,114,66
1010,350,650,370,490,860,1.3243,210,340,550,1.619,190,300,490,1.5789,160,190,350,1.1875,120,140,260,1.1667,120,110,230,0.91667,115,66
980,360,650,210,550,760,2.619,180,380,560,2.1111,180,320,500,1.7778,150,190,340,1.2667,130,120,250,0.92308,110,100,210,0.90909,114,66
980,330,660,270,670,940,2.4815,180,510,690,2.8333,170,430,600,2.5294,150,270,420,1.8,130,160,290,1.2308,110,120,230,1.0909,114,66
980,320,660,200,530,730,2.65,170,420,590,2.4706,170,360,530,2.1176,140,220,360,1.5714,120,140,260,1.1667,110,120,230,1.0909,113,66
990,320,750,190,760,950,4,170,500,670,2.9412,160,430,590,2.6875,150,290,440,1.9333,120,150,270,1.25,110,120,230,1.0909,113,66
1980,240,1680,260,1460,1720,5.6154,260,1310,1570,5.0385,220,1260,1480,5.7273,180,740,920,4.1111,150,460,610,3.0667,140,300,440,2.1429,114,66
980,300,620,200,600,800,3,180,460,640,2.5556,160,380,540,2.375,150,250,400,1.6667,120,130,250,1.0833,120,110,230,0.91667,114,66
1000,360,640,210,580,790,2.7619,180,410,590,2.2778,170,340,510,2,150,200,350,1.3333,120,130,250,1.0833,110,110,220,1,114,66
970,360,630,220,550,770,2.5,190,410,600,2.1579,180,360,540,2,150,230,380,1.5333,140,130,270,0.92857,120,100,220,0.83333,114,66
960,340,620,210,520,730,2.4762,190,380,570,2,180,310,490,1.7222,160,190,350,1.1875,140,110,250,0.78571,110,90,200,0.81818,115,66
980,340,740,200,640,840,3.2,180,410,590,2.2778,170,350,520,2.0588,150,250,400,1.6667,120,160,280,1.3333,110,130,240,1.1818,116,67
970,240,610,260,440,700,1.6923,260,330,590,1.2692,230,270,500,1.1739,180,160,340,0.88889,150,130,280,0.86667,130,120,250,0.92308,116,67
980,360,640,210,480,690,2.2857,170,370,540,2.1765,160,310,470,1.9375,140,190,330,1.3571,110,130,240,1.1818,110,110,220,1,116,67
970,340,620,200,630,830,3.15,170,630,800,3.7059,170,560,730,3.2941,140,350,490,2.5,120,160,280,1.3333,110,100,210,0.90909,116,67
980,350,680,200,510,710,2.55,170,380,550,2.2353,160,330,490,2.0625,130,220,350,1.6923,120,140,260,1.1667,100,110,210,1.1,116,67
980,300,660,200,490,690,2.45,170,340,510,2,160,320,480,2,140,200,340,1.4286,120,130,250,1.0833,110,110,220,1,117,67
970,320,570,200,450,650,2.25,180,330,510,1.8333,170,270,440,1.5882,140,170,310,1.2143,120,130,250,1.0833,110,100,210,0.90909,118,68
960,400,660,420,480,900,1.1429,420,410,830,0.97619,210,370,580,1.7619,170,260,430,1.5294,140,160,300,1.1429,120,130,250,1.0833,117,68
990,300,640,190,510,700,2.6842,160,370,530,2.3125,140,300,440,2.1429,130,190,320,1.4615,100,140,240,1.4,90,110,200,1.2222,117,68
970,350,500,200,510,710,2.55,170,380,550,2.2353,160,320,480,2,140,190,330,1.3571,120,130,250,1.0833,100,100,200,1,117,68
970,470,640,470,650,1120,1.383,190,470,660,2.4737,180,390,570,2.1667,140,240,380,1.7143,130,140,270,1.0769,110,120,230,1.0909,117,68
960,330,660,200,520,720,2.6,180,370,550,2.0556,160,310,470,1.9375,150,190,340,1.2667,120,130,250,1.0833,110,100,210,0.90909,118,68
980,300,750,200,760,960,3.8,170,390,560,2.2941,160,340,500,2.125,140,220,360,1.5714,120,140,260,1.1667,100,110,210,1.1,118,68
960,230,690,250,490,740,1.96,230,390,620,1.6957,200,340,540,1.7,170,250,420,1.4706,140,160,300,1.1429,130,120,250,0.92308,118,68
960,270,660,220,630,850,2.8636,180,370,550,2.0556,160,310,470,1.9375,130,190,320,1.4615,120,130,250,1.0833,100,110,210,1.1,118,68
960,300,590,190,600,790,3.1579,170,450,620,2.6471,150,340,490,2.2667,130,200,330,1.5385,110,130,240,1.1818,90,100,190,1.1111,118,68
970,370,610,200,450,650,2.25,170,330,500,1.9412,150,280,430,1.8667,130,170,300,1.3077,110,130,240,1.1818,100,100,200,1,118,68
960,360,570,200,450,650,2.25,180,330,510,1.8333,160,280,440,1.75,140,170,310,1.2143,120,120,240,1,100,110,210,1.1,118,68
980,390,580,220,400,620,1.8182,180,290,470,1.6111,170,230,400,1.3529,140,150,290,1.0714,120,100,220,0.83333,100,80,180,0.8,120,69
940,400,740,220,510,730,2.3182,190,350,540,1.8421,180,300,480,1.6667,160,210,370,1.3125,130,140,270,1.0769,120,110,230,0.91667,119,69
980,200,440,220,390,610,1.7727,220,290,510,1.3182,180,240,420,1.3333,140,170,310,1.2143,120,140,260,1.1667,100,120,220,1.2,119,69
980,540,600,450,610,1060,1.3556,450,420,870,0.93333,450,350,800,0.77778,450,210,660,0.46667,110,140,250,1.2727,100,100,200,1,119,69
940,380,680,210,690,900,3.2857,180,690,870,3.8333,170,520,690,3.0588,140,290,430,2.0714,130,120,250,0.92308,110,100,210,0.90909,119,69
970,260,640,190,480,670,2.5263,170,360,530,2.1176,160,310,470,1.9375,140,200,340,1.4286,120,140,260,1.1667,100,110,210,1.1,119,69
950,330,720,210,690,900,3.2857,180,410,590,2.2778,180,370,550,2.0556,150,300,450,2,130,160,290,1.2308,110,120,230,1.0909,120,69
950,230,740,210,500,710,2.381,180,370,550,2.0556,160,310,470,1.9375,150,210,360,1.4,120,130,250,1.0833,110,110,220,1,120,70
990,210,500,230,420,650,1.8261,230,330,560,1.4348,180,280,460,1.5556,150,190,340,1.2667,110,150,260,1.3636,110,120,230,1.0909,120,70
960,490,590,260,600,860,2.3077,190,520,710,2.7368,170,430,600,2.5294,140,270,410,1.9286,130,140,270,1.0769,110,110,220,1,120,70
930,370,590,200,560,760,2.8,180,430,610,2.3889,160,370,530,2.3125,140,230,370,1.6429,120,140,260,1.1667,100,110,210,1.1,120,70
970,340,650,200,490,690,2.45,170,370,540,2.1765,160,310,470,1.9375,150,190,340,1.2667,120,120,240,1,110,100,210,0.90909,120,70
970,320,760,210,730,940,3.4762,180,420,600,2.3333,170,350,520,2.0588,150,220,370,1.4667,130,140,270,1.0769,110,100,210,0.90909,121,70
950,210,730,200,420,620,2.1,180,320,500,1.7778,180,270,450,1.5,140,170,310,1.2143,120,120,240,1,110,100,210,0.90909,121,70
980,220,600,240,460,700,1.9167,190,360,550,1.8947,170,310,480,1.8235,140,220,360,1.5714,120,160,280,1.3333,100,130,230,1.3,122,71
990,380,590,200,600,800,3,170,400,570,2.3529,150,330,480,2.2,140,190,330,1.3571,110,130,240,1.1818,110,110,220,1,122,71
970,400,610,200,480,680,2.4,170,370,540,2.1765,160,310,470,1.9375,140,180,320,1.2857,120,120,240,1,110,90,200,0.81818,121,70
960,360,600,190,480,670,2.5263,160,360,520,2.25,140,300,440,2.1429,120,180,300,1.5,100,120,220,1.2,80,100,180,1.25,121,70
970,360,550,190,500,690,2.6316,160,360,520,2.25,150,300,450,2,140,180,320,1.2857,110,120,230,1.0909,100,110,210,1.1,122,70
970,420,560,200,430,630,2.15,170,320,490,1.8824,160,260,420,1.625,140,160,300,1.1429,120,110,230,0.91667,110,100,210,0.90909,122,71
1000,410,630,430,480,910,1.1163,430,380,810,0.88372,210,330,540,1.5714,160,220,380,1.375,140,140,280,1,130,120,250,0.92308,122,71
970,370,620,200,630,830,3.15,170,590,760,3.4706,160,460,620,2.875,140,300,440,2.1429,120,120,240,1,110,100,210,0.90909,121,70
960,350,710,200,520,720,2.6,180,390,570,2.1667,160,330,490,2.0625,130,210,340,1.6154,120,130,250,1.0833,100,110,210,1.1,121,70
970,250,670,190,680,870,3.5789,170,460,630,2.7059,150,410,560,2.7333,130,220,350,1.6923,110,140,250,1.2727,90,120,210,1.3333,120,70
970,300,590,190,550,740,2.8947,170,390,560,2.2941,160,320,480,2,140,200,340,1.4286,120,130,250,1.0833,110,110,220,1,121,70
950,380,740,210,460,670,2.1905,190,400,590,2.1053,180,380,560,2.1111,150,260,410,1.7333,130,140,270,1.0769,120,110,230,0.91667,121,70
960,210,750,230,540,770,2.3478,180,440,620,2.4444,170,380,550,2.2353,140,270,410,1.9286,120,170,290,1.4167,110,140,250,1.2727,121,70
990,210,520,230,430,660,1.8696,170,320,490,1.8824,150,260,410,1.7333,140,170,310,1.2143,110,130,240,1.1818,110,110,220,1,120,70
950,470,640,260,650,910,2.5,180,500,680,2.7778,170,420,590,2.4706,150,270,420,1.8,130,140,270,1.0769,120,110,230,0.91667,120,70
970,310,630,190,580,770,3.0526,160,430,590,2.6875,160,370,530,2.3125,140,220,360,1.5714,120,140,260,1.1667,100,110,210,1.1,120,70
970,340,660,210,510,720,2.4286,180,400,580,2.2222,170,330,500,1.9412,150,200,350,1.3333,130,130,260,1,110,100,210,0.90909,121,70
960,310,770,220,780,1000,3.5455,190,440,630,2.3158,190,390,580,2.0526,160,270,430,1.6875,140,150,290,1.0714,120,120,240,1,122,71
940,190,710,210,500,710,2.381,190,360,550,1.8947,180,310,490,1.7222,150,210,360,1.4,140,130,270,0.92857,120,110,230,0.91667,123,71
970,230,610,250,450,700,1.8,250,340,590,1.36,190,290,480,1.5263,150,190,340,1.2667,120,140,260,1.1667,110,120,230,1.0909,123,71
970,360,660,210,670,880,3.1905,170,530,700,3.1176,160,460,620,2.875,140,320,460,2.2857,120,160,280,1.3333,100,130,230,1.3,122,71
950,310,610,190,580,770,3.0526,170,410,580,2.4118,160,340,500,2.125,140,200,340,1.4286,110,130,240,1.1818,100,110,210,1.1,123,71
960,340,660,190,530,720,2.7895,170,410,580,2.4118,160,350,510,2.1875,130,240,370,1.8462,110,170,280,1.5455,100,130,230,1.3,124,71
960,300,690,200,700,900,3.5,170,410,580,2.4118,170,340,510,2,140,210,350,1.5,120,130,250,1.0833,100,110,210,1.1,124,71
950,270,720,230,460,690,2,190,310,500,1.6316,180,260,440,1.4444,160,200,360,1.25,130,140,270,1.0769,120,120,240,1,124,72
960,230,630,250,460,710,1.84,250,340,590,1.36,200,280,480,1.4,160,190,350,1.1875,140,140,280,1,120,110,230,0.91667,124,72
950,330,600,200,610,810,3.05,170,570,740,3.3529,160,450,610,2.8125,140,190,330,1.3571,120,130,250,1.0833,110,100,210,0.90909,123,71
950,350,630,200,460,660,2.3,170,350,520,2.0588,160,300,460,1.875,140,180,320,1.2857,110,120,230,1.0909,110,100,210,0.90909,123,71
950,320,610,280,490,770,1.75,180,400,580,2.2222,160,350,510,2.1875,140,200,340,1.4286,120,130,250,1.0833,100,120,220,1.2,123,71
960,340,560,190,540,730,2.8421,170,370,540,2.1765,160,310,470,1.9375,130,170,300,1.3077,120,130,250,1.0833,100,100,200,1,123,71
950,400,440,210,450,660,2.1429,180,370,550,2.0556,170,310,480,1.8235,150,210,360,1.4,130,130,260,1,120,100,220,0.83333,124,71
950,510,640,530,480,1010,0.90566,530,400,930,0.75472,530,340,870,0.64151,520,230,750,0.44231,410,150,560,0.36585,410,120,530,0.29268,124,71
960,310,590,200,450,650,2.25,160,330,490,2.0625,150,270,420,1.8,130,160,290,1.2308,110,120,230,1.0909,100,110,210,1.1,123,71
950,370,610,210,620,830,2.9524,190,470,660,2.4737,170,400,570,2.3529,150,250,400,1.6667,120,140,260,1.1667,110,110,220,1,122,71
960,340,640,230,450,680,1.9565,170,350,520,2.0588,160,280,440,1.75,140,170,310,1.2143,110,120,230,1.0909,100,110,210,1.1,122,71
980,320,660,190,670,860,3.5263,160,390,550,2.4375,150,320,470,2.1333,120,210,330,1.75,100,140,240,1.4,80,110,190,1.375,122,71
950,320,710,220,720,940,3.2727,200,400,600,2,180,330,510,1.8333,160,210,370,1.3125,130,130,260,1,120,100,220,0.83333,122,71
950,240,740,260,450,710,1.7308,190,310,500,1.6316,180,250,430,1.3889,160,150,310,0.9375,130,100,230,0.76923,110,80,190,0.72727,123,71
980,210,620,230,450,680,1.9565,180,340,520,1.8889,170,280,450,1.6471,150,170,320,1.1333,120,130,250,1.0833,100,110,210,1.1,122,71
950,360,600,200,610,810,3.05,170,450,620,2.6471,160,390,550,2.4375,140,260,400,1.8571,120,120,240,1,110,90,200,0.81818,122,71
990,350,600,190,500,690,2.6316,150,380,530,2.5333,150,310,460,2.0667,130,190,320,1.4615,110,130,240,1.1818,90,110,200,1.2222,122,71
990,390,610,220,470,690,2.1364,180,350,530,1.9444,160,310,470,1.9375,140,190,330,1.3571,120,130,250,1.0833,100,110,210,1.1,122,71
960,380,570,220,580,800,2.6364,180,410,590,2.2778,170,340,510,2,150,210,360,1.4,130,130,260,1,120,100,220,0.83333,123,71
950,390,760,210,450,660,2.1429,180,340,520,1.8889,170,290,460,1.7059,150,180,330,1.2,130,120,250,0.92308,110,100,210,0.90909,123,71
970,190,610,210,470,680,2.2381,210,350,560,1.6667,190,300,490,1.5789,150,190,340,1.2667,130,140,270,1.0769,110,120,230,1.0909,122,71
970,360,510,200,520,720,2.6,160,470,630,2.9375,150,400,550,2.6667,130,230,360,1.7692,110,140,250,1.2727,90,120,210,1.3333,122,71
960,460,660,460,670,1130,1.4565,190,520,710,2.7368,170,440,610,2.5882,140,270,410,1.9286,120,150,270,1.25,110,120,230,1.0909,121,70
970,300,670,210,630,840,3,170,470,640,2.7647,160,390,550,2.4375,140,260,400,1.8571,110,150,260,1.3636,100,120,220,1.2,121,70
960,300,590,200,600,800,3,180,480,660,2.6667,170,410,580,2.4118,150,260,410,1.7333,120,130,250,1.0833,120,110,230,0.91667,121,70
950,370,760,210,650,860,3.0952,190,390,580,2.0526,180,340,520,1.8889,160,220,380,1.375,130,140,270,1.0769,110,110,220,1,122,70
960,190,600,210,460,670,2.1905,210,350,560,1.6667,210,290,500,1.381,170,190,360,1.1176,140,130,270,0.92857,130,110,240,0.84615,122,71
980,360,620,210,530,740,2.5238,180,400,580,2.2222,170,330,500,1.9412,140,190,330,1.3571,120,120,240,1,100,100,200,1,122,71
960,360,650,210,660,870,3.1429,180,490,670,2.7222,170,410,580,2.4118,140,260,400,1.8571,120,140,260,1.1667,110,110,220,1,121,70
960,310,660,200,490,690,2.45,180,380,560,2.1111,160,320,480,2,150,190,340,1.2667,130,130,260,1,110,90,200,0.81818,121,70
950,300,620,200,470,670,2.35,180,340,520,1.8889,170,280,450,1.6471,150,160,310,1.0667,120,110,230,0.91667,120,100,220,0.83333,122,70
970,330,740,190,520,710,2.7368,170,380,550,2.2353,160,330,490,2.0625,140,230,370,1.6429,110,150,260,1.3636,100,120,220,1.2,123,71
970,230,610,250,470,720,1.88,250,370,620,1.48,250,310,560,1.24,170,210,380,1.2353,150,180,330,1.2,130,140,270,1.0769,123,71
950,360,600,200,450,650,2.25,170,330,500,1.9412,160,270,430,1.6875,140,160,300,1.1429,120,110,230,0.91667,110,90,200,0.81818,122,71
960,350,640,200,650,850,3.25,160,650,810,4.0625,160,550,710,3.4375,130,240,370,1.8462,110,130,240,1.1818,100,100,200,1,122,71
950,320,610,200,480,680,2.4,170,350,520,2.0588,160,300,460,1.875,140,180,320,1.2857,120,120,240,1,100,100,200,1,122,71
960,340,580,190,450,640,2.3684,160,380,540,2.375,150,310,460,2.0667,130,190,320,1.4615,110,140,250,1.2727,100,110,210,1.1,122,71
950,380,720,200,730,930,3.65,170,390,560,2.2941,160,320,480,2,140,210,350,1.5,120,130,250,1.0833,110,110,220,1,123,71
960,230,660,250,550,800,2.2,200,420,620,2.1,180,360,540,2,150,240,390,1.6,130,150,280,1.1538,110,120,230,1.0909,123,71
960,300,600,320,440,760,1.375,180,310,490,1.7222,160,260,420,1.625,140,160,300,1.1429,120,120,240,1,100,110,210,1.1,122,71
960,360,610,200,530,730,2.65,170,390,560,2.2941,150,320,470,2.1333,130,190,320,1.4615,110,120,230,1.0909,100,110,210,1.1,121,71
960,350,630,260,640,900,2.4615,180,460,640,2.5556,170,380,550,2.2353,140,220,360,1.5714,110,140,250,1.2727,100,110,210,1.1,121,70
970,330,610,180,480,660,2.6667,160,350,510,2.1875,150,300,450,2,130,180,310,1.3846,110,130,240,1.1818,100,110,210,1.1,121,70
950,360,540,200,460,660,2.3,180,350,530,1.9444,170,290,460,1.7059,130,180,310,1.3846,120,120,240,1,100,100,200,1,122,71
940,410,760,190,470,660,2.4737,160,350,510,2.1875,150,300,450,2,140,200,340,1.4286,110,140,250,1.2727,100,110,210,1.1,122,71
970,180,620,200,450,650,2.25,200,330,530,1.65,200,260,460,1.3,140,180,320,1.2857,120,140,260,1.1667,100,110,210,1.1,120,70
960,350,590,190,600,790,3.1579,160,420,580,2.625,150,360,510,2.4,130,210,340,1.6154,100,130,230,1.3,90,110,200,1.2222,120,70
960,370,610,190,620,810,3.2632,160,620,780,3.875,150,520,670,3.4667,130,360,490,2.7692,110,230,340,2.0909,90,100,190,1.1111,120,70
700,350,540,200,440,640,2.2,170,320,490,1.8824,150,250,400,1.6667,140,150,290,1.0714,120,120,240,1,100,90,190,0.9,121,70
1220,160,830,170,690,860,4.0588,170,560,730,3.2941,170,540,710,3.1765,170,450,620,2.6471,170,390,560,2.2941,170,370,540,2.1765,121,70
950,390,740,200,480,680,2.4,170,350,520,2.0588,160,300,460,1.875,130,190,320,1.4615,120,130,250,1.0833,90,110,200,1.2222,121,70
960,210,590,230,450,680,1.9565,230,360,590,1.5652,190,290,480,1.5263,150,200,350,1.3333,120,140,260,1.1667,110,130,240,1.1818,120,70
970,370,610,180,530,710,2.9444,150,380,530,2.5333,140,310,450,2.2143,130,180,310,1.3846,100,130,230,1.3,90,110,200,1.2222,119,70
960,360,510,190,490,680,2.5789,170,360,530,2.1176,160,300,460,1.875,140,170,310,1.2143,110,120,230,1.0909,100,100,200,1,119,70
960,450,590,440,600,1040,1.3636,180,430,610,2.3889,170,360,530,2.1176,140,210,350,1.5,130,130,260,1,100,110,210,1.1,119,69
950,370,710,200,650,850,3.25,170,370,540,2.1765,160,300,460,1.875,130,170,300,1.3077,120,130,250,1.0833,100,100,200,1,119,69
960,240,540,190,490,680,2.5789,170,360,530,2.1176,160,310,470,1.9375,140,200,340,1.4286,120,140,260,1.1667,100,110,210,1.1,119,70
960,420,620,440,470,910,1.0682,220,380,600,1.7273,200,330,530,1.65,170,220,390,1.2941,140,150,290,1.0714,120,120,240,1,120,70
1690,340,1020,200,940,1140,4.7,170,440,610,2.5882,160,360,520,2.25,140,180,320,1.2857,120,130,250,1.0833,110,100,210,0.90909,119,70
1040,670,660,420,640,1060,1.5238,190,410,600,2.1579,170,320,490,1.8824,140,200,340,1.4286,120,140,260,1.1667,110,110,220,1,119,70
990,380,610,200,480,680,2.4,170,350,520,2.0588,160,290,450,1.8125,130,180,310,1.3846,120,130,250,1.0833,100,110,210,1.1,118,69
970,380,770,200,780,980,3.9,170,480,650,2.8235,170,440,610,2.5882,140,240,380,1.7143,120,130,250,1.0833,110,100,210,0.90909,119,70
950,200,760,210,470,680,2.2381,170,340,510,2,170,290,460,1.7059,140,190,330,1.3571,120,120,240,1,110,110,220,1,119,70
980,190,600,210,450,660,2.1429,210,350,560,1.6667,210,330,540,1.5714,140,200,340,1.4286,120,150,270,1.25,100,130,230,1.3,119,70
960,380,620,210,580,790,2.7619,170,400,570,2.3529,150,330,480,2.2,140,190,330,1.3571,110,120,230,1.0909,100,110,210,1.1,119,68
960,340,430,190,440,630,2.3158,170,340,510,2,150,280,430,1.8667,140,160,300,1.1429,110,120,230,1.0909,100,100,200,1,118,68
980,530,680,530,690,1220,1.3019,180,440,620,2.4444,160,360,520,2.25,140,220,360,1.5714,110,150,260,1.3636,100,120,220,1.2,119,68
950,300,600,200,550,750,2.75,170,380,550,2.2353,160,310,470,1.9375,140,190,330,1.3571,130,130,260,1,110,100,210,0.90909,119,68
950,350,610,200,450,650,2.25,180,330,510,1.8333,170,270,440,1.5882,150,170,320,1.1333,120,120,240,1,110,110,220,1,119,68
970,340,580,360,400,760,1.1111,190,300,490,1.5789,180,250,430,1.3889,150,160,310,1.0667,130,120,250,0.92308,110,110,220,1,119,68
940,390,580,230,590,820,2.5652,190,470,660,2.4737,170,400,570,2.3529,150,260,410,1.7333,120,140,260,1.1667,110,110,220,1,119,68
970,360,590,200,460,660,2.3,160,350,510,2.1875,150,290,440,1.9333,130,170,300,1.3077,110,130,240,1.1818,90,100,190,1.1111,118,68
960,380,590,210,450,660,2.1429,160,330,490,2.0625,150,270,420,1.8,140,160,300,1.1429,110,120,230,1.0909,100,100,200,1,117,68
940,370,550,200,560,760,2.8,170,400,570,2.3529,160,330,490,2.0625,140,180,320,1.2857,110,120,230,1.0909,110,110,220,1,117,68
960,390,550,180,420,600,2.3333,160,310,470,1.9375,150,250,400,1.6667,120,160,280,1.3333,110,110,220,1,90,90,180,1,118,68
960,410,630,430,450,880,1.0465,200,350,550,1.75,170,300,470,1.7647,150,210,360,1.4,120,140,260,1.1667,110,120,230,1.0909,118,68
960,330,580,190,590,780,3.1053,160,420,580,2.625,150,350,500,2.3333,130,190,320,1.4615,110,120,230,1.0909,90,100,190,1.1111,117,68
960,380,600,200,500,700,2.5,160,370,530,2.3125,150,310,460,2.0667,120,180,300,1.5,110,130,240,1.1818,90,100,190,1.1111,117,68
940,360,600,200,460,660,2.3,160,340,500,2.125,160,300,460,1.875,130,170,300,1.3077,120,110,230,0.91667,100,90,190,0.9,117,68
970,340,590,180,510,690,2.8333,150,370,520,2.4667,150,310,460,2.0667,120,190,310,1.5833,100,140,240,1.4,90,110,200,1.2222,117,68
960,380,540,200,430,630,2.15,170,370,540,2.1765,150,310,460,2.0667,140,190,330,1.3571,110,130,240,1.1818,110,100,210,0.90909,118,69
960,420,650,440,490,930,1.1136,200,390,590,1.95,180,340,520,1.8889,150,220,370,1.4667,130,140,270,1.0769,110,110,220,1,117,69
970,310,500,190,420,610,2.2105,150,300,450,2,150,240,390,1.6,130,160,290,1.2308,110,120,230,1.0909,90,110,200,1.2222,117,69
980,470,620,200,480,680,2.4,160,320,480,2,150,250,400,1.6667,130,160,290,1.2308,110,120,230,1.0909,100,100,200,1,117,68
970,360,590,200,520,720,2.6,180,380,560,2.1111,160,320,480,2,140,190,330,1.3571,120,120,240,1,100,110,210,1.1,117,68
970,380,620,210,530,740,2.5238,180,370,550,2.0556,160,310,470,1.9375,150,190,340,1.2667,120,140,260,1.1667,110,110,220,1,117,69
970,350,740,200,730,930,3.65,170,410,580,2.4118,160,340,500,2.125,140,210,350,1.5,130,140,270,1.0769,110,110,220,1,118,69
970,230,760,220,490,710,2.2273,190,340,530,1.7895,170,290,460,1.7059,150,180,330,1.2,130,130,260,1,120,100,220,0.83333,118,69
970,210,560,230,430,660,1.8696,190,310,500,1.6316,170,240,410,1.4118,140,160,300,1.1429,120,120,240,1,100,110,210,1.1,117,69
1950,410,1590,200,1600,1800,8,160,1210,1370,7.5625,160,1030,1190,6.4375,140,700,840,5,110,330,440,3,100,120,220,1.2,116,68
980,360,620,210,440,650,2.0952,170,320,490,1.8824,150,270,420,1.8,130,170,300,1.3077,110,120,230,1.0909,80,100,180,1.25,116,68
960,360,740,200,750,950,3.75,180,460,640,2.5556,160,380,540,2.375,140,240,380,1.7143,120,140,260,1.1667,110,120,230,1.0909,117,68
970,220,770,240,440,680,1.8333,180,310,490,1.7222,160,250,410,1.5625,140,150,290,1.0714,120,100,220,0.83333,110,90,200,0.81818,117,68
980,200,610,220,450,670,2.0455,210,320,530,1.5238,170,260,430,1.5294,150,170,320,1.1333,130,130,260,1,110,110,220,1,116,68
970,370,620,200,630,830,3.15,170,510,680,3,150,420,570,2.8,130,280,410,2.1538,110,120,230,1.0909,100,110,210,1.1,116,68
980,350,630,190,480,670,2.5263,170,360,530,2.1176,150,300,450,2,130,180,310,1.3846,110,130,240,1.1818,90,110,200,1.2222,116,67
970,350,730,210,450,660,2.1429,170,340,510,2,160,280,440,1.75,140,190,330,1.3571,110,130,240,1.1818,100,110,210,1.1,116,67
980,240,590,190,600,790,3.1579,160,400,560,2.5,160,340,500,2.125,140,190,330,1.3571,110,130,240,1.1818,110,110,220,1,116,68
960,390,550,220,410,630,1.8636,170,350,520,2.0588,170,280,450,1.6471,140,180,320,1.2857,120,130,250,1.0833,110,110,220,1,116,68
970,410,560,430,440,870,1.0233,210,310,520,1.4762,170,250,420,1.4706,130,170,300,1.3077,120,130,250,1.0833,100,120,220,1.2,117,68
980,410,470,190,480,670,2.5263,160,380,540,2.375,140,320,460,2.2857,130,180,310,1.3846,100,130,230,1.3,90,110,200,1.2222,116,68
970,510,620,200,570,770,2.85,160,400,560,2.5,160,330,490,2.0625,130,190,320,1.4615,110,140,250,1.2727,100,110,210,1.1,115,68
970,350,620,210,520,730,2.4762,170,380,550,2.2353,160,310,470,1.9375,140,180,320,1.2857,120,130,250,1.0833,100,100,200,1,115,67
970,350,580,190,560,750,2.9474,160,360,520,2.25,150,290,440,1.9333,130,170,300,1.3077,110,130,240,1.1818,100,110,210,1.1,114,67
970,390,750,190,480,670,2.5263,160,360,520,2.25,160,310,470,1.9375,140,190,330,1.3571,110,140,250,1.2727,100,110,210,1.1,115,67
980,220,620,240,460,700,1.9167,220,340,560,1.5455,190,300,490,1.5789,160,200,360,1.25,130,140,270,1.0769,120,120,240,1,115,67
960,360,600,210,480,690,2.2857,170,340,510,2,160,280,440,1.75,140,160,300,1.1429,110,120,230,1.0909,100,100,200,1,114,67
970,360,630,190,640,830,3.3684,170,470,640,2.7647,160,390,550,2.4375,140,230,370,1.6429,110,140,250,1.2727,100,120,220,1.2,114,67
980,340,610,190,470,660,2.4737,150,350,500,2.3333,150,290,440,1.9333,130,180,310,1.3846,110,130,240,1.1818,100,110,210,1.1,113,67
960,370,580,210,430,640,2.0476,180,300,480,1.6667,160,230,390,1.4375,130,150,280,1.1538,110,110,220,1,90,90,180,1,113,67
950,380,550,200,560,760,2.8,180,380,560,2.1111,170,320,490,1.8824,140,190,330,1.3571,120,130,250,1.0833,100,110,210,1.1,114,67
970,400,670,420,490,910,1.1667,210,380,590,1.8095,180,320,500,1.7778,150,200,350,1.3333,120,130,250,1.0833,120,100,220,0.83333,114,67
980,300,610,220,460,680,2.0909,180,330,510,1.8333,160,260,420,1.625,130,160,290,1.2308,120,120,240,1,100,100,200,1,113,67
960,370,610,200,620,820,3.1,170,550,720,3.2353,150,460,610,3.0667,140,290,430,2.0714,110,130,240,1.1818,100,110,210,1.1,113,67
980,350,600,200,530,730,2.65,160,390,550,2.4375,150,310,460,2.0667,130,190,320,1.4615,110,140,250,1.2727,90,110,200,1.2222,112,66
970,380,600,210,430,640,2.0476,170,300,470,1.7647,160,270,430,1.6875,140,170,310,1.2143,120,120,240,1,110,90,200,0.81818,113,66
960,370,550,200,560,760,2.8,180,390,570,2.1667,160,330,490,2.0625,140,200,340,1.4286,120,130,250,1.0833,100,110,210,1.1,113,67
980,410,780,430,530,960,1.2326,190,380,570,2,170,330,500,1.9412,140,200,340,1.4286,120,140,260,1.1667,100,120,220,1.2,113,67
980,200,600,220,440,660,2,200,320,520,1.6,170,260,430,1.5294,140,170,310,1.2143,120,130,250,1.0833,100,100,200,1,113,67
980,380,460,200,470,670,2.35,160,410,570,2.5625,150,340,490,2.2667,130,190,320,1.4615,110,140,250,1.2727,100,110,210,1.1,112,66
990,520,620,340,570,910,1.6765,170,400,570,2.3529,170,320,490,1.8824,140,180,320,1.2857,120,130,250,1.0833,110,100,210,0.90909,112,66
970,370,620,220,550,770,2.5,180,390,570,2.1667,170,320,490,1.8824,140,180,320,1.2857,120,120,240,1,110,100,210,0.90909,112,66
970,350,580,200,480,680,2.4,170,360,530,2.1176,170,300,470,1.7647,140,180,320,1.2857,120,130,250,1.0833,110,100,210,0.90909,113,66
970,390,760,210,660,870,3.1429,170,390,560,2.2941,170,320,490,1.8824,140,200,340,1.4286,120,140,260,1.1667,110,120,230,1.0909,113,66
970,210,610,230,440,670,1.913,230,320,550,1.3913,180,260,440,1.4444,150,170,320,1.1333,130,130,260,1,110,110,220,1,112,66
960,360,600,200,610,810,3.05,170,410,580,2.4118,160,340,500,2.125,130,180,310,1.3846,120,120,240,1,100,110,210,1.1,112,66
970,360,600,200,610,810,3.05,170,460,630,2.7059,150,370,520,2.4667,130,200,330,1.5385,110,150,260,1.3636,90,120,210,1.3333,111,66
980,370,620,200,470,670,2.35,170,350,520,2.0588,160,300,460,1.875,130,180,310,1.3846,110,130,240,1.1818,100,110,210,1.1,111,66
950,360,550,210,450,660,2.1429,180,340,520,1.8889,180,280,460,1.5556,150,170,320,1.1333,130,120,250,0.92308,120,100,220,0.83333,112,66
970,400,590,190,440,630,2.3158,170,330,500,1.9412,160,270,430,1.6875,130,180,310,1.3846,120,130,250,1.0833,100,110,210,1.1,112,66
980,380,420,400,390,790,0.975,400,280,680,0.7,190,220,410,1.1579,150,160,310,1.0667,130,120,250,0.92308,110,90,200,0.81818,111,66
980,560,610,540,460,1000,0.85185,540,340,880,0.62963,540,270,810,0.5,130,170,300,1.3077,110,120,230,1.0909,100,100,200,1,111,66
960,370,630,180,640,820,3.5556,160,640,800,4,150,480,630,3.2,130,320,450,2.4615,110,200,310,1.8182,100,120,220,1.2,111,66
990,330,600,190,480,670,2.5263,140,360,500,2.5714,140,290,430,2.0714,120,190,310,1.5833,100,140,240,1.4,90,110,200,1.2222,111,66
980,390,590,190,460,650,2.4211,170,330,500,1.9412,150,250,400,1.6667,130,190,320,1.4615,110,130,240,1.1818,100,110,210,1.1,112,66
980,390,590,200,480,680,2.4,170,350,520,2.0588,160,300,460,1.875,140,180,320,1.2857,120,130,250,1.0833,110,110,220,1,113,66
990,390,640,410,430,840,1.0488,410,330,740,0.80488,210,310,520,1.4762,160,200,360,1.25,130,150,280,1.1538,120,120,240,1,112,66
980,350,540,200,500,700,2.5,170,340,510,2,160,270,430,1.6875,130,160,290,1.2308,120,120,240,1,100,90,190,0.9,112,66
990,440,380,180,390,570,2.1667,150,360,510,2.4,150,290,440,1.9333,120,170,290,1.4167,110,120,230,1.0909,90,110,200,1.2222,112,66
1000,610,680,280,450,730,1.6071,160,350,510,2.1875,150,290,440,1.9333,130,190,320,1.4615,100,140,240,1.4,100,120,220,1.2,112,66
970,320,580,190,480,670,2.5263,170,400,570,2.3529,160,320,480,2,140,170,310,1.2143,120,130,250,1.0833,100,100,200,1,112,66
980,390,770,200,720,920,3.6,170,370,540,2.1765,160,300,460,1.875,140,180,320,1.2857,110,130,240,1.1818,100,110,210,1.1,112,66
990,210,540,230,450,680,1.9565,200,350,550,1.75,170,300,470,1.7647,140,190,330,1.3571,120,140,260,1.1667,110,120,230,1.0909,113,66
980,450,630,210,480,690,2.2857,170,350,520,2.0588,150,290,440,1.9333,130,170,300,1.3077,110,130,240,1.1818,100,100,200,1,112,66
990,350,620,220,540,760,2.4545,170,400,570,2.3529,160,330,490,2.0625,130,190,320,1.4615,110,130,240,1.1818,100,110,210,1.1,111,66
960,370,610,230,520,750,2.2609,180,380,560,2.1111,160,310,470,1.9375,140,180,320,1.2857,120,130,250,1.0833,110,100,210,0.90909,111,65
980,350,760,190,640,830,3.3684,170,370,540,2.1765,150,300,450,2,130,180,310,1.3846,110,130,240,1.1818,90,110,200,1.2222,110,65
970,220,560,190,440,630,2.3158,170,330,500,1.9412,160,270,430,1.6875,140,160,300,1.1429,120,110,230,0.91667,110,100,210,0.90909,111,65
960,410,630,430,470,900,1.093,200,380,580,1.9,180,330,510,1.8333,150,210,360,1.4,120,150,270,1.25,110,120,230,1.0909,111,65
970,330,580,200,450,650,2.25,160,320,480,2,150,260,410,1.7333,130,160,290,1.2308,110,120,230,1.0909,100,110,210,1.1,111,65
970,390,600,210,530,740,2.5238,160,380,540,2.375,160,320,480,2,130,180,310,1.3846,120,130,250,1.0833,100,100,200,1,110,65
960,370,610,190,530,720,2.7895,170,390,560,2.2941,160,320,480,2,130,190,320,1.4615,110,120,230,1.0909,90,100,190,1.1111,110,65
960,350,570,200,490,690,2.45,170,360,530,2.1176,160,290,450,1.8125,130,180,310,1.3846,120,120,240,1,100,100,200,1,110,65
980,390,570,200,480,680,2.4,170,340,510,2,150,280,430,1.8667,130,170,300,1.3077,110,120,230,1.0909,100,110,210,1.1,111,65
960,410,680,430,500,930,1.1628,190,370,560,1.9474,170,310,480,1.8235,150,190,340,1.2667,120,130,250,1.0833,110,100,210,0.90909,110,65
970,280,600,300,440,740,1.4667,250,310,560,1.24,170,250,420,1.4706,140,190,330,1.3571,110,140,250,1.2727,100,120,220,1.2,110,65
980,370,630,200,550,750,2.75,160,400,560,2.5,150,330,480,2.2,130,180,310,1.3846,100,140,240,1.4,90,110,200,1.2222,110,65
1000,350,660,190,670,860,3.5263,160,530,690,3.3125,140,440,580,3.1429,130,190,320,1.4615,100,130,230,1.3,90,110,200,1.2222,109,65
980,340,590,200,480,680,2.4,170,340,510,2,160,270,430,1.6875,140,160,300,1.1429,120,120,240,1,100,100,200,1,110,65
970,390,580,200,460,660,2.3,170,380,550,2.2353,160,330,490,2.0625,140,190,330,1.3571,120,130,250,1.0833,110,100,210,0.90909,110,65
960,390,590,200,440,640,2.2,180,310,490,1.7222,160,240,400,1.5,140,160,300,1.1429,120,120,240,1,100,100,200,1,111,65
1000,370,490,390,410,800,1.0513,170,280,450,1.6471,150,220,370,1.4667,130,170,300,1.3077,110,130,240,1.1818,90,120,210,1.3333,110,65
970,510,660,210,570,780,2.7143,170,430,600,2.5294,160,370,530,2.3125,130,220,350,1.6923,110,140,250,1.2727,100,120,220,1.2,110,65
990,310,560,190,480,670,2.5263,160,350,510,2.1875,140,280,420,2,130,170,300,1.3077,110,130,240,1.1818,100,110,210,1.1,109,65
980,430,610,210,490,700,2.3333,170,350,520,2.0588,160,290,450,1.8125,130,170,300,1.3077,120,130,250,1.0833,100,100,200,1,109,65
960,370,730,200,660,860,3.3,180,410,590,2.2778,160,340,500,2.125,140,210,350,1.5,120,140,260,1.1667,110,110,220,1,110,65
980,230,770,190,430,620,2.2632,170,330,500,1.9412,150,270,420,1.8,140,180,320,1.2857,120,130,250,1.0833,100,110,210,1.1,110,65
1000,210,600,230,450,680,1.9565,230,320,550,1.3913,180,250,430,1.3889,150,170,320,1.1333,130,130,260,1,110,110,220,1,110,65
980,400,600,250,610,860,2.44,190,490,680,2.5789,170,400,570,2.3529,150,220,370,1.4667,130,140,270,1.0769,110,110,220,1,110,65
980,380,610,190,550,740,2.8947,160,400,560,2.5,150,320,470,2.1333,130,190,320,1.4615,110,130,240,1.1818,100,110,210,1.1,109,64
980,370,610,210,470,680,2.2381,170,330,500,1.9412,160,260,420,1.625,130,160,290,1.2308,120,120,240,1,100,100,200,1,110,64
1940,370,1520,190,1530,1720,8.0526,170,790,960,4.6471,160,500,660,3.125,140,200,340,1.4286,120,140,260,1.1667,100,110,210,1.1,110,65
970,420,610,440,470,910,1.0682,440,320,760,0.72727,180,260,440,1.4444,150,180,330,1.2,130,130,260,1,120,110,230,0.91667,110,65
970,360,620,190,630,820,3.3158,160,470,630,2.9375,150,380,530,2.5333,130,200,330,1.5385,110,130,240,1.1818,100,110,210,1.1,109,64
980,350,640,190,500,690,2.6316,160,340,500,2.125,160,230,390,1.4375,130,160,290,1.2308,110,120,230,1.0909,100,110,210,1.1,109,64
970,340,590,210,470,680,2.2381,170,360,530,2.1176,150,310,460,2.0667,140,190,330,1.3571,110,130,240,1.1818,100,110,210,1.1,109,64
980,380,590,190,560,750,2.9474,170,380,550,2.2353,160,300,460,1.875,140,170,310,1.2143,120,120,240,1,110,100,210,0.90909,109,64
980,390,570,210,420,630,2,180,310,490,1.7222,170,270,440,1.5882,150,190,340,1.2667,120,130,250,1.0833,120,100,220,0.83333,110,64
980,410,640,430,470,900,1.093,430,360,790,0.83721,210,310,520,1.4762,170,210,380,1.2353,140,150,290,1.0714,100,120,220,1.2,109,64
1000,340,570,200,580,780,2.9,160,580,740,3.625,160,390,550,2.4375,130,170,300,1.3077,110,130,240,1.1818,100,110,210,1.1,109,64
970,430,620,210,590,800,2.8095,170,380,550,2.2353,170,320,490,1.8824,140,190,330,1.3571,120,130,250,1.0833,110,100,210,0.90909,108,64
960,350,600,200,480,680,2.4,170,400,570,2.3529,160,340,500,2.125,140,200,340,1.4286,120,130,250,1.0833,100,110,210,1.1,108,64
970,360,590,180,450,630,2.5,160,320,480,2,150,260,410,1.7333,130,170,300,1.3077,120,120,240,1,100,100,200,1,109,64
930,380,570,220,520,740,2.3636,180,380,560,2.1111,160,320,480,2,140,210,350,1.5,110,140,250,1.2727,100,120,220,1.2,110,64
990,360,670,380,500,880,1.3158,180,400,580,2.2222,160,350,510,2.1875,140,230,370,1.6429,120,160,280,1.3333,100,140,240,1.4,110,64
970,320,590,180,450,630,2.5,160,310,470,1.9375,150,250,400,1.6667,130,160,290,1.2308,110,120,230,1.0909,100,100,200,1,109,64
980,380,630,330,640,970,1.9394,180,430,610,2.3889,160,370,530,2.3125,140,210,350,1.5,110,150,260,1.3636,100,110,210,1.1,109,64
980,350,630,200,600,800,3,170,400,570,2.3529,150,330,480,2.2,130,200,330,1.5385,110,130,240,1.1818,90,110,200,1.2222,108,64
970,350,570,190,480,670,2.5263,170,340,510,2,150,270,420,1.8,130,160,290,1.2308,110,120,230,1.0909,100,100,200,1,108,64
970,400,730,200,740,940,3.7,160,400,560,2.5,160,340,500,2.125,130,230,360,1.7692,120,150,270,1.25,100,120,220,1.2,108,64
980,240,770,260,520,780,2,210,350,560,1.6667,190,290,480,1.5263,160,180,340,1.125,130,130,260,1,110,110,220,1,109,64
990,210,600,230,430,660,1.8696,180,300,480,1.6667,160,220,380,1.375,140,160,300,1.1429,110,130,240,1.1818,110,110,220,1,108,64
990,390,620,210,630,840,3,170,510,680,3,160,430,590,2.6875,130,250,380,1.9231,110,140,250,1.2727,100,120,220,1.2,108,64
970,370,620,220,500,720,2.2727,180,370,550,2.0556,170,290,460,1.7059,140,170,310,1.2143,130,130,260,1,110,100,210,0.90909,108,64
970,350,740,260,480,740,1.8462,180,360,540,2,170,300,470,1.7647,140,180,320,1.2857,120,130,250,1.0833,100,120,220,1.2,108,64
970,230,580,190,590,780,3.1053,160,440,600,2.75,150,360,510,2.4,130,200,330,1.5385,120,140,260,1.1667,100,110,210,1.1,109,64
970,390,770,200,450,650,2.25,170,330,500,1.9412,160,270,430,1.6875,140,170,310,1.2143,120,140,260,1.1667,110,110,220,1,109,64
980,200,570,220,440,660,2,220,330,550,1.5,180,250,430,1.3889,150,170,320,1.1333,120,130,250,1.0833,100,110,210,1.1,108,64
980,410,640,200,650,850,3.25,160,650,810,4.0625,150,510,660,3.4,130,300,430,2.3077,110,140,250,1.2727,100,110,210,1.1,108,64
980,340,600,200,520,720,2.6,170,390,560,2.2941,150,320,470,2.1333,140,190,330,1.3571,110,130,240,1.1818,100,110,210,1.1,108,64
980,380,690,270,480,750,1.7778,180,350,530,1.9444,160,330,490,2.0625,140,210,350,1.5,120,140,260,1.1667,110,110,220,1,108,64
970,290,580,200,590,790,2.95,180,440,620,2.4444,170,370,540,2.1765,140,210,350,1.5,130,130,260,1,110,110,220,1,109,64
960,390,760,220,440,660,2,180,370,550,2.0556,170,320,490,1.8824,150,200,350,1.3333,130,140,270,1.0769,110,120,230,1.0909,109,64
990,200,600,220,480,700,2.1818,220,340,560,1.5455,200,280,480,1.4,140,190,330,1.3571,120,140,260,1.1667,100,120,220,1.2,109,64
970,390,510,210,520,730,2.4762,170,430,600,2.5294,160,360,520,2.25,130,190,320,1.4615,120,130,250,1.0833,100,110,210,1.1,108,64
980,460,620,460,630,1090,1.3696,180,480,660,2.6667,170,400,570,2.3529,140,220,360,1.5714,120,140,260,1.1667,100,120,220,1.2,108,64
960,360,730,380,620,1000,1.6316,190,420,610,2.2105,170,350,520,2.0588,150,200,350,1.3333,130,130,260,1,110,100,210,0.90909,108,64
980,230,590,190,470,660,2.4737,170,360,530,2.1176,160,290,450,1.8125,130,180,310,1.3846,120,130,250,1.0833,100,100,200,1,109,64
960,390,750,210,760,970,3.619,180,440,620,2.4444,170,360,530,2.1176,140,230,370,1.6429,130,140,270,1.0769,110,120,230,1.0909,110,65
960,210,630,230,460,690,2,230,330,560,1.4348,190,280,470,1.4737,150,190,340,1.2667,130,140,270,1.0769,110,120,230,1.0909,109,65
980,330,630,180,530,710,2.9444,150,380,530,2.5333,140,310,450,2.2143,130,180,310,1.3846,100,130,230,1.3,90,110,200,1.2222,109,64
990,350,620,200,630,830,3.15,170,460,630,2.7059,150,380,530,2.5333,140,210,350,1.5,120,140,260,1.1667,110,120,230,1.0909,109,64
970,370,440,200,450,650,2.25,170,360,530,2.1176,160,280,440,1.75,140,170,310,1.2143,110,120,230,1.0909,110,110,220,1,109,64
950,530,560,420,440,860,1.0476,420,310,730,0.7381,420,250,670,0.59524,420,150,570,0.35714,420,110,530,0.2619,280,90,370,0.32143,110,65
980,390,570,190,440,630,2.3158,150,320,470,2.1333,150,270,420,1.8,130,180,310,1.3846,110,140,250,1.2727,100,110,210,1.1,110,65
970,410,610,430,460,890,1.0698,430,340,770,0.7907,430,290,720,0.67442,170,190,360,1.1176,130,130,260,1,110,110,220,1,109,65
970,360,640,190,540,730,2.8421,160,370,530,2.3125,150,290,440,1.9333,130,170,300,1.3077,100,120,220,1.2,100,110,210,1.1,109,65
970,330,620,190,630,820,3.3158,160,630,790,3.9375,150,630,780,4.2,130,390,520,3,110,150,260,1.3636,90,110,200,1.2222,109,64
980,350,650,190,500,690,2.6316,160,370,530,2.3125,150,300,450,2,130,180,310,1.3846,110,130,240,1.1818,90,110,200,1.2222,108,64
960,330,590,350,430,780,1.2286,180,310,490,1.7222,170,290,460,1.7059,150,180,330,1.2,130,120,250,0.92308,110,100,210,0.90909,109,64
960,370,560,200,570,770,2.85,170,440,610,2.5882,160,360,520,2.25,140,200,340,1.4286,110,140,250,1.2727,110,120,230,1.0909,109,65
980,400,680,420,510,930,1.2143,420,430,850,1.0238,180,380,560,2.1111,150,270,420,1.8,120,170,290,1.4167,110,140,250,1.2727,109,65
990,300,610,200,470,670,2.35,160,340,500,2.125,150,270,420,1.8,130,170,300,1.3077,110,140,250,1.2727,90,110,200,1.2222,108,64
970,380,490,200,500,700,2.5,160,400,560,2.5,150,310,460,2.0667,130,180,310,1.3846,120,120,240,1,100,90,190,0.9,108,64
970,480,710,220,540,760,2.4545,170,380,550,2.2353,160,310,470,1.9375,130,180,310,1.3846,120,140,260,1.1667,100,100,200,1,108,64
970,260,750,210,530,740,2.5238,180,370,550,2.0556,160,300,460,1.875,140,190,330,1.3571,120,130,250,1.0833,100,110,210,1.1,108,64
970,220,590,180,600,780,3.3333,160,370,530,2.3125,150,290,440,1.9333,140,170,310,1.2143,110,120,230,1.0909,100,110,210,1.1,109,64
970,380,740,230,510,740,2.2174,180,390,570,2.1667,170,330,500,1.9412,150,210,360,1.4,120,140,260,1.1667,110,110,220,1,109,64
970,230,530,200,380,580,1.9,160,260,420,1.625,160,200,360,1.25,130,150,280,1.1538,120,120,240,1,100,100,200,1,108,64
970,440,600,200,470,670,2.35,170,350,520,2.0588,150,290,440,1.9333,140,180,320,1.2857,110,130,240,1.1818,90,110,200,1.2222,108,64
970,370,690,190,500,690,2.6316,160,380,540,2.375,150,320,470,2.1333,130,180,310,1.3846,110,130,240,1.1818,100,110,210,1.1,107,64
930,280,590,190,580,770,3.0526,160,370,530,2.3125,150,300,450,2,130,170,300,1.3077,120,120,240,1,100,100,200,1,107,63
990,340,590,160,550,710,3.4375,130,410,540,3.1538,120,330,450,2.75,110,200,310,1.8182,80,150,230,1.875,80,130,210,1.625,107,64
950,400,750,190,450,640,2.3684,170,330,500,1.9412,150,280,430,1.8667,140,180,320,1.2857,110,130,240,1.1818,110,100,210,0.90909,108,64
980,200,680,220,480,700,2.1818,220,350,570,1.5909,220,280,500,1.2727,160,170,330,1.0625,130,130,260,1,110,120,230,1.0909,107,64
970,300,590,170,530,700,3.1176,150,390,540,2.6,140,320,460,2.2857,120,170,290,1.4167,100,120,220,1.2,90,100,190,1.1111,107,64
970,380,620,190,630,820,3.3158,170,630,800,3.7059,150,630,780,4.2,140,380,520,2.7143,110,130,240,1.1818,100,100,200,1,107,63
970,350,630,190,470,660,2.4737,170,350,520,2.0588,160,290,450,1.8125,140,170,310,1.2143,110,120,230,1.0909,110,110,220,1,107,63
