cp,st,dt,sw10,dw10,sw10+dw10,dw10/sw10,sw25,dw25,sw25+dw25,dw25/sw25,sw33,dw33,sw33+dw33,dw33/sw33,sw50,dw50,sw50+dw50,dw50/sw50,sw66,dw66,sw66+dw66,dw66/sw66,sw75,dw75,sw75+dw75,dw75/sw75,sys,dia,
920,460,690,460,700,1160,1.5217,170,430,600,2.5294,160,350,510,2.1875,140,200,340,1.4286,110,130,240,1.1818,100,110,210,1.1,133,76
910,230,700,180,500,680,2.7778,160,330,490,2.0625,150,280,430,1.8667,130,160,290,1.2308,120,120,240,1,100,90,190,0.9,133,76
900,210,690,190,480,670,2.5263,160,340,500,2.125,160,290,450,1.8125,140,170,310,1.2143,120,120,240,1,110,100,210,0.90909,133,76
900,210,690,230,500,730,2.1739,180,390,570,2.1667,170,330,500,1.9412,140,210,350,1.5,120,140,260,1.1667,100,110,210,1.1,133,77
900,210,660,230,390,620,1.6957,170,270,440,1.5882,160,210,370,1.3125,130,140,270,1.0769,120,100,220,0.83333,100,70,170,0.7,133,76
920,240,650,170,490,660,2.8824,140,360,500,2.5714,140,290,430,2.0714,120,160,280,1.3333,100,120,220,1.2,90,100,190,1.1111,133,76
900,270,670,180,680,860,3.7778,170,420,590,2.4706,150,360,510,2.4,140,150,290,1.0714,110,110,220,1,100,90,190,0.9,133,76
920,230,660,180,460,640,2.5556,160,330,490,2.0625,150,280,430,1.8667,130,170,300,1.3077,110,120,230,1.0909,100,100,200,1,133,76
910,260,680,200,470,670,2.35,170,350,520,2.0588,160,290,450,1.8125,140,180,320,1.2857,120,120,240,1,110,90,200,0.81818,132,76
900,230,630,190,470,660,2.4737,170,330,500,1.9412,160,280,440,1.75,120,170,290,1.4167,120,120,240,1,110,100,210,0.90909,133,76
910,270,690,290,440,730,1.5172,200,320,520,1.6,170,280,450,1.6471,150,180,330,1.2,130,120,250,0.92308,120,110,230,0.91667,133,76
900,220,610,200,550,750,2.75,160,360,520,2.25,160,300,460,1.875,140,170,310,1.2143,120,110,230,0.91667,110,100,210,0.90909,133,76
960,290,610,180,470,650,2.6111,150,350,500,2.3333,150,280,430,1.8667,120,160,280,1.3333,100,120,220,1.2,90,100,190,1.1111,132,76
1640,350,1000,220,820,1040,3.7273,190,510,700,2.6842,190,370,560,1.9474,170,160,330,0.94118,140,90,230,0.64286,120,70,190,0.58333,132,76
990,640,760,260,490,750,1.8846,170,400,570,2.3529,160,350,510,2.1875,140,210,350,1.5,120,140,260,1.1667,110,120,230,1.0909,132,76
1850,230,1440,250,1320,1570,5.28,190,890,1080,4.6842,180,710,890,3.9444,150,470,620,3.1333,130,310,440,2.3846,110,230,340,2.0909,133,76
920,410,660,180,550,730,3.0556,150,380,530,2.5333,150,320,470,2.1333,120,170,290,1.4167,100,120,220,1.2,90,120,210,1.3333,133,76
1650,260,1050,180,940,1120,5.2222,150,490,640,3.2667,140,320,460,2.2857,120,170,290,1.4167,110,120,230,1.0909,100,100,200,1,133,76
990,600,650,270,660,930,2.4444,150,430,580,2.8667,150,350,500,2.3333,120,220,340,1.8333,100,150,250,1.5,90,120,210,1.3333,132,76
900,340,680,180,390,570,2.1667,160,240,400,1.5,150,170,320,1.1333,140,150,290,1.0714,110,140,250,1.2727,100,120,220,1.2,133,75
900,220,340,240,340,580,1.4167,180,340,520,1.8889,170,340,510,2,140,220,360,1.5714,120,140,260,1.1667,110,120,230,1.0909,133,75
890,560,600,580,430,1010,0.74138,470,370,840,0.78723,470,300,770,0.6383,470,170,640,0.3617,470,120,590,0.25532,110,100,210,0.90909,132,75
900,290,670,180,470,650,2.6111,150,340,490,2.2667,150,270,420,1.8,120,150,270,1.25,110,110,220,1,90,100,190,1.1111,132,75
900,230,610,180,450,630,2.5,160,330,490,2.0625,150,270,420,1.8,130,160,290,1.2308,110,110,220,1,100,90,190,0.9,132,75
920,290,660,200,670,870,3.35,160,380,540,2.375,150,310,460,2.0667,140,190,330,1.3571,110,130,240,1.1818,100,100,200,1,131,75
860,260,660,180,670,850,3.7222,160,380,540,2.375,150,310,460,2.0667,130,180,310,1.3846,110,130,240,1.1818,100,110,210,1.1,130,73
970,200,760,160,430,590,2.6875,130,320,450,2.4615,120,250,370,2.0833,100,180,280,1.8,80,140,220,1.75,70,120,190,1.7143,131,74
920,210,640,230,440,670,1.913,190,320,510,1.6842,180,280,460,1.5556,140,180,320,1.2857,120,130,250,1.0833,100,120,220,1.2,131,74
910,280,620,180,630,810,3.5,150,380,530,2.5333,140,310,450,2.2143,130,160,290,1.2308,100,120,220,1.2,100,90,190,0.9,130,74
900,290,560,180,470,650,2.6111,160,340,500,2.125,150,280,430,1.8667,140,160,300,1.1429,110,110,220,1,100,90,190,0.9,130,74
910,340,680,180,470,650,2.6111,160,340,500,2.125,150,270,420,1.8,120,160,280,1.3333,110,120,230,1.0909,90,100,190,1.1111,130,74
1660,230,970,180,820,1000,4.5556,160,410,570,2.5625,150,290,440,1.9333,130,160,290,1.2308,110,120,230,1.0909,100,100,200,1,130,74
980,690,780,210,510,720,2.4286,170,360,530,2.1176,160,300,460,1.875,130,190,320,1.4615,110,140,250,1.2727,100,120,220,1.2,130,74
930,200,620,220,440,660,2,190,320,510,1.6842,170,270,440,1.5882,140,180,320,1.2857,120,130,250,1.0833,100,120,220,1.2,131,75
920,310,630,180,640,820,3.5556,150,350,500,2.3333,140,260,400,1.8571,120,120,240,1,110,70,180,0.63636,90,60,150,0.66667,130,75
910,290,670,180,460,640,2.5556,150,340,490,2.2667,150,270,420,1.8,130,160,290,1.2308,120,110,230,0.91667,100,100,200,1,130,75
920,240,690,180,470,650,2.6111,150,380,530,2.5333,140,340,480,2.4286,120,180,300,1.5,110,130,240,1.1818,90,110,200,1.2222,130,75
910,230,670,190,630,820,3.3158,160,360,520,2.25,150,300,450,2,130,200,330,1.5385,100,120,220,1.2,100,110,210,1.1,130,75
910,240,670,190,470,660,2.4737,170,340,510,2,160,280,440,1.75,130,170,300,1.3077,110,130,240,1.1818,100,100,200,1,130,74
900,240,690,260,460,720,1.7692,190,350,540,1.8421,170,300,470,1.7647,150,190,340,1.2667,120,130,250,1.0833,120,110,230,0.91667,131,74
910,210,640,190,410,600,2.1579,160,300,460,1.875,150,230,380,1.5333,130,150,280,1.1538,110,110,220,1,100,90,190,0.9,130,74
900,270,630,200,640,840,3.2,170,370,540,2.1765,160,310,470,1.9375,130,160,290,1.2308,120,110,230,0.91667,100,90,190,0.9,129,74
950,270,630,190,450,640,2.3684,160,320,480,2,150,270,420,1.8,130,150,280,1.1538,110,110,220,1,100,100,200,1,129,74
860,320,580,230,400,630,1.7391,200,290,490,1.45,190,240,430,1.2632,180,140,320,0.77778,140,90,230,0.64286,140,70,210,0.5,129,74
920,280,690,180,700,880,3.8889,160,380,540,2.375,150,310,460,2.0667,130,180,310,1.3846,110,130,240,1.1818,100,110,210,1.1,130,74
890,230,690,200,390,590,1.95,170,280,450,1.6471,160,260,420,1.625,140,170,310,1.2143,120,120,240,1,110,90,200,0.81818,131,75
910,200,700,220,450,670,2.0455,190,330,520,1.7368,170,280,450,1.6471,140,170,310,1.2143,120,130,250,1.0833,100,120,220,1.2,131,75
900,210,490,170,450,620,2.6471,150,330,480,2.2,140,260,400,1.8571,120,140,260,1.1667,100,110,210,1.1,90,90,180,1,130,75
920,410,590,200,600,800,3,160,410,570,2.5625,150,340,490,2.2667,130,190,320,1.4615,110,120,230,1.0909,100,110,210,1.1,130,75
910,330,660,190,440,630,2.3158,160,320,480,2,150,260,410,1.7333,130,150,280,1.1538,110,120,230,1.0909,100,100,200,1,130,75
920,250,650,170,440,610,2.5882,150,330,480,2.2,140,260,400,1.8571,130,160,290,1.2308,110,120,230,1.0909,90,100,190,1.1111,130,75
910,270,630,190,490,680,2.5789,170,350,520,2.0588,160,290,450,1.8125,130,170,300,1.3077,120,120,240,1,100,100,200,1,131,75
910,280,700,300,460,760,1.5333,190,320,510,1.6842,170,260,430,1.5294,150,140,290,0.93333,120,100,220,0.83333,120,80,200,0.66667,131,76
910,210,680,230,430,660,1.8696,180,310,490,1.7222,160,260,420,1.625,140,160,300,1.1429,120,120,240,1,110,110,220,1,131,76
920,230,660,180,670,850,3.7222,150,640,790,4.2667,150,440,590,2.9333,120,160,280,1.3333,100,120,220,1.2,90,100,190,1.1111,131,76
920,260,670,180,460,640,2.5556,150,330,480,2.2,140,280,420,2,130,160,290,1.2308,110,120,230,1.0909,100,100,200,1,130,75
920,250,670,190,480,670,2.5263,170,340,510,2,150,280,430,1.8667,140,160,300,1.1429,110,120,230,1.0909,100,100,200,1,130,75
920,250,680,190,690,880,3.6316,170,360,530,2.1176,150,300,450,2,140,160,300,1.1429,120,110,230,0.91667,100,100,200,1,129,75
900,240,710,200,450,650,2.25,180,320,500,1.7778,160,270,430,1.6875,150,160,310,1.0667,130,110,240,0.84615,110,100,210,0.90909,130,75
910,190,700,210,460,670,2.1905,190,350,540,1.8421,170,290,460,1.7059,140,190,330,1.3571,130,140,270,1.0769,110,120,230,1.0909,130,75
940,210,650,170,430,600,2.5294,160,310,470,1.9375,140,260,400,1.8571,120,150,270,1.25,110,120,230,1.0909,90,100,190,1.1111,130,75
890,290,640,200,650,850,3.25,170,380,550,2.2353,170,310,480,1.8235,150,160,310,1.0667,130,100,230,0.76923,120,80,200,0.66667,130,75
910,250,640,180,450,630,2.5,150,330,480,2.2,140,270,410,1.9286,130,160,290,1.2308,100,120,220,1.2,100,100,200,1,130,75
850,270,650,170,440,610,2.5882,150,330,480,2.2,140,290,430,2.0714,130,160,290,1.2308,100,130,230,1.3,90,100,190,1.1111,130,75
990,200,760,120,770,890,6.4167,100,470,570,4.7,90,80,170,0.88889,70,30,100,0.42857,60,30,90,0.5,50,30,80,0.6,131,75
890,230,690,220,460,680,2.0909,170,360,530,2.1176,170,290,460,1.7059,150,170,320,1.1333,130,120,250,0.92308,110,100,210,0.90909,131,75
910,200,610,220,430,650,1.9545,180,320,500,1.7778,160,260,420,1.625,140,170,310,1.2143,120,130,250,1.0833,100,110,210,1.1,131,76
900,300,580,170,490,660,2.8824,150,350,500,2.3333,140,290,430,2.0714,130,170,300,1.3077,100,120,220,1.2,90,90,180,1,131,76
920,320,690,210,700,910,3.3333,160,430,590,2.6875,150,360,510,2.4,130,190,320,1.4615,110,130,240,1.1818,90,100,190,1.1111,131,76
910,230,680,180,450,630,2.5,160,330,490,2.0625,150,270,420,1.8,130,160,290,1.2308,120,110,230,0.91667,100,100,200,1,131,75
910,230,680,190,430,620,2.2632,160,320,480,2,150,250,400,1.6667,130,150,280,1.1538,110,110,220,1,100,90,190,0.9,131,75
900,230,680,190,470,660,2.4737,170,330,500,1.9412,160,280,440,1.75,140,170,310,1.2143,120,120,240,1,100,100,200,1,131,76
910,220,700,240,470,710,1.9583,240,350,590,1.4583,190,290,480,1.5263,160,240,400,1.5,130,140,270,1.0769,120,120,240,1,132,76
910,210,630,180,420,600,2.3333,160,310,470,1.9375,140,240,380,1.7143,130,160,290,1.2308,110,120,230,1.0909,100,100,200,1,131,76
910,280,470,180,480,660,2.6667,160,350,510,2.1875,140,290,430,2.0714,130,170,300,1.3077,110,120,230,1.0909,90,90,180,1,131,76
910,440,690,430,700,1130,1.6279,170,420,590,2.4706,160,360,520,2.25,140,200,340,1.4286,130,120,250,0.92308,110,100,210,0.90909,130,76
910,220,720,180,440,620,2.4444,150,320,470,2.1333,150,260,410,1.7333,130,150,280,1.1538,110,110,220,1,100,100,200,1,130,75
900,190,690,180,540,720,3,150,350,500,2.3333,140,290,430,2.0714,130,170,300,1.3077,110,120,230,1.0909,100,100,200,1,130,75
900,210,700,180,460,640,2.5556,160,330,490,2.0625,150,270,420,1.8,130,170,300,1.3077,110,130,240,1.1818,90,110,200,1.2222,132,76
910,200,670,220,440,660,2,220,310,530,1.4091,180,250,430,1.3889,150,160,310,1.0667,120,110,230,0.91667,100,90,190,0.9,132,76
920,240,650,170,460,630,2.7059,140,340,480,2.4286,130,280,410,2.1538,120,170,290,1.4167,100,130,230,1.3,90,100,190,1.1111,131,76
910,270,650,180,660,840,3.6667,160,460,620,2.875,150,390,540,2.6,130,150,280,1.1538,110,110,220,1,100,90,190,0.9,131,76
910,260,660,190,450,640,2.3684,170,330,500,1.9412,150,260,410,1.7333,130,150,280,1.1538,120,110,230,0.91667,100,90,190,0.9,131,76
920,250,630,190,480,670,2.5263,160,340,500,2.125,150,270,420,1.8,130,160,290,1.2308,110,120,230,1.0909,100,100,200,1,131,76
910,290,680,190,690,880,3.6316,170,360,530,2.1176,160,310,470,1.9375,140,180,320,1.2857,120,120,240,1,110,100,210,0.90909,132,76
900,230,720,250,510,760,2.04,180,370,550,2.0556,170,320,490,1.8824,150,190,340,1.2667,130,120,250,0.92308,120,100,220,0.83333,132,77
900,180,610,200,420,620,2.1,180,310,490,1.7222,170,250,420,1.4706,140,160,300,1.1429,120,120,240,1,110,100,210,0.90909,132,77
980,290,600,170,500,670,2.9412,140,360,500,2.5714,140,280,420,2,120,160,280,1.3333,100,120,220,1.2,90,100,190,1.1111,131,76
1620,380,1010,240,1020,1260,4.25,210,820,1030,3.9048,200,620,820,3.1,190,240,430,1.2632,160,100,260,0.625,150,70,220,0.46667,131,76
980,610,760,270,490,760,1.8148,150,400,550,2.6667,140,350,490,2.5,120,180,300,1.5,100,140,240,1.4,90,120,210,1.3333,131,76
950,220,730,180,480,660,2.6667,160,350,510,2.1875,150,300,450,2,130,180,310,1.3846,110,140,250,1.2727,90,120,210,1.3333,132,76
930,220,710,240,520,760,2.1667,220,390,610,1.7727,190,320,510,1.6842,150,210,360,1.4,130,140,270,1.0769,120,110,230,0.91667,132,76
1680,220,1020,190,740,930,3.8947,160,370,530,2.3125,150,290,440,1.9333,130,160,290,1.2308,110,110,220,1,100,90,190,0.9,131,76
960,660,710,310,720,1030,2.3226,170,460,630,2.7059,170,370,540,2.1765,140,220,360,1.5714,120,140,260,1.1667,110,110,220,1,130,76
930,250,650,190,420,610,2.2105,170,320,490,1.8824,160,260,420,1.625,130,160,290,1.2308,120,120,240,1,100,90,190,0.9,130,74
920,280,690,200,400,600,2,170,290,460,1.7059,160,230,390,1.4375,140,140,280,1,120,110,230,0.91667,110,90,200,0.81818,130,74
900,230,690,190,450,640,2.3684,170,330,500,1.9412,160,280,440,1.75,140,170,310,1.2143,120,120,240,1,90,100,190,1.1111,130,74
910,210,670,230,450,680,1.9565,230,340,570,1.4783,230,330,560,1.4348,160,220,380,1.375,130,140,270,1.0769,110,120,230,1.0909,131,74
920,240,570,170,480,650,2.8235,150,350,500,2.3333,140,280,420,2,120,160,280,1.3333,100,120,220,1.2,90,100,190,1.1111,131,74
910,350,530,190,450,640,2.3684,160,330,490,2.0625,150,270,420,1.8,130,150,280,1.1538,110,110,220,1,100,90,190,0.9,130,74
910,380,690,380,700,1080,1.8421,190,490,680,2.5789,170,400,570,2.3529,140,240,380,1.7143,120,140,260,1.1667,110,110,220,1,129,73
920,220,640,180,470,650,2.6111,160,320,480,2,150,260,410,1.7333,130,160,290,1.2308,110,120,230,1.0909,100,100,200,1,129,73
910,280,690,200,420,620,2.1,170,300,470,1.7647,160,250,410,1.5625,130,150,280,1.1538,120,110,230,0.91667,110,100,210,0.90909,130,73
900,220,690,240,470,710,1.9583,190,360,550,1.8947,170,310,480,1.8235,150,180,330,1.2,130,120,250,0.92308,110,100,210,0.90909,130,74
910,210,580,190,400,590,2.1053,160,280,440,1.75,150,210,360,1.4,130,140,270,1.0769,110,100,210,0.90909,90,90,180,1,129,74
900,330,690,170,490,660,2.8824,160,340,500,2.125,140,280,420,2,120,160,280,1.3333,100,110,210,1.1,90,100,190,1.1111,129,74
930,210,460,170,470,640,2.7647,150,440,590,2.9333,140,320,460,2.2857,120,160,280,1.3333,100,120,220,1.2,90,110,200,1.2222,128,74
910,470,650,470,430,900,0.91489,470,310,780,0.65957,470,260,730,0.55319,470,150,620,0.31915,350,110,460,0.31429,350,100,450,0.28571,128,74
920,260,700,190,540,730,2.8421,160,380,540,2.375,140,310,450,2.2143,130,180,310,1.3846,110,120,230,1.0909,100,110,210,1.1,128,74
910,220,690,190,450,640,2.3684,170,310,480,1.8235,160,270,430,1.6875,140,160,300,1.1429,120,120,240,1,100,100,200,1,129,74
920,220,690,240,440,680,1.8333,200,320,520,1.6,170,280,450,1.6471,140,180,320,1.2857,120,130,250,1.0833,110,120,230,1.0909,129,74
900,230,600,180,590,770,3.2778,170,360,530,2.1176,150,290,440,1.9333,130,160,290,1.2308,110,120,230,1.0909,100,90,190,0.9,129,75
930,300,700,170,470,640,2.7647,150,350,500,2.3333,140,280,420,2,120,160,280,1.3333,100,120,220,1.2,80,110,190,1.375,129,74
920,230,650,180,450,630,2.5,160,340,500,2.125,150,300,450,2,130,180,310,1.3846,110,130,240,1.1818,100,110,210,1.1,129,74
910,270,620,190,450,640,2.3684,160,310,470,1.9375,160,260,420,1.625,140,140,280,1,120,110,230,0.91667,110,90,200,0.81818,129,74
920,290,690,190,420,610,2.2105,160,300,460,1.875,160,280,440,1.75,140,170,310,1.2143,110,120,230,1.0909,110,110,220,1,130,75
900,230,700,210,470,680,2.2381,180,340,520,1.8889,170,290,460,1.7059,150,170,320,1.1333,130,120,250,0.92308,110,100,210,0.90909,130,75
920,200,490,220,400,620,1.8182,170,290,460,1.7059,160,240,400,1.5,130,170,300,1.3077,110,130,240,1.1818,100,100,200,1,130,76
910,430,670,190,680,870,3.5789,160,370,530,2.3125,150,310,460,2.0667,140,160,300,1.1429,110,120,230,1.0909,90,90,180,1,130,75
920,240,670,180,460,640,2.5556,160,330,490,2.0625,150,270,420,1.8,120,150,270,1.25,110,120,230,1.0909,80,100,180,1.25,130,75
920,250,700,190,500,690,2.6316,160,340,500,2.125,150,290,440,1.9333,130,160,290,1.2308,110,120,230,1.0909,100,100,200,1,130,75
910,220,620,190,590,780,3.1053,170,340,510,2,160,280,440,1.75,140,160,300,1.1429,120,110,230,0.91667,110,100,210,0.90909,130,75
910,290,670,200,390,590,1.95,170,240,410,1.4118,160,190,350,1.1875,140,120,260,0.85714,120,80,200,0.66667,110,50,160,0.45455,131,76
900,240,690,260,450,710,1.7308,190,340,530,1.7895,180,280,460,1.5556,150,180,330,1.2,130,130,260,1,120,110,230,0.91667,131,76
1680,210,1090,170,780,950,4.5882,160,440,600,2.75,140,280,420,2,120,150,270,1.25,110,110,220,1,90,100,190,1.1111,130,76
990,590,610,270,610,880,2.2593,160,400,560,2.5,160,330,490,2.0625,130,190,320,1.4615,110,130,240,1.1818,100,110,210,1.1,130,75
930,380,580,190,460,650,2.4211,170,330,500,1.9412,150,270,420,1.8,140,160,300,1.1429,110,110,220,1,110,100,210,0.90909,129,75
930,350,690,190,700,890,3.6842,170,370,540,2.1765,160,300,460,1.875,130,170,300,1.3077,120,130,250,1.0833,100,100,200,1,130,75
920,240,710,210,440,650,2.0952,170,320,490,1.8824,170,270,440,1.5882,140,170,310,1.2143,120,120,240,1,110,100,210,0.90909,131,76
900,210,640,230,430,660,1.8696,200,310,510,1.55,180,260,440,1.4444,150,160,310,1.0667,130,130,260,1,120,100,220,0.83333,131,76
910,260,640,180,650,830,3.6111,150,420,570,2.8,150,340,490,2.2667,120,190,310,1.5833,110,120,230,1.0909,100,100,200,1,131,76
920,270,700,180,470,650,2.6111,150,340,490,2.2667,140,280,420,2,130,160,290,1.2308,100,120,220,1.2,100,100,200,1,130,74
910,220,680,180,440,620,2.4444,160,330,490,2.0625,150,270,420,1.8,140,160,300,1.1429,110,110,220,1,100,90,190,0.9,130,74
900,230,680,180,510,690,2.8333,170,330,500,1.9412,160,270,430,1.6875,130,160,290,1.2308,120,110,230,0.91667,100,90,190,0.9,130,74
900,220,690,190,480,670,2.5263,160,340,500,2.125,150,280,430,1.8667,130,170,300,1.3077,110,130,240,1.1818,100,100,200,1,131,74
910,210,700,230,490,720,2.1304,170,370,540,2.1765,160,330,490,2.0625,140,210,350,1.5,110,150,260,1.3636,100,130,230,1.3,131,75
910,210,580,190,420,610,2.2105,160,300,460,1.875,150,250,400,1.6667,130,160,290,1.2308,100,120,220,1.2,90,100,190,1.1111,130,75
920,330,570,180,580,760,3.2222,160,420,580,2.625,150,340,490,2.2667,130,180,310,1.3846,110,120,230,1.0909,100,110,210,1.1,130,75
910,350,640,190,440,630,2.3158,160,310,470,1.9375,150,270,420,1.8,130,150,280,1.1538,120,110,230,0.91667,100,90,190,0.9,130,75
920,270,620,180,430,610,2.3889,170,330,500,1.9412,150,280,430,1.8667,140,180,320,1.2857,120,130,250,1.0833,100,110,210,1.1,130,75
900,300,680,190,690,880,3.6316,170,360,530,2.1176,160,290,450,1.8125,140,160,300,1.1429,120,120,240,1,100,90,190,0.9,130,75
900,220,690,190,390,580,2.0526,160,300,460,1.875,160,270,430,1.6875,130,170,300,1.3077,120,130,250,1.0833,100,100,200,1,130,75
920,210,700,230,450,680,1.9565,180,340,520,1.8889,160,280,440,1.75,140,190,330,1.3571,110,150,260,1.3636,100,120,220,1.2,131,76
910,220,500,180,460,640,2.5556,150,330,480,2.2,140,270,410,1.9286,120,160,280,1.3333,100,120,220,1.2,90,100,190,1.1111,131,76
920,410,710,210,720,930,3.4286,160,390,550,2.4375,150,320,470,2.1333,130,190,320,1.4615,100,130,230,1.3,90,110,200,1.2222,131,76
920,210,690,170,440,610,2.5882,150,330,480,2.2,140,270,410,1.9286,130,160,290,1.2308,110,120,230,1.0909,90,100,190,1.1111,130,76
910,230,620,170,420,590,2.4706,160,310,470,1.9375,150,250,400,1.6667,130,150,280,1.1538,110,110,220,1,100,90,190,0.9,130,76
930,290,690,180,460,640,2.5556,160,340,500,2.125,150,290,440,1.9333,130,180,310,1.3846,110,130,240,1.1818,100,110,210,1.1,131,76
910,240,690,260,460,720,1.7692,190,320,510,1.6842,180,250,430,1.3889,160,150,310,0.9375,130,100,230,0.76923,110,80,190,0.72727,131,76
1830,220,650,240,420,660,1.75,170,310,480,1.8235,170,250,420,1.4706,140,160,300,1.1429,120,120,240,1,100,100,200,1,131,76
910,1180,620,1100,630,1730,0.57273,770,510,1280,0.66234,650,390,1040,0.6,150,230,380,1.5333,120,130,250,1.0833,110,100,210,0.90909,131,76
920,290,630,190,480,670,2.5263,160,360,520,2.25,150,290,440,1.9333,130,170,300,1.3077,110,120,230,1.0909,100,100,200,1,130,76
910,290,690,180,700,880,3.8889,160,360,520,2.25,150,290,440,1.9333,140,170,310,1.2143,110,120,230,1.0909,110,100,210,0.90909,130,76
930,220,710,170,490,660,2.8824,160,350,510,2.1875,150,290,440,1.9333,130,180,310,1.3846,100,130,230,1.3,90,130,220,1.4444,131,76
910,220,700,240,430,670,1.7917,190,320,510,1.6842,180,270,450,1.5,150,170,320,1.1333,130,120,250,0.92308,110,110,220,1,131,76
920,210,640,180,420,600,2.3333,160,310,470,1.9375,150,250,400,1.6667,130,150,280,1.1538,110,110,220,1,100,90,190,0.9,131,76
910,280,540,190,500,690,2.6316,170,370,540,2.1765,150,290,440,1.9333,130,160,290,1.2308,120,110,230,0.91667,100,80,180,0.8,131,76
920,370,700,180,460,640,2.5556,160,320,480,2,150,260,410,1.7333,120,160,280,1.3333,110,110,220,1,100,100,200,1,131,76
920,220,600,180,440,620,2.4444,160,340,500,2.125,150,280,430,1.8667,130,160,290,1.2308,110,120,230,1.0909,100,100,200,1,131,76
920,320,680,190,690,880,3.6316,170,370,540,2.1765,160,300,460,1.875,140,170,310,1.2143,120,130,250,1.0833,100,100,200,1,131,76
900,240,700,230,440,670,1.913,180,370,550,2.0556,170,300,470,1.7647,150,180,330,1.2,120,130,250,1.0833,110,100,210,0.90909,132,76
920,200,590,220,430,650,1.9545,180,320,500,1.7778,160,250,410,1.5625,140,160,300,1.1429,110,130,240,1.1818,100,110,210,1.1,131,76
910,330,540,180,480,660,2.6667,150,330,480,2.2,140,270,410,1.9286,130,160,290,1.2308,110,110,220,1,100,90,190,0.9,131,76
920,370,680,280,690,970,2.4643,170,400,570,2.3529,160,330,490,2.0625,130,190,320,1.4615,110,120,230,1.0909,100,100,200,1,131,76
910,240,680,180,440,620,2.4444,160,320,480,2,150,260,410,1.7333,140,160,300,1.1429,110,110,220,1,100,90,190,0.9,130,75
920,230,680,180,440,620,2.4444,160,320,480,2,150,260,410,1.7333,130,160,290,1.2308,120,120,240,1,100,100,200,1,130,75
910,240,690,200,460,660,2.3,170,320,490,1.8824,160,260,420,1.625,140,160,300,1.1429,130,120,250,0.92308,110,90,200,0.81818,131,76
910,220,700,240,450,690,1.875,240,330,570,1.375,190,270,460,1.4211,160,180,340,1.125,130,150,280,1.1538,110,120,230,1.0909,131,76
910,210,640,190,410,600,2.1579,160,300,460,1.875,150,230,380,1.5333,140,140,280,1,110,110,220,1,100,90,190,0.9,130,76
900,270,380,180,390,570,2.1667,160,320,480,2,150,250,400,1.6667,140,140,280,1,120,100,220,0.83333,100,80,180,0.8,130,75
910,520,680,260,690,950,2.6538,160,370,530,2.3125,150,300,450,2,130,170,300,1.3077,110,110,220,1,100,100,200,1,129,75
900,230,680,200,460,660,2.3,170,320,490,1.8824,160,270,430,1.6875,140,160,300,1.1429,120,110,230,0.91667,110,90,200,0.81818,129,75
910,220,680,190,650,840,3.4211,170,340,510,2,160,290,450,1.8125,130,160,290,1.2308,120,120,240,1,100,90,190,0.9,130,76
860,230,690,190,440,630,2.3158,170,310,480,1.8235,150,260,410,1.7333,140,160,300,1.1429,120,110,230,0.91667,110,100,210,0.90909,130,76
940,170,720,190,460,650,2.4211,170,340,510,2,140,290,430,2.0714,110,200,310,1.8182,90,160,250,1.7778,80,140,220,1.75,130,76
910,220,680,170,470,640,2.7647,150,340,490,2.2667,140,270,410,1.9286,120,150,270,1.25,100,110,210,1.1,90,100,190,1.1111,130,75
910,230,680,180,690,870,3.8333,150,410,560,2.7333,150,350,500,2.3333,130,150,280,1.1538,100,120,220,1.2,90,90,180,1,129,75
920,230,680,180,460,640,2.5556,160,330,490,2.0625,150,280,430,1.8667,130,170,300,1.3077,100,120,220,1.2,100,100,200,1,129,75
910,240,650,190,430,620,2.2632,170,330,500,1.9412,160,250,410,1.5625,140,150,290,1.0714,100,110,210,1.1,100,90,190,0.9,129,75
910,260,680,190,490,680,2.5789,170,340,510,2,160,280,440,1.75,130,170,300,1.3077,120,120,240,1,100,100,200,1,130,75
910,230,700,250,580,830,2.32,190,390,580,2.0526,170,330,500,1.9412,150,200,350,1.3333,120,130,250,1.0833,110,100,210,0.90909,131,76
910,210,560,230,400,630,1.7391,170,300,470,1.7647,150,240,390,1.6,140,150,290,1.0714,110,120,230,1.0909,100,100,200,1,130,76
910,350,680,180,460,640,2.5556,160,330,490,2.0625,150,270,420,1.8,130,150,280,1.1538,110,100,210,0.90909,100,90,190,0.9,130,75
900,230,680,180,690,870,3.8333,160,390,550,2.4375,140,330,470,2.3571,130,170,300,1.3077,90,120,210,1.3333,70,100,170,1.4286,130,75
910,220,680,170,440,610,2.5882,140,320,460,2.2857,140,270,410,1.9286,120,160,280,1.3333,100,120,220,1.2,90,110,200,1.2222,130,75
930,230,690,180,430,610,2.3889,160,310,470,1.9375,150,240,390,1.6,130,170,300,1.3077,110,130,240,1.1818,100,110,210,1.1,130,75
900,240,640,200,450,650,2.25,190,320,510,1.6842,180,260,440,1.4444,150,160,310,1.0667,130,120,250,0.92308,120,100,220,0.83333,131,76
900,260,650,280,440,720,1.5714,210,340,550,1.619,190,300,490,1.5789,160,190,350,1.1875,130,130,260,1,120,110,230,0.91667,131,76
910,250,640,180,430,610,2.3889,150,310,460,2.0667,140,250,390,1.7857,120,150,270,1.25,100,110,210,1.1,100,100,200,1,131,76
910,270,630,180,470,650,2.6111,160,330,490,2.0625,150,280,430,1.8667,130,160,290,1.2308,110,110,220,1,90,90,180,1,130,76
910,280,690,240,700,940,2.9167,170,390,560,2.2941,160,320,480,2,140,190,330,1.3571,120,120,240,1,100,100,200,1,130,76
880,220,680,180,430,610,2.3889,160,310,470,1.9375,150,250,400,1.6667,130,150,280,1.1538,110,110,220,1,100,100,200,1,129,75
930,200,700,150,430,580,2.8667,140,310,450,2.2143,120,230,350,1.9167,110,160,270,1.4545,90,110,200,1.2222,70,90,160,1.2857,130,75
900,230,700,190,250,440,1.3158,160,250,410,1.5625,150,250,400,1.6667,130,170,300,1.3077,110,130,240,1.1818,90,110,200,1.2222,131,76
910,200,690,220,430,650,1.9545,220,310,530,1.4091,190,250,440,1.3158,140,200,340,1.4286,120,140,260,1.1667,100,120,220,1.2,131,76
910,220,680,170,480,650,2.8235,150,340,490,2.2667,130,280,410,2.1538,130,160,290,1.2308,100,110,210,1.1,100,90,190,0.9,130,76
900,230,450,180,460,640,2.5556,160,330,490,2.0625,150,260,410,1.7333,130,150,280,1.1538,110,110,220,1,100,100,200,1,130,76
910,450,670,460,680,1140,1.4783,180,410,590,2.2778,160,340,500,2.125,140,200,340,1.4286,110,130,240,1.1818,100,110,210,1.1,130,76
910,240,710,180,510,690,2.8333,170,330,500,1.9412,150,270,420,1.8,130,160,290,1.2308,110,120,230,1.0909,100,100,200,1,130,76
890,200,670,190,420,610,2.2105,170,300,470,1.7647,160,250,410,1.5625,140,150,290,1.0714,120,110,230,0.91667,110,100,210,0.90909,130,76
890,220,690,240,470,710,1.9583,180,370,550,2.0556,170,310,480,1.8235,140,200,340,1.4286,120,130,250,1.0833,110,110,220,1,131,76
880,200,600,170,390,560,2.2941,140,270,410,1.9286,140,210,350,1.5,120,140,260,1.1667,100,100,200,1,90,80,170,0.88889,130,76
910,280,680,170,480,650,2.8235,140,340,480,2.4286,140,270,410,1.9286,120,160,280,1.3333,100,120,220,1.2,100,100,200,1,130,76
900,230,690,180,600,780,3.3333,160,380,540,2.375,150,300,450,2,130,150,280,1.1538,120,110,230,0.91667,100,90,190,0.9,130,76
910,210,630,180,430,610,2.3889,160,310,470,1.9375,150,260,410,1.7333,130,150,280,1.1538,110,110,220,1,100,100,200,1,130,76
910,280,680,180,510,690,2.8333,160,350,510,2.1875,150,280,430,1.8667,140,160,300,1.1429,110,120,230,1.0909,110,100,210,0.90909,130,76
890,230,680,190,450,640,2.3684,170,320,490,1.8824,160,260,420,1.625,130,160,290,1.2308,120,120,240,1,100,100,200,1,130,76
910,210,690,230,440,670,1.913,180,320,500,1.7778,170,270,440,1.5882,150,180,330,1.2,120,130,250,1.0833,100,110,210,1.1,131,76
900,220,610,180,620,800,3.4444,160,370,530,2.3125,150,300,450,2,130,170,300,1.3077,110,120,230,1.0909,100,100,200,1,131,76
910,290,690,180,470,650,2.6111,150,330,480,2.2,150,270,420,1.8,120,160,280,1.3333,110,110,220,1,90,100,190,1.1111,131,76
900,220,680,180,440,620,2.4444,160,330,490,2.0625,150,280,430,1.8667,130,170,300,1.3077,110,130,240,1.1818,100,90,190,0.9,131,76
900,220,680,180,450,630,2.5,160,320,480,2,150,260,410,1.7333,130,160,290,1.2308,110,120,230,1.0909,90,100,190,1.1111,131,76
930,220,690,180,440,620,2.4444,150,350,500,2.3333,150,290,440,1.9333,120,180,300,1.5,100,130,230,1.3,90,120,210,1.3333,131,76
890,240,680,200,440,640,2.2,180,320,500,1.7778,170,250,420,1.4706,150,150,300,1,120,100,220,0.83333,110,90,200,0.81818,132,77
900,210,570,230,410,640,1.7826,180,300,480,1.6667,160,240,400,1.5,140,150,290,1.0714,120,120,240,1,100,100,200,1,132,77
910,330,670,320,680,1000,2.125,160,420,580,2.625,150,340,490,2.2667,130,190,320,1.4615,100,120,220,1.2,100,110,210,1.1,131,76
910,240,650,180,480,660,2.6667,160,330,490,2.0625,140,270,410,1.9286,130,160,290,1.2308,110,120,230,1.0909,90,90,180,1,131,76
910,260,640,180,460,640,2.5556,160,330,490,2.0625,140,260,400,1.8571,120,160,280,1.3333,110,110,220,1,100,100,200,1,131,76
900,270,670,190,590,780,3.1053,160,340,500,2.125,150,270,420,1.8,140,160,300,1.1429,120,110,230,0.91667,110,110,220,1,131,76
910,230,680,210,390,600,1.8571,170,260,430,1.5294,160,210,370,1.3125,140,150,290,1.0714,120,120,240,1,100,100,200,1,131,76
900,230,690,250,470,720,1.88,190,360,550,1.8947,170,300,470,1.7647,150,190,340,1.2667,130,130,260,1,120,100,220,0.83333,132,76
900,210,610,180,380,560,2.1111,150,270,420,1.8,140,210,350,1.5,130,150,280,1.1538,110,110,220,1,100,90,190,0.9,131,76
910,290,610,170,470,640,2.7647,150,340,490,2.2667,140,280,420,2,130,160,290,1.2308,110,110,220,1,90,90,180,1,131,76
900,300,610,180,450,630,2.5,160,330,490,2.0625,150,270,420,1.8,130,160,290,1.2308,110,110,220,1,100,100,200,1,130,76
920,290,650,180,490,670,2.7222,160,350,510,2.1875,140,290,430,2.0714,130,170,300,1.3077,110,130,240,1.1818,90,110,200,1.2222,131,76
850,270,680,190,690,880,3.6316,170,360,530,2.1176,160,290,450,1.8125,140,170,310,1.2143,120,120,240,1,100,100,200,1,132,76
960,170,740,150,470,620,3.1333,120,360,480,3,100,300,400,3,90,210,300,2.3333,70,170,240,2.4286,60,160,220,2.6667,131,76
910,220,670,240,430,670,1.7917,200,310,510,1.55,180,260,440,1.4444,150,170,320,1.1333,130,120,250,0.92308,110,110,220,1,131,76
900,240,620,180,630,810,3.5,160,360,520,2.25,150,290,440,1.9333,130,140,270,1.0769,110,110,220,1,100,90,190,0.9,131,76
910,280,630,180,460,640,2.5556,150,330,480,2.2,150,270,420,1.8,130,150,280,1.1538,110,110,220,1,100,100,200,1,130,76
910,280,690,180,440,620,2.4444,160,320,480,2,150,270,420,1.8,140,160,300,1.1429,110,110,220,1,110,90,200,0.81818,130,76
1670,220,960,180,810,990,4.5,160,440,600,2.75,150,280,430,1.8667,130,160,290,1.2308,120,110,230,0.91667,100,90,190,0.9,130,76
980,710,770,220,500,720,2.2727,180,350,530,1.9444,160,290,450,1.8125,150,180,330,1.2,120,130,250,1.0833,110,100,210,0.90909,131,76
930,210,570,230,430,660,1.8696,190,320,510,1.6842,170,260,430,1.5294,140,160,300,1.1429,120,120,240,1,100,110,210,1.1,131,76
930,360,630,180,640,820,3.5556,160,400,560,2.5,150,310,460,2.0667,120,140,260,1.1667,110,80,190,0.72727,100,50,150,0.5,130,76
910,300,690,180,460,640,2.5556,160,330,490,2.0625,150,270,420,1.8,130,160,290,1.2308,120,110,230,0.91667,100,100,200,1,130,76
880,220,700,190,480,670,2.5263,160,380,540,2.375,150,340,490,2.2667,110,190,300,1.7273,110,130,240,1.1818,90,110,200,1.2222,130,76
970,180,720,140,730,870,5.2143,110,430,540,3.9091,110,80,190,0.72727,90,20,110,0.22222,70,20,90,0.28571,60,20,80,0.33333,130,76
910,250,690,200,430,630,2.15,170,320,490,1.8824,170,260,430,1.5294,140,160,300,1.1429,120,110,230,0.91667,110,100,210,0.90909,130,75
900,220,680,240,440,680,1.8333,200,320,520,1.6,190,270,460,1.4211,160,180,340,1.125,130,120,250,0.92308,120,110,230,0.91667,130,74
900,220,610,180,410,590,2.2778,160,290,450,1.8125,150,230,380,1.5333,130,140,270,1.0769,110,110,220,1,100,90,190,0.9,130,74
910,290,620,190,630,820,3.3158,160,380,540,2.375,150,310,460,2.0667,130,170,300,1.3077,120,120,240,1,100,100,200,1,130,74
930,290,690,180,450,630,2.5,150,310,460,2.0667,140,260,400,1.8571,130,150,280,1.1538,110,110,220,1,100,100,200,1,129,74
900,240,640,190,440,630,2.3158,170,310,480,1.8235,160,250,410,1.5625,140,140,280,1,120,110,230,0.91667,90,80,170,0.88889,129,74
920,260,680,190,690,880,3.6316,170,360,530,2.1176,160,310,470,1.9375,140,180,320,1.2857,120,130,250,1.0833,100,110,210,1.1,130,74
890,240,700,220,410,630,1.8636,180,280,460,1.5556,170,230,400,1.3529,150,180,330,1.2,130,130,260,1,120,100,220,0.83333,131,75
920,190,570,210,430,640,2.0476,180,320,500,1.7778,160,260,420,1.625,140,170,310,1.2143,110,130,240,1.1818,100,120,220,1.2,130,75
910,350,430,190,440,630,2.3158,160,330,490,2.0625,150,270,420,1.8,130,150,280,1.1538,110,110,220,1,100,90,190,0.9,130,75
910,480,640,190,490,680,2.5789,160,350,510,2.1875,150,290,440,1.9333,130,160,290,1.2308,110,120,230,1.0909,100,90,190,0.9,130,75
920,270,700,190,470,660,2.4737,160,340,500,2.125,150,280,430,1.8667,130,160,290,1.2308,120,110,230,0.91667,100,90,190,0.9,130,75
900,220,680,190,540,730,2.8421,160,330,490,2.0625,160,260,420,1.625,130,150,280,1.1538,120,110,230,0.91667,100,90,190,0.9,130,75
890,220,700,180,500,680,2.7778,160,350,510,2.1875,150,290,440,1.9333,130,180,310,1.3846,110,130,240,1.1818,100,110,210,1.1,131,75
930,190,710,210,490,700,2.3333,160,370,530,2.3125,150,310,460,2.0667,120,190,310,1.5833,110,140,250,1.2727,90,110,200,1.2222,131,76
920,220,640,190,420,610,2.2105,160,300,460,1.875,150,240,390,1.6,120,160,280,1.3333,110,120,230,1.0909,90,100,190,1.1111,131,76
910,280,650,180,660,840,3.6667,160,400,560,2.5,150,330,480,2.2,130,150,280,1.1538,110,110,220,1,100,100,200,1,130,76
920,260,640,180,430,610,2.3889,150,320,470,2.1333,150,270,420,1.8,130,150,280,1.1538,110,110,220,1,100,100,200,1,130,76
910,280,620,190,440,630,2.3158,160,320,480,2,160,260,420,1.625,140,150,290,1.0714,110,110,220,1,110,100,210,0.90909,130,76
910,290,680,180,680,860,3.7778,160,350,510,2.1875,150,280,430,1.8667,140,170,310,1.2143,110,120,230,1.0909,110,100,210,0.90909,131,76
890,230,690,190,440,630,2.3158,170,320,490,1.8824,160,260,420,1.625,140,160,300,1.1429,120,120,240,1,100,100,200,1,132,76
920,200,650,220,440,660,2,180,330,510,1.8333,160,270,430,1.6875,140,180,320,1.2857,110,140,250,1.2727,100,120,220,1.2,132,76
1670,270,880,180,760,940,4.2222,150,410,560,2.7333,150,280,430,1.8667,130,160,290,1.2308,100,110,210,1.1,100,100,200,1,131,76
990,790,750,340,760,1100,2.2353,170,410,580,2.4118,160,340,500,2.125,130,190,320,1.4615,110,130,240,1.1818,100,110,210,1.1,131,76
1660,240,1000,190,620,810,3.2632,160,300,460,1.875,160,280,440,1.75,130,160,290,1.2308,120,110,230,0.91667,110,90,200,0.81818,131,76
960,660,750,310,680,990,2.1935,180,420,600,2.3333,170,350,520,2.0588,150,220,370,1.4667,120,140,260,1.1667,100,110,210,1.1,131,76
920,210,700,230,440,670,1.913,190,320,510,1.6842,170,270,440,1.5882,140,180,320,1.2857,120,130,250,1.0833,100,120,220,1.2,131,77
920,220,650,180,470,650,2.6111,150,330,480,2.2,150,270,420,1.8,120,160,280,1.3333,110,120,230,1.0909,90,100,190,1.1111,131,75
910,270,640,180,650,830,3.6111,150,410,560,2.7333,140,330,470,2.3571,100,190,290,1.9,100,120,220,1.2,90,100,190,1.1111,131,75
910,270,640,180,450,630,2.5,170,320,490,1.8824,150,270,420,1.8,130,160,290,1.2308,110,120,230,1.0909,100,90,190,0.9,131,75
910,270,680,190,410,600,2.1579,160,300,460,1.875,160,250,410,1.5625,130,150,280,1.1538,120,110,230,0.91667,100,100,200,1,130,75
910,230,680,190,460,650,2.4211,170,330,500,1.9412,150,270,420,1.8,140,160,300,1.1429,120,110,230,0.91667,110,100,210,0.90909,131,73
900,230,680,250,460,710,1.84,210,380,590,1.8095,180,340,520,1.8889,160,210,370,1.3125,140,130,270,0.92857,120,110,230,0.91667,131,74
900,220,610,200,400,600,2,170,290,460,1.7059,160,230,390,1.4375,140,150,290,1.0714,120,110,230,0.91667,110,90,200,0.81818,130,74
910,290,600,180,480,660,2.6667,150,350,500,2.3333,150,280,430,1.8667,120,160,280,1.3333,100,120,220,1.2,90,100,190,1.1111,130,74
920,310,690,290,700,990,2.4138,180,460,640,2.5556,160,370,530,2.3125,130,220,350,1.6923,110,140,250,1.2727,100,120,220,1.2,129,74
920,230,670,180,430,610,2.3889,170,320,490,1.8824,150,250,400,1.6667,130,160,290,1.2308,110,110,220,1,100,90,190,0.9,130,74
900,250,640,200,440,640,2.2,180,310,490,1.7222,170,250,420,1.4706,150,150,300,1,130,110,240,0.84615,120,90,210,0.75,131,75
900,260,680,190,430,620,2.2632,170,300,470,1.7647,160,260,420,1.625,140,150,290,1.0714,110,110,220,1,110,100,210,0.90909,131,75
910,220,640,240,410,650,1.7083,240,290,530,1.2083,200,240,440,1.2,160,170,330,1.0625,130,130,260,1,120,110,230,0.91667,131,75
900,270,620,180,440,620,2.4444,160,310,470,1.9375,150,250,400,1.6667,130,140,270,1.0769,110,100,210,0.90909,100,90,190,0.9,131,75
550,280,390,180,400,580,2.2222,150,320,470,2.1333,140,260,400,1.8571,120,160,280,1.3333,100,120,220,1.2,100,100,200,1,130,75
1270,160,1030,130,1000,1130,7.6923,20,730,750,36.5,20,670,690,33.5,20,540,560,27,20,480,500,24,20,460,480,23,130,75
930,240,690,170,470,640,2.7647,130,330,460,2.5385,130,260,390,2,120,170,290,1.4167,100,130,230,1.3,90,100,190,1.1111,130,75
910,240,670,190,600,790,3.1579,170,350,520,2.0588,160,290,450,1.8125,140,170,310,1.2143,120,120,240,1,100,100,200,1,130,75
850,240,700,200,460,660,2.3,180,340,520,1.8889,170,270,440,1.5882,150,160,310,1.0667,120,120,240,1,110,100,210,0.90909,131,76
960,150,690,170,470,640,2.7647,170,360,530,2.1176,130,290,420,2.2308,100,210,310,2.1,80,170,250,2.125,70,160,230,2.2857,131,76
900,270,620,180,490,670,2.7222,160,340,500,2.125,150,290,440,1.9333,130,150,280,1.1538,110,110,220,1,100,90,190,0.9,130,76
910,280,690,180,700,880,3.8889,150,500,650,3.3333,150,410,560,2.7333,120,250,370,2.0833,110,110,220,1,100,100,200,1,130,75
910,220,640,180,440,620,2.4444,150,320,470,2.1333,150,270,420,1.8,130,160,290,1.2308,100,120,220,1.2,100,100,200,1,130,75
920,270,680,180,430,610,2.3889,160,360,520,2.25,150,290,440,1.9333,130,170,300,1.3077,110,120,230,1.0909,90,100,190,1.1111,130,75
900,240,680,200,440,640,2.2,170,310,480,1.8235,170,260,430,1.5294,140,160,300,1.1429,130,110,240,0.84615,110,90,200,0.81818,130,75
900,220,630,240,450,690,1.875,190,340,530,1.7895,170,280,450,1.6471,150,190,340,1.2667,130,130,260,1,110,110,220,1,131,76
920,270,600,180,430,610,2.3889,160,310,470,1.9375,140,250,390,1.7857,130,150,280,1.1538,110,120,230,1.0909,90,100,190,1.1111,131,76
920,320,570,180,490,670,2.7222,160,340,500,2.125,150,290,440,1.9333,130,160,290,1.2308,110,110,220,1,100,90,190,0.9,130,76
900,350,650,190,490,680,2.5789,170,340,510,2,160,280,440,1.75,130,160,290,1.2308,100,110,210,1.1,90,90,180,1,130,76
910,250,650,190,430,620,2.2632,160,310,470,1.9375,150,250,400,1.6667,130,140,270,1.0769,110,110,220,1,100,100,200,1,130,76
910,260,680,180,410,590,2.2778,160,280,440,1.75,150,220,370,1.4667,140,180,320,1.2857,110,120,230,1.0909,100,110,210,1.1,131,76
910,230,700,190,430,620,2.2632,170,310,480,1.8235,150,250,400,1.6667,130,160,290,1.2308,120,120,240,1,100,100,200,1,132,76
910,210,620,230,420,650,1.8261,190,310,500,1.6316,170,260,430,1.5294,150,170,320,1.1333,130,120,250,0.92308,110,100,210,0.90909,132,77
910,290,600,180,470,650,2.6111,160,330,490,2.0625,150,270,420,1.8,130,150,280,1.1538,110,110,220,1,100,90,190,0.9,131,76
910,310,630,180,460,640,2.5556,150,330,480,2.2,150,270,420,1.8,130,150,280,1.1538,100,120,220,1.2,100,90,190,0.9,131,76
920,280,680,210,690,900,3.2857,170,380,550,2.2353,150,320,470,2.1333,140,170,310,1.2143,110,130,240,1.1818,100,100,200,1,131,76
860,240,650,190,490,680,2.5789,170,330,500,1.9412,150,280,430,1.8667,140,160,300,1.1429,110,130,240,1.1818,100,100,200,1,131,76
970,210,740,140,460,600,3.2857,110,350,460,3.1818,110,290,400,2.6364,80,200,280,2.5,70,160,230,2.2857,60,150,210,2.5,132,76
900,230,630,250,470,720,1.88,190,360,550,1.8947,170,310,480,1.8235,150,180,330,1.2,120,130,250,1.0833,110,100,210,0.90909,132,77
920,270,610,190,410,600,2.1579,150,300,450,2,150,240,390,1.6,130,160,290,1.2308,100,120,220,1.2,100,110,210,1.1,132,77
900,310,600,180,500,680,2.7778,160,350,510,2.1875,150,280,430,1.8667,130,150,280,1.1538,110,110,220,1,110,90,200,0.81818,131,76
910,300,690,170,700,870,4.1176,150,330,480,2.2,140,270,410,1.9286,120,160,280,1.3333,100,120,220,1.2,90,100,190,1.1111,131,76
940,220,640,170,430,600,2.5294,150,310,460,2.0667,140,260,400,1.8571,120,160,280,1.3333,100,120,220,1.2,90,100,190,1.1111,131,76
900,300,650,200,530,730,2.65,180,340,520,1.8889,170,280,450,1.6471,140,160,300,1.1429,130,110,240,0.84615,110,90,200,0.81818,131,76
900,250,680,190,410,600,2.1579,170,310,480,1.8235,160,250,410,1.5625,150,150,300,1,120,110,230,0.91667,110,100,210,0.90909,132,76
890,220,630,240,420,660,1.75,200,310,510,1.55,180,250,430,1.3889,150,160,310,1.0667,130,120,250,0.92308,110,100,210,0.90909,131,76
920,260,620,170,630,800,3.7059,140,430,570,3.0714,140,350,490,2.5,120,190,310,1.5833,100,130,230,1.3,90,110,200,1.2222,131,76
1670,300,1100,190,890,1080,4.6842,160,550,710,3.4375,150,400,550,2.6667,140,160,300,1.1429,110,110,220,1,110,90,200,0.81818,131,76
980,570,600,240,540,780,2.25,170,370,540,2.1765,160,300,460,1.875,140,170,310,1.2143,120,120,240,1,110,100,210,0.90909,131,76
940,380,710,190,480,670,2.5263,170,380,550,2.2353,160,310,470,1.9375,140,180,320,1.2857,110,120,230,1.0909,100,110,210,1.1,132,76
910,230,710,200,470,670,2.35,180,330,510,1.8333,170,270,440,1.5882,140,160,300,1.1429,130,120,250,0.92308,110,90,200,0.81818,132,77
920,200,590,220,420,640,1.9091,190,310,500,1.6316,170,250,420,1.4706,140,170,310,1.2143,120,130,250,1.0833,100,110,210,1.1,132,77
930,330,570,180,510,690,2.8333,160,350,510,2.1875,150,300,450,2,130,160,290,1.2308,110,120,230,1.0909,90,100,190,1.1111,132,77
910,360,640,190,450,640,2.3684,170,320,490,1.8824,160,260,420,1.625,130,150,280,1.1538,120,110,230,0.91667,110,80,190,0.72727,132,75
920,270,690,180,450,630,2.5,160,330,490,2.0625,140,270,410,1.9286,120,160,280,1.3333,90,110,200,1.2222,70,100,170,1.4286,132,75
910,230,680,190,500,690,2.6316,160,340,500,2.125,160,270,430,1.6875,140,160,300,1.1429,120,110,230,0.91667,110,90,200,0.81818,132,75
900,230,680,200,380,580,1.9,170,260,430,1.5294,160,210,370,1.3125,140,180,320,1.2857,120,130,250,1.0833,110,100,210,0.90909,132,75
900,220,690,240,470,710,1.9583,190,360,550,1.8947,170,310,480,1.8235,140,200,340,1.4286,130,140,270,1.0769,100,120,220,1.2,132,75
1680,210,1050,170,950,1120,5.5882,150,480,630,3.2,140,90,230,0.64286,120,90,210,0.75,100,90,190,0.9,90,90,180,1,132,75
980,630,760,260,740,1000,2.8462,170,390,560,2.2941,150,330,480,2.2,140,190,330,1.3571,120,130,250,1.0833,110,110,220,1,132,75
930,220,620,190,430,620,2.2632,160,320,480,2,150,260,410,1.7333,130,160,290,1.2308,110,120,230,1.0909,100,100,200,1,131,75
940,310,680,190,690,880,3.6316,160,380,540,2.375,150,320,470,2.1333,140,190,330,1.3571,110,130,240,1.1818,100,110,210,1.1,131,75
900,260,690,210,400,610,1.9048,190,300,490,1.5789,170,240,410,1.4118,150,150,300,1,120,110,230,0.91667,110,100,210,0.90909,132,76
910,210,540,230,410,640,1.7826,190,310,500,1.6316,180,250,430,1.3889,140,160,300,1.1429,130,120,250,0.92308,110,100,210,0.90909,132,76
1670,370,1030,170,1010,1180,5.9412,160,600,760,3.75,150,420,570,2.8,140,150,290,1.0714,110,110,220,1,100,90,190,0.9,132,76
970,640,650,270,600,870,2.2222,170,390,560,2.2941,160,320,480,2,140,180,320,1.2857,120,130,250,1.0833,110,100,210,0.90909,132,76
940,320,560,170,450,620,2.6471,150,320,470,2.1333,140,250,390,1.7857,130,160,290,1.2308,100,120,220,1.2,90,110,200,1.2222,131,74
930,380,700,190,500,690,2.6316,160,350,510,2.1875,150,290,440,1.9333,130,170,300,1.3077,120,120,240,1,100,110,210,1.1,131,74
910,230,710,250,480,730,1.92,180,360,540,2,160,300,460,1.875,140,170,310,1.2143,130,130,260,1,110,100,210,0.90909,132,75
920,200,600,220,430,650,1.9545,160,310,470,1.9375,150,240,390,1.6,130,160,290,1.2308,110,120,230,1.0909,100,100,200,1,132,75
930,320,620,180,630,810,3.5,160,460,620,2.875,140,370,510,2.6429,120,200,320,1.6667,100,130,230,1.3,90,100,190,1.1111,131,75
920,310,640,190,450,640,2.3684,160,320,480,2,150,260,410,1.7333,130,150,280,1.1538,120,110,230,0.91667,100,90,190,0.9,131,74
1690,280,1020,200,730,930,3.65,160,480,640,3,160,330,490,2.0625,140,160,300,1.1429,120,110,230,0.91667,110,100,210,0.90909,130,73
980,670,760,310,600,910,1.9355,180,400,580,2.2222,170,330,500,1.9412,140,180,320,1.2857,130,130,260,1,110,110,220,1,130,74
930,220,710,240,450,690,1.875,200,340,540,1.7,180,290,470,1.6111,160,180,340,1.125,130,130,260,1,110,110,220,1,131,74
920,220,620,180,410,590,2.2778,160,300,460,1.875,150,240,390,1.6,130,150,280,1.1538,110,110,220,1,100,90,190,0.9,131,74
910,300,580,200,590,790,2.95,160,380,540,2.375,150,300,450,2,130,170,300,1.3077,120,120,240,1,100,100,200,1,129,74
960,330,690,170,460,630,2.7059,150,330,480,2.2,140,260,400,1.8571,120,160,280,1.3333,100,130,230,1.3,90,110,200,1.2222,129,74
890,270,520,210,400,610,1.9048,190,290,480,1.5263,180,230,410,1.2778,150,130,280,0.86667,130,90,220,0.69231,120,70,190,0.58333,129,74
920,370,690,200,700,900,3.5,170,370,540,2.1765,160,300,460,1.875,140,170,310,1.2143,120,120,240,1,110,100,210,0.90909,129,73
900,230,690,210,420,630,2,180,280,460,1.5556,160,240,400,1.5,150,170,320,1.1333,130,120,250,0.92308,120,100,220,0.83333,130,73
910,210,590,230,420,650,1.8261,190,310,500,1.6316,170,250,420,1.4706,140,160,300,1.1429,120,120,240,1,110,110,220,1,130,73
910,320,450,170,460,630,2.7059,150,340,490,2.2667,140,270,410,1.9286,130,160,290,1.2308,100,120,220,1.2,90,90,180,1,129,73
1690,460,1060,190,940,1130,4.9474,160,580,740,3.625,150,400,550,2.6667,130,180,310,1.3846,110,130,240,1.1818,90,100,190,1.1111,129,73
980,630,690,250,570,820,2.28,170,370,540,2.1765,170,290,460,1.7059,140,170,310,1.2143,130,130,260,1,110,100,210,0.90909,129,73
930,290,710,190,470,660,2.4737,160,340,500,2.125,150,270,420,1.8,140,170,310,1.2143,120,120,240,1,110,100,210,0.90909,130,74
930,220,680,240,450,690,1.875,240,320,560,1.3333,180,250,430,1.3889,160,140,300,0.875,130,100,230,0.76923,110,70,180,0.63636,130,74
1840,250,550,190,410,600,2.1579,170,290,460,1.7059,150,220,370,1.4667,140,150,290,1.0714,110,120,230,1.0909,100,100,200,1,130,74
930,1290,700,1090,710,1800,0.65138,760,500,1260,0.65789,570,390,960,0.68421,340,230,570,0.67647,240,140,380,0.58333,100,110,210,1.1,130,74
930,230,670,200,460,660,2.3,170,340,510,2,160,280,440,1.75,140,160,300,1.1429,110,120,230,1.0909,100,100,200,1,129,73
920,260,650,190,660,850,3.4737,170,350,520,2.0588,160,290,450,1.8125,140,160,300,1.1429,120,110,230,0.91667,110,100,210,0.90909,129,73
910,270,700,210,480,690,2.2857,180,330,510,1.8333,160,270,430,1.6875,150,170,320,1.1333,120,120,240,1,110,100,210,0.90909,130,74
910,210,680,230,420,650,1.8261,200,310,510,1.55,180,250,430,1.3889,150,160,310,1.0667,130,120,250,0.92308,110,100,210,0.90909,129,74
930,230,600,170,470,640,2.7647,150,330,480,2.2,140,270,410,1.9286,130,160,290,1.2308,100,120,220,1.2,90,100,190,1.1111,129,74
920,330,570,190,580,770,3.0526,160,430,590,2.6875,140,360,500,2.5714,120,200,320,1.6667,100,120,220,1.2,80,100,180,1.25,129,74
920,350,640,180,440,620,2.4444,160,320,480,2,140,260,400,1.8571,130,160,290,1.2308,100,120,220,1.2,100,100,200,1,129,74
920,280,630,180,410,590,2.2778,160,300,460,1.875,150,240,390,1.6,130,160,290,1.2308,110,120,230,1.0909,100,100,200,1,129,74
930,290,450,180,460,640,2.5556,160,360,520,2.25,150,290,440,1.9333,130,180,310,1.3846,110,130,240,1.1818,100,110,210,1.1,130,74
920,480,700,500,460,960,0.92,500,360,860,0.72,480,340,820,0.70833,480,210,690,0.4375,480,130,610,0.27083,450,110,560,0.24444,130,75
910,220,590,200,400,600,2,170,290,460,1.7059,150,230,380,1.5333,140,140,280,1,120,110,230,0.91667,110,100,210,0.90909,130,75
920,320,540,190,470,660,2.4737,160,340,500,2.125,140,280,420,2,130,150,280,1.1538,110,110,220,1,100,90,190,0.9,130,75
920,380,690,360,700,1060,1.9444,170,420,590,2.4706,160,340,500,2.125,140,190,330,1.3571,120,120,240,1,100,100,200,1,130,75
940,230,680,180,460,640,2.5556,150,340,490,2.2667,140,280,420,2,120,160,280,1.3333,110,120,230,1.0909,90,110,200,1.2222,130,75
920,260,640,200,480,680,2.4,160,330,490,2.0625,160,270,430,1.6875,130,150,280,1.1538,120,110,230,0.91667,110,90,200,0.81818,130,75
910,280,700,200,450,650,2.25,170,320,490,1.8824,160,260,420,1.625,140,160,300,1.1429,120,120,240,1,110,100,210,0.90909,131,75
910,210,680,230,420,650,1.8261,230,290,520,1.2609,230,230,460,1,150,150,300,1,130,100,230,0.76923,110,90,200,0.81818,131,75
930,230,670,170,470,640,2.7647,140,340,480,2.4286,140,280,420,2,120,160,280,1.3333,100,120,220,1.2,80,110,190,1.375,130,75
920,260,640,190,650,840,3.4211,150,650,800,4.3333,150,470,620,3.1333,130,190,320,1.4615,110,110,220,1,100,100,200,1,130,75
930,280,650,190,440,630,2.3158,160,320,480,2,150,270,420,1.8,130,160,290,1.2308,110,120,230,1.0909,100,110,210,1.1,130,75
920,280,670,200,470,670,2.35,160,340,500,2.125,160,270,430,1.6875,140,160,300,1.1429,120,110,230,0.91667,110,100,210,0.90909,130,75
900,250,690,190,470,660,2.4737,170,330,500,1.9412,160,270,430,1.6875,140,160,300,1.1429,130,120,250,0.92308,110,100,210,0.90909,130,75
930,210,700,230,490,720,2.1304,170,370,540,2.1765,160,320,480,2,140,200,340,1.4286,110,150,260,1.3636,100,120,220,1.2,131,75
920,230,620,250,420,670,1.68,170,300,470,1.7647,160,240,400,1.5,130,150,280,1.1538,110,120,230,1.0909,100,100,200,1,131,76
920,300,620,190,500,690,2.6316,150,350,500,2.3333,150,280,430,1.8667,130,160,290,1.2308,110,110,220,1,100,100,200,1,131,76
910,300,700,180,710,890,3.9444,150,390,540,2.6,150,310,460,2.0667,120,180,300,1.5,90,120,210,1.3333,70,100,170,1.4286,131,76
920,210,590,180,440,620,2.4444,150,320,470,2.1333,150,270,420,1.8,130,160,290,1.2308,110,120,230,1.0909,100,100,200,1,131,76
920,330,680,180,420,600,2.3333,160,280,440,1.75,150,220,370,1.4667,140,170,310,1.2143,110,120,230,1.0909,100,110,210,1.1,131,76
910,240,540,190,430,620,2.2632,170,310,480,1.8235,160,260,420,1.625,140,150,290,1.0714,120,120,240,1,100,100,200,1,132,76
920,370,650,390,430,820,1.1026,390,340,730,0.87179,180,290,470,1.6111,150,180,330,1.2,130,130,260,1,110,120,230,1.0909,132,76
920,270,630,170,430,600,2.5294,160,310,470,1.9375,150,240,390,1.6,130,140,270,1.0769,110,110,220,1,100,90,190,0.9,132,76
910,290,580,180,460,640,2.5556,160,330,490,2.0625,150,270,420,1.8,130,160,290,1.2308,110,110,220,1,100,90,190,0.9,132,76
930,330,660,290,670,960,2.3103,160,420,580,2.625,150,340,490,2.2667,120,190,310,1.5833,110,140,250,1.2727,90,120,210,1.3333,131,76
930,270,650,180,450,630,2.5,160,320,480,2,150,260,410,1.7333,130,160,290,1.2308,110,120,230,1.0909,100,100,200,1,131,76
910,280,680,200,410,610,2.05,180,300,480,1.6667,170,240,410,1.4118,150,160,310,1.0667,130,110,240,0.84615,110,90,200,0.81818,132,76
910,230,710,220,490,710,2.2273,180,370,550,2.0556,170,300,470,1.7647,140,190,330,1.3571,120,130,250,1.0833,110,110,220,1,133,77
920,200,610,220,400,620,1.8182,170,290,460,1.7059,160,220,380,1.375,130,150,280,1.1538,120,120,240,1,100,100,200,1,132,77
920,310,680,170,470,640,2.7647,160,330,490,2.0625,140,280,420,2,130,160,290,1.2308,100,120,220,1.2,90,100,190,1.1111,132,76
930,240,670,180,680,860,3.7778,160,460,620,2.875,150,300,450,2,120,150,270,1.25,110,110,220,1,90,100,190,1.1111,132,76
920,260,640,180,440,620,2.4444,160,320,480,2,150,260,410,1.7333,130,160,290,1.2308,110,120,230,1.0909,100,100,200,1,131,76
920,280,680,180,520,700,2.8889,160,350,510,2.1875,150,290,440,1.9333,140,160,300,1.1429,110,120,230,1.0909,100,100,200,1,132,76
900,240,680,190,430,620,2.2632,170,310,480,1.8235,160,250,410,1.5625,140,150,290,1.0714,120,120,240,1,100,90,190,0.9,132,76
930,220,690,240,450,690,1.875,180,330,510,1.8333,160,280,440,1.75,140,190,330,1.3571,110,140,250,1.2727,100,120,220,1.2,132,76
910,240,560,180,570,750,3.1667,170,360,530,2.1176,160,290,450,1.8125,120,160,280,1.3333,120,120,240,1,100,90,190,0.9,132,76
920,350,650,180,480,660,2.6667,160,340,500,2.125,150,280,430,1.8667,130,160,290,1.2308,110,110,220,1,100,100,200,1,131,76
920,270,690,190,450,640,2.3684,160,340,500,2.125,150,290,440,1.9333,130,190,320,1.4615,120,140,260,1.1667,100,110,210,1.1,131,76
910,230,510,190,450,640,2.3684,160,310,470,1.9375,150,250,400,1.6667,140,150,290,1.0714,120,110,230,0.91667,110,90,200,0.81818,131,76
920,400,690,180,440,620,2.4444,160,300,460,1.875,150,280,430,1.8667,130,170,300,1.3077,110,120,230,1.0909,100,110,210,1.1,131,76
910,230,710,190,470,660,2.4737,170,340,510,2,160,280,440,1.75,140,170,310,1.2143,120,120,240,1,100,110,210,1.1,132,76
910,200,660,220,390,610,1.7727,170,280,450,1.6471,160,230,390,1.4375,130,160,290,1.2308,110,130,240,1.1818,100,100,200,1,131,76
930,250,650,180,470,650,2.6111,150,330,480,2.2,140,270,410,1.9286,120,150,270,1.25,110,110,220,1,90,100,190,1.1111,130,76
910,280,680,190,460,650,2.4211,170,320,490,1.8824,150,260,410,1.7333,140,150,290,1.0714,120,110,230,0.91667,100,90,190,0.9,130,76
580,230,500,190,500,690,2.6316,160,350,510,2.1875,150,290,440,1.9333,130,170,300,1.3077,120,120,240,1,100,100,200,1,131,76
1240,80,1020,90,850,940,9.4444,90,680,770,7.5556,90,620,710,6.8889,90,500,590,5.5556,90,460,550,5.1111,90,440,530,4.8889,131,76
930,220,710,180,400,580,2.2222,160,280,440,1.75,150,210,360,1.4,120,150,270,1.25,100,110,210,1.1,90,80,170,0.88889,131,76
910,220,700,240,450,690,1.875,200,340,540,1.7,180,300,480,1.6667,150,190,340,1.2667,130,130,260,1,110,110,220,1,131,76
910,210,590,180,470,650,2.6111,150,320,470,2.1333,140,270,410,1.9286,130,150,280,1.1538,100,110,210,1.1,100,100,200,1,131,76
920,320,580,180,470,650,2.6111,150,340,490,2.2667,140,270,410,1.9286,130,150,280,1.1538,100,110,210,1.1,90,90,180,1,130,76
920,340,700,190,490,680,2.5789,170,330,500,1.9412,160,270,430,1.6875,140,170,310,1.2143,110,120,230,1.0909,90,90,180,1,130,76
920,220,580,180,450,630,2.5,160,320,480,2,150,250,400,1.6667,140,160,300,1.1429,110,120,230,1.0909,90,100,190,1.1111,130,75
910,340,690,190,490,680,2.5789,170,340,510,2,160,290,450,1.8125,130,170,300,1.3077,120,110,230,0.91667,100,90,190,0.9,130,75
900,220,700,200,430,630,2.15,170,320,490,1.8824,160,250,410,1.5625,140,160,300,1.1429,120,120,240,1,110,100,210,0.90909,132,76
920,200,630,220,420,640,1.9091,180,310,490,1.7222,170,260,430,1.5294,140,180,320,1.2857,120,130,250,1.0833,100,110,210,1.1,132,76
910,290,610,190,620,810,3.2632,160,440,600,2.75,150,360,510,2.4,130,190,320,1.4615,110,110,220,1,100,100,200,1,131,76
900,300,670,180,470,650,2.6111,160,340,500,2.125,150,270,420,1.8,130,160,290,1.2308,110,110,220,1,100,90,190,0.9,131,76
910,230,590,180,440,620,2.4444,150,340,490,2.2667,150,290,440,1.9333,130,160,290,1.2308,110,120,230,1.0909,100,100,200,1,131,76
900,320,650,180,510,690,2.8333,150,330,480,2.2,150,270,420,1.8,130,160,290,1.2308,110,110,220,1,90,100,190,1.1111,131,76
920,250,680,190,420,610,2.2105,160,340,500,2.125,160,300,460,1.875,130,180,310,1.3846,120,120,240,1,100,100,200,1,131,76
900,240,690,260,470,730,1.8077,210,360,570,1.7143,190,300,490,1.5789,160,190,350,1.1875,130,130,260,1,120,100,220,0.83333,132,76
910,210,540,190,410,600,2.1579,160,300,460,1.875,150,240,390,1.6,130,160,290,1.2308,110,120,230,1.0909,100,100,200,1,132,76
920,370,620,230,630,860,2.7391,170,400,570,2.3529,160,330,490,2.0625,130,180,310,1.3846,120,120,240,1,100,100,200,1,131,76
900,300,580,180,440,620,2.4444,170,330,500,1.9412,150,260,410,1.7333,140,150,290,1.0714,120,100,220,0.83333,100,80,180,0.8,131,76
930,320,700,170,440,610,2.5882,150,320,470,2.1333,140,270,410,1.9286,110,160,270,1.4545,80,120,200,1.5,70,110,180,1.5714,131,76
910,230,660,190,670,860,3.5263,170,340,510,2,160,280,440,1.75,140,160,300,1.1429,120,110,230,0.91667,110,100,210,0.90909,132,76
910,250,700,210,390,600,1.8571,180,260,440,1.4444,170,200,370,1.1765,150,160,310,1.0667,120,120,240,1,110,110,220,1,132,76
910,210,640,230,420,650,1.8261,200,310,510,1.55,180,250,430,1.3889,140,160,300,1.1429,130,120,250,0.92308,110,110,220,1,132,76
920,270,630,170,640,810,3.7647,150,350,500,2.3333,140,270,410,1.9286,130,160,290,1.2308,100,120,220,1.2,100,90,190,0.9,132,76
920,290,680,170,460,630,2.7059,160,330,490,2.0625,150,270,420,1.8,130,150,280,1.1538,110,110,220,1,100,90,190,0.9,131,76
930,240,690,180,460,640,2.5556,160,330,490,2.0625,150,270,420,1.8,130,160,290,1.2308,110,120,230,1.0909,90,100,190,1.1111,131,76
910,240,550,190,450,640,2.3684,170,320,490,1.8824,160,250,410,1.5625,140,160,300,1.1429,110,110,220,1,110,90,200,0.81818,131,76
920,360,690,190,480,670,2.5263,170,320,490,1.8824,160,260,420,1.625,130,160,290,1.2308,120,120,240,1,100,100,200,1,131,76
900,230,700,250,480,730,1.92,210,350,560,1.6667,190,290,480,1.5263,170,180,350,1.0588,140,120,260,0.85714,140,100,240,0.71429,132,76
910,200,620,210,410,620,1.9524,160,290,450,1.8125,150,230,380,1.5333,130,150,280,1.1538,110,120,230,1.0909,100,110,210,1.1,131,76
920,290,570,180,580,760,3.2222,150,420,570,2.8,140,360,500,2.5714,120,180,300,1.5,100,120,220,1.2,90,100,190,1.1111,131,76
900,350,690,180,450,630,2.5,160,320,480,2,150,250,400,1.6667,130,150,280,1.1538,110,110,220,1,100,90,190,0.9,130,76
930,210,680,180,450,630,2.5,160,360,520,2.25,150,300,450,2,130,180,310,1.3846,100,130,230,1.3,90,100,190,1.1111,130,76
920,250,660,190,670,860,3.5263,170,350,520,2.0588,160,290,450,1.8125,140,170,310,1.2143,120,120,240,1,100,90,190,0.9,130,76
900,260,670,200,440,640,2.2,170,320,490,1.8824,170,260,430,1.5294,140,160,300,1.1429,130,110,240,0.84615,110,90,200,0.81818,131,76
910,230,630,250,430,680,1.72,200,310,510,1.55,180,260,440,1.4444,150,170,320,1.1333,130,120,250,0.92308,110,110,220,1,130,76
910,280,610,180,420,600,2.3333,150,310,460,2.0667,140,240,380,1.7143,130,150,280,1.1538,110,110,220,1,100,90,190,0.9,129,75
910,300,670,180,680,860,3.7778,160,390,550,2.4375,150,320,470,2.1333,130,170,300,1.3077,120,120,240,1,100,90,190,0.9,129,75
900,240,690,180,440,620,2.4444,160,320,480,2,150,260,410,1.7333,130,150,280,1.1538,110,110,220,1,100,90,190,0.9,129,75
920,210,590,180,420,600,2.3333,150,320,470,2.1333,140,270,410,1.9286,120,180,300,1.5,110,130,240,1.1818,90,110,200,1.2222,129,75
920,330,680,180,640,820,3.5556,160,360,520,2.25,150,300,450,2,140,180,320,1.2857,110,120,230,1.0909,100,110,210,1.1,130,75
900,240,690,230,430,660,1.8696,180,340,520,1.8889,180,290,470,1.6111,150,180,330,1.2,130,120,250,0.92308,110,100,210,0.90909,130,76
910,210,620,230,420,650,1.8261,190,300,490,1.5789,170,240,410,1.4118,150,160,310,1.0667,130,120,250,0.92308,110,100,210,0.90909,130,76
1830,290,540,190,500,690,2.6316,150,350,500,2.3333,150,280,430,1.8667,130,150,280,1.1538,110,110,220,1,100,90,190,0.9,129,76
910,1290,690,1270,700,1970,0.55118,750,430,1180,0.57333,650,360,1010,0.55385,170,200,370,1.1765,120,120,240,1,100,110,210,1.1,129,75
1680,220,920,180,690,870,3.8333,160,410,570,2.5625,150,270,420,1.8,130,160,290,1.2308,110,120,230,1.0909,100,90,190,0.9,130,76
990,760,770,780,470,1250,0.60256,200,310,510,1.55,180,270,450,1.5,150,250,400,1.6667,130,150,280,1.1538,110,120,230,1.0909,131,76
1860,220,620,200,420,620,2.1,170,300,470,1.7647,160,230,390,1.4375,140,150,290,1.0714,120,110,230,0.91667,110,100,210,0.90909,130,76
920,1240,650,1100,660,1760,0.6,530,420,950,0.79245,440,350,790,0.79545,310,200,510,0.64516,140,120,260,0.85714,100,110,210,1.1,130,76
930,270,680,180,450,630,2.5,160,320,480,2,150,270,420,1.8,130,160,290,1.2308,110,110,220,1,100,100,200,1,129,75
910,250,690,190,700,890,3.6842,170,360,530,2.1176,160,300,460,1.875,140,180,320,1.2857,120,120,240,1,110,100,210,0.90909,129,75
910,220,710,180,440,620,2.4444,160,320,480,2,150,270,420,1.8,140,170,310,1.2143,110,130,240,1.1818,100,110,210,1.1,130,74
920,200,680,220,430,650,1.9545,220,320,540,1.4545,180,260,440,1.4444,150,170,320,1.1333,120,130,250,1.0833,100,110,210,1.1,130,74
910,240,550,180,460,640,2.5556,160,330,490,2.0625,150,250,400,1.6667,130,140,270,1.0769,110,110,220,1,100,90,190,0.9,129,74
920,360,620,180,630,810,3.5,160,450,610,2.8125,150,380,530,2.5333,120,250,370,2.0833,110,150,260,1.3636,100,130,230,1.3,129,74
920,300,690,180,450,630,2.5,160,330,490,2.0625,150,260,410,1.7333,130,160,290,1.2308,110,120,230,1.0909,100,90,190,0.9,128,74
930,230,690,180,410,590,2.2778,160,300,460,1.875,150,270,420,1.8,120,160,280,1.3333,110,120,230,1.0909,90,100,190,1.1111,128,74
910,240,670,200,480,680,2.4,170,330,500,1.9412,170,270,440,1.5882,150,160,310,1.0667,130,110,240,0.84615,110,90,200,0.81818,128,74
910,240,700,260,510,770,1.9615,210,390,600,1.8571,180,330,510,1.8333,160,220,380,1.375,130,140,270,1.0769,120,110,230,0.91667,129,74
910,210,620,190,410,600,2.1579,160,300,460,1.875,150,230,380,1.5333,130,150,280,1.1538,110,110,220,1,100,100,200,1,129,74
930,290,600,180,500,680,2.7778,150,360,510,2.4,140,290,430,2.0714,120,160,280,1.3333,100,110,210,1.1,90,100,190,1.1111,128,74
910,330,690,200,700,900,3.5,170,430,600,2.5294,160,350,510,2.1875,140,190,330,1.3571,110,130,240,1.1818,100,110,210,1.1,128,74
930,220,650,180,430,610,2.3889,150,320,470,2.1333,140,260,400,1.8571,120,160,280,1.3333,110,120,230,1.0909,90,110,200,1.2222,128,74
920,280,660,190,380,570,2,170,240,410,1.4118,150,180,330,1.2,140,110,250,0.78571,120,80,200,0.66667,110,50,160,0.45455,129,74
900,260,690,200,430,630,2.15,170,310,480,1.8235,160,260,420,1.625,140,150,290,1.0714,120,110,230,0.91667,110,100,210,0.90909,129,75
920,210,630,230,420,650,1.8261,230,300,530,1.3043,200,260,460,1.3,150,200,350,1.3333,130,140,270,1.0769,110,120,230,1.0909,129,75
910,290,600,180,450,630,2.5,160,300,460,1.875,150,250,400,1.6667,130,140,270,1.0769,110,100,210,0.90909,100,90,190,0.9,129,75
910,310,450,180,460,640,2.5556,160,330,490,2.0625,150,260,410,1.7333,130,140,270,1.0769,120,100,220,0.83333,100,90,190,0.9,128,75
920,460,690,460,700,1160,1.5217,170,420,590,2.4706,160,340,500,2.125,140,190,330,1.3571,110,130,240,1.1818,100,110,210,1.1,128,75
920,230,700,190,460,650,2.4211,160,320,480,2,150,260,410,1.7333,130,150,280,1.1538,110,110,220,1,100,100,200,1,128,74
910,220,680,200,460,660,2.3,170,330,500,1.9412,160,270,430,1.6875,140,150,290,1.0714,120,110,230,0.91667,110,100,210,0.90909,129,75
890,230,700,240,480,720,2,180,350,530,1.9444,170,300,470,1.7647,150,170,320,1.1333,130,120,250,0.92308,110,100,210,0.90909,129,75
930,190,600,210,420,630,2,160,290,450,1.8125,150,220,370,1.4667,120,150,270,1.25,110,120,230,1.0909,90,100,190,1.1111,129,75
910,330,570,180,490,670,2.7222,160,340,500,2.125,150,280,430,1.8667,130,150,280,1.1538,110,110,220,1,100,90,190,0.9,128,75
920,340,690,180,700,880,3.8889,150,450,600,3,150,380,530,2.5333,130,150,280,1.1538,110,110,220,1,90,100,190,1.1111,128,75
920,230,670,180,420,600,2.3333,160,310,470,1.9375,150,260,410,1.7333,130,160,290,1.2308,110,120,230,1.0909,100,100,200,1,128,75
910,250,660,190,440,630,2.3158,170,350,520,2.0588,150,290,440,1.9333,140,160,300,1.1429,110,110,220,1,110,100,210,0.90909,129,75
920,250,700,190,440,630,2.3158,170,320,490,1.8824,160,270,430,1.6875,110,160,270,1.4545,110,120,230,1.0909,110,100,210,0.90909,130,75
910,220,620,240,430,670,1.7917,200,320,520,1.6,180,270,450,1.5,150,170,320,1.1333,130,120,250,0.92308,120,100,220,0.83333,129,75
900,290,600,210,570,780,2.7143,170,350,520,2.0588,160,280,440,1.75,130,160,290,1.2308,120,110,230,0.91667,110,90,200,0.81818,129,75
930,300,610,170,470,640,2.7647,160,340,500,2.125,140,270,410,1.9286,120,160,280,1.3333,110,110,220,1,90,100,190,1.1111,129,75
920,320,680,170,460,630,2.7059,150,330,480,2.2,140,270,410,1.9286,120,160,280,1.3333,80,120,200,1.5,60,90,150,1.5,129,75
900,240,660,190,450,640,2.3684,170,320,490,1.8824,160,260,420,1.625,140,150,290,1.0714,120,110,230,0.91667,110,90,200,0.81818,129,75
920,240,680,180,430,610,2.3889,160,290,450,1.8125,150,220,370,1.4667,130,170,300,1.3077,110,120,230,1.0909,100,110,210,1.1,129,75
900,240,700,200,440,640,2.2,180,320,500,1.7778,160,260,420,1.625,140,160,300,1.1429,120,110,230,0.91667,110,100,210,0.90909,130,76
900,200,540,220,130,350,0.59091,190,130,320,0.68421,170,130,300,0.76471,150,130,280,0.86667,130,120,250,0.92308,110,100,210,0.90909,130,76
910,360,630,180,510,690,2.8333,150,360,510,2.4,140,290,430,2.0714,120,160,280,1.3333,100,120,220,1.2,90,100,190,1.1111,129,76
920,280,620,170,480,650,2.8235,150,350,500,2.3333,140,280,420,2,120,160,280,1.3333,100,120,220,1.2,100,100,200,1,129,75
910,300,680,220,690,910,3.1364,170,380,550,2.2353,160,330,490,2.0625,140,180,320,1.2857,120,120,240,1,100,100,200,1,129,75
860,230,680,180,690,870,3.8333,160,360,520,2.25,150,300,450,2,130,180,310,1.3846,110,130,240,1.1818,90,100,190,1.1111,130,76
960,180,730,170,450,620,2.6471,120,340,460,2.8333,110,280,390,2.5455,100,190,290,1.9,70,160,230,2.2857,60,130,190,2.1667,131,76
900,230,700,250,470,720,1.88,190,360,550,1.8947,180,310,490,1.7222,150,200,350,1.3333,120,140,260,1.1667,100,120,220,1.2,131,76
920,200,560,170,420,590,2.4706,150,310,460,2.0667,140,240,380,1.7143,120,140,260,1.1667,100,120,220,1.2,90,90,180,1,130,76
910,360,640,180,500,680,2.7778,160,350,510,2.1875,150,290,440,1.9333,130,150,280,1.1538,110,110,220,1,100,100,200,1,130,76
910,270,690,190,700,890,3.6842,160,330,490,2.0625,150,270,420,1.8,130,150,280,1.1538,120,110,230,0.91667,100,100,200,1,130,76
910,220,650,180,450,630,2.5,160,320,480,2,150,270,420,1.8,130,160,290,1.2308,110,110,220,1,100,90,190,0.9,130,76
900,260,680,190,640,830,3.3684,170,400,570,2.3529,160,330,490,2.0625,140,190,330,1.3571,120,120,240,1,100,100,200,1,130,75
910,220,700,180,470,650,2.6111,160,340,500,2.125,150,280,430,1.8667,130,170,300,1.3077,120,130,250,1.0833,100,110,210,1.1,131,76
870,210,650,230,430,660,1.8696,210,320,530,1.5238,180,270,450,1.5,140,170,310,1.2143,120,130,250,1.0833,100,120,220,1.2,131,76
960,220,690,140,700,840,5,120,410,530,3.4167,110,350,460,3.1818,90,200,290,2.2222,70,160,230,2.2857,60,130,190,2.1667,130,76
920,270,640,180,460,640,2.5556,160,330,490,2.0625,140,270,410,1.9286,130,160,290,1.2308,110,110,220,1,100,90,190,0.9,130,76
900,280,630,200,430,630,2.15,170,330,500,1.9412,160,290,450,1.8125,140,150,290,1.0714,120,110,230,0.91667,110,90,200,0.81818,130,76
920,270,630,180,500,680,2.7778,150,350,500,2.3333,150,280,430,1.8667,110,170,280,1.5455,110,120,230,1.0909,90,110,200,1.2222,130,76
900,290,680,190,430,620,2.2632,160,350,510,2.1875,150,290,440,1.9333,140,170,310,1.2143,110,120,230,1.0909,110,110,220,1,130,76
920,220,710,240,490,730,2.0417,170,370,540,2.1765,160,310,470,1.9375,140,190,330,1.3571,120,130,250,1.0833,100,120,220,1.2,131,76
910,210,580,230,400,630,1.7391,170,280,450,1.6471,160,230,390,1.4375,130,150,280,1.1538,120,120,240,1,100,100,200,1,131,76
910,330,580,230,590,820,2.5652,170,420,590,2.4706,160,330,490,2.0625,130,180,310,1.3846,110,120,230,1.0909,100,100,200,1,130,76
910,330,630,180,450,630,2.5,160,320,480,2,150,260,410,1.7333,130,150,280,1.1538,110,110,220,1,100,100,200,1,130,76
920,280,640,180,440,620,2.4444,150,320,470,2.1333,140,260,400,1.8571,110,160,270,1.4545,90,110,200,1.2222,70,100,170,1.4286,129,75
910,280,680,190,690,880,3.6316,160,360,520,2.25,150,290,440,1.9333,140,160,300,1.1429,110,120,230,1.0909,100,100,200,1,130,75
910,230,690,210,390,600,1.8571,170,260,430,1.5294,160,210,370,1.3125,140,170,310,1.2143,120,120,240,1,100,110,210,1.1,130,76
910,220,690,240,440,680,1.8333,200,320,520,1.6,150,270,420,1.8,150,180,330,1.2,130,130,260,1,120,110,230,0.91667,130,76
910,220,570,180,580,760,3.2222,150,300,450,2,150,240,390,1.6,120,150,270,1.25,110,110,220,1,90,100,190,1.1111,130,76
920,340,580,180,460,640,2.5556,140,330,470,2.3571,140,270,410,1.9286,130,160,290,1.2308,110,120,230,1.0909,100,100,200,1,129,75
920,340,660,180,430,610,2.3889,160,310,470,1.9375,150,240,390,1.6,130,150,280,1.1538,110,110,220,1,100,90,190,0.9,129,75
910,260,530,190,430,620,2.2632,170,310,480,1.8235,150,240,390,1.6,140,150,290,1.0714,120,110,230,0.91667,100,90,190,0.9,129,75
910,380,680,190,680,870,3.5789,170,350,520,2.0588,160,280,440,1.75,140,170,310,1.2143,120,130,250,1.0833,100,100,200,1,130,75
900,230,700,220,450,670,2.0455,180,320,500,1.7778,160,260,420,1.625,150,170,320,1.1333,130,120,250,0.92308,120,100,220,0.83333,130,76
910,200,610,220,420,640,1.9091,180,320,500,1.7778,160,250,410,1.5625,140,160,300,1.1429,110,130,240,1.1818,100,110,210,1.1,130,76
900,300,590,170,600,770,3.5294,150,400,550,2.6667,140,330,470,2.3571,130,140,270,1.0769,110,100,210,0.90909,90,80,170,0.88889,129,75
910,310,570,170,450,620,2.6471,150,320,470,2.1333,140,260,400,1.8571,120,150,270,1.25,100,110,210,1.1,90,100,190,1.1111,129,75
910,340,660,180,440,620,2.4444,150,330,480,2.2,140,270,410,1.9286,120,160,280,1.3333,100,110,210,1.1,100,100,200,1,129,75
1650,250,910,180,920,1100,5.1111,170,430,600,2.5294,150,300,450,2,140,170,310,1.2143,110,120,230,1.0909,100,100,200,1,129,75
990,740,780,540,540,1080,1,180,400,580,2.2222,160,350,510,2.1875,140,220,360,1.5714,110,150,260,1.3636,100,120,220,1.2,130,75
920,210,580,230,430,660,1.8696,170,300,470,1.7647,160,250,410,1.5625,130,160,290,1.2308,120,120,240,1,100,100,200,1,129,75
940,340,590,170,600,770,3.5294,140,350,490,2.5,130,250,380,1.9231,120,130,250,1.0833,90,80,170,0.88889,90,40,130,0.44444,129,75
920,350,700,190,450,640,2.3684,160,320,480,2,150,260,410,1.7333,130,150,280,1.1538,110,110,220,1,100,100,200,1,128,75
920,220,620,190,460,650,2.4211,160,370,530,2.3125,150,330,480,2.2,130,210,340,1.6154,110,120,230,1.0909,110,100,210,0.90909,128,75
570,300,540,190,550,740,2.8947,160,380,540,2.375,150,300,450,2,140,180,320,1.2857,120,120,240,1,100,100,200,1,128,75
1250,30,1030,40,760,800,19,40,660,700,16.5,40,610,650,15.25,40,500,540,12.5,40,460,500,11.5,40,450,490,11.25,129,74
920,220,670,240,440,680,1.8333,220,330,550,1.5,180,270,450,1.5,150,170,320,1.1333,130,130,260,1,110,110,220,1,128,74
910,250,620,180,450,630,2.5,160,330,490,2.0625,150,250,400,1.6667,130,140,270,1.0769,110,110,220,1,100,90,190,0.9,128,74
920,290,630,280,640,920,2.2857,170,420,590,2.4706,160,340,500,2.125,140,190,330,1.3571,120,120,240,1,110,100,210,0.90909,128,74
910,290,690,190,450,640,2.3684,160,320,480,2,160,260,420,1.625,130,150,280,1.1538,120,110,230,0.91667,110,90,200,0.81818,128,74
920,220,690,180,460,640,2.5556,150,310,460,2.0667,150,260,410,1.7333,120,150,270,1.25,100,110,210,1.1,80,100,180,1.25,129,74
910,230,690,190,510,700,2.6842,170,350,520,2.0588,150,290,440,1.9333,140,170,310,1.2143,120,120,240,1,110,100,210,0.90909,129,74
920,220,710,240,470,710,1.9583,200,340,540,1.7,180,270,450,1.5,150,170,320,1.1333,130,140,270,1.0769,110,120,230,1.0909,130,75
920,210,550,230,410,640,1.7826,180,290,470,1.6111,170,230,400,1.3529,150,140,290,0.93333,120,120,240,1,110,90,200,0.81818,129,75
910,370,360,190,370,560,1.9474,160,340,500,2.125,150,280,430,1.8667,140,150,290,1.0714,110,110,220,1,100,90,190,0.9,129,75
920,550,620,270,570,840,2.1111,170,360,530,2.1176,150,290,440,1.9333,130,160,290,1.2308,120,110,230,0.91667,100,90,190,0.9,129,75
900,300,680,200,490,690,2.45,170,340,510,2,160,280,440,1.75,140,160,300,1.1429,120,110,230,0.91667,110,90,200,0.81818,129,75
910,220,550,180,560,740,3.1111,160,360,520,2.25,150,300,450,2,120,170,290,1.4167,110,120,230,1.0909,90,100,190,1.1111,129,75
910,360,700,180,440,620,2.4444,160,320,480,2,150,260,410,1.7333,140,160,300,1.1429,110,120,230,1.0909,100,110,210,1.1,130,75
910,210,660,230,440,670,1.913,230,330,560,1.4348,200,280,480,1.4,170,170,340,1,140,130,270,0.92857,130,110,240,0.84615,130,75
910,250,620,180,430,610,2.3889,160,300,460,1.875,140,240,380,1.7143,130,140,270,1.0769,110,110,220,1,90,100,190,1.1111,130,75
920,290,620,190,630,820,3.3158,160,440,600,2.75,150,370,520,2.4667,130,220,350,1.6923,110,110,220,1,100,100,200,1,129,75
910,300,670,190,450,640,2.3684,160,320,480,2,150,260,410,1.7333,130,150,280,1.1538,110,110,220,1,110,90,200,0.81818,129,75
910,240,600,190,420,610,2.2105,160,330,490,2.0625,150,270,420,1.8,140,160,300,1.1429,110,120,230,1.0909,100,100,200,1,129,75
910,310,690,180,700,880,3.8889,130,380,510,2.9231,130,310,440,2.3846,130,180,310,1.3846,110,130,240,1.1818,90,110,200,1.2222,129,75
910,220,710,240,580,820,2.4167,170,380,550,2.2353,160,320,480,2,140,180,320,1.2857,120,130,250,1.0833,100,110,210,1.1,130,75
910,200,570,220,420,640,1.9091,190,300,490,1.5789,170,250,420,1.4706,150,160,310,1.0667,120,120,240,1,110,110,220,1,131,76
920,340,560,180,500,680,2.7778,150,360,510,2.4,140,280,420,2,120,160,280,1.3333,100,110,210,1.1,90,100,190,1.1111,131,76
910,360,630,180,640,820,3.5556,150,420,570,2.8,150,350,500,2.3333,130,190,320,1.4615,110,120,230,1.0909,100,100,200,1,130,76
920,280,570,180,460,640,2.5556,160,330,490,2.0625,150,280,430,1.8667,130,160,290,1.2308,110,120,230,1.0909,100,90,190,0.9,130,76
910,350,690,180,410,590,2.2778,160,280,440,1.75,150,200,350,1.3333,130,130,260,1,110,110,220,1,90,90,180,1,131,76
930,220,700,180,480,660,2.6667,160,340,500,2.125,150,280,430,1.8667,130,170,300,1.3077,110,130,240,1.1818,90,110,200,1.2222,132,76
900,230,700,250,450,700,1.8,250,340,590,1.36,200,330,530,1.65,170,220,390,1.2941,130,130,260,1,120,110,230,0.91667,132,76
930,200,640,180,430,610,2.3889,150,300,450,2,140,230,370,1.6429,120,150,270,1.25,110,110,220,1,90,100,190,1.1111,132,76
910,290,530,190,480,670,2.5263,160,340,500,2.125,150,280,430,1.8667,130,150,280,1.1538,120,110,230,0.91667,100,90,190,0.9,132,76
910,380,620,370,630,1000,1.7027,180,450,630,2.5,160,360,520,2.25,140,200,340,1.4286,110,130,240,1.1818,110,110,220,1,131,76
920,290,580,180,440,620,2.4444,150,320,470,2.1333,140,260,400,1.8571,130,160,290,1.2308,100,120,220,1.2,90,100,190,1.1111,131,76
920,340,680,190,460,650,2.4211,170,320,490,1.8824,150,270,420,1.8,140,150,290,1.0714,110,120,230,1.0909,100,100,200,1,131,76
910,240,700,190,450,640,2.3684,170,320,490,1.8824,160,260,420,1.625,140,160,300,1.1429,120,110,230,0.91667,110,100,210,0.90909,132,76
900,210,630,230,410,640,1.7826,230,290,520,1.2609,220,220,440,1,170,140,310,0.82353,140,100,240,0.71429,130,80,210,0.61538,131,76
910,270,550,180,450,630,2.5,150,330,480,2.2,150,270,420,1.8,120,150,270,1.25,110,110,220,1,100,100,200,1,131,76
910,360,300,180,310,490,1.7222,160,310,470,1.9375,140,270,410,1.9286,130,160,290,1.2308,110,120,230,1.0909,100,90,190,0.9,130,76
920,610,690,280,450,730,1.6071,160,320,480,2,150,270,420,1.8,130,160,290,1.2308,110,120,230,1.0909,100,100,200,1,130,76
910,230,680,190,510,700,2.6842,170,330,500,1.9412,160,270,430,1.6875,130,160,290,1.2308,120,110,230,0.91667,100,90,190,0.9,131,76
900,230,670,190,450,640,2.3684,170,330,500,1.9412,160,260,420,1.625,140,160,300,1.1429,120,120,240,1,100,100,200,1,131,76
900,230,700,250,480,730,1.92,180,370,550,2.0556,160,320,480,2,140,190,330,1.3571,120,140,260,1.1667,100,120,220,1.2,131,76
930,200,580,210,420,630,2,160,300,460,1.875,140,250,390,1.7857,120,160,280,1.3333,100,130,230,1.3,90,110,200,1.2222,131,76
910,350,560,180,500,680,2.7778,170,340,510,2,150,280,430,1.8667,140,150,290,1.0714,110,110,220,1,100,90,190,0.9,131,76
1820,350,640,190,650,840,3.4211,160,410,570,2.5625,160,340,500,2.125,130,230,360,1.7692,120,140,260,1.1667,110,120,230,1.0909,130,76
910,1180,690,790,460,1250,0.58228,310,310,620,1,170,300,470,1.7647,140,180,320,1.2857,110,120,230,1.0909,100,100,200,1,130,76
910,220,690,180,480,660,2.6667,170,340,510,2,150,280,430,1.8667,130,170,300,1.3077,120,130,250,1.0833,100,110,210,1.1,132,76
910,220,690,240,420,660,1.75,190,300,490,1.5789,170,250,420,1.4706,150,170,320,1.1333,130,130,260,1,110,110,220,1,131,76
920,220,690,180,450,630,2.5,160,330,490,2.0625,150,260,410,1.7333,130,160,290,1.2308,110,120,230,1.0909,100,100,200,1,131,76
910,230,660,190,470,660,2.4737,160,340,500,2.125,150,280,430,1.8667,130,150,280,1.1538,120,110,230,0.91667,100,100,200,1,131,76
920,250,660,180,490,670,2.7222,160,350,510,2.1875,150,290,440,1.9333,130,160,290,1.2308,110,120,230,1.0909,100,100,200,1,131,76
910,260,600,190,440,630,2.3158,170,310,480,1.8235,150,260,410,1.7333,140,150,290,1.0714,120,110,230,0.91667,110,90,200,0.81818,132,76
920,310,690,190,400,590,2.1053,170,260,430,1.5294,150,200,350,1.3333,140,130,270,0.92857,110,90,200,0.81818,100,80,180,0.8,132,76
910,230,700,210,470,680,2.2381,180,350,530,1.9444,170,290,460,1.7059,140,180,320,1.2857,130,120,250,0.92308,110,100,210,0.90909,132,76
910,210,590,230,410,640,1.7826,200,300,500,1.5,170,260,430,1.5294,150,160,310,1.0667,130,120,250,0.92308,110,100,210,0.90909,132,76
920,320,650,180,500,680,2.7778,160,340,500,2.125,150,280,430,1.8667,130,160,290,1.2308,110,110,220,1,90,100,190,1.1111,132,76
920,270,490,190,460,650,2.4211,160,330,490,2.0625,150,270,420,1.8,130,150,280,1.1538,120,110,230,0.91667,100,100,200,1,132,76
910,430,630,430,640,1070,1.4884,180,390,570,2.1667,160,320,480,2,140,170,310,1.2143,120,120,240,1,110,100,210,0.90909,132,76
910,280,720,190,720,910,3.7895,160,360,520,2.25,150,290,440,1.9333,130,160,290,1.2308,110,120,230,1.0909,100,100,200,1,132,76
910,190,700,170,410,580,2.4118,150,300,450,2,140,250,390,1.7857,130,160,290,1.2308,110,120,230,1.0909,100,100,200,1,133,76
930,210,690,230,460,690,2,190,350,540,1.8421,170,290,460,1.7059,140,190,330,1.3571,120,140,260,1.1667,100,120,220,1.2,133,77
900,240,630,190,490,680,2.5789,170,320,490,1.8824,160,240,400,1.5,140,140,280,1,120,100,220,0.83333,100,80,180,0.8,133,77
920,270,660,180,460,640,2.5556,150,330,480,2.2,150,270,420,1.8,120,150,270,1.25,110,110,220,1,100,100,200,1,132,76
910,260,630,180,480,660,2.6667,150,370,520,2.4667,150,320,470,2.1333,130,160,290,1.2308,110,110,220,1,100,100,200,1,132,76
910,280,620,180,460,640,2.5556,160,320,480,2,150,270,420,1.8,130,160,290,1.2308,110,120,230,1.0909,100,100,200,1,132,76
910,290,690,180,490,670,2.7222,160,380,540,2.375,150,320,470,2.1333,130,180,310,1.3846,110,130,240,1.1818,100,110,210,1.1,132,76
900,220,710,180,450,630,2.5,160,330,490,2.0625,150,270,420,1.8,130,170,300,1.3077,110,130,240,1.1818,90,110,200,1.2222,132,76
940,190,700,210,450,660,2.1429,180,340,520,1.8889,150,280,430,1.8667,130,180,310,1.3846,110,140,250,1.2727,90,120,210,1.3333,133,76
910,240,610,220,620,840,2.8182,170,410,580,2.4118,160,330,490,2.0625,130,170,300,1.3077,120,120,240,1,100,90,190,0.9,132,76
930,300,630,190,460,650,2.4211,160,330,490,2.0625,150,270,420,1.8,130,150,280,1.1538,110,110,220,1,100,90,190,0.9,132,76
900,300,610,200,450,650,2.25,170,320,490,1.8824,160,260,420,1.625,140,140,280,1,120,100,220,0.83333,90,80,170,0.88889,132,76
910,290,600,180,610,790,3.3889,160,360,520,2.25,150,280,430,1.8667,140,160,300,1.1429,110,120,230,1.0909,110,100,210,0.90909,132,76
900,310,670,200,390,590,1.95,180,270,450,1.5,160,230,390,1.4375,140,170,310,1.2143,120,130,250,1.0833,110,100,210,0.90909,133,76
900,230,690,250,480,730,1.92,190,370,560,1.9474,170,320,490,1.8824,150,200,350,1.3333,120,140,260,1.1667,110,110,220,1,133,76
920,210,600,180,390,570,2.1667,150,280,430,1.8667,130,210,340,1.6154,120,150,270,1.25,100,120,220,1.2,90,100,190,1.1111,133,76
920,320,650,180,530,710,2.9444,160,360,520,2.25,140,300,440,2.1429,130,160,290,1.2308,100,120,220,1.2,90,100,190,1.1111,133,76
920,270,650,180,480,660,2.6667,170,340,510,2,150,280,430,1.8667,130,160,290,1.2308,110,120,230,1.0909,100,90,190,0.9,132,76
910,270,680,210,610,820,2.9048,170,360,530,2.1176,170,300,470,1.7647,140,160,300,1.1429,130,110,240,0.84615,110,90,200,0.81818,132,76
880,230,680,190,690,880,3.6316,160,400,560,2.5,160,330,490,2.0625,140,180,320,1.2857,120,120,240,1,110,100,210,0.90909,133,76
940,200,730,200,450,650,2.25,150,300,450,2,130,230,360,1.7692,120,160,280,1.3333,90,120,210,1.3333,80,90,170,1.125,133,77
910,210,600,230,440,670,1.913,190,330,520,1.7368,180,270,450,1.5,140,170,310,1.2143,130,120,250,0.92308,110,110,220,1,133,77
900,310,680,180,490,670,2.7222,160,340,500,2.125,150,280,430,1.8667,130,150,280,1.1538,110,110,220,1,90,90,180,1,133,77
920,220,660,170,470,640,2.7647,150,340,490,2.2667,140,280,420,2,120,160,280,1.3333,100,120,220,1.2,90,110,200,1.2222,133,76
920,260,650,180,450,630,2.5,160,330,490,2.0625,150,270,420,1.8,130,150,280,1.1538,110,110,220,1,100,100,200,1,132,76
900,270,640,190,500,690,2.6316,170,330,500,1.9412,160,270,430,1.6875,140,150,290,1.0714,120,110,230,0.91667,110,90,200,0.81818,133,76
910,260,690,190,660,850,3.4737,170,370,540,2.1765,160,300,460,1.875,130,170,300,1.3077,120,130,250,1.0833,100,100,200,1,134,77
900,220,690,220,480,700,2.1818,180,360,540,2,160,300,460,1.875,150,180,330,1.2,120,120,240,1,120,120,240,1,134,77
910,210,620,230,430,660,1.8696,180,310,490,1.7222,160,250,410,1.5625,140,160,300,1.1429,120,120,240,1,110,110,220,1,133,77
910,290,690,170,700,870,4.1176,150,420,570,2.8,140,360,500,2.5714,130,190,320,1.4615,100,130,230,1.3,100,100,200,1,133,77
910,220,610,170,480,650,2.8235,150,350,500,2.3333,140,290,430,2.0714,120,170,290,1.4167,110,120,230,1.0909,90,100,190,1.1111,133,77
920,300,690,170,470,640,2.7647,160,370,530,2.3125,140,330,470,2.3571,120,170,290,1.4167,110,120,230,1.0909,90,110,200,1.2222,133,76
920,230,670,180,680,860,3.7778,160,400,560,2.5,150,330,480,2.2,130,190,320,1.4615,110,130,240,1.1818,100,110,210,1.1,133,77
910,250,680,200,440,640,2.2,180,350,530,1.9444,160,290,450,1.8125,150,170,320,1.1333,120,120,240,1,110,100,210,0.90909,134,77
900,230,690,250,460,710,1.84,210,340,550,1.619,180,280,460,1.5556,160,190,350,1.1875,140,130,270,0.92857,120,110,230,0.91667,134,77
920,210,640,180,420,600,2.3333,160,290,450,1.8125,150,230,380,1.5333,130,140,270,1.0769,110,110,220,1,100,90,190,0.9,134,77
910,280,620,210,630,840,3,170,410,580,2.4118,160,340,500,2.125,140,180,320,1.2857,120,120,240,1,110,100,210,0.90909,133,77
930,290,660,180,470,650,2.6111,160,350,510,2.1875,150,280,430,1.8667,130,160,290,1.2308,120,120,240,1,100,100,200,1,133,76
