cp,st,dt,sw10,dw10,sw10+dw10,dw10/sw10,sw25,dw25,sw25+dw25,dw25/sw25,sw33,dw33,sw33+dw33,dw33/sw33,sw50,dw50,sw50+dw50,dw50/sw50,sw66,dw66,sw66+dw66,dw66/sw66,sw75,dw75,sw75+dw75,dw75/sw75,sys,dia,
900,240,700,180,530,710,2.9444,170,300,470,1.7647,150,240,390,1.6,130,150,280,1.1538,110,100,210,0.90909,100,80,180,0.8,179,113
900,200,700,180,650,830,3.6111,160,340,500,2.125,160,290,450,1.8125,130,160,290,1.2308,110,90,200,0.81818,100,70,170,0.7,179,113
890,200,650,170,500,670,2.9412,150,330,480,2.2,140,230,370,1.6429,120,170,290,1.4167,100,90,190,0.9,90,70,160,0.77778,179,113
950,240,720,180,470,650,2.6111,140,320,460,2.2857,140,270,410,1.9286,110,180,290,1.6364,100,130,230,1.3,90,110,200,1.2222,180,113
910,230,640,200,540,740,2.7,170,310,480,1.8235,170,270,440,1.5882,140,150,290,1.0714,130,90,220,0.69231,110,80,190,0.72727,180,113
900,270,700,220,490,710,2.2273,180,310,490,1.7222,170,270,440,1.5882,150,170,320,1.1333,120,100,220,0.83333,120,80,200,0.66667,180,113
910,200,610,180,380,560,2.1111,150,250,400,1.6667,150,220,370,1.4667,130,150,280,1.1538,110,100,210,0.90909,100,80,180,0.8,180,113
930,300,690,170,400,570,2.3529,150,280,430,1.8667,140,240,380,1.7143,130,160,290,1.2308,100,100,200,1,100,90,190,0.9,179,113
890,240,670,200,400,600,2,180,270,450,1.5,170,230,400,1.3529,150,140,290,0.93333,120,80,200,0.66667,100,70,170,0.7,179,113
900,220,690,190,420,610,2.2105,160,260,420,1.625,160,230,390,1.4375,140,150,290,1.0714,120,100,220,0.83333,110,70,180,0.63636,179,112
920,210,700,180,440,620,2.4444,160,270,430,1.6875,150,250,400,1.6667,130,160,290,1.2308,110,100,210,0.90909,100,90,190,0.9,179,112
900,220,680,200,440,640,2.2,180,290,470,1.6111,170,250,420,1.4706,140,160,300,1.1429,130,90,220,0.69231,110,80,190,0.72727,180,112
900,220,690,220,420,640,1.9091,180,280,460,1.5556,170,230,400,1.3529,150,150,300,1,120,110,230,0.91667,110,80,190,0.72727,179,112
900,210,540,180,400,580,2.2222,150,260,410,1.7333,140,220,360,1.5714,130,130,260,1,110,90,200,0.81818,100,80,180,0.8,178,112
910,360,690,180,330,510,1.8333,160,240,400,1.5,150,200,350,1.3333,130,120,250,0.92308,120,90,210,0.75,100,70,170,0.7,178,112
900,220,680,190,390,580,2.0526,160,260,420,1.625,150,220,370,1.4667,140,140,280,1,110,90,200,0.81818,100,80,180,0.8,178,112
890,220,680,180,340,520,1.8889,160,250,410,1.5625,150,210,360,1.4,130,130,260,1,120,90,210,0.75,100,70,170,0.7,179,112
900,210,680,210,430,640,2.0476,170,270,440,1.5882,160,220,380,1.375,140,130,270,0.92857,120,90,210,0.75,100,80,180,0.8,179,112
910,220,700,200,460,660,2.3,170,310,480,1.8235,160,270,430,1.6875,150,170,320,1.1333,120,110,230,0.91667,110,80,190,0.72727,179,113
910,210,700,190,360,550,1.8947,170,230,400,1.3529,160,200,360,1.25,140,120,260,0.85714,120,90,210,0.75,110,80,190,0.72727,178,113
920,210,710,170,400,570,2.3529,150,280,430,1.8667,140,240,380,1.7143,130,140,270,1.0769,110,90,200,0.81818,90,80,170,0.88889,178,113
910,210,520,180,400,580,2.2222,150,280,430,1.8667,140,240,380,1.7143,130,160,290,1.2308,110,100,210,0.90909,90,80,170,0.88889,177,113
890,390,680,180,380,560,2.1111,160,260,420,1.625,160,220,380,1.375,140,140,280,1,120,90,210,0.75,110,70,180,0.63636,177,113
920,210,690,170,460,630,2.7059,160,290,450,1.8125,150,240,390,1.6,130,160,290,1.2308,110,100,210,0.90909,90,90,180,1,178,113
900,230,670,190,430,620,2.2632,170,290,460,1.7059,160,250,410,1.5625,140,170,310,1.2143,120,100,220,0.83333,100,90,190,0.9,179,113
910,230,710,210,420,630,2,180,290,470,1.6111,160,250,410,1.5625,150,170,320,1.1333,120,100,220,0.83333,110,80,190,0.72727,178,113
670,200,650,180,350,530,1.9444,150,240,390,1.6,140,200,340,1.4286,130,120,250,0.92308,110,90,200,0.81818,100,80,180,0.8,178,113
1140,20,840,20,650,670,32.5,20,540,560,27,20,510,530,25.5,20,30,50,1.5,20,30,50,1.5,20,30,50,1.5,178,113
910,300,700,180,420,600,2.3333,150,260,410,1.7333,150,220,370,1.4667,130,150,280,1.1538,120,90,210,0.75,110,70,180,0.63636,177,113
900,210,690,180,430,610,2.3889,150,280,430,1.8667,140,240,380,1.7143,130,150,280,1.1538,110,100,210,0.90909,100,80,180,0.8,177,113
900,210,680,180,460,640,2.5556,160,290,450,1.8125,150,250,400,1.6667,130,160,290,1.2308,120,100,220,0.83333,100,80,180,0.8,178,113
910,220,710,190,460,650,2.4211,170,310,480,1.8235,160,260,420,1.625,140,170,310,1.2143,120,110,230,0.91667,100,80,180,0.8,178,113
910,200,710,190,370,560,1.9474,170,250,420,1.4706,150,220,370,1.4667,130,140,270,1.0769,120,100,220,0.83333,100,90,190,0.9,177,113
900,200,690,170,450,620,2.6471,150,270,420,1.8,140,230,370,1.6429,120,140,260,1.1667,110,90,200,0.81818,90,80,170,0.88889,176,112
890,210,680,180,380,560,2.1111,150,260,410,1.7333,150,230,380,1.5333,130,140,270,1.0769,110,90,200,0.81818,100,80,180,0.8,175,112
900,210,670,180,390,570,2.1667,150,270,420,1.8,150,240,390,1.6,130,150,280,1.1538,110,100,210,0.90909,100,80,180,0.8,176,112
890,230,670,180,400,580,2.2222,160,260,420,1.625,150,230,380,1.5333,140,140,280,1,120,90,210,0.75,100,80,180,0.8,176,112
910,220,680,180,440,620,2.4444,160,300,460,1.875,150,250,400,1.6667,150,160,310,1.0667,120,100,220,0.83333,110,80,190,0.72727,176,112
900,230,690,210,450,660,2.1429,170,310,480,1.8235,170,260,430,1.5294,140,170,310,1.2143,130,100,230,0.76923,110,90,200,0.81818,176,112
910,210,610,180,350,530,1.9444,160,250,410,1.5625,150,210,360,1.4,130,130,260,1,110,90,200,0.81818,100,70,170,0.7,175,112
910,300,590,180,470,650,2.6111,150,270,420,1.8,150,240,390,1.6,130,140,270,1.0769,110,90,200,0.81818,100,70,170,0.7,174,111
930,320,650,170,370,540,2.1765,150,260,410,1.7333,140,230,370,1.6429,130,140,270,1.0769,100,90,190,0.9,90,80,170,0.88889,173,111
880,280,670,190,390,580,2.0526,160,260,420,1.625,150,220,370,1.4667,130,140,270,1.0769,110,80,190,0.72727,100,70,170,0.7,173,111
900,210,670,180,400,580,2.2222,160,270,430,1.6875,150,230,380,1.5333,140,140,280,1,110,90,200,0.81818,100,80,180,0.8,173,111
890,230,670,200,350,550,1.75,170,280,450,1.6471,160,240,400,1.5,150,180,330,1.2,130,100,230,0.76923,120,80,200,0.66667,174,111
860,220,670,190,400,590,2.1053,180,290,470,1.6111,160,240,400,1.5,140,150,290,1.0714,120,90,210,0.75,100,80,180,0.8,173,111
880,190,660,160,570,730,3.5625,140,290,430,2.0714,130,250,380,1.9231,120,150,270,1.25,100,100,200,1,80,80,160,1,172,110
890,220,590,170,330,500,1.9412,150,260,410,1.7333,140,220,360,1.5714,120,130,250,1.0833,110,100,210,0.90909,100,80,180,0.8,172,110
860,300,630,200,410,610,2.05,170,290,460,1.7059,160,250,410,1.5625,150,160,310,1.0667,130,100,230,0.76923,120,80,200,0.66667,171,110
860,230,640,190,360,550,1.8947,160,290,450,1.8125,150,260,410,1.7333,130,190,320,1.4615,110,120,230,1.0909,110,100,210,0.90909,170,110
890,220,610,170,550,720,3.2353,150,320,470,2.1333,140,280,420,2,130,180,310,1.3846,100,140,240,1.4,80,120,200,1.5,170,110
880,280,600,210,490,700,2.3333,180,270,450,1.5,180,230,410,1.2778,160,180,340,1.125,140,100,240,0.71429,130,90,220,0.69231,170,109
850,280,640,300,470,770,1.5667,210,290,500,1.381,200,230,430,1.15,180,170,350,0.94444,150,90,240,0.6,140,70,210,0.5,168,109
890,210,490,190,500,690,2.6316,160,360,520,2.25,150,300,450,2,140,190,330,1.3571,100,140,240,1.4,100,120,220,1.2,168,108
910,400,670,270,670,940,2.4815,170,400,570,2.3529,150,330,480,2.2,130,230,360,1.7692,110,150,260,1.3636,90,110,200,1.2222,169,108
880,240,670,200,420,620,2.1,180,290,470,1.6111,170,240,410,1.4118,150,160,310,1.0667,130,100,230,0.76923,110,80,190,0.72727,169,108
930,210,710,230,440,670,1.913,170,320,490,1.8824,150,270,420,1.8,140,190,330,1.3571,120,130,250,1.0833,100,120,220,1.2,170,108
940,220,700,190,410,600,2.1579,180,290,470,1.6111,160,240,400,1.5,150,150,300,1,130,100,230,0.76923,110,90,200,0.81818,171,108
960,240,660,210,600,810,2.8571,180,330,510,1.8333,180,270,450,1.5,160,180,340,1.125,140,110,250,0.78571,130,90,220,0.69231,172,108
930,300,710,210,420,630,2,180,290,470,1.6111,170,250,420,1.4706,150,170,320,1.1333,140,100,240,0.71429,120,90,210,0.75,172,107
960,220,680,180,440,620,2.4444,160,320,480,2,150,270,420,1.8,140,170,310,1.2143,120,110,230,0.91667,100,100,200,1,172,106
940,280,720,200,410,610,2.05,180,300,480,1.6667,170,260,430,1.5294,150,160,310,1.0667,140,100,240,0.71429,120,80,200,0.66667,172,106
960,220,730,190,470,660,2.4737,170,310,480,1.8235,160,270,430,1.6875,140,180,320,1.2857,120,120,240,1,100,100,200,1,173,105
960,230,720,200,470,670,2.35,180,370,550,2.0556,170,310,480,1.8235,150,180,330,1.2,130,110,240,0.84615,120,100,220,0.83333,173,104
960,240,730,210,420,630,2,190,300,490,1.5789,180,230,410,1.2778,160,170,330,1.0625,140,110,250,0.78571,120,90,210,0.75,173,103
960,230,610,200,450,650,2.25,180,280,460,1.5556,170,250,420,1.4706,150,160,310,1.0667,120,100,220,0.83333,110,90,200,0.81818,172,102
970,350,550,190,450,640,2.3684,170,310,480,1.8235,160,250,410,1.5625,140,180,320,1.2857,120,110,230,0.91667,100,90,190,0.9,171,101
960,420,710,340,650,990,1.9118,180,340,520,1.8889,170,290,460,1.7059,150,210,360,1.4,130,120,250,0.92308,110,100,210,0.90909,170,100
960,250,720,200,510,710,2.55,170,360,530,2.1176,160,300,460,1.875,140,200,340,1.4286,120,130,250,1.0833,100,100,200,1,170,99
930,240,640,210,650,860,3.0952,190,300,490,1.5789,180,270,450,1.5,170,180,350,1.0588,140,110,250,0.78571,130,90,220,0.69231,169,98
940,290,720,220,400,620,1.8182,180,350,530,1.9444,170,280,450,1.6471,150,190,340,1.2667,130,110,240,0.84615,110,90,200,0.81818,168,97
950,220,720,210,580,790,2.7619,190,310,500,1.6316,180,260,440,1.4444,160,170,330,1.0625,140,110,250,0.78571,120,90,210,0.75,167,96
980,230,680,200,510,710,2.55,170,340,510,2,160,310,470,1.9375,140,210,350,1.5,120,130,250,1.0833,110,100,210,0.90909,165,95
960,300,680,210,590,800,2.8095,190,320,510,1.6842,180,280,460,1.5556,160,170,330,1.0625,140,100,240,0.71429,130,80,210,0.61538,165,95
960,280,650,210,440,650,2.0952,180,330,510,1.8333,170,290,460,1.7059,150,200,350,1.3333,140,120,260,0.85714,120,100,220,0.83333,165,94
970,310,680,210,510,720,2.4286,180,370,550,2.0556,170,280,450,1.6471,140,200,340,1.4286,130,120,250,0.92308,110,100,210,0.90909,165,93
1020,290,660,190,580,770,3.0526,170,320,490,1.8824,150,280,430,1.8667,140,170,310,1.2143,120,120,240,1,110,100,210,0.90909,165,93
1000,360,710,270,490,760,1.8148,200,310,510,1.55,190,270,460,1.4211,160,190,350,1.1875,150,90,240,0.6,130,80,210,0.61538,164,92
1020,290,730,200,530,730,2.65,180,380,560,2.1111,170,280,450,1.6471,150,180,330,1.2,130,120,250,0.92308,120,100,220,0.83333,163,92
990,290,770,210,620,830,2.9524,180,430,610,2.3889,180,310,490,1.7222,160,190,350,1.1875,140,110,250,0.78571,120,80,200,0.66667,162,91
1000,220,770,210,580,790,2.7619,170,400,570,2.3529,170,300,470,1.7647,140,200,340,1.4286,120,140,260,1.1667,110,120,230,1.0909,162,91
1010,230,770,180,690,870,3.8333,170,370,540,2.1765,150,300,450,2,130,230,360,1.7692,110,130,240,1.1818,100,110,210,1.1,161,90
990,240,750,200,550,750,2.75,180,340,520,1.8889,170,290,460,1.7059,140,210,350,1.5,130,130,260,1,110,110,220,1,161,90
1000,240,770,220,490,710,2.2273,180,350,530,1.9444,170,290,460,1.7059,160,210,370,1.3125,140,130,270,0.92857,120,100,220,0.83333,160,89
970,230,740,190,450,640,2.3684,180,320,500,1.7778,160,290,450,1.8125,140,190,330,1.3571,120,120,240,1,110,100,210,0.90909,159,89
950,230,720,200,500,700,2.5,180,330,510,1.8333,160,280,440,1.75,150,200,350,1.3333,120,120,240,1,110,100,210,0.90909,158,88
970,230,730,190,500,690,2.6316,170,340,510,2,160,290,450,1.8125,130,200,330,1.5385,120,130,250,1.0833,100,100,200,1,158,87
990,240,750,200,470,670,2.35,180,320,500,1.7778,170,270,440,1.5882,140,190,330,1.3571,130,120,250,0.92308,110,90,200,0.81818,158,87
980,240,740,210,470,680,2.2381,180,320,500,1.7778,170,270,440,1.5882,150,180,330,1.2,130,110,240,0.84615,120,90,210,0.75,157,87
990,240,760,210,510,720,2.4286,190,330,520,1.7368,170,290,460,1.7059,150,190,340,1.2667,130,120,250,0.92308,120,100,220,0.83333,157,86
980,230,730,200,450,650,2.25,180,310,490,1.7222,170,270,440,1.5882,140,180,320,1.2857,130,110,240,0.84615,110,90,200,0.81818,156,86
980,250,750,200,490,690,2.45,170,330,500,1.9412,160,280,440,1.75,140,180,320,1.2857,120,110,230,0.91667,110,90,200,0.81818,155,86
980,230,750,190,510,700,2.6842,180,340,520,1.8889,160,290,450,1.8125,140,200,340,1.4286,120,130,250,1.0833,110,100,210,0.90909,154,85
970,230,740,190,490,680,2.5789,170,340,510,2,160,280,440,1.75,140,190,330,1.3571,120,120,240,1,110,90,200,0.81818,153,85
1000,230,730,190,460,650,2.4211,170,320,490,1.8824,160,280,440,1.75,140,190,330,1.3571,130,120,250,0.92308,110,100,210,0.90909,153,85
1010,270,720,210,480,690,2.2857,180,320,500,1.7778,180,280,460,1.5556,150,190,340,1.2667,130,120,250,0.92308,120,100,220,0.83333,152,85
980,290,750,200,480,680,2.4,180,320,500,1.7778,170,280,450,1.6471,140,190,330,1.3571,130,120,250,0.92308,110,90,200,0.81818,151,85
980,230,730,200,470,670,2.35,170,320,490,1.8824,160,280,440,1.75,140,190,330,1.3571,120,110,230,0.91667,110,90,200,0.81818,150,84
990,250,760,190,460,650,2.4211,170,340,510,2,160,290,450,1.8125,140,200,340,1.4286,120,120,240,1,100,100,200,1,150,84
980,230,740,200,450,650,2.25,180,320,500,1.7778,170,280,450,1.6471,140,170,310,1.2143,130,120,250,0.92308,110,90,200,0.81818,150,84
970,240,730,200,450,650,2.25,190,310,500,1.6316,170,270,440,1.5882,150,190,340,1.2667,130,110,240,0.84615,120,100,220,0.83333,150,84
1000,240,770,210,470,680,2.2381,180,330,510,1.8333,170,280,450,1.6471,160,190,350,1.1875,130,130,260,1,120,100,220,0.83333,150,84
1010,230,780,200,460,660,2.3,170,330,500,1.9412,160,280,440,1.75,140,190,330,1.3571,120,140,260,1.1667,110,110,220,1,149,84
980,230,760,210,460,670,2.1905,180,330,510,1.8333,170,290,460,1.7059,150,190,340,1.2667,130,120,250,0.92308,110,100,210,0.90909,149,84
1000,220,760,200,540,740,2.7,170,370,540,2.1765,160,300,460,1.875,150,190,340,1.2667,120,130,250,1.0833,110,100,210,0.90909,149,84
950,240,700,200,480,680,2.4,180,320,500,1.7778,170,270,440,1.5882,150,180,330,1.2,130,110,240,0.84615,110,100,210,0.90909,149,84
950,250,720,200,440,640,2.2,180,320,500,1.7778,170,280,450,1.6471,150,180,330,1.2,130,120,250,0.92308,110,100,210,0.90909,150,84
1000,230,780,190,450,640,2.3684,170,330,500,1.9412,160,280,440,1.75,140,200,340,1.4286,120,130,250,1.0833,100,110,210,1.1,151,84
1000,220,770,200,460,660,2.3,170,340,510,2,160,280,440,1.75,140,200,340,1.4286,120,130,250,1.0833,100,120,220,1.2,151,84
1000,230,760,200,490,690,2.45,170,330,500,1.9412,170,280,450,1.6471,140,180,320,1.2857,130,120,250,0.92308,110,100,210,0.90909,151,84
1020,240,730,190,520,710,2.7368,170,340,510,2,160,290,450,1.8125,140,190,330,1.3571,120,130,250,1.0833,100,110,210,1.1,151,84
2020,290,760,210,460,670,2.1905,180,320,500,1.7778,170,280,450,1.6471,150,190,340,1.2667,130,120,250,0.92308,110,100,210,0.90909,152,84
1020,1260,790,870,450,1320,0.51724,700,320,1020,0.45714,640,270,910,0.42188,340,170,510,0.5,130,120,250,0.92308,120,90,210,0.75,152,84
1020,230,730,210,490,700,2.3333,180,330,510,1.8333,170,280,450,1.6471,150,190,340,1.2667,130,130,260,1,120,110,230,0.91667,153,84
1040,290,800,190,480,670,2.5263,180,330,510,1.8333,160,280,440,1.75,140,190,330,1.3571,130,120,250,0.92308,110,100,210,0.90909,153,84
1010,240,760,210,460,670,2.1905,180,330,510,1.8333,170,280,450,1.6471,160,180,340,1.125,130,120,250,0.92308,120,90,210,0.75,153,84
990,250,750,210,440,650,2.0952,180,320,500,1.7778,180,270,450,1.5,160,170,330,1.0625,140,110,250,0.78571,120,90,210,0.75,153,84
1020,240,760,210,460,670,2.1905,180,320,500,1.7778,180,270,450,1.5,150,180,330,1.2,130,120,250,0.92308,120,100,220,0.83333,153,84
1010,260,780,210,470,680,2.2381,190,320,510,1.6842,170,270,440,1.5882,160,180,340,1.125,130,120,250,0.92308,120,100,220,0.83333,153,84
1020,230,780,200,440,640,2.2,170,320,490,1.8824,160,270,430,1.6875,140,180,320,1.2857,130,120,250,0.92308,110,100,210,0.90909,153,84
1000,240,770,200,470,670,2.35,180,320,500,1.7778,170,270,440,1.5882,140,180,320,1.2857,130,110,240,0.84615,110,100,210,0.90909,153,84
1010,230,760,180,480,660,2.6667,170,330,500,1.9412,150,280,430,1.8667,140,190,330,1.3571,120,120,240,1,100,110,210,1.1,153,83
990,250,760,190,470,660,2.4737,170,330,500,1.9412,160,270,430,1.6875,150,180,330,1.2,120,120,240,1,110,110,220,1,153,83
1020,230,760,190,480,670,2.5263,170,330,500,1.9412,160,280,440,1.75,140,190,330,1.3571,120,130,250,1.0833,100,110,210,1.1,153,83
1010,260,660,200,490,690,2.45,170,330,500,1.9412,170,280,450,1.6471,150,190,340,1.2667,130,130,260,1,110,100,210,0.90909,153,83
960,350,660,250,490,740,1.96,190,340,530,1.7895,180,280,460,1.5556,160,160,320,1,140,110,250,0.78571,130,90,220,0.69231,152,83
960,300,680,190,480,670,2.5263,170,340,510,2,150,290,440,1.9333,130,190,320,1.4615,110,130,240,1.1818,90,110,200,1.2222,152,83
990,280,730,200,450,650,2.25,180,320,500,1.7778,160,270,430,1.6875,140,170,310,1.2143,120,120,240,1,110,100,210,0.90909,152,83
950,260,720,210,420,630,2,190,290,480,1.5263,170,250,420,1.4706,160,170,330,1.0625,130,110,240,0.84615,120,90,210,0.75,151,83
990,230,740,190,490,680,2.5789,160,320,480,2,160,270,430,1.6875,140,180,320,1.2857,120,130,250,1.0833,100,100,200,1,151,83
990,250,760,210,470,680,2.2381,180,320,500,1.7778,170,270,440,1.5882,150,160,310,1.0667,140,120,260,0.85714,120,90,210,0.75,151,83
980,230,760,210,470,680,2.2381,180,310,490,1.7222,170,270,440,1.5882,150,170,320,1.1333,140,110,250,0.78571,120,90,210,0.75,151,83
510,220,320,190,330,520,1.7368,160,330,490,2.0625,150,310,460,2.0667,130,210,340,1.6154,120,130,250,1.0833,100,100,200,1,151,83
1480,190,380,210,320,530,1.5238,210,300,510,1.4286,210,300,510,1.4286,150,290,440,1.9333,110,290,400,2.6364,100,280,380,2.8,151,83
2990,1100,2750,650,2760,3410,4.2462,220,2760,2980,12.545,200,2760,2960,13.8,170,2300,2470,13.529,140,1500,1640,10.714,130,360,490,2.7692,151,83
1000,240,730,210,440,650,2.0952,190,320,510,1.6842,180,270,450,1.5,160,180,340,1.125,130,120,250,0.92308,120,90,210,0.75,151,83
1000,270,760,200,480,680,2.4,170,320,490,1.8824,170,290,460,1.7059,140,200,340,1.4286,130,130,260,1,110,100,210,0.90909,150,83
990,240,720,200,490,690,2.45,180,330,510,1.8333,170,280,450,1.6471,150,180,330,1.2,130,110,240,0.84615,120,90,210,0.75,149,83
960,270,720,210,470,680,2.2381,180,320,500,1.7778,170,280,450,1.6471,150,180,330,1.2,130,110,240,0.84615,120,100,220,0.83333,149,82
960,240,720,200,490,690,2.45,170,330,500,1.9412,160,280,440,1.75,150,190,340,1.2667,130,120,250,0.92308,110,90,200,0.81818,149,82
980,240,720,210,450,660,2.1429,180,330,510,1.8333,170,280,450,1.6471,150,180,330,1.2,130,120,250,0.92308,120,100,220,0.83333,149,82
990,260,660,220,430,650,1.9545,190,310,500,1.6316,180,270,450,1.5,150,180,330,1.2,140,120,260,0.85714,120,90,210,0.75,149,82
980,330,740,200,520,720,2.6,180,320,500,1.7778,170,280,450,1.6471,140,190,330,1.3571,130,120,250,0.92308,110,90,200,0.81818,148,82
980,240,750,190,470,660,2.4737,170,320,490,1.8824,160,280,440,1.75,150,190,340,1.2667,120,120,240,1,110,100,210,0.90909,148,82
980,230,760,200,480,680,2.4,170,330,500,1.9412,160,280,440,1.75,140,200,340,1.4286,120,130,250,1.0833,110,100,210,0.90909,148,82
1000,220,760,190,500,690,2.6316,170,350,520,2.0588,160,310,470,1.9375,140,200,340,1.4286,120,140,260,1.1667,110,110,220,1,148,82
1000,240,770,200,470,670,2.35,180,330,510,1.8333,170,270,440,1.5882,150,180,330,1.2,130,110,240,0.84615,120,100,220,0.83333,148,82
1000,230,770,230,460,690,2,190,320,510,1.6842,180,270,450,1.5,160,190,350,1.1875,140,120,260,0.85714,130,100,230,0.76923,147,82
1000,230,780,200,540,740,2.7,170,340,510,2,160,300,460,1.875,140,220,360,1.5714,120,140,260,1.1667,110,100,210,0.90909,147,82
990,220,460,190,460,650,2.4211,170,340,510,2,160,290,450,1.8125,140,200,340,1.4286,120,130,250,1.0833,100,100,200,1,147,82
1000,530,760,420,480,900,1.1429,420,340,760,0.80952,420,280,700,0.66667,420,200,620,0.47619,120,130,250,1.0833,100,110,210,1.1,146,82
1000,240,750,190,490,680,2.5789,180,340,520,1.8889,160,280,440,1.75,150,200,350,1.3333,130,120,250,0.92308,110,100,210,0.90909,147,82
990,250,760,210,470,680,2.2381,190,320,510,1.6842,170,280,450,1.6471,150,190,340,1.2667,140,120,260,0.85714,120,100,220,0.83333,147,82
1020,230,800,250,720,970,2.88,220,480,700,2.1818,200,350,550,1.75,170,230,400,1.3529,140,140,280,1,130,110,240,0.84615,146,82
990,220,350,200,360,560,1.8,170,310,480,1.8235,160,280,440,1.75,150,230,380,1.5333,120,120,240,1,110,100,210,0.90909,146,81
990,640,780,590,790,1380,1.339,220,790,1010,3.5909,200,750,950,3.75,160,360,520,2.25,130,210,340,1.6154,110,130,240,1.1818,145,81
980,210,600,210,450,660,2.1429,170,370,540,2.1765,160,290,450,1.8125,130,220,350,1.6923,100,160,260,1.6,90,90,180,1,145,81
980,380,750,400,460,860,1.15,280,310,590,1.1071,200,270,470,1.35,170,180,350,1.0588,130,120,250,0.92308,110,100,210,0.90909,145,81
1000,230,580,200,420,620,2.1,170,310,480,1.8235,170,260,430,1.5294,140,170,310,1.2143,120,110,230,0.91667,110,90,200,0.81818,145,81
1000,420,780,440,440,880,1,200,310,510,1.55,180,270,450,1.5,150,180,330,1.2,130,130,260,1,100,100,200,1,145,81
970,220,730,190,530,720,2.7895,170,330,500,1.9412,160,270,430,1.6875,140,190,330,1.3571,120,120,240,1,100,90,190,0.9,144,80
950,240,710,210,720,930,3.4286,180,400,580,2.2222,180,320,500,1.7778,150,210,360,1.4,130,120,250,0.92308,120,90,210,0.75,144,80
960,240,730,200,430,630,2.15,170,320,490,1.8824,170,280,450,1.6471,150,200,350,1.3333,130,130,260,1,110,100,210,0.90909,144,80
950,230,660,190,490,680,2.5789,170,350,520,2.0588,160,290,450,1.8125,130,190,320,1.4615,120,120,240,1,100,100,200,1,144,81
990,290,740,200,500,700,2.5,180,330,510,1.8333,170,290,460,1.7059,150,210,360,1.4,130,130,260,1,110,100,210,0.90909,144,80
980,250,740,270,490,760,1.8148,200,340,540,1.7,190,280,470,1.4737,160,200,360,1.25,150,130,280,0.86667,120,100,220,0.83333,144,80
990,240,730,200,480,680,2.4,180,320,500,1.7778,170,270,440,1.5882,140,170,310,1.2143,130,120,250,0.92308,110,90,200,0.81818,143,80
980,260,740,190,580,770,3.0526,170,380,550,2.2353,170,270,440,1.5882,150,170,320,1.1333,120,110,230,0.91667,120,90,210,0.75,143,80
980,240,710,200,460,660,2.3,180,320,500,1.7778,170,270,440,1.5882,140,180,320,1.2857,130,120,250,0.92308,110,90,200,0.81818,143,80
990,270,740,200,430,630,2.15,180,330,510,1.8333,170,280,450,1.6471,150,170,320,1.1333,130,110,240,0.84615,120,90,210,0.75,143,80
1000,250,740,200,490,690,2.45,190,320,510,1.6842,180,270,450,1.5,140,190,330,1.3571,130,120,250,0.92308,110,100,210,0.90909,144,81
1030,260,710,280,470,750,1.6786,200,350,550,1.75,190,290,480,1.5263,160,190,350,1.1875,140,120,260,0.85714,120,100,220,0.83333,144,81
990,320,700,210,430,640,2.0476,180,300,480,1.6667,170,260,430,1.5294,150,170,320,1.1333,130,110,240,0.84615,110,90,200,0.81818,144,80
1000,290,770,190,560,750,2.9474,160,330,490,2.0625,160,280,440,1.75,140,190,330,1.3571,120,120,240,1,100,100,200,1,144,80
1000,230,770,190,470,660,2.4737,170,330,500,1.9412,160,290,450,1.8125,140,190,330,1.3571,120,130,250,1.0833,100,100,200,1,143,80
1000,230,760,190,490,680,2.5789,170,330,500,1.9412,160,280,440,1.75,140,190,330,1.3571,120,120,240,1,100,100,200,1,143,80
1020,240,770,200,470,670,2.35,160,320,480,2,160,270,430,1.6875,150,180,330,1.2,130,120,250,0.92308,110,90,200,0.81818,143,80
1030,250,670,270,540,810,2,200,370,570,1.85,190,300,490,1.5789,160,200,360,1.25,150,130,280,0.86667,130,110,240,0.84615,144,80
1020,360,600,210,470,680,2.2381,190,350,540,1.8421,180,300,480,1.6667,160,190,350,1.1875,140,110,250,0.78571,120,100,220,0.83333,144,80
1000,420,550,200,460,660,2.3,180,330,510,1.8333,170,270,440,1.5882,150,180,330,1.2,130,100,230,0.76923,120,90,210,0.75,143,80
1000,450,720,210,500,710,2.381,170,340,510,2,170,290,460,1.7059,140,190,330,1.3571,120,120,240,1,110,100,210,0.90909,143,80
990,280,750,160,480,640,3,160,340,500,2.125,160,290,450,1.8125,150,180,330,1.2,130,110,240,0.84615,120,90,210,0.75,143,80
1000,240,710,200,400,600,2,180,310,490,1.7222,170,270,440,1.5882,150,190,340,1.2667,130,120,250,0.92308,110,100,210,0.90909,143,80
1010,290,630,230,470,700,2.0435,190,340,530,1.7895,190,290,480,1.5263,160,200,360,1.25,140,110,250,0.78571,120,100,220,0.83333,143,80
1010,380,770,200,490,690,2.45,180,330,510,1.8333,170,280,450,1.6471,150,190,340,1.2667,130,130,260,1,120,100,220,0.83333,142,79
1000,240,690,200,460,660,2.3,170,320,490,1.8824,170,270,440,1.5882,140,180,320,1.2857,130,110,240,0.84615,110,90,200,0.81818,141,79
990,310,700,210,570,780,2.7143,170,340,510,2,170,290,460,1.7059,150,210,360,1.4,130,120,250,0.92308,120,90,210,0.75,141,79
980,290,770,210,450,660,2.1429,170,300,470,1.7647,160,260,420,1.625,150,170,320,1.1333,120,110,230,0.91667,120,90,210,0.75,141,79
1000,210,760,190,440,630,2.3158,170,320,490,1.8824,160,270,430,1.6875,140,170,310,1.2143,120,120,240,1,100,100,200,1,141,79
990,240,730,210,470,680,2.2381,190,320,510,1.6842,180,280,460,1.5556,150,200,350,1.3333,130,120,250,0.92308,120,100,220,0.83333,140,79
970,260,720,210,170,380,0.80952,180,170,350,0.94444,170,170,340,1,140,170,310,1.2143,130,120,250,0.92308,110,90,200,0.81818,139,78
960,250,720,200,470,670,2.35,170,330,500,1.9412,170,280,450,1.6471,150,190,340,1.2667,130,120,250,0.92308,110,90,200,0.81818,138,78
980,240,710,180,470,650,2.6111,160,340,500,2.125,150,290,440,1.9333,130,200,330,1.5385,110,120,230,1.0909,90,100,190,1.1111,138,78
980,270,720,200,450,650,2.25,170,310,480,1.8235,160,270,430,1.6875,140,170,310,1.2143,120,120,240,1,110,100,210,0.90909,138,78
990,260,650,200,420,620,2.1,180,300,480,1.6667,170,250,420,1.4706,150,150,300,1,120,100,220,0.83333,110,80,190,0.72727,138,78
1000,340,700,220,490,710,2.2273,190,340,530,1.7895,180,290,470,1.6111,160,190,350,1.1875,130,120,250,0.92308,120,100,220,0.83333,138,78
1000,300,630,200,430,630,2.15,170,310,480,1.8235,170,270,440,1.5882,140,170,310,1.2143,120,120,240,1,110,100,210,0.90909,137,77
1000,370,710,200,480,680,2.4,180,330,510,1.8333,170,280,450,1.6471,140,200,340,1.4286,120,120,240,1,110,90,200,0.81818,136,77
970,290,730,210,590,800,2.8095,180,360,540,2,170,310,480,1.8235,150,210,360,1.4,130,120,250,0.92308,120,90,210,0.75,135,77
990,240,680,190,510,700,2.6842,170,340,510,2,160,280,440,1.75,140,200,340,1.4286,120,120,240,1,100,110,210,1.1,135,76
990,310,760,190,440,630,2.3158,170,310,480,1.8235,160,270,430,1.6875,140,200,340,1.4286,120,130,250,1.0833,100,110,210,1.1,135,76
1010,230,780,210,500,710,2.381,170,360,530,2.1176,170,310,480,1.8235,140,210,350,1.5,120,140,260,1.1667,110,110,220,1,135,76
990,230,760,200,440,640,2.2,170,320,490,1.8824,160,280,440,1.75,140,180,320,1.2857,120,130,250,1.0833,100,110,210,1.1,134,76
970,230,750,190,500,690,2.6316,160,340,500,2.125,160,280,440,1.75,140,180,320,1.2857,120,120,240,1,100,100,200,1,134,76
1000,220,770,180,510,690,2.8333,160,330,490,2.0625,150,280,430,1.8667,130,200,330,1.5385,110,130,240,1.1818,100,110,210,1.1,133,75
980,230,710,200,480,680,2.4,170,330,500,1.9412,160,280,440,1.75,140,190,330,1.3571,130,120,250,0.92308,110,90,200,0.81818,133,75
990,270,730,190,460,650,2.4211,170,350,520,2.0588,160,300,460,1.875,140,200,340,1.4286,120,130,250,1.0833,110,110,220,1,133,75
1010,260,780,210,480,690,2.2857,180,340,520,1.8889,180,290,470,1.6111,150,190,340,1.2667,130,120,250,0.92308,110,100,210,0.90909,132,75
990,230,730,210,460,670,2.1905,180,320,500,1.7778,170,270,440,1.5882,150,200,350,1.3333,130,120,250,0.92308,120,100,220,0.83333,131,74
1000,260,730,180,530,710,2.9444,160,360,520,2.25,150,300,450,2,130,200,330,1.5385,110,130,240,1.1818,100,110,210,1.1,130,74
990,270,550,190,480,670,2.5263,170,330,500,1.9412,160,280,440,1.75,140,190,330,1.3571,120,120,240,1,110,100,210,0.90909,130,74
980,440,750,200,500,700,2.5,170,320,490,1.8824,170,270,440,1.5882,140,180,320,1.2857,130,120,250,0.92308,110,90,200,0.81818,130,73
1000,230,760,190,500,690,2.6316,170,340,510,2,160,290,450,1.8125,150,190,340,1.2667,120,120,240,1,110,110,220,1,130,73
1010,240,750,210,490,700,2.3333,190,340,530,1.7895,180,290,470,1.6111,160,190,350,1.1875,130,130,260,1,110,100,210,0.90909,130,73
1000,260,650,210,430,640,2.0476,180,310,490,1.7222,170,260,430,1.5294,150,170,320,1.1333,130,120,250,0.92308,120,90,210,0.75,130,73
990,350,710,200,540,740,2.7,170,360,530,2.1176,160,300,460,1.875,140,200,340,1.4286,120,130,250,1.0833,110,100,210,0.90909,129,73
980,280,710,190,480,670,2.5263,170,340,510,2,160,290,450,1.8125,140,190,330,1.3571,120,120,240,1,110,100,210,0.90909,128,72
990,270,750,190,490,680,2.5789,170,350,520,2.0588,160,290,450,1.8125,140,200,340,1.4286,120,130,250,1.0833,100,100,200,1,127,72
1000,240,760,200,520,720,2.6,170,330,500,1.9412,160,300,460,1.875,140,200,340,1.4286,130,130,260,1,110,110,220,1,127,72
1010,240,780,210,500,710,2.381,180,340,520,1.8889,170,290,460,1.7059,150,180,330,1.2,120,120,240,1,110,100,210,0.90909,127,72
1000,230,750,200,510,710,2.55,180,330,510,1.8333,160,280,440,1.75,140,180,320,1.2857,120,130,250,1.0833,100,110,210,1.1,127,72
960,250,740,200,730,930,3.65,170,360,530,2.1176,170,310,480,1.8235,140,210,350,1.5,130,120,250,0.92308,110,100,210,0.90909,126,71
970,220,750,180,530,710,2.9444,170,330,500,1.9412,150,280,430,1.8667,130,180,310,1.3846,120,120,240,1,100,100,200,1,125,71
970,220,720,190,480,670,2.5263,160,320,480,2,150,280,430,1.8667,130,180,310,1.3846,110,120,230,1.0909,100,100,200,1,125,71
980,250,750,190,500,690,2.6316,170,350,520,2.0588,160,310,470,1.9375,140,200,340,1.4286,120,130,250,1.0833,110,110,220,1,126,71
1000,230,770,210,470,680,2.2381,180,330,510,1.8333,170,280,450,1.6471,150,170,320,1.1333,130,120,250,0.92308,110,90,200,0.81818,126,71
980,230,750,210,480,690,2.2857,180,330,510,1.8333,170,280,450,1.6471,150,190,340,1.2667,130,120,250,0.92308,110,110,220,1,125,71
980,230,740,190,750,940,3.9474,160,460,620,2.875,160,350,510,2.1875,130,240,370,1.8462,110,120,230,1.0909,100,100,200,1,125,70
980,240,770,180,550,730,3.0556,160,360,520,2.25,150,310,460,2.0667,130,190,320,1.4615,110,130,240,1.1818,90,100,190,1.1111,124,70
990,210,760,180,510,690,2.8333,150,350,500,2.3333,150,290,440,1.9333,130,210,340,1.6154,120,130,250,1.0833,100,100,200,1,124,70
1000,230,760,190,620,810,3.2632,170,360,530,2.1176,150,310,460,2.0667,140,200,340,1.4286,120,130,250,1.0833,100,110,210,1.1,124,70
990,240,760,210,560,770,2.6667,180,130,310,0.72222,170,130,300,0.76471,140,130,270,0.92857,130,130,260,1,110,100,210,0.90909,124,70
1000,230,730,210,510,720,2.4286,180,330,510,1.8333,170,280,450,1.6471,140,180,320,1.2857,130,120,250,0.92308,110,100,210,0.90909,124,70
990,270,730,200,670,870,3.35,170,410,580,2.4118,170,290,460,1.7059,140,190,330,1.3571,130,120,250,0.92308,110,90,200,0.81818,123,70
980,260,730,200,540,740,2.7,170,360,530,2.1176,160,300,460,1.875,140,180,320,1.2857,120,110,230,0.91667,110,90,200,0.81818,123,69
990,250,740,200,530,730,2.65,180,370,550,2.0556,160,300,460,1.875,150,190,340,1.2667,120,120,240,1,110,100,210,0.90909,123,69
970,250,670,200,530,730,2.65,180,340,520,1.8889,170,290,460,1.7059,150,210,360,1.4,130,130,260,1,110,100,210,0.90909,123,69
1000,300,760,220,520,740,2.3636,180,370,550,2.0556,170,300,470,1.7647,150,190,340,1.2667,130,130,260,1,110,110,220,1,124,69
960,240,750,260,530,790,2.0385,190,350,540,1.8421,180,280,460,1.5556,150,180,330,1.2,140,120,260,0.85714,120,100,220,0.83333,123,69
960,210,740,180,750,930,4.1667,160,400,560,2.5,150,300,450,2,130,180,310,1.3846,110,120,230,1.0909,100,100,200,1,122,69
980,220,750,180,550,730,3.0556,160,360,520,2.25,150,310,460,2.0667,130,200,330,1.5385,110,120,230,1.0909,100,100,200,1,122,69
980,230,750,200,540,740,2.7,170,340,510,2,160,290,450,1.8125,140,200,340,1.4286,120,130,250,1.0833,100,100,200,1,121,69
970,230,740,190,530,720,2.7895,170,350,520,2.0588,160,280,440,1.75,140,180,320,1.2857,130,120,250,0.92308,110,90,200,0.81818,122,69
990,230,750,190,470,660,2.4737,180,330,510,1.8333,160,280,440,1.75,150,190,340,1.2667,120,120,240,1,110,100,210,0.90909,122,69
1010,240,720,260,470,730,1.8077,190,340,530,1.7895,180,290,470,1.6111,150,200,350,1.3333,130,130,260,1,110,110,220,1,121,68
970,290,720,200,500,700,2.5,180,330,510,1.8333,160,280,440,1.75,150,180,330,1.2,120,110,230,0.91667,110,90,200,0.81818,120,68
980,250,760,190,550,740,2.8947,160,360,520,2.25,160,300,460,1.875,130,200,330,1.5385,120,130,250,1.0833,100,100,200,1,120,68
1000,220,770,180,500,680,2.7778,160,350,510,2.1875,150,290,440,1.9333,130,190,320,1.4615,110,130,240,1.1818,100,110,210,1.1,120,68
980,230,750,190,470,660,2.4737,170,330,500,1.9412,160,270,430,1.6875,140,180,320,1.2857,110,120,230,1.0909,100,100,200,1,120,68
990,230,770,190,470,660,2.4737,170,330,500,1.9412,160,290,450,1.8125,140,190,330,1.3571,130,130,260,1,110,100,210,0.90909,120,68
1020,220,670,240,470,710,1.9583,180,350,530,1.9444,170,300,470,1.7647,150,190,340,1.2667,120,130,250,1.0833,110,110,220,1,119,68
980,350,690,200,500,700,2.5,170,340,510,2,160,280,440,1.75,140,180,320,1.2857,120,120,240,1,100,100,200,1,119,68
990,290,760,180,770,950,4.2778,160,430,590,2.6875,150,350,500,2.3333,130,240,370,1.8462,110,150,260,1.3636,90,120,210,1.3333,118,68
990,230,760,190,480,670,2.5263,160,350,510,2.1875,150,290,440,1.9333,140,180,320,1.2857,110,120,230,1.0909,100,100,200,1,118,68
970,230,720,200,460,660,2.3,170,320,490,1.8824,160,280,440,1.75,140,180,320,1.2857,120,120,240,1,110,100,210,0.90909,119,68
990,250,750,190,480,670,2.5263,170,340,510,2,160,290,450,1.8125,140,190,330,1.3571,120,120,240,1,100,100,200,1,118,68
1000,240,760,260,490,750,1.8846,190,350,540,1.8421,180,300,480,1.6667,160,210,370,1.3125,140,130,270,0.92857,120,110,230,0.91667,118,68
980,240,660,190,490,680,2.5789,170,340,510,2,160,290,450,1.8125,130,190,320,1.4615,120,130,250,1.0833,100,100,200,1,118,68
980,320,740,190,750,940,3.9474,160,460,620,2.875,150,390,540,2.6,130,210,340,1.6154,110,130,240,1.1818,100,110,210,1.1,117,67
980,240,750,180,450,630,2.5,160,330,490,2.0625,150,280,430,1.8667,130,170,300,1.3077,110,120,230,1.0909,90,90,180,1,117,67
980,230,750,190,460,650,2.4211,160,350,510,2.1875,150,290,440,1.9333,130,190,320,1.4615,110,130,240,1.1818,100,110,210,1.1,117,67
980,230,750,190,510,700,2.6842,170,350,520,2.0588,160,290,450,1.8125,140,190,330,1.3571,120,130,250,1.0833,100,100,200,1,118,67
1010,230,740,250,490,740,1.96,190,380,570,2,170,320,490,1.8824,150,220,370,1.4667,120,140,260,1.1667,120,110,230,0.91667,117,67
960,270,740,200,510,710,2.55,170,330,500,1.9412,160,280,440,1.75,140,170,310,1.2143,130,120,250,0.92308,110,100,210,0.90909,117,67
950,220,730,190,580,770,3.0526,170,330,500,1.9412,160,290,450,1.8125,130,190,320,1.4615,120,120,240,1,100,100,200,1,116,67
970,220,750,180,490,670,2.7222,160,330,490,2.0625,150,270,420,1.8,130,180,310,1.3846,110,120,230,1.0909,100,100,200,1,116,67
960,220,730,180,500,680,2.7778,160,340,500,2.125,150,290,440,1.9333,130,180,310,1.3846,110,120,230,1.0909,100,100,200,1,116,67
950,230,730,190,500,690,2.6316,170,340,510,2,160,290,450,1.8125,140,180,320,1.2857,130,120,250,0.92308,110,100,210,0.90909,116,67
1000,220,800,200,500,700,2.5,160,360,520,2.25,150,300,450,2,140,200,340,1.4286,120,140,260,1.1667,110,110,220,1,116,67
990,200,690,200,440,640,2.2,160,320,480,2,150,270,420,1.8,140,180,320,1.2857,110,130,240,1.1818,100,110,210,1.1,116,67
990,300,760,180,510,690,2.8333,160,350,510,2.1875,150,290,440,1.9333,140,180,320,1.2857,110,120,230,1.0909,100,100,200,1,116,67
990,230,770,180,550,730,3.0556,170,360,530,2.1176,160,300,460,1.875,130,190,320,1.4615,120,120,240,1,110,90,200,0.81818,115,66
990,220,760,190,270,460,1.4211,160,270,430,1.6875,160,270,430,1.6875,130,180,310,1.3846,120,120,240,1,100,100,200,1,115,66
1000,230,730,200,460,660,2.3,170,330,500,1.9412,160,280,440,1.75,150,180,330,1.2,130,120,250,0.92308,110,100,210,0.90909,115,66
970,270,780,210,490,700,2.3333,190,340,530,1.7895,170,290,460,1.7059,150,190,340,1.2667,130,120,250,0.92308,120,100,220,0.83333,115,66
1020,190,760,170,470,640,2.7647,150,340,490,2.2667,130,300,430,2.3077,120,200,320,1.6667,90,150,240,1.6667,80,130,210,1.625,115,66
990,260,730,190,500,690,2.6316,160,350,510,2.1875,150,290,440,1.9333,130,190,320,1.4615,110,120,230,1.0909,100,100,200,1,114,66
980,260,740,190,560,750,2.9474,170,380,550,2.2353,150,320,470,2.1333,140,220,360,1.5714,120,140,260,1.1667,100,120,220,1.2,114,66
990,240,750,190,480,670,2.5263,160,340,500,2.125,150,290,440,1.9333,130,190,320,1.4615,110,120,230,1.0909,100,100,200,1,114,66
1000,240,760,190,480,670,2.5263,170,330,500,1.9412,150,280,430,1.8667,140,170,310,1.2143,110,120,230,1.0909,100,110,210,1.1,114,66
1000,240,770,210,500,710,2.381,180,350,530,1.9444,170,290,460,1.7059,150,190,340,1.2667,130,120,250,0.92308,110,100,210,0.90909,115,66
990,230,760,210,440,650,2.0952,180,320,500,1.7778,170,270,440,1.5882,150,180,330,1.2,120,120,240,1,110,110,220,1,114,66
1000,230,770,180,520,700,2.8889,160,350,510,2.1875,150,290,440,1.9333,130,190,320,1.4615,110,120,230,1.0909,90,100,190,1.1111,114,66
990,230,760,190,630,820,3.3158,170,390,560,2.2941,160,320,480,2,130,180,310,1.3846,120,120,240,1,100,90,190,0.9,113,66
980,230,750,190,480,670,2.5263,170,340,510,2,160,280,440,1.75,130,180,310,1.3846,120,120,240,1,100,100,200,1,113,66
1000,230,770,180,470,650,2.6111,150,340,490,2.2667,140,310,450,2.2143,120,200,320,1.6667,110,140,250,1.2727,90,120,210,1.3333,114,66
1010,230,790,190,530,720,2.7895,170,360,530,2.1176,150,310,460,2.0667,140,200,340,1.4286,110,140,250,1.2727,100,120,220,1.2,114,66
1010,220,780,200,460,660,2.3,170,350,520,2.0588,160,290,450,1.8125,140,190,330,1.3571,110,140,250,1.2727,100,110,210,1.1,113,66
990,230,770,190,520,710,2.7368,160,340,500,2.125,160,300,460,1.875,140,180,320,1.2857,120,120,240,1,100,90,190,0.9,113,65
990,220,770,190,660,850,3.4737,160,350,510,2.1875,160,290,450,1.8125,130,190,320,1.4615,110,120,230,1.0909,100,100,200,1,112,65
990,220,760,180,480,660,2.6667,150,350,500,2.3333,140,300,440,2.1429,130,200,330,1.5385,100,130,230,1.3,90,110,200,1.2222,112,65
980,230,760,180,480,660,2.6667,160,360,520,2.25,150,300,450,2,130,200,330,1.5385,110,130,240,1.1818,90,110,200,1.2222,113,65
980,220,760,200,500,700,2.5,170,350,520,2.0588,160,290,450,1.8125,140,190,330,1.3571,120,120,240,1,110,100,210,0.90909,113,65
1000,220,730,210,440,650,2.0952,170,320,490,1.8824,160,280,440,1.75,140,170,310,1.2143,120,120,240,1,110,100,210,0.90909,112,65
980,270,730,190,510,700,2.6842,170,340,510,2,150,290,440,1.9333,130,180,310,1.3846,120,120,240,1,100,90,190,0.9,112,65
990,250,620,180,490,670,2.7222,150,350,500,2.3333,150,290,440,1.9333,120,180,300,1.5,110,120,230,1.0909,100,110,210,1.1,111,65
990,370,750,180,480,660,2.6667,170,340,510,2,150,280,430,1.8667,140,180,320,1.2857,110,110,220,1,100,100,200,1,111,65
970,240,760,200,530,730,2.65,170,350,520,2.0588,170,290,460,1.7059,140,190,330,1.3571,120,120,240,1,110,90,200,0.81818,111,65
1030,210,800,180,500,680,2.7778,150,360,510,2.4,140,300,440,2.1429,130,190,320,1.4615,100,140,240,1.4,90,120,210,1.3333,112,65
1010,230,730,220,440,660,2,170,330,500,1.9412,170,280,450,1.6471,140,180,320,1.2857,120,130,250,1.0833,110,100,210,0.90909,111,65
1000,280,750,200,590,790,2.95,170,370,540,2.1765,160,310,470,1.9375,140,190,330,1.3571,120,110,230,0.91667,100,100,200,1,111,65
1000,250,750,180,490,670,2.7222,160,350,510,2.1875,140,290,430,2.0714,130,190,320,1.4615,100,120,220,1.2,100,100,200,1,110,64
1000,250,740,180,490,670,2.7222,150,350,500,2.3333,140,290,430,2.0714,120,240,360,2,110,130,240,1.1818,100,110,210,1.1,110,64
990,260,760,190,530,720,2.7895,170,350,520,2.0588,160,300,460,1.875,140,190,330,1.3571,120,120,240,1,100,100,200,1,110,64
1010,230,790,210,490,700,2.3333,180,350,530,1.9444,160,290,450,1.8125,130,190,320,1.4615,120,130,250,1.0833,100,110,210,1.1,111,64
1000,220,730,210,450,660,2.1429,180,320,500,1.7778,160,280,440,1.75,150,180,330,1.2,120,120,240,1,110,110,220,1,110,64
990,270,730,180,670,850,3.7222,150,390,540,2.6,140,320,460,2.2857,130,200,330,1.5385,110,130,240,1.1818,100,110,210,1.1,110,64
1000,260,770,180,490,670,2.7222,160,340,500,2.125,140,290,430,2.0714,130,180,310,1.3846,110,120,230,1.0909,100,100,200,1,109,64
990,230,740,190,480,670,2.5263,170,330,500,1.9412,150,290,440,1.9333,130,180,310,1.3846,100,120,220,1.2,90,100,190,1.1111,109,64
980,250,760,190,530,720,2.7895,170,360,530,2.1176,160,300,460,1.875,130,190,320,1.4615,120,130,250,1.0833,100,100,200,1,109,64
1030,220,810,190,490,680,2.5789,160,340,500,2.125,150,280,430,1.8667,130,180,310,1.3846,100,120,220,1.2,100,100,200,1,109,64
1000,220,730,220,450,670,2.0455,180,320,500,1.7778,170,270,440,1.5882,140,170,310,1.2143,130,130,260,1,110,100,210,0.90909,110,64
2010,270,780,180,610,790,3.3889,150,380,530,2.5333,140,320,460,2.2857,130,210,340,1.6154,100,130,230,1.3,100,110,210,1.1,109,64
1000,1230,760,860,470,1330,0.54651,250,340,590,1.36,210,290,500,1.381,160,190,350,1.1875,120,120,240,1,110,100,210,0.90909,109,64
1000,240,770,190,540,730,2.8421,160,360,520,2.25,150,300,450,2,140,190,330,1.3571,110,120,230,1.0909,100,100,200,1,108,63
1020,230,800,200,500,700,2.5,170,340,510,2,160,280,440,1.75,140,170,310,1.2143,120,120,240,1,110,110,220,1,109,64
990,220,680,200,450,650,2.25,170,330,500,1.9412,160,280,440,1.75,140,180,320,1.2857,120,130,250,1.0833,100,100,200,1,109,64
980,310,760,180,680,860,3.7778,150,390,540,2.6,150,330,480,2.2,120,230,350,1.9167,110,130,240,1.1818,90,110,200,1.2222,109,64
990,220,760,180,490,670,2.7222,160,350,510,2.1875,140,290,430,2.0714,130,180,310,1.3846,110,120,230,1.0909,90,100,190,1.1111,108,64
970,230,730,200,470,670,2.35,160,340,500,2.125,160,280,440,1.75,130,180,310,1.3846,120,120,240,1,110,100,210,0.90909,108,63
980,240,750,190,560,750,2.9474,170,360,530,2.1176,150,300,450,2,130,190,320,1.4615,110,130,240,1.1818,100,100,200,1,108,63
1020,230,790,190,470,660,2.4737,170,340,510,2,160,300,460,1.875,140,190,330,1.3571,110,130,240,1.1818,110,100,210,0.90909,108,63
1020,230,750,220,440,660,2,180,320,500,1.7778,170,270,440,1.5882,140,180,320,1.2857,130,130,260,1,110,100,210,0.90909,109,63
1010,270,730,180,710,890,3.9444,150,400,550,2.6667,150,300,450,2,130,200,330,1.5385,110,120,230,1.0909,100,100,200,1,108,63
1000,280,760,190,480,670,2.5263,160,340,500,2.125,160,280,440,1.75,140,180,320,1.2857,120,110,230,0.91667,110,90,200,0.81818,108,63
1000,240,720,200,470,670,2.35,170,360,530,2.1176,170,300,470,1.7647,140,190,330,1.3571,130,120,250,0.92308,110,100,210,0.90909,107,63
1000,280,780,200,550,750,2.75,160,370,530,2.3125,160,290,450,1.8125,140,180,320,1.2857,120,120,240,1,110,100,210,0.90909,107,63
1020,220,810,200,480,680,2.4,160,350,510,2.1875,160,290,450,1.8125,140,190,330,1.3571,120,130,250,1.0833,110,100,210,0.90909,108,63
1020,210,790,200,470,670,2.35,170,330,500,1.9412,150,280,430,1.8667,140,190,330,1.3571,110,130,240,1.1818,100,120,220,1.2,108,63
1010,230,720,180,660,840,3.6667,160,350,510,2.1875,150,300,450,2,130,190,320,1.4615,110,130,240,1.1818,90,100,190,1.1111,108,63
1000,290,760,180,490,670,2.7222,160,340,500,2.125,150,280,430,1.8667,130,180,310,1.3846,110,120,230,1.0909,100,90,190,0.9,107,63
1020,240,760,190,490,680,2.5789,160,360,520,2.25,150,310,460,2.0667,130,200,330,1.5385,110,130,240,1.1818,90,110,200,1.2222,107,63
1010,260,780,190,530,720,2.7895,160,360,520,2.25,150,300,450,2,130,190,320,1.4615,110,120,230,1.0909,110,110,220,1,107,63
1020,230,810,210,500,710,2.381,180,360,540,2,160,300,460,1.875,150,190,340,1.2667,130,130,260,1,120,100,220,0.83333,107,63
1020,210,780,200,460,660,2.3,170,330,500,1.9412,160,280,440,1.75,140,180,320,1.2857,120,130,250,1.0833,110,110,220,1,107,63
1010,240,780,180,720,900,4,160,360,520,2.25,150,300,450,2,130,180,310,1.3846,110,130,240,1.1818,90,100,190,1.1111,107,63
1000,230,760,180,500,680,2.7778,160,350,510,2.1875,150,290,440,1.9333,130,190,320,1.4615,110,120,230,1.0909,90,100,190,1.1111,106,63
1000,240,760,190,500,690,2.6316,170,340,510,2,150,290,440,1.9333,130,180,310,1.3846,110,120,230,1.0909,100,100,200,1,106,62
1000,240,760,190,530,720,2.7895,170,350,520,2.0588,160,300,460,1.875,130,190,320,1.4615,110,130,240,1.1818,100,100,200,1,106,62
1040,240,810,210,590,800,2.8095,170,380,550,2.2353,170,320,490,1.8824,140,200,340,1.4286,120,130,250,1.0833,100,110,210,1.1,106,62
1010,230,780,210,450,660,2.1429,180,320,500,1.7778,170,270,440,1.5882,150,170,320,1.1333,130,120,250,0.92308,120,90,210,0.75,107,62
1010,230,580,190,510,700,2.6842,160,350,510,2.1875,150,290,440,1.9333,140,180,320,1.2857,110,120,230,1.0909,110,90,200,0.81818,107,62
1010,430,790,180,540,720,3,150,370,520,2.4667,150,310,460,2.0667,120,190,310,1.5833,110,130,240,1.1818,90,110,200,1.2222,106,62
1000,220,780,180,510,690,2.8333,160,350,510,2.1875,150,300,450,2,130,190,320,1.4615,100,130,230,1.3,90,110,200,1.2222,106,62
990,220,770,180,520,700,2.8889,160,360,520,2.25,150,300,450,2,120,190,310,1.5833,100,130,230,1.3,90,110,200,1.2222,105,62
1030,220,810,200,570,770,2.85,170,380,550,2.2353,150,320,470,2.1333,140,210,350,1.5,110,140,250,1.2727,100,110,210,1.1,105,62
990,220,750,200,450,650,2.25,170,320,490,1.8824,160,270,430,1.6875,140,170,310,1.2143,120,120,240,1,110,110,220,1,106,62
1000,240,660,190,500,690,2.6316,170,340,510,2,160,280,440,1.75,130,170,300,1.3077,110,120,230,1.0909,100,90,190,0.9,106,62
990,340,750,210,560,770,2.6667,180,370,550,2.0556,170,310,480,1.8235,140,190,330,1.3571,120,120,240,1,110,90,200,0.81818,106,62
1000,240,780,190,500,690,2.6316,160,340,500,2.125,160,290,450,1.8125,130,180,310,1.3846,110,120,230,1.0909,100,100,200,1,105,62
1000,220,770,190,510,700,2.6842,160,350,510,2.1875,160,300,460,1.875,130,180,310,1.3846,120,130,250,1.0833,100,100,200,1,105,62
1030,230,810,210,540,750,2.5714,180,360,540,2,160,300,460,1.875,150,190,340,1.2667,130,130,260,1,110,100,210,0.90909,106,62
1010,220,790,200,210,410,1.05,170,210,380,1.2353,160,210,370,1.3125,140,170,310,1.2143,120,120,240,1,110,100,210,0.90909,106,62
1020,220,810,180,550,730,3.0556,160,360,520,2.25,140,300,440,2.1429,120,190,310,1.5833,110,130,240,1.1818,90,100,190,1.1111,106,62
1030,210,790,190,550,740,2.8947,160,380,540,2.375,140,320,460,2.2857,130,200,330,1.5385,110,130,240,1.1818,90,110,200,1.2222,106,62
1020,240,660,190,460,650,2.4211,170,330,500,1.9412,160,280,440,1.75,130,180,310,1.3846,120,120,240,1,100,90,190,0.9,106,62
1020,360,790,200,490,690,2.45,170,350,520,2.0588,160,290,450,1.8125,140,190,330,1.3571,120,120,240,1,110,100,210,0.90909,106,62
1050,230,840,200,500,700,2.5,170,360,530,2.1176,160,300,460,1.875,130,200,330,1.5385,120,130,250,1.0833,100,110,210,1.1,106,62
1030,210,720,190,440,630,2.3158,160,320,480,2,150,270,420,1.8,130,170,300,1.3077,110,120,230,1.0909,100,110,210,1.1,106,62
1030,310,720,180,480,660,2.6667,160,340,500,2.125,150,290,440,1.9333,130,170,300,1.3077,110,120,230,1.0909,100,90,190,0.9,105,62
1030,310,710,210,580,790,2.7619,170,400,570,2.3529,160,340,500,2.125,130,200,330,1.5385,120,130,250,1.0833,100,100,200,1,105,62
1020,320,780,190,790,980,4.1579,160,410,570,2.5625,160,330,490,2.0625,140,210,350,1.5,120,130,250,1.0833,100,110,210,1.1,105,62
1030,240,800,210,730,940,3.4762,170,400,570,2.3529,160,330,490,2.0625,130,210,340,1.6154,120,130,250,1.0833,100,110,210,1.1,105,62
1060,230,820,250,560,810,2.24,190,390,580,2.0526,170,330,500,1.9412,150,220,370,1.4667,120,140,260,1.1667,110,110,220,1,105,62
1010,240,760,190,480,670,2.5263,170,330,500,1.9412,160,280,440,1.75,140,170,310,1.2143,110,120,230,1.0909,110,100,210,0.90909,105,62
1020,250,740,190,510,700,2.6842,160,340,500,2.125,150,300,450,2,130,190,320,1.4615,110,120,230,1.0909,100,100,200,1,104,61
1030,280,800,180,490,670,2.7222,160,350,510,2.1875,150,290,440,1.9333,130,180,310,1.3846,110,120,230,1.0909,100,100,200,1,104,61
1020,230,800,190,530,720,2.7895,170,350,520,2.0588,150,300,450,2,130,180,310,1.3846,110,120,230,1.0909,100,90,190,0.9,104,61
1040,220,820,180,480,660,2.6667,160,340,500,2.125,150,290,440,1.9333,140,180,320,1.2857,110,120,230,1.0909,100,100,200,1,105,61
1040,220,710,230,490,720,2.1304,180,360,540,2,170,300,470,1.7647,140,190,330,1.3571,130,130,260,1,110,110,220,1,105,61
1050,330,730,190,620,810,3.2632,160,390,550,2.4375,140,320,460,2.2857,120,200,320,1.6667,110,130,240,1.1818,90,110,200,1.2222,104,61
1060,320,840,180,510,690,2.8333,150,360,510,2.4,140,300,440,2.1429,120,190,310,1.5833,110,130,240,1.1818,90,110,200,1.2222,104,61
1060,220,810,180,500,680,2.7778,150,350,500,2.3333,140,300,440,2.1429,130,190,320,1.4615,100,120,220,1.2,90,110,200,1.2222,104,61
1060,250,830,190,560,750,2.9474,160,380,540,2.375,150,300,450,2,130,190,320,1.4615,110,130,240,1.1818,100,110,210,1.1,104,61
1080,230,850,200,490,690,2.45,170,350,520,2.0588,160,290,450,1.8125,140,190,330,1.3571,120,130,250,1.0833,110,100,210,0.90909,104,61
1060,230,820,250,510,760,2.04,180,360,540,2,170,290,460,1.7059,140,190,330,1.3571,130,130,260,1,110,110,220,1,104,61
1060,240,780,180,540,720,3,150,360,510,2.4,150,300,450,2,120,190,310,1.5833,110,130,240,1.1818,90,110,200,1.2222,103,61
1060,280,820,170,770,940,4.5294,150,360,510,2.4,140,300,440,2.1429,130,190,320,1.4615,100,120,220,1.2,100,110,210,1.1,103,61
1050,240,730,190,490,680,2.5789,160,350,510,2.1875,150,290,440,1.9333,130,180,310,1.3846,110,120,230,1.0909,100,100,200,1,103,61
1050,320,800,190,460,650,2.4211,170,370,540,2.1765,160,300,460,1.875,130,190,320,1.4615,120,130,250,1.0833,100,100,200,1,103,60
1080,250,850,210,530,740,2.5238,180,380,560,2.1111,170,320,490,1.8824,140,210,350,1.5,120,140,260,1.1667,100,110,210,1.1,103,60
1050,230,760,200,450,650,2.25,170,330,500,1.9412,160,270,430,1.6875,130,170,300,1.3077,120,120,240,1,100,100,200,1,103,61
1060,290,800,180,510,690,2.8333,150,360,510,2.4,140,300,440,2.1429,130,190,320,1.4615,110,120,230,1.0909,100,110,210,1.1,103,60
1050,260,810,190,550,740,2.8947,160,380,540,2.375,150,330,480,2.2,130,180,310,1.3846,110,120,230,1.0909,100,100,200,1,102,60
1050,240,800,190,520,710,2.7368,170,350,520,2.0588,150,290,440,1.9333,130,170,300,1.3077,110,130,240,1.1818,100,100,200,1,102,60
1030,250,800,190,460,650,2.4211,170,320,490,1.8824,160,270,430,1.6875,140,190,330,1.3571,120,120,240,1,100,100,200,1,102,60
1060,230,800,230,490,720,2.1304,180,360,540,2,170,300,470,1.7647,140,200,340,1.4286,130,130,260,1,110,110,220,1,103,60
1010,260,790,190,630,820,3.3158,160,390,550,2.4375,150,310,460,2.0667,130,190,320,1.4615,120,120,240,1,100,100,200,1,103,60
1030,220,800,180,500,680,2.7778,160,350,510,2.1875,150,300,450,2,120,180,300,1.5,110,120,230,1.0909,90,90,180,1,102,60
1040,230,800,190,500,690,2.6316,160,360,520,2.25,150,310,460,2.0667,130,200,330,1.5385,110,130,240,1.1818,100,110,210,1.1,102,60
1030,240,810,190,550,740,2.8947,160,360,520,2.25,150,300,450,2,130,190,320,1.4615,120,120,240,1,100,100,200,1,102,60
1030,220,810,190,460,650,2.4211,160,320,480,2,150,270,420,1.8,140,170,310,1.2143,110,120,230,1.0909,110,110,220,1,102,60
1050,220,800,240,480,720,2,170,350,520,2.0588,170,290,460,1.7059,140,190,330,1.3571,120,130,250,1.0833,100,110,210,1.1,102,60
1050,250,820,190,820,1010,4.3158,170,400,570,2.3529,150,330,480,2.2,140,200,340,1.4286,110,130,240,1.1818,100,100,200,1,102,60
1050,230,800,180,500,680,2.7778,150,350,500,2.3333,150,300,450,2,120,190,310,1.5833,110,130,240,1.1818,90,110,200,1.2222,101,60
1050,250,820,200,500,700,2.5,160,350,510,2.1875,160,300,460,1.875,130,190,320,1.4615,120,130,250,1.0833,100,100,200,1,101,60
1030,230,790,190,560,750,2.9474,170,370,540,2.1765,160,310,470,1.9375,140,190,330,1.3571,120,130,250,1.0833,100,90,190,0.9,101,59
1050,240,840,200,500,700,2.5,180,340,520,1.8889,170,280,450,1.6471,150,170,320,1.1333,120,110,230,0.91667,110,90,200,0.81818,101,59
1060,210,770,200,470,670,2.35,170,330,500,1.9412,150,280,430,1.8667,130,170,300,1.3077,110,130,240,1.1818,90,110,200,1.2222,101,60
1040,290,800,180,700,880,3.8889,160,400,560,2.5,150,330,480,2.2,120,200,320,1.6667,110,130,240,1.1818,90,110,200,1.2222,101,60
1030,240,800,180,500,680,2.7778,160,350,510,2.1875,150,300,450,2,130,190,320,1.4615,110,120,230,1.0909,90,100,190,1.1111,100,59
1030,230,770,180,470,650,2.6111,160,330,490,2.0625,150,280,430,1.8667,130,170,300,1.3077,100,120,220,1.2,90,100,190,1.1111,100,59
1030,260,800,200,530,730,2.65,170,360,530,2.1176,160,300,460,1.875,140,180,320,1.2857,120,120,240,1,110,90,200,0.81818,100,59
1050,230,830,220,530,750,2.4091,180,370,550,2.0556,150,310,460,2.0667,150,200,350,1.3333,130,140,270,1.0769,120,110,230,0.91667,100,59
1040,220,760,190,450,640,2.3684,160,320,480,2,150,280,430,1.8667,140,170,310,1.2143,110,130,240,1.1818,100,100,200,1,100,59
1020,280,790,180,710,890,3.9444,160,400,560,2.5,150,330,480,2.2,140,200,340,1.4286,110,130,240,1.1818,100,100,200,1,99,59
1030,230,790,180,510,690,2.8333,150,350,500,2.3333,150,300,450,2,130,190,320,1.4615,110,130,240,1.1818,90,100,190,1.1111,99,58
1030,240,800,180,490,670,2.7222,150,340,490,2.2667,140,280,420,2,130,170,300,1.3077,100,120,220,1.2,100,100,200,1,99,58
1030,230,800,190,500,690,2.6316,170,350,520,2.0588,160,290,450,1.8125,130,190,320,1.4615,120,130,250,1.0833,100,100,200,1,99,58
1040,230,780,250,500,750,2,180,370,550,2.0556,170,310,480,1.8235,150,200,350,1.3333,130,130,260,1,110,110,220,1,99,58
1030,260,760,180,460,640,2.5556,160,330,490,2.0625,150,270,420,1.8,130,170,300,1.3077,110,120,230,1.0909,100,100,200,1,99,58
1020,270,810,180,680,860,3.7778,150,400,550,2.6667,150,330,480,2.2,130,200,330,1.5385,110,130,240,1.1818,100,100,200,1,98,58
1010,210,790,170,490,660,2.8824,150,350,500,2.3333,140,290,430,2.0714,130,180,310,1.3846,110,120,230,1.0909,90,100,190,1.1111,98,58
1030,220,800,170,510,680,3,150,360,510,2.4,140,290,430,2.0714,120,180,300,1.5,100,130,230,1.3,90,110,200,1.2222,98,58
1000,230,760,190,490,680,2.5789,170,340,510,2,160,290,450,1.8125,140,180,320,1.2857,120,130,250,1.0833,100,100,200,1,99,58
1020,240,800,260,500,760,1.9231,190,360,550,1.8947,180,310,490,1.7222,150,200,350,1.3333,130,130,260,1,110,110,220,1,99,58
1020,220,800,190,490,680,2.5789,160,340,500,2.125,150,290,440,1.9333,130,180,310,1.3846,110,120,230,1.0909,100,110,210,1.1,98,58
1020,220,810,170,820,990,4.8235,150,430,580,2.8667,140,350,490,2.5,120,210,330,1.75,100,140,240,1.4,90,110,200,1.2222,98,58
1030,210,790,170,560,730,3.2941,150,350,500,2.3333,140,310,450,2.2143,120,180,300,1.5,100,130,230,1.3,90,110,200,1.2222,98,58
1030,240,800,190,490,680,2.5789,160,340,500,2.125,150,280,430,1.8667,130,170,300,1.3077,110,120,230,1.0909,100,100,200,1,98,58
1040,230,810,190,490,680,2.5789,170,340,510,2,150,290,440,1.9333,130,180,310,1.3846,120,120,240,1,100,100,200,1,99,58
1060,230,830,250,490,740,1.96,180,360,540,2,170,310,480,1.8235,140,200,340,1.4286,120,130,250,1.0833,100,120,220,1.2,99,58
1030,230,810,190,520,710,2.7368,150,350,500,2.3333,150,300,450,2,130,180,310,1.3846,110,120,230,1.0909,100,100,200,1,98,58
1050,220,820,180,830,1010,4.6111,160,440,600,2.75,140,350,490,2.5,130,230,360,1.7692,100,140,240,1.4,90,110,200,1.2222,98,58
1030,230,830,190,510,700,2.6842,160,350,510,2.1875,150,300,450,2,130,190,320,1.4615,120,120,240,1,100,100,200,1,98,58
1030,200,800,180,510,690,2.8333,150,360,510,2.4,140,300,440,2.1429,130,180,310,1.3846,100,120,220,1.2,100,100,200,1,98,58
1060,230,850,180,530,710,2.9444,160,370,530,2.3125,150,310,460,2.0667,130,200,330,1.5385,100,140,240,1.4,90,120,210,1.3333,98,58
1060,210,790,220,480,700,2.1818,170,350,520,2.0588,150,290,440,1.9333,140,190,330,1.3571,120,130,250,1.0833,100,110,210,1.1,99,58
1010,270,730,180,550,730,3.0556,160,370,530,2.3125,150,310,460,2.0667,130,190,320,1.4615,110,130,240,1.1818,100,100,200,1,99,58
2040,280,1830,190,1480,1670,7.7895,150,980,1130,6.5333,140,850,990,6.0714,120,280,400,2.3333,110,130,240,1.1818,90,110,200,1.2222,98,58
1050,210,830,180,560,740,3.1111,150,380,530,2.5333,140,320,460,2.2857,120,200,320,1.6667,100,140,240,1.4,80,120,200,1.5,98,58
1060,220,840,210,620,830,2.9524,170,390,560,2.2941,160,320,480,2,140,210,350,1.5,110,140,250,1.2727,110,110,220,1,98,58
1050,220,770,190,470,660,2.4737,160,340,500,2.125,150,290,440,1.9333,130,180,310,1.3846,110,130,240,1.1818,90,110,200,1.2222,98,58
1030,280,630,180,540,720,3,150,370,520,2.4667,140,300,440,2.1429,120,190,310,1.5833,100,120,220,1.2,100,100,200,1,97,58
1040,400,810,180,560,740,3.1111,160,370,530,2.3125,140,320,460,2.2857,130,200,330,1.5385,100,130,230,1.3,90,100,190,1.1111,97,58
1040,230,810,190,510,700,2.6842,170,350,520,2.0588,150,290,440,1.9333,130,180,310,1.3846,110,130,240,1.1818,100,100,200,1,96,57
1040,230,810,190,530,720,2.7895,170,360,530,2.1176,160,290,450,1.8125,130,180,310,1.3846,120,120,240,1,110,90,200,0.81818,97,57
1060,230,830,230,560,790,2.4348,180,400,580,2.2222,170,330,500,1.9412,140,210,350,1.5,120,140,260,1.1667,100,110,210,1.1,97,57
1050,230,700,180,470,650,2.6111,150,340,490,2.2667,150,280,430,1.8667,130,180,310,1.3846,110,130,240,1.1818,90,110,200,1.2222,97,57
1030,350,550,180,510,690,2.8333,160,350,510,2.1875,150,300,450,2,130,170,300,1.3077,110,120,230,1.0909,100,100,200,1,96,57
1040,480,810,180,500,680,2.7778,150,350,500,2.3333,150,300,450,2,120,190,310,1.5833,110,120,230,1.0909,100,100,200,1,96,57
1030,230,810,180,530,710,2.9444,160,360,520,2.25,150,300,450,2,130,180,310,1.3846,110,130,240,1.1818,90,110,200,1.2222,96,57
1050,220,830,190,500,690,2.6316,150,360,510,2.4,150,300,450,2,120,190,310,1.5833,100,130,230,1.3,100,110,210,1.1,96,57
1070,220,790,240,520,760,2.1667,180,390,570,2.1667,160,340,500,2.125,140,230,370,1.6429,120,140,260,1.1667,100,120,220,1.2,96,57
1030,280,820,190,540,730,2.8421,160,370,530,2.3125,150,310,460,2.0667,130,180,310,1.3846,110,120,230,1.0909,100,100,200,1,96,57
1050,210,800,170,810,980,4.7647,140,370,510,2.6429,140,310,450,2.2143,110,190,300,1.7273,90,130,220,1.4444,80,110,190,1.375,96,57
1040,250,820,180,490,670,2.7222,160,350,510,2.1875,150,290,440,1.9333,130,180,310,1.3846,100,120,220,1.2,100,100,200,1,95,57
1050,220,810,180,470,650,2.6111,160,380,540,2.375,140,320,460,2.2857,130,190,320,1.4615,110,130,240,1.1818,100,110,210,1.1,95,57
1050,240,820,190,480,670,2.5263,170,350,520,2.0588,160,290,450,1.8125,140,190,330,1.3571,110,120,230,1.0909,110,110,220,1,95,57
1060,230,780,250,470,720,1.88,180,370,550,2.0556,170,300,470,1.7647,140,190,330,1.3571,120,140,260,1.1667,110,110,220,1,96,57
1040,280,820,190,570,760,3,150,380,530,2.5333,150,310,460,2.0667,130,190,320,1.4615,100,120,220,1.2,100,110,210,1.1,96,57
1040,220,820,180,830,1010,4.6111,150,480,630,3.2,150,380,530,2.5333,120,180,300,1.5,110,120,230,1.0909,90,100,190,1.1111,95,57
1030,220,720,180,500,680,2.7778,150,350,500,2.3333,140,290,430,2.0714,120,180,300,1.5,110,120,230,1.0909,100,110,210,1.1,95,57
1040,310,810,180,490,670,2.7222,160,340,500,2.125,140,300,440,2.1429,130,200,330,1.5385,100,140,240,1.4,100,110,210,1.1,95,56
1060,230,840,190,540,730,2.8421,170,370,540,2.1765,150,310,460,2.0667,140,200,340,1.4286,110,140,250,1.2727,100,120,220,1.2,95,56
1050,220,810,210,460,670,2.1905,170,320,490,1.8824,160,270,430,1.6875,140,180,320,1.2857,120,130,250,1.0833,110,110,220,1,96,57
1040,240,820,180,530,710,2.9444,160,360,520,2.25,150,300,450,2,130,190,320,1.4615,110,130,240,1.1818,90,100,190,1.1111,95,57
1050,220,810,180,660,840,3.6667,150,420,570,2.8,140,350,490,2.5,130,200,330,1.5385,100,120,220,1.2,90,100,190,1.1111,95,57
1050,240,820,180,500,680,2.7778,160,350,510,2.1875,150,290,440,1.9333,130,170,300,1.3077,110,120,230,1.0909,90,100,190,1.1111,95,56
1060,230,820,190,470,660,2.4737,170,320,490,1.8824,150,270,420,1.8,140,160,300,1.1429,110,130,240,1.1818,100,100,200,1,95,57
1060,240,810,260,530,790,2.0385,180,390,570,2.1667,170,330,500,1.9412,140,210,350,1.5,120,130,250,1.0833,110,110,220,1,95,57
1070,250,840,180,590,770,3.2778,150,380,530,2.5333,140,320,460,2.2857,130,190,320,1.4615,100,140,240,1.4,90,120,210,1.3333,95,57
1080,230,820,180,520,700,2.8889,160,360,520,2.25,140,300,440,2.1429,130,180,310,1.3846,110,120,230,1.0909,90,100,190,1.1111,94,56
1020,260,770,210,470,680,2.2381,180,330,510,1.8333,170,280,450,1.6471,150,170,320,1.1333,130,100,230,0.76923,110,80,190,0.72727,94,56
1050,250,820,180,540,720,3,150,370,520,2.4667,150,300,450,2,120,190,310,1.5833,110,130,240,1.1818,90,110,200,1.2222,94,56
1060,230,850,180,480,660,2.6667,160,340,500,2.125,160,290,450,1.8125,130,180,310,1.3846,120,130,250,1.0833,100,100,200,1,94,56
1090,210,790,230,500,730,2.1739,170,370,540,2.1765,150,310,460,2.0667,130,210,340,1.6154,100,160,260,1.6,90,130,220,1.4444,95,56
1040,300,470,170,480,650,2.8235,160,440,600,2.75,150,360,510,2.4,120,220,340,1.8333,100,140,240,1.4,90,110,200,1.2222,95,56
1030,570,850,570,530,1100,0.92982,160,370,530,2.3125,140,300,440,2.1429,120,180,300,1.5,100,120,220,1.2,90,100,190,1.1111,94,56
1070,180,760,170,500,670,2.9412,140,350,490,2.5,130,300,430,2.3077,110,190,300,1.7273,90,130,220,1.4444,80,120,200,1.5,94,56
1060,310,830,190,560,750,2.9474,170,370,540,2.1765,150,310,460,2.0667,130,190,320,1.4615,120,130,250,1.0833,100,100,200,1,94,56
1090,230,860,200,550,750,2.75,170,370,540,2.1765,160,310,470,1.9375,140,200,340,1.4286,120,130,250,1.0833,110,100,210,0.90909,94,56
1070,230,660,200,460,660,2.3,170,330,500,1.9412,160,270,430,1.6875,140,180,320,1.2857,120,130,250,1.0833,100,100,200,1,95,56
1060,410,780,190,770,960,4.0526,160,400,560,2.5,150,340,490,2.2667,120,200,320,1.6667,100,140,240,1.4,90,110,200,1.2222,94,56
1050,280,860,180,510,690,2.8333,150,350,500,2.3333,140,290,430,2.0714,130,180,310,1.3846,100,120,220,1.2,90,100,190,1.1111,94,56
1080,190,850,170,570,740,3.3529,140,380,520,2.7143,140,310,450,2.2143,110,200,310,1.8182,100,140,240,1.4,90,120,210,1.3333,93,56
1070,230,850,190,520,710,2.7368,170,360,530,2.1176,160,280,440,1.75,140,190,330,1.3571,110,120,230,1.0909,100,100,200,1,94,56
1120,220,730,240,650,890,2.7083,240,500,740,2.0833,240,450,690,1.875,180,360,540,2,140,190,330,1.3571,130,140,270,1.0769,94,56
1070,390,770,240,780,1020,3.25,190,780,970,4.1053,170,720,890,4.2353,150,500,650,3.3333,140,190,330,1.3571,110,160,270,1.4545,94,56
2050,300,1750,270,1760,2030,6.5185,230,1760,1990,7.6522,200,1720,1920,8.6,170,1000,1170,5.8824,140,600,740,4.2857,120,400,520,3.3333,94,56
5390,300,3100,320,3050,3370,9.5313,300,2370,2670,7.9,260,1850,2110,7.1154,220,900,1120,4.0909,170,370,540,2.1765,130,250,380,1.9231,93,56
1090,2290,770,2200,780,2980,0.35455,2020,540,2560,0.26733,1640,470,2110,0.28659,700,270,970,0.38571,340,140,480,0.41176,250,90,340,0.36,93,56
1060,320,770,280,780,1060,2.7857,250,530,780,2.12,210,410,620,1.9524,170,260,430,1.5294,150,160,310,1.0667,130,110,240,0.84615,92,54
1080,290,850,220,630,850,2.8636,190,460,650,2.4211,180,390,570,2.1667,160,270,430,1.6875,130,160,290,1.2308,120,120,240,1,92,54
1060,230,820,220,590,810,2.6818,190,400,590,2.1053,170,330,500,1.9412,150,220,370,1.4667,120,140,260,1.1667,110,100,210,0.90909,93,55
1050,240,820,260,540,800,2.0769,180,380,560,2.1111,170,330,500,1.9412,130,220,350,1.6923,110,140,250,1.2727,100,110,210,1.1,92,54
1060,230,800,190,710,900,3.7368,170,520,690,3.0588,150,460,610,3.0667,130,250,380,1.9231,110,140,250,1.2727,100,110,210,1.1,92,54
990,260,820,190,800,990,4.2105,160,480,640,3,160,260,420,1.625,120,160,280,1.3333,110,110,220,1,90,90,180,1,92,54
1100,170,890,170,830,1000,4.8824,130,580,710,4.4615,120,530,650,4.4167,100,390,490,3.9,80,300,380,3.75,70,270,340,3.8571,92,54
1090,210,860,230,570,800,2.4783,190,400,590,2.1053,170,340,510,2,150,230,380,1.5333,120,140,260,1.1667,100,120,220,1.2,92,54
1030,230,710,190,600,790,3.1579,170,410,580,2.4118,160,360,520,2.25,140,230,370,1.6429,110,140,250,1.2727,110,110,220,1,92,54
1010,320,780,300,790,1090,2.6333,180,490,670,2.7222,170,410,580,2.4118,140,260,400,1.8571,120,150,270,1.25,100,120,220,1.2,91,54
1010,230,790,190,610,800,3.2105,170,420,590,2.4706,150,360,510,2.4,130,240,370,1.8462,110,140,250,1.2727,100,110,210,1.1,91,54
1010,220,780,190,630,820,3.3158,160,410,570,2.5625,150,350,500,2.3333,130,220,350,1.6923,110,140,250,1.2727,100,110,210,1.1,91,54
1020,230,800,200,580,780,2.9,170,410,580,2.4118,160,340,500,2.125,130,220,350,1.6923,120,140,260,1.1667,100,110,210,1.1,92,54
1040,220,800,240,550,790,2.2917,180,400,580,2.2222,170,340,510,2,140,220,360,1.5714,120,140,260,1.1667,100,110,210,1.1,91,54
1000,240,740,190,640,830,3.3684,160,410,570,2.5625,150,340,490,2.2667,130,210,340,1.6154,110,130,240,1.1818,100,110,210,1.1,91,54
1000,260,790,190,710,900,3.7368,160,440,600,2.75,150,360,510,2.4,130,240,370,1.8462,100,140,240,1.4,100,110,210,1.1,91,54
990,210,510,180,330,510,1.8333,160,260,420,1.625,150,200,350,1.3333,130,140,270,1.0769,110,120,230,1.0909,100,100,200,1,91,54
970,480,760,190,560,750,2.9474,160,390,550,2.4375,150,330,480,2.2,130,210,340,1.6154,100,140,240,1.4,90,110,200,1.2222,91,54
990,210,790,180,530,710,2.9444,150,380,530,2.5333,140,320,460,2.2857,120,210,330,1.75,100,150,250,1.5,90,120,210,1.3333,91,54
1030,200,800,220,540,760,2.4545,180,30,210,0.16667,160,20,180,0.125,130,20,150,0.15385,100,20,120,0.2,90,20,110,0.22222,92,55
970,230,750,190,570,760,3,160,380,540,2.375,150,320,470,2.1333,130,200,330,1.5385,110,130,240,1.1818,100,100,200,1,92,55
960,220,750,170,760,930,4.4706,150,440,590,2.9333,140,360,500,2.5714,130,220,350,1.6923,90,130,220,1.4444,90,100,190,1.1111,91,55
980,210,760,170,530,700,3.1176,150,370,520,2.4667,140,310,450,2.2143,120,200,320,1.6667,100,130,230,1.3,90,100,190,1.1111,91,55
950,220,740,200,500,700,2.5,160,350,510,2.1875,150,300,450,2,130,200,330,1.5385,110,130,240,1.1818,100,110,210,1.1,91,55
980,210,760,180,520,700,2.8889,150,360,510,2.4,140,310,450,2.2143,130,200,330,1.5385,100,130,230,1.3,90,110,200,1.2222,92,55
1010,220,780,240,520,760,2.1667,170,370,540,2.1765,160,300,460,1.875,140,200,340,1.4286,120,140,260,1.1667,100,120,220,1.2,93,56
970,230,750,180,560,740,3.1111,160,370,530,2.3125,150,300,450,2,130,180,310,1.3846,110,130,240,1.1818,100,100,200,1,93,56
950,220,730,180,740,920,4.1111,150,440,590,2.9333,150,370,520,2.4667,130,170,300,1.3077,100,110,210,1.1,100,90,190,0.9,93,56
960,220,740,170,510,680,3,150,350,500,2.3333,140,290,430,2.0714,130,170,300,1.3077,100,120,220,1.2,90,100,190,1.1111,94,57
960,220,720,190,460,650,2.4211,160,360,520,2.25,150,300,450,2,130,180,310,1.3846,110,120,230,1.0909,90,90,180,1,94,57
960,240,730,190,490,680,2.5789,170,330,500,1.9412,160,280,440,1.75,130,170,300,1.3077,120,120,240,1,100,90,190,0.9,95,58
980,230,760,250,530,780,2.12,180,390,570,2.1667,160,330,490,2.0625,140,210,350,1.5,120,130,250,1.0833,100,110,210,1.1,97,59
950,220,740,190,480,670,2.5263,160,340,500,2.125,150,280,430,1.8667,130,160,290,1.2308,110,110,220,1,100,100,200,1,98,60
950,210,610,170,510,680,3,150,350,500,2.3333,140,280,420,2,120,160,280,1.3333,100,110,210,1.1,90,90,180,1,99,60
950,340,720,180,560,740,3.1111,160,360,520,2.25,150,290,440,1.9333,130,160,290,1.2308,110,110,220,1,90,80,170,0.88889,99,61
940,230,720,190,480,670,2.5263,170,330,500,1.9412,150,270,420,1.8,130,150,280,1.1538,110,100,210,0.90909,100,90,190,0.9,100,62
950,220,720,180,450,630,2.5,150,320,470,2.1333,150,270,420,1.8,130,160,290,1.2308,110,110,220,1,100,90,190,0.9,102,62
960,230,750,190,500,690,2.6316,170,340,510,2,160,280,440,1.75,130,170,300,1.3077,110,120,230,1.0909,100,100,200,1,102,62
970,210,760,180,450,630,2.5,160,330,490,2.0625,150,270,420,1.8,130,160,290,1.2308,110,120,230,1.0909,90,100,190,1.1111,105,65
940,210,720,170,490,660,2.8824,150,340,490,2.2667,140,280,420,2,120,150,270,1.25,100,110,210,1.1,90,80,170,0.88889,106,65
940,220,720,170,540,710,3.1765,150,350,500,2.3333,140,300,440,2.1429,130,170,300,1.3077,100,100,200,1,90,90,180,1,106,66
940,220,720,180,450,630,2.5,150,320,470,2.1333,140,270,410,1.9286,130,150,280,1.1538,100,110,210,1.1,100,80,180,0.8,107,67
940,220,710,180,450,630,2.5,160,310,470,1.9375,150,270,420,1.8,130,150,280,1.1538,110,100,210,0.90909,90,90,180,1,109,67
950,230,730,180,440,620,2.4444,160,320,480,2,150,260,410,1.7333,130,150,280,1.1538,110,110,220,1,100,90,190,0.9,111,69
980,220,770,210,460,670,2.1905,170,350,520,2.0588,160,280,440,1.75,140,170,310,1.2143,120,120,240,1,100,90,190,0.9,112,70
940,210,740,180,490,670,2.7222,150,330,480,2.2,150,270,420,1.8,120,150,270,1.25,110,110,220,1,100,90,190,0.9,113,70
940,200,550,170,470,640,2.7647,150,330,480,2.2,140,270,410,1.9286,120,140,260,1.1667,100,100,200,1,90,90,180,1,114,71
940,390,730,180,470,650,2.6111,150,320,470,2.1333,140,270,410,1.9286,120,150,270,1.25,110,110,220,1,90,90,180,1,115,72
950,210,750,170,480,650,2.8235,150,320,470,2.1333,140,270,410,1.9286,120,150,270,1.25,100,110,210,1.1,90,90,180,1,116,72
950,200,730,180,430,610,2.3889,160,310,470,1.9375,150,260,410,1.7333,130,140,270,1.0769,110,100,210,0.90909,100,90,190,0.9,118,73
970,220,750,190,470,660,2.4737,160,340,500,2.125,150,280,430,1.8667,140,160,300,1.1429,110,110,220,1,110,90,200,0.81818,119,74
940,220,730,190,500,690,2.6316,160,340,500,2.125,150,280,430,1.8667,130,150,280,1.1538,120,100,220,0.83333,110,90,200,0.81818,121,75
950,210,740,170,480,650,2.8235,140,340,480,2.4286,140,280,420,2,110,150,260,1.3636,100,110,210,1.1,80,90,170,1.125,121,75
940,210,730,170,460,630,2.7059,150,330,480,2.2,130,290,420,2.2308,120,160,280,1.3333,100,110,210,1.1,100,90,190,0.9,121,75
950,210,730,170,450,620,2.6471,150,330,480,2.2,140,270,410,1.9286,120,150,270,1.25,100,100,200,1,90,90,180,1,122,76
940,220,720,180,440,620,2.4444,160,310,470,1.9375,150,260,410,1.7333,130,150,280,1.1538,110,110,220,1,100,90,190,0.9,124,76
960,220,750,180,470,650,2.6111,160,340,500,2.125,150,280,430,1.8667,130,170,300,1.3077,110,120,230,1.0909,90,100,190,1.1111,125,77
940,210,730,190,440,630,2.3158,160,320,480,2,150,270,420,1.8,120,150,270,1.25,120,110,230,0.91667,100,90,190,0.9,125,77
940,210,730,160,500,660,3.125,140,350,490,2.5,130,290,420,2.2308,110,150,260,1.3636,90,110,200,1.2222,80,90,170,1.125,124,77
930,210,720,170,460,630,2.7059,150,330,480,2.2,140,270,410,1.9286,120,140,260,1.1667,110,90,200,0.81818,90,80,170,0.88889,124,77
920,210,720,180,460,640,2.5556,150,330,480,2.2,140,280,420,2,130,150,280,1.1538,110,100,210,0.90909,90,90,180,1,124,77
950,200,360,170,360,530,2.1176,140,340,480,2.4286,130,290,420,2.2308,120,170,290,1.4167,100,120,220,1.2,90,100,190,1.1111,125,77
950,590,740,510,450,960,0.88235,160,320,480,2,150,270,420,1.8,130,150,280,1.1538,120,110,230,0.91667,100,90,190,0.9,125,77
980,210,590,230,470,700,2.0435,230,430,660,1.8696,210,340,550,1.619,150,270,420,1.8,130,160,290,1.2308,110,120,230,1.0909,127,78
930,390,720,210,730,940,3.4762,170,730,900,4.2941,150,730,880,4.8667,130,730,860,5.6154,110,320,430,2.9091,100,180,280,1.8,127,78
950,210,730,170,440,610,2.5882,140,320,460,2.2857,140,270,410,1.9286,110,150,260,1.3636,100,110,210,1.1,90,80,170,0.88889,126,78
930,220,710,240,510,750,2.125,240,360,600,1.5,200,300,500,1.5,150,170,320,1.1333,130,110,240,0.84615,110,90,200,0.81818,126,77
940,220,700,180,630,810,3.5,150,360,510,2.4,150,300,450,2,130,160,290,1.2308,110,110,220,1,100,80,180,0.8,126,77
950,240,730,190,550,740,2.8947,170,350,520,2.0588,160,290,450,1.8125,130,170,300,1.3077,120,110,230,0.91667,100,100,200,1,127,77
970,220,750,190,510,700,2.6842,170,360,530,2.1176,150,300,450,2,140,190,330,1.3571,110,120,230,1.0909,110,100,210,0.90909,128,78
940,220,730,190,460,650,2.4211,170,340,510,2,160,290,450,1.8125,130,170,300,1.3077,120,110,230,0.91667,100,100,200,1,127,78
940,210,730,180,500,680,2.7778,150,350,500,2.3333,150,310,460,2.0667,120,170,290,1.4167,100,110,210,1.1,90,90,180,1,127,77
940,210,720,170,490,660,2.8824,150,340,490,2.2667,140,290,430,2.0714,120,170,290,1.4167,100,110,210,1.1,90,90,180,1,127,77
1030,220,700,240,610,850,2.5417,240,550,790,2.2917,240,500,740,2.0833,160,350,510,2.1875,130,170,300,1.3077,110,120,230,1.0909,126,77
5580,330,4330,210,4340,4550,20.667,180,4340,4520,24.111,170,3690,3860,21.706,130,3020,3150,23.231,100,1000,1100,10,80,480,560,6,127,77
950,1250,720,870,620,1490,0.71264,620,380,1000,0.6129,560,320,880,0.57143,370,200,570,0.54054,110,120,230,1.0909,100,100,200,1,127,77
960,230,720,200,440,640,2.2,180,310,490,1.7222,160,260,420,1.625,150,180,330,1.2,120,120,240,1,110,90,200,0.81818,127,76
960,240,680,230,450,680,1.9565,180,340,520,1.8889,180,290,470,1.6111,140,190,330,1.3571,120,120,240,1,110,100,210,0.90909,128,77
950,280,610,180,440,620,2.4444,160,320,480,2,140,280,420,2,130,190,320,1.4615,110,120,230,1.0909,100,100,200,1,127,76
930,340,640,180,420,600,2.3333,170,320,490,1.8824,150,270,420,1.8,130,150,280,1.1538,120,100,220,0.83333,110,80,190,0.72727,127,76
930,290,720,220,520,740,2.3636,170,360,530,2.1176,160,310,470,1.9375,140,200,340,1.4286,120,120,240,1,100,90,190,0.9,126,76
940,210,670,170,580,750,3.4118,160,340,500,2.125,150,290,440,1.9333,130,190,320,1.4615,110,110,220,1,100,100,200,1,126,76
960,270,520,190,530,720,2.7895,170,330,500,1.9412,150,290,440,1.9333,140,170,310,1.2143,120,120,240,1,100,90,190,0.9,127,76
1900,440,750,460,580,1040,1.2609,440,450,890,1.0227,370,410,780,1.1081,170,340,510,2,140,270,410,1.9286,120,200,320,1.6667,128,76
950,1150,640,1120,650,1770,0.58036,1100,650,1750,0.59091,1090,460,1550,0.42202,640,310,950,0.48438,410,150,560,0.36585,260,110,370,0.42308,128,76
990,310,720,180,700,880,3.8889,150,400,550,2.6667,140,350,490,2.5,130,210,340,1.6154,110,130,240,1.1818,90,100,190,1.1111,126,75
890,270,680,230,650,880,2.8261,210,300,510,1.4286,200,270,470,1.35,170,160,330,0.94118,160,80,240,0.5,140,70,210,0.5,126,75
950,210,740,190,660,850,3.4737,160,530,690,3.3125,140,410,550,2.9286,130,150,280,1.1538,110,110,220,1,100,90,190,0.9,127,75
980,210,750,230,550,780,2.3913,230,370,600,1.6087,180,310,490,1.7222,150,210,360,1.4,120,150,270,1.25,110,120,230,1.0909,127,75
950,230,650,230,450,680,1.9565,190,340,530,1.7895,180,310,490,1.7222,150,230,380,1.5333,130,150,280,1.1538,110,110,220,1,127,75
940,300,520,190,530,720,2.7895,170,530,700,3.1176,150,430,580,2.8667,140,210,350,1.5,110,120,230,1.0909,110,100,210,0.90909,126,74
930,420,540,200,520,720,2.6,170,380,550,2.2353,150,330,480,2.2,130,220,350,1.6923,120,120,240,1,100,90,190,0.9,125,74
960,390,760,410,720,1130,1.7561,200,500,700,2.5,170,410,580,2.4118,140,200,340,1.4286,110,130,240,1.1818,90,90,180,1,125,74
950,200,720,180,590,770,3.2778,160,370,530,2.3125,150,320,470,2.1333,140,220,360,1.5714,110,130,240,1.1818,90,100,190,1.1111,124,73
980,230,750,200,510,710,2.55,170,360,530,2.1176,170,310,480,1.8235,140,190,330,1.3571,120,110,230,0.91667,110,90,200,0.81818,125,73
960,230,750,230,500,730,2.1739,180,350,530,1.9444,180,300,480,1.6667,160,200,360,1.25,140,120,260,0.85714,120,100,220,0.83333,125,74
950,210,750,180,600,780,3.3333,150,350,500,2.3333,140,300,440,2.1429,130,200,330,1.5385,110,120,230,1.0909,100,100,200,1,125,73
950,200,730,170,470,640,2.7647,150,340,490,2.2667,140,290,430,2.0714,130,190,320,1.4615,100,120,220,1.2,90,90,180,1,124,73
950,220,710,180,490,670,2.7222,160,340,500,2.125,150,300,450,2,130,180,310,1.3846,120,120,240,1,100,100,200,1,123,72
950,240,730,190,450,640,2.3684,160,330,490,2.0625,150,280,430,1.8667,120,170,290,1.4167,110,110,220,1,90,100,190,1.1111,124,72
960,220,730,190,480,670,2.5263,160,340,500,2.125,150,290,440,1.9333,140,190,330,1.3571,120,120,240,1,100,100,200,1,124,72
970,230,730,250,510,760,2.04,180,360,540,2,170,310,480,1.8235,140,190,330,1.3571,120,120,240,1,110,100,210,0.90909,124,72
950,240,740,190,490,680,2.5789,160,350,510,2.1875,150,300,450,2,130,180,310,1.3846,110,120,230,1.0909,100,110,210,1.1,124,72
