cp,st,dt,sw10,dw10,sw10+dw10,dw10/sw10,sw25,dw25,sw25+dw25,dw25/sw25,sw33,dw33,sw33+dw33,dw33/sw33,sw50,dw50,sw50+dw50,dw50/sw50,sw66,dw66,sw66+dw66,dw66/sw66,sw75,dw75,sw75+dw75,dw75/sw75,sys,dia,
910,220,690,170,470,640,2.7647,150,320,470,2.1333,140,270,410,1.9286,120,170,290,1.4167,100,130,230,1.3,90,100,190,1.1111,118,70
910,220,610,180,470,650,2.6111,160,330,490,2.0625,150,270,420,1.8,130,170,300,1.3077,110,120,230,1.0909,100,100,200,1,118,70
900,300,670,190,680,870,3.5789,160,360,520,2.25,150,290,440,1.9333,140,170,310,1.2143,110,120,230,1.0909,100,100,200,1,118,70
890,230,680,190,450,640,2.3684,170,310,480,1.8235,160,250,410,1.5625,130,170,300,1.3077,120,120,240,1,100,100,200,1,119,70
890,210,680,230,440,670,1.913,230,310,540,1.3478,190,260,450,1.3684,160,170,330,1.0625,140,130,270,0.92857,110,110,220,1,119,70
900,210,600,170,460,630,2.7059,150,310,460,2.0667,140,250,390,1.7857,120,150,270,1.25,110,110,220,1,90,100,190,1.1111,118,70
900,300,600,180,610,790,3.3889,150,450,600,3,140,370,510,2.6429,130,220,350,1.6923,100,120,220,1.2,90,100,190,1.1111,118,70
890,300,680,180,450,630,2.5,150,320,470,2.1333,150,260,410,1.7333,130,160,290,1.2308,110,120,230,1.0909,90,100,190,1.1111,118,69
910,210,680,170,420,590,2.4706,150,340,490,2.2667,140,280,420,2,120,180,300,1.5,100,140,240,1.4,80,110,190,1.375,118,69
900,230,670,190,570,760,3,160,350,510,2.1875,150,290,440,1.9333,140,180,320,1.2857,120,120,240,1,100,110,210,1.1,118,69
900,230,690,210,580,790,2.7619,170,370,540,2.1765,160,290,450,1.8125,140,180,320,1.2857,120,120,240,1,100,110,210,1.1,119,70
900,210,660,230,430,660,1.8696,190,310,500,1.6316,160,250,410,1.5625,140,170,310,1.2143,120,130,250,1.0833,100,100,200,1,118,70
920,240,600,170,460,630,2.7059,150,330,480,2.2,140,250,390,1.7857,130,160,290,1.2308,100,120,220,1.2,90,90,180,1,118,70
890,320,640,190,650,840,3.4211,170,410,580,2.4118,150,320,470,2.1333,130,180,310,1.3846,100,120,220,1.2,90,90,180,1,118,69
910,250,680,180,440,620,2.4444,150,310,460,2.0667,150,240,390,1.6,130,160,290,1.2308,100,110,210,1.1,100,100,200,1,118,69
900,230,670,180,440,620,2.4444,160,290,450,1.8125,150,240,390,1.6,140,160,300,1.1429,110,120,230,1.0909,90,100,190,1.1111,118,69
910,230,670,190,470,660,2.4737,160,330,490,2.0625,160,270,430,1.6875,140,170,310,1.2143,110,130,240,1.1818,100,110,210,1.1,119,70
890,240,680,260,470,730,1.8077,210,400,610,1.9048,190,330,520,1.7368,160,210,370,1.3125,140,140,280,1,120,110,230,0.91667,119,70
910,210,560,190,420,610,2.2105,160,290,450,1.8125,150,230,380,1.5333,130,150,280,1.1538,110,120,230,1.0909,100,110,210,1.1,119,70
890,350,640,190,480,670,2.5263,160,320,480,2,140,250,390,1.7857,130,150,280,1.1538,110,110,220,1,100,80,180,0.8,118,70
900,250,650,210,660,870,3.1429,170,450,620,2.6471,160,350,510,2.1875,140,200,340,1.4286,120,130,250,1.0833,110,110,220,1,118,70
910,250,580,180,440,620,2.4444,160,310,470,1.9375,140,250,390,1.7857,130,150,280,1.1538,110,110,220,1,90,90,180,1,118,69
890,330,660,200,400,600,2,170,250,420,1.4706,160,180,340,1.125,140,110,250,0.78571,120,70,190,0.58333,110,50,160,0.45455,119,70
890,230,670,190,440,630,2.3158,170,310,480,1.8235,160,250,410,1.5625,130,170,300,1.3077,120,120,240,1,100,100,200,1,119,70
900,220,680,240,430,670,1.7917,240,310,550,1.2917,200,290,490,1.45,150,210,360,1.4,130,150,280,1.1538,110,120,230,1.0909,119,70
900,220,630,170,420,590,2.4706,150,300,450,2,140,240,380,1.7143,120,150,270,1.25,100,120,220,1.2,90,100,190,1.1111,118,70
910,270,520,180,490,670,2.7222,150,340,490,2.2667,140,270,410,1.9286,120,160,280,1.3333,100,120,220,1.2,90,100,190,1.1111,118,69
900,390,680,390,690,1080,1.7692,180,430,610,2.3889,170,350,520,2.0588,130,190,320,1.4615,120,120,240,1,110,100,210,0.90909,118,69
900,220,670,190,460,650,2.4211,160,310,470,1.9375,150,250,400,1.6667,130,150,280,1.1538,110,110,220,1,100,100,200,1,118,69
900,230,670,190,410,600,2.1579,170,290,460,1.7059,160,240,400,1.5,130,160,290,1.2308,110,120,230,1.0909,90,90,180,1,119,69
900,230,700,200,460,660,2.3,170,320,490,1.8824,150,260,410,1.7333,140,170,310,1.2143,120,120,240,1,110,100,210,0.90909,119,70
900,200,610,220,410,630,1.8636,220,270,490,1.2273,180,200,380,1.1111,150,150,300,1,130,130,260,1,110,110,220,1,119,70
900,290,610,170,500,670,2.9412,150,340,490,2.2667,140,270,410,1.9286,120,150,270,1.25,110,110,220,1,90,100,190,1.1111,118,69
910,290,360,170,370,540,2.1765,150,330,480,2.2,140,260,400,1.8571,130,160,290,1.2308,110,120,230,1.0909,100,90,190,0.9,117,69
890,550,670,320,520,840,1.625,170,350,520,2.0588,160,280,440,1.75,130,170,300,1.3077,120,120,240,1,100,100,200,1,118,69
910,220,680,170,620,790,3.6471,150,360,510,2.4,140,290,430,2.0714,120,170,290,1.4167,100,130,230,1.3,90,110,200,1.2222,118,70
900,230,670,190,460,650,2.4211,170,330,500,1.9412,160,260,420,1.625,140,170,310,1.2143,120,120,240,1,100,100,200,1,119,70
1790,230,1480,250,1070,1320,4.28,200,530,730,2.65,180,310,490,1.7222,140,200,340,1.4286,130,130,260,1,110,110,220,1,118,70
900,310,590,170,480,650,2.8235,150,330,480,2.2,140,260,400,1.8571,130,160,290,1.2308,100,120,220,1.2,90,90,180,1,118,70
900,310,590,170,600,770,3.5294,160,410,570,2.5625,140,340,480,2.4286,120,160,280,1.3333,110,120,230,1.0909,90,100,190,1.1111,117,69
920,310,690,170,450,620,2.6471,150,330,480,2.2,140,270,410,1.9286,120,170,290,1.4167,100,130,230,1.3,90,110,200,1.2222,118,69
900,230,680,190,470,660,2.4737,170,370,540,2.1765,160,280,440,1.75,130,170,300,1.3077,120,120,240,1,100,100,200,1,119,70
900,220,680,190,480,670,2.5263,170,330,500,1.9412,160,270,430,1.6875,140,170,310,1.2143,110,120,230,1.0909,110,100,210,0.90909,119,70
890,220,670,240,430,670,1.7917,200,320,520,1.6,170,260,430,1.5294,150,170,320,1.1333,130,120,250,0.92308,110,110,220,1,118,70
910,220,660,200,670,870,3.35,160,380,540,2.375,150,310,460,2.0667,130,170,300,1.3077,100,120,220,1.2,90,110,200,1.2222,118,70
950,250,660,180,480,660,2.6667,160,330,490,2.0625,150,280,430,1.8667,130,160,290,1.2308,110,120,230,1.0909,100,90,190,0.9,118,70
860,290,620,230,410,640,1.7826,210,290,500,1.381,200,220,420,1.1,170,130,300,0.76471,160,80,240,0.5,140,60,200,0.42857,118,70
910,240,650,190,430,620,2.2632,170,300,470,1.7647,150,240,390,1.6,140,150,290,1.0714,110,120,230,1.0909,100,90,190,0.9,118,70
900,260,670,200,420,620,2.1,180,290,470,1.6111,170,270,440,1.5882,140,170,310,1.2143,130,120,250,0.92308,110,90,200,0.81818,118,70
900,230,700,190,460,650,2.4211,170,330,500,1.9412,160,270,430,1.6875,140,160,300,1.1429,120,120,240,1,110,100,210,0.90909,119,70
900,200,510,220,410,630,1.8636,180,300,480,1.6667,170,240,410,1.4118,130,160,290,1.2308,120,130,250,1.0833,100,100,200,1,119,70
890,390,630,250,640,890,2.56,160,370,530,2.3125,150,310,460,2.0667,130,180,310,1.3846,110,120,230,1.0909,100,100,200,1,118,70
910,260,690,180,440,620,2.4444,150,310,460,2.0667,140,270,410,1.9286,120,160,280,1.3333,110,120,230,1.0909,90,100,190,1.1111,118,70
900,220,630,170,450,620,2.6471,150,310,460,2.0667,150,240,390,1.6,130,150,280,1.1538,110,110,220,1,100,100,200,1,118,69
910,270,680,180,690,870,3.8333,160,360,520,2.25,140,290,430,2.0714,130,170,300,1.3077,110,120,230,1.0909,90,100,190,1.1111,118,69
900,230,610,200,380,580,1.9,160,240,400,1.5,160,170,330,1.0625,140,130,270,0.92857,120,110,230,0.91667,110,100,210,0.90909,119,70
900,290,690,310,470,780,1.5161,180,360,540,2,180,300,480,1.6667,150,190,340,1.2667,130,130,260,1,110,110,220,1,118,70
900,210,610,190,410,600,2.1579,160,300,460,1.875,150,240,390,1.6,130,160,290,1.2308,110,120,230,1.0909,100,100,200,1,118,70
900,290,610,180,520,700,2.8889,150,350,500,2.3333,150,270,420,1.8,130,160,290,1.2308,110,110,220,1,100,90,190,0.9,118,70
900,290,590,180,500,680,2.7778,160,340,500,2.125,150,280,430,1.8667,120,170,290,1.4167,110,120,230,1.0909,100,100,200,1,117,69
910,310,600,190,440,630,2.3158,170,320,490,1.8824,150,260,410,1.7333,140,160,300,1.1429,110,120,230,1.0909,110,100,210,0.90909,117,69
900,310,680,190,690,880,3.6316,170,380,550,2.2353,150,310,460,2.0667,130,180,310,1.3846,120,130,250,1.0833,100,100,200,1,118,69
900,220,680,190,400,590,2.1053,170,290,460,1.7059,160,230,390,1.4375,140,150,290,1.0714,120,120,240,1,110,100,210,0.90909,119,70
900,220,680,240,430,670,1.7917,190,320,510,1.6842,170,260,430,1.5294,150,170,320,1.1333,130,130,260,1,110,110,220,1,119,70
900,220,580,170,590,760,3.4706,160,350,510,2.1875,140,270,410,1.9286,120,150,270,1.25,100,120,220,1.2,90,100,190,1.1111,118,70
920,320,690,180,520,700,2.8889,150,350,500,2.3333,140,280,420,2,120,170,290,1.4167,100,130,230,1.3,90,100,190,1.1111,118,69
910,230,660,190,450,640,2.3684,170,320,490,1.8824,160,260,420,1.625,130,160,290,1.2308,120,120,240,1,100,90,190,0.9,118,69
900,250,650,190,450,640,2.3684,170,310,480,1.8235,160,250,410,1.5625,120,150,270,1.25,120,110,230,0.91667,100,100,200,1,119,70
910,250,680,190,500,690,2.6316,170,340,510,2,160,280,440,1.75,140,170,310,1.2143,110,120,230,1.0909,100,100,200,1,119,70
900,230,690,210,460,670,2.1905,180,330,510,1.8333,170,260,430,1.5294,140,160,300,1.1429,130,120,250,0.92308,110,90,200,0.81818,119,70
900,210,630,230,430,660,1.8696,180,300,480,1.6667,160,240,400,1.5,140,160,300,1.1429,110,120,230,1.0909,110,100,210,0.90909,119,70
910,270,630,170,640,810,3.7647,150,410,560,2.7333,140,320,460,2.2857,120,180,300,1.5,100,130,230,1.3,90,100,190,1.1111,119,70
900,280,630,180,460,640,2.5556,160,310,470,1.9375,150,250,400,1.6667,130,150,280,1.1538,110,110,220,1,100,100,200,1,118,70
910,270,680,190,450,640,2.3684,160,330,490,2.0625,150,280,430,1.8667,130,170,300,1.3077,110,120,230,1.0909,100,100,200,1,118,69
900,230,670,180,570,750,3.1667,160,350,510,2.1875,150,280,430,1.8667,130,160,290,1.2308,110,120,230,1.0909,100,90,190,0.9,119,70
900,230,610,190,450,640,2.3684,160,300,460,1.875,160,260,420,1.625,140,160,300,1.1429,120,120,240,1,110,100,210,0.90909,119,70
900,290,690,310,480,790,1.5484,180,350,530,1.9444,170,290,460,1.7059,140,190,330,1.3571,120,130,250,1.0833,110,110,220,1,119,70
900,210,660,180,410,590,2.2778,150,290,440,1.9333,140,230,370,1.6429,120,150,270,1.25,110,120,230,1.0909,90,100,190,1.1111,118,69
910,240,690,180,650,830,3.6111,160,380,540,2.375,140,310,450,2.2143,130,180,310,1.3846,100,120,220,1.2,100,100,200,1,118,69
900,220,680,180,450,630,2.5,160,310,470,1.9375,150,250,400,1.6667,120,160,280,1.3333,110,120,230,1.0909,90,90,180,1,118,69
910,220,590,180,430,610,2.3889,150,320,470,2.1333,140,260,400,1.8571,130,170,300,1.3077,110,140,250,1.2727,90,120,210,1.3333,118,69
510,320,500,180,510,690,2.8333,170,360,530,2.1176,150,290,440,1.9333,130,170,300,1.3077,110,130,240,1.1818,90,100,190,1.1111,118,69
1290,10,1080,20,790,810,39.5,20,690,710,34.5,20,660,680,33,20,310,330,15.5,20,310,330,15.5,20,310,330,15.5,119,69
910,210,500,230,400,630,1.7391,170,290,460,1.7059,170,240,410,1.4118,140,170,310,1.2143,110,130,240,1.1818,100,110,210,1.1,118,69
910,410,520,420,420,840,1,420,290,710,0.69048,420,220,640,0.52381,420,140,560,0.33333,100,110,210,1.1,90,90,180,1,117,69
910,390,650,360,660,1020,1.8333,170,390,560,2.2941,160,310,470,1.9375,130,180,310,1.3846,120,120,240,1,100,100,200,1,117,69
910,260,640,190,470,660,2.4737,160,320,480,2,150,250,400,1.6667,130,150,280,1.1538,110,110,220,1,110,90,200,0.81818,117,69
910,270,630,180,400,580,2.2222,160,280,440,1.75,150,220,370,1.4667,130,140,270,1.0769,120,110,230,0.91667,100,90,190,0.9,118,69
910,280,610,200,500,700,2.5,170,330,500,1.9412,160,260,420,1.625,140,160,300,1.1429,120,110,230,0.91667,110,90,200,0.81818,118,69
900,300,700,320,470,790,1.4688,200,320,520,1.6,180,260,440,1.4444,150,140,290,0.93333,130,110,240,0.84615,110,100,210,0.90909,118,69
900,200,610,220,410,630,1.8636,170,290,460,1.7059,160,240,400,1.5,140,160,300,1.1429,120,120,240,1,100,100,200,1,117,69
910,290,610,180,620,800,3.4444,160,620,780,3.875,150,380,530,2.5333,120,160,280,1.3333,110,110,220,1,90,100,190,1.1111,117,69
900,300,680,180,450,630,2.5,160,320,480,2,150,250,400,1.6667,130,160,290,1.2308,110,110,220,1,100,90,190,0.9,116,69
910,220,690,190,540,730,2.8421,160,380,540,2.375,150,290,440,1.9333,130,180,310,1.3846,110,130,240,1.1818,90,110,200,1.2222,117,69
910,220,680,180,690,870,3.8333,160,360,520,2.25,150,280,430,1.8667,130,160,290,1.2308,110,120,230,1.0909,100,110,210,1.1,117,69
910,230,670,190,440,630,2.3158,170,310,480,1.8235,160,250,410,1.5625,140,160,300,1.1429,110,120,230,1.0909,100,100,200,1,118,69
890,240,670,260,450,710,1.7308,220,330,550,1.5,190,280,470,1.4737,170,170,340,1,140,130,270,0.92857,130,100,230,0.76923,118,69
910,220,560,180,410,590,2.2778,150,290,440,1.9333,150,240,390,1.6,120,160,280,1.3333,100,110,210,1.1,90,100,190,1.1111,118,69
900,350,640,170,650,820,3.8235,160,380,540,2.375,150,310,460,2.0667,130,170,300,1.3077,110,120,230,1.0909,100,90,190,0.9,117,69
910,260,640,190,450,640,2.3684,160,310,470,1.9375,150,250,400,1.6667,130,150,280,1.1538,110,110,220,1,100,90,190,0.9,117,69
910,270,610,190,440,630,2.3158,170,310,480,1.8235,150,240,390,1.6,140,160,300,1.1429,120,110,230,0.91667,100,90,190,0.9,117,69
900,300,680,200,660,860,3.3,180,360,540,2,160,290,450,1.8125,140,170,310,1.2143,130,130,260,1,110,90,200,0.81818,118,69
900,220,690,200,510,710,2.55,170,340,510,2,160,270,430,1.6875,140,170,310,1.2143,120,120,240,1,110,100,210,0.90909,119,70
900,210,680,230,410,640,1.7826,190,300,490,1.5789,180,250,430,1.3889,140,170,310,1.2143,130,130,260,1,110,100,210,0.90909,119,70
910,220,620,170,490,660,2.8824,150,350,500,2.3333,140,270,410,1.9286,120,160,280,1.3333,100,120,220,1.2,90,100,190,1.1111,118,69
910,290,680,180,690,870,3.8333,150,410,560,2.7333,140,330,470,2.3571,120,180,300,1.5,100,120,220,1.2,70,100,170,1.4286,118,69
900,230,680,180,450,630,2.5,160,320,480,2,150,250,400,1.6667,130,160,290,1.2308,110,120,230,1.0909,90,90,180,1,118,69
910,220,690,180,430,610,2.3889,150,290,440,1.9333,150,230,380,1.5333,130,170,300,1.3077,110,140,250,1.2727,90,100,190,1.1111,118,69
910,220,690,180,480,660,2.6667,160,320,480,2,150,270,420,1.8,140,160,300,1.1429,110,120,230,1.0909,100,100,200,1,119,70
910,220,690,240,480,720,2,190,400,590,2.1053,180,330,510,1.8333,130,210,340,1.6154,120,140,260,1.1667,100,120,220,1.2,118,70
890,220,620,200,420,620,2.1,170,290,460,1.7059,160,230,390,1.4375,130,150,280,1.1538,120,110,230,0.91667,100,100,200,1,118,70
910,270,660,170,490,660,2.8824,150,340,490,2.2667,140,270,410,1.9286,120,160,280,1.3333,100,120,220,1.2,90,100,190,1.1111,118,69
910,250,650,240,660,900,2.75,170,430,600,2.5294,170,340,510,2,140,190,330,1.3571,120,130,250,1.0833,100,100,200,1,117,69
890,260,640,190,440,630,2.3158,160,310,470,1.9375,150,240,390,1.6,130,150,280,1.1538,110,110,220,1,100,100,200,1,117,69
920,250,650,180,430,610,2.3889,160,290,450,1.8125,140,210,350,1.5,130,140,270,1.0769,100,100,200,1,90,80,170,0.88889,117,69
900,270,680,200,430,630,2.15,160,300,460,1.875,160,250,410,1.5625,140,160,300,1.1429,120,120,240,1,110,100,210,0.90909,118,69
910,220,630,240,430,670,1.7917,240,310,550,1.2917,200,260,460,1.3,160,200,360,1.25,140,140,280,1,120,110,230,0.91667,117,69
900,280,620,180,430,610,2.3889,160,290,450,1.8125,150,230,380,1.5333,130,150,280,1.1538,110,110,220,1,100,90,190,0.9,117,69
910,280,460,180,470,650,2.6111,160,310,470,1.9375,150,260,410,1.7333,120,160,280,1.3333,110,110,220,1,90,90,180,1,117,69
900,450,690,440,700,1140,1.5909,170,400,570,2.3529,160,330,490,2.0625,140,210,350,1.5,120,130,250,1.0833,110,110,220,1,117,69
900,210,680,170,420,590,2.4706,160,300,460,1.875,150,240,390,1.6,120,160,280,1.3333,110,120,230,1.0909,90,100,190,1.1111,117,69
910,220,690,170,440,610,2.5882,150,310,460,2.0667,140,260,400,1.8571,120,160,280,1.3333,110,120,230,1.0909,90,110,200,1.2222,117,69
890,220,690,180,440,620,2.4444,170,320,490,1.8824,160,250,410,1.5625,130,170,300,1.3077,110,130,240,1.1818,100,100,200,1,118,69
920,200,680,220,430,650,1.9545,220,290,510,1.3182,170,240,410,1.4118,140,160,300,1.1429,110,120,230,1.0909,100,100,200,1,118,69
890,240,660,190,470,660,2.4737,160,320,480,2,150,250,400,1.6667,130,150,280,1.1538,110,110,220,1,100,90,190,0.9,118,69
910,230,680,170,690,860,4.0588,150,540,690,3.6,140,390,530,2.7857,120,160,280,1.3333,100,120,220,1.2,90,110,200,1.2222,118,69
910,230,430,180,440,620,2.4444,160,320,480,2,150,250,400,1.6667,130,160,290,1.2308,100,120,220,1.2,100,100,200,1,118,69
900,480,670,490,490,980,1,490,320,810,0.65306,490,250,740,0.5102,490,150,640,0.30612,320,110,430,0.34375,320,90,410,0.28125,119,70
900,230,660,190,530,720,2.7895,160,350,510,2.1875,150,290,440,1.9333,130,180,310,1.3846,110,130,240,1.1818,100,110,210,1.1,119,70
900,240,690,260,490,750,1.8846,170,370,540,2.1765,160,310,470,1.9375,130,200,330,1.5385,120,130,250,1.0833,100,110,210,1.1,119,70
900,210,630,220,400,620,1.8182,170,290,460,1.7059,150,230,380,1.5333,130,150,280,1.1538,110,110,220,1,100,100,200,1,118,70
890,270,640,180,490,670,2.7222,160,320,480,2,150,270,420,1.8,130,160,290,1.2308,110,120,230,1.0909,90,90,180,1,118,70
920,250,690,170,700,870,4.1176,140,420,560,3,140,360,500,2.5714,120,230,350,1.9167,100,150,250,1.5,90,130,220,1.4444,118,69
910,230,610,180,450,630,2.5,160,310,470,1.9375,150,260,410,1.7333,140,160,300,1.1429,120,110,230,0.91667,110,90,200,0.81818,119,69
900,300,660,200,400,600,2,170,330,500,1.9412,160,270,430,1.6875,140,160,300,1.1429,130,110,240,0.84615,110,90,200,0.81818,119,70
890,240,670,190,460,650,2.4211,170,310,480,1.8235,160,260,420,1.625,140,160,300,1.1429,120,110,230,0.91667,110,100,210,0.90909,119,70
900,220,570,240,420,660,1.75,190,310,500,1.6316,170,260,430,1.5294,140,170,310,1.2143,120,140,260,1.1667,110,110,220,1,119,70
910,330,600,180,600,780,3.3333,150,350,500,2.3333,150,280,430,1.8667,130,170,300,1.3077,100,120,220,1.2,90,110,200,1.2222,119,70
900,310,650,170,480,650,2.8235,160,340,500,2.125,140,280,420,2,130,170,300,1.3077,110,120,230,1.0909,90,90,180,1,118,69
900,250,680,170,480,650,2.8235,150,340,490,2.2667,140,270,410,1.9286,120,160,280,1.3333,90,120,210,1.3333,90,100,190,1.1111,118,69
920,220,680,170,450,620,2.6471,150,320,470,2.1333,130,250,380,1.9231,130,160,290,1.2308,100,130,230,1.3,90,110,200,1.2222,119,70
900,240,670,190,400,590,2.1053,170,260,430,1.5294,160,200,360,1.25,140,160,300,1.1429,120,130,250,1.0833,100,100,200,1,119,70
890,230,690,200,460,660,2.3,170,330,500,1.9412,160,270,430,1.6875,150,160,310,1.0667,120,120,240,1,110,100,210,0.90909,119,70
910,200,650,220,430,650,1.9545,180,340,520,1.8889,160,270,430,1.6875,140,180,320,1.2857,120,130,250,1.0833,100,110,210,1.1,119,70
910,260,560,180,490,670,2.7222,160,340,500,2.125,150,270,420,1.8,130,150,280,1.1538,110,110,220,1,100,100,200,1,119,70
910,350,630,190,450,640,2.3684,160,310,470,1.9375,150,250,400,1.6667,130,150,280,1.1538,110,120,230,1.0909,110,90,200,0.81818,119,70
890,280,670,270,680,950,2.5185,180,390,570,2.1667,170,310,480,1.8235,140,170,310,1.2143,130,120,250,0.92308,110,90,200,0.81818,119,70
880,220,680,180,530,710,2.9444,160,350,510,2.1875,150,280,430,1.8667,130,160,290,1.2308,110,120,230,1.0909,100,100,200,1,119,70
950,200,710,170,440,610,2.5882,150,310,460,2.0667,130,250,380,1.9231,110,180,290,1.6364,100,150,250,1.5,80,120,200,1.5,120,70
890,240,680,260,460,720,1.7692,200,340,540,1.7,180,290,470,1.6111,160,180,340,1.125,130,130,260,1,120,100,220,0.83333,120,70
910,210,620,180,400,580,2.2222,150,280,430,1.8667,150,220,370,1.4667,130,150,280,1.1538,110,110,220,1,100,100,200,1,119,70
900,290,680,180,480,660,2.6667,160,330,490,2.0625,150,260,410,1.7333,130,160,290,1.2308,110,110,220,1,90,90,180,1,119,70
910,220,700,170,530,700,3.1176,150,310,460,2.0667,140,260,400,1.8571,120,160,280,1.3333,110,120,230,1.0909,90,100,190,1.1111,119,70
900,210,660,180,440,620,2.4444,160,310,470,1.9375,140,250,390,1.7857,130,160,290,1.2308,100,120,220,1.2,100,100,200,1,119,70
920,240,700,180,690,870,3.8333,160,370,530,2.3125,150,300,450,2,120,180,300,1.5,110,130,240,1.1818,90,110,200,1.2222,119,70
900,220,670,190,450,640,2.3684,170,310,480,1.8235,160,260,420,1.625,140,150,290,1.0714,120,110,230,0.91667,110,100,210,0.90909,120,70
900,230,670,250,430,680,1.72,200,320,520,1.6,190,260,450,1.3684,150,160,310,1.0667,130,120,250,0.92308,110,100,210,0.90909,120,70
900,230,570,180,530,710,2.9444,160,340,500,2.125,150,250,400,1.6667,130,140,270,1.0769,110,100,210,0.90909,100,90,190,0.9,119,70
910,330,660,180,500,680,2.7778,160,340,500,2.125,140,270,410,1.9286,130,160,290,1.2308,100,120,220,1.2,100,100,200,1,119,70
910,250,650,190,440,630,2.3158,170,330,500,1.9412,160,260,420,1.625,130,150,280,1.1538,120,110,230,0.91667,100,90,190,0.9,119,70
900,260,670,190,460,650,2.4211,160,310,470,1.9375,160,250,410,1.5625,130,150,280,1.1538,120,110,230,0.91667,110,90,200,0.81818,119,70
900,230,640,190,490,680,2.5789,170,340,510,2,140,280,420,2,140,160,300,1.1429,120,110,230,0.91667,110,100,210,0.90909,120,70
900,260,690,200,480,680,2.4,170,340,510,2,160,280,440,1.75,140,180,320,1.2857,120,130,250,1.0833,110,100,210,0.90909,120,70
900,210,630,230,420,650,1.8261,180,300,480,1.6667,160,240,400,1.5,140,160,300,1.1429,120,120,240,1,100,100,200,1,120,70
900,270,630,180,640,820,3.5556,160,440,600,2.75,160,350,510,2.1875,130,200,330,1.5385,120,130,250,1.0833,100,100,200,1,119,70
910,270,620,180,480,660,2.6667,150,320,470,2.1333,140,260,400,1.8571,130,160,290,1.2308,110,110,220,1,100,90,190,0.9,119,70
900,290,610,200,440,640,2.2,170,330,500,1.9412,160,290,450,1.8125,140,200,340,1.4286,120,140,260,1.1667,100,130,230,1.3,119,70
910,290,680,190,620,810,3.2632,160,380,540,2.375,160,290,450,1.8125,130,150,280,1.1538,110,110,220,1,100,100,200,1,120,70
900,230,670,190,400,590,2.1053,170,320,490,1.8824,160,270,430,1.6875,140,160,300,1.1429,120,110,230,0.91667,110,100,210,0.90909,120,70
900,230,680,250,470,720,1.88,190,350,540,1.8421,170,300,470,1.7647,150,180,330,1.2,120,140,260,1.1667,120,110,230,0.91667,119,70
900,220,560,180,410,590,2.2778,160,280,440,1.75,150,230,380,1.5333,130,150,280,1.1538,110,110,220,1,100,90,190,0.9,119,70
900,340,690,190,700,890,3.6842,160,240,400,1.5,140,240,380,1.7143,130,180,310,1.3846,110,130,240,1.1818,90,100,190,1.1111,119,70
900,210,680,180,460,640,2.5556,150,320,470,2.1333,140,260,400,1.8571,130,160,290,1.2308,110,120,230,1.0909,90,100,190,1.1111,119,70
900,220,590,170,460,630,2.7059,150,320,470,2.1333,140,260,400,1.8571,120,160,280,1.3333,90,120,210,1.3333,80,100,180,1.25,119,70
910,310,680,180,640,820,3.5556,150,370,520,2.4667,140,300,440,2.1429,130,180,310,1.3846,100,130,230,1.3,90,110,200,1.2222,119,70
890,230,680,210,390,600,1.8571,180,260,440,1.4444,170,200,370,1.1765,140,160,300,1.1429,130,130,260,1,110,100,210,0.90909,120,70
900,210,590,230,430,660,1.8696,190,320,510,1.6842,180,250,430,1.3889,140,170,310,1.2143,130,130,260,1,110,110,220,1,120,70
900,310,410,180,420,600,2.3333,160,310,470,1.9375,150,250,400,1.6667,120,160,280,1.3333,110,120,230,1.0909,90,100,190,1.1111,119,70
900,490,690,180,480,660,2.6667,150,320,470,2.1333,140,260,400,1.8571,130,160,290,1.2308,100,120,220,1.2,100,100,200,1,119,70
900,210,690,170,460,630,2.7059,160,320,480,2,140,260,400,1.8571,120,160,280,1.3333,100,120,220,1.2,90,100,190,1.1111,120,70
910,210,590,180,480,660,2.6667,150,320,470,2.1333,140,260,400,1.8571,130,160,290,1.2308,100,120,220,1.2,90,100,190,1.1111,120,70
890,320,680,190,540,730,2.8421,170,350,520,2.0588,160,280,440,1.75,130,170,300,1.3077,110,130,240,1.1818,100,100,200,1,121,71
900,210,690,200,470,670,2.35,170,310,480,1.8235,150,240,390,1.6,140,150,290,1.0714,110,110,220,1,100,80,180,0.8,121,71
900,210,640,230,420,650,1.8261,170,290,460,1.7059,160,240,400,1.5,130,170,300,1.3077,110,130,240,1.1818,100,110,210,1.1,121,71
910,260,670,180,680,860,3.7778,150,400,550,2.6667,150,320,470,2.1333,120,170,290,1.4167,100,120,220,1.2,90,100,190,1.1111,120,71
900,240,670,180,470,650,2.6111,160,330,490,2.0625,150,270,420,1.8,130,160,290,1.2308,110,120,230,1.0909,100,90,190,0.9,120,70
900,230,590,190,500,690,2.6316,160,350,510,2.1875,150,270,420,1.8,130,160,290,1.2308,110,120,230,1.0909,100,110,210,1.1,120,70
920,310,680,180,670,850,3.7222,160,360,520,2.25,150,280,430,1.8667,130,170,300,1.3077,110,130,240,1.1818,90,100,190,1.1111,121,71
900,240,650,200,470,670,2.35,180,330,510,1.8333,170,270,440,1.5882,140,170,310,1.2143,120,120,240,1,110,100,210,0.90909,121,71
890,250,650,270,460,730,1.7037,220,350,570,1.5909,190,290,480,1.5263,160,190,350,1.1875,130,130,260,1,110,110,220,1,121,71
900,240,550,180,410,590,2.2778,160,290,450,1.8125,150,220,370,1.4667,120,150,270,1.25,110,110,220,1,100,100,200,1,121,71
900,350,650,180,660,840,3.6667,150,430,580,2.8667,150,350,500,2.3333,130,200,330,1.5385,100,120,220,1.2,100,110,210,1.1,120,71
900,250,650,180,460,640,2.5556,160,320,480,2,150,260,410,1.7333,130,150,280,1.1538,110,110,220,1,100,90,190,0.9,120,71
900,250,630,200,440,640,2.2,160,340,500,2.125,150,270,420,1.8,130,170,300,1.3077,110,120,230,1.0909,100,100,200,1,120,70
900,270,640,190,620,810,3.2632,160,360,520,2.25,150,290,440,1.9333,130,180,310,1.3846,110,120,230,1.0909,90,100,190,1.1111,120,70
900,260,630,190,470,660,2.4737,170,320,490,1.8824,150,270,420,1.8,140,160,300,1.1429,110,120,230,1.0909,100,100,200,1,121,71
900,270,630,290,420,710,1.4483,210,300,510,1.4286,180,250,430,1.3889,150,170,320,1.1333,130,120,250,0.92308,120,100,220,0.83333,121,71
910,270,640,180,460,640,2.5556,150,310,460,2.0667,140,240,380,1.7143,130,150,280,1.1538,100,110,210,1.1,100,90,190,0.9,121,71
890,270,620,180,630,810,3.5,160,440,600,2.75,150,350,500,2.3333,130,190,320,1.4615,110,120,230,1.0909,100,100,200,1,120,71
920,270,690,180,480,660,2.6667,150,330,480,2.2,150,270,420,1.8,120,170,290,1.4167,110,120,230,1.0909,100,100,200,1,120,70
910,230,600,190,430,620,2.2632,160,310,470,1.9375,150,240,390,1.6,140,160,300,1.1429,110,120,230,1.0909,110,100,210,0.90909,121,71
900,310,680,190,490,680,2.5789,180,330,510,1.8333,160,280,440,1.75,140,160,300,1.1429,130,120,250,0.92308,110,90,200,0.81818,122,71
890,220,690,240,470,710,1.9583,190,400,590,2.1053,170,360,530,2.1176,150,220,370,1.4667,110,140,250,1.2727,110,110,220,1,121,71
920,200,600,220,450,670,2.0455,170,320,490,1.8824,160,260,420,1.625,130,180,310,1.3846,110,130,240,1.1818,90,110,200,1.2222,121,71
900,320,620,180,520,700,2.8889,160,350,510,2.1875,150,280,430,1.8667,120,160,280,1.3333,110,120,230,1.0909,90,100,190,1.1111,121,71
920,280,680,280,690,970,2.4643,180,480,660,2.6667,160,390,550,2.4375,140,220,360,1.5714,110,140,250,1.2727,100,110,210,1.1,121,71
910,240,650,190,450,640,2.3684,170,320,490,1.8824,160,260,420,1.625,140,160,300,1.1429,110,110,220,1,110,90,200,0.81818,121,71
920,260,660,190,480,670,2.5263,170,330,500,1.9412,160,260,420,1.625,130,160,290,1.2308,120,110,230,0.91667,100,90,190,0.9,121,71
890,260,680,200,470,670,2.35,180,330,510,1.8333,170,260,430,1.5294,140,160,300,1.1429,130,110,240,0.84615,110,90,200,0.81818,122,71
910,210,700,230,480,710,2.087,230,330,560,1.4348,190,260,450,1.3684,150,200,350,1.3333,130,150,280,1.1538,110,120,230,1.0909,122,71
900,210,580,190,400,590,2.1053,160,290,450,1.8125,150,220,370,1.4667,140,140,280,1,120,100,220,0.83333,100,90,190,0.9,121,71
910,320,420,180,430,610,2.3889,150,350,500,2.3333,150,280,430,1.8667,130,160,290,1.2308,110,110,220,1,100,100,200,1,121,71
900,490,680,480,690,1170,1.4375,170,400,570,2.3529,160,320,480,2,140,170,310,1.2143,120,110,230,0.91667,100,90,190,0.9,121,71
910,220,700,200,490,690,2.45,160,340,500,2.125,150,280,430,1.8667,130,170,300,1.3077,120,120,240,1,100,100,200,1,121,71
900,210,680,190,690,880,3.6316,160,360,520,2.25,160,300,460,1.875,140,170,310,1.2143,110,120,230,1.0909,100,100,200,1,121,71
890,220,700,180,440,620,2.4444,160,310,470,1.9375,150,250,400,1.6667,130,160,290,1.2308,110,130,240,1.1818,90,110,200,1.2222,122,71
920,190,700,210,150,360,0.71429,180,70,250,0.38889,160,70,230,0.4375,140,70,210,0.5,110,70,180,0.63636,100,70,170,0.7,122,71
900,220,680,180,490,670,2.7222,150,320,470,2.1333,150,250,400,1.6667,130,150,280,1.1538,110,110,220,1,100,90,190,0.9,121,71
910,220,650,170,660,830,3.8824,150,450,600,3,140,360,500,2.5714,120,160,280,1.3333,100,120,220,1.2,90,100,190,1.1111,120,71
910,260,670,180,470,650,2.6111,150,320,470,2.1333,150,260,410,1.7333,130,160,290,1.2308,110,120,230,1.0909,100,100,200,1,121,71
910,240,660,180,480,660,2.6667,160,320,480,2,150,260,410,1.7333,140,160,300,1.1429,110,110,220,1,110,100,210,0.90909,121,71
910,250,670,190,490,680,2.5789,180,330,510,1.8333,160,270,430,1.6875,140,160,300,1.1429,120,120,240,1,110,90,200,0.81818,122,71
890,240,680,260,490,750,1.8846,190,370,560,1.9474,170,300,470,1.7647,150,180,330,1.2,130,130,260,1,120,100,220,0.83333,121,71
900,210,640,230,410,640,1.7826,170,290,460,1.7059,160,220,380,1.375,140,150,290,1.0714,120,120,240,1,100,100,200,1,121,71
900,260,630,180,500,680,2.7778,150,340,490,2.2667,150,270,420,1.8,120,160,280,1.3333,110,110,220,1,100,100,200,1,121,71
910,270,640,180,650,830,3.6111,160,460,620,2.875,150,390,540,2.6,130,270,400,2.0769,110,170,280,1.5455,100,140,240,1.4,120,71
900,270,620,190,460,650,2.4211,160,310,470,1.9375,160,250,410,1.5625,130,150,280,1.1538,120,110,230,0.91667,110,100,210,0.90909,121,71
910,280,680,190,430,620,2.2632,160,320,480,2,150,300,450,2,140,180,320,1.2857,110,120,230,1.0909,100,110,210,1.1,122,71
890,230,670,190,460,650,2.4211,170,320,490,1.8824,160,260,420,1.625,140,160,300,1.1429,120,120,240,1,110,90,200,0.81818,122,71
910,220,690,240,430,670,1.7917,180,320,500,1.7778,170,280,450,1.6471,140,180,320,1.2857,120,130,250,1.0833,100,110,210,1.1,121,71
890,220,610,190,410,600,2.1579,170,290,460,1.7059,150,230,380,1.5333,130,150,280,1.1538,120,110,230,0.91667,100,90,190,0.9,121,71
910,280,620,180,490,670,2.7222,150,340,490,2.2667,150,270,420,1.8,120,160,280,1.3333,100,120,220,1.2,100,100,200,1,121,71
900,290,680,180,490,670,2.7222,150,340,490,2.2667,140,280,420,2,130,170,300,1.3077,110,120,230,1.0909,100,90,190,0.9,121,71
910,220,660,180,460,640,2.5556,150,310,460,2.0667,150,260,410,1.7333,130,160,290,1.2308,120,110,230,0.91667,100,100,200,1,123,72
900,250,680,190,400,590,2.1053,170,260,430,1.5294,160,190,350,1.1875,150,140,290,0.93333,120,120,240,1,100,100,200,1,123,72
900,220,690,190,460,650,2.4211,170,320,490,1.8824,160,260,420,1.625,140,170,310,1.2143,120,130,250,1.0833,100,100,200,1,123,72
900,210,680,230,420,650,1.8261,230,340,570,1.4783,180,270,450,1.5,150,170,320,1.1333,130,130,260,1,110,110,220,1,123,72
910,220,650,170,460,630,2.7059,150,330,480,2.2,140,260,400,1.8571,120,160,280,1.3333,100,120,220,1.2,80,100,180,1.25,123,72
910,260,580,180,480,660,2.6667,160,340,500,2.125,150,270,420,1.8,130,160,290,1.2308,110,120,230,1.0909,90,100,190,1.1111,123,72
910,330,670,300,680,980,2.2667,180,410,590,2.2778,160,310,470,1.9375,140,190,330,1.3571,110,130,240,1.1818,110,110,220,1,123,72
910,240,650,190,530,720,2.7895,170,330,500,1.9412,160,260,420,1.625,130,160,290,1.2308,110,120,230,1.0909,100,100,200,1,123,72
880,260,670,200,420,620,2.1,180,300,480,1.6667,160,230,390,1.4375,150,140,290,0.93333,130,110,240,0.84615,120,90,210,0.75,124,72
890,210,690,230,490,720,2.1304,170,370,540,2.1765,170,310,480,1.8235,140,180,320,1.2857,120,130,250,1.0833,110,100,210,0.90909,124,72
890,200,640,220,410,630,1.8636,170,280,450,1.6471,150,210,360,1.4,130,150,280,1.1538,120,110,230,0.91667,110,90,200,0.81818,123,72
910,250,620,180,480,660,2.6667,150,320,470,2.1333,140,260,400,1.8571,130,150,280,1.1538,110,110,220,1,100,90,190,0.9,123,72
900,290,410,190,420,610,2.2105,170,310,480,1.8235,160,250,410,1.5625,130,160,290,1.2308,120,110,230,0.91667,100,90,190,0.9,123,72
910,490,680,190,460,650,2.4211,160,310,470,1.9375,150,260,410,1.7333,140,150,290,1.0714,110,110,220,1,110,90,200,0.81818,122,72
900,230,690,190,670,860,3.5263,170,360,530,2.1176,150,280,430,1.8667,140,160,300,1.1429,120,120,240,1,100,90,190,0.9,123,72
890,210,670,190,420,610,2.2105,160,290,450,1.8125,160,240,400,1.5,140,150,290,1.0714,120,110,230,0.91667,110,100,210,0.90909,123,72
900,220,690,240,450,690,1.875,190,320,510,1.6842,170,280,450,1.6471,140,180,320,1.2857,120,130,250,1.0833,110,110,220,1,123,72
900,210,620,180,510,690,2.8333,150,320,470,2.1333,150,260,410,1.7333,130,150,280,1.1538,110,110,220,1,100,90,190,0.9,123,72
900,280,610,180,470,650,2.6111,160,320,480,2,150,270,420,1.8,130,160,290,1.2308,110,110,220,1,100,90,190,0.9,122,71
900,290,670,180,460,640,2.5556,160,360,520,2.25,150,250,400,1.6667,130,150,280,1.1538,110,110,220,1,100,100,200,1,122,71
910,230,680,170,470,640,2.7647,160,320,480,2,150,260,410,1.7333,130,170,300,1.3077,110,120,230,1.0909,90,100,190,1.1111,122,71
900,230,670,190,520,710,2.7368,160,350,510,2.1875,160,290,450,1.8125,140,170,310,1.2143,120,110,230,0.91667,110,100,210,0.90909,122,71
890,230,680,190,440,630,2.3158,170,310,480,1.8235,160,250,410,1.5625,140,160,300,1.1429,120,110,230,0.91667,110,100,210,0.90909,123,72
900,210,680,230,430,660,1.8696,190,310,500,1.6316,170,250,420,1.4706,150,170,320,1.1333,120,120,240,1,110,110,220,1,123,72
900,220,570,180,580,760,3.2222,160,410,570,2.5625,150,330,480,2.2,140,180,320,1.2857,110,120,230,1.0909,100,100,200,1,122,72
900,330,610,190,440,630,2.3158,160,310,470,1.9375,150,250,400,1.6667,130,150,280,1.1538,120,100,220,0.83333,100,90,190,0.9,122,72
900,290,680,190,460,650,2.4211,160,350,510,2.1875,150,290,440,1.9333,130,200,330,1.5385,110,140,250,1.2727,100,100,200,1,122,71
810,220,670,180,490,670,2.7222,150,320,470,2.1333,150,260,410,1.7333,130,160,290,1.2308,110,120,230,1.0909,100,100,200,1,123,72
990,140,760,100,580,680,5.8,80,470,550,5.875,80,460,540,5.75,60,20,80,0.33333,50,20,70,0.4,40,20,60,0.5,123,72
900,230,690,250,490,740,1.96,180,370,550,2.0556,160,310,470,1.9375,150,190,340,1.2667,120,140,260,1.1667,110,110,220,1,123,72
900,210,600,210,420,630,2,170,300,470,1.7647,150,240,390,1.6,140,160,300,1.1429,110,120,230,1.0909,100,100,200,1,122,72
910,300,680,270,690,960,2.5556,160,430,590,2.6875,160,350,510,2.1875,130,200,330,1.5385,110,130,240,1.1818,90,110,200,1.2222,122,72
900,230,640,180,480,660,2.6667,160,330,490,2.0625,150,270,420,1.8,140,150,290,1.0714,110,120,230,1.0909,100,90,190,0.9,122,72
910,260,680,180,480,660,2.6667,160,330,490,2.0625,150,270,420,1.8,120,170,290,1.4167,80,120,200,1.5,70,100,170,1.4286,122,72
900,230,670,190,670,860,3.5263,170,350,520,2.0588,150,300,450,2,140,180,320,1.2857,110,120,230,1.0909,110,100,210,0.90909,122,72
890,230,670,210,400,610,1.9048,170,250,420,1.4706,170,210,380,1.2353,140,170,310,1.2143,120,130,250,1.0833,110,100,210,0.90909,123,72
900,220,680,240,460,700,1.9167,190,340,530,1.7895,180,290,470,1.6111,150,200,350,1.3333,130,140,270,1.0769,110,110,220,1,123,72
900,220,440,170,430,600,2.5294,160,310,470,1.9375,140,250,390,1.7857,130,160,290,1.2308,100,120,220,1.2,90,100,190,1.1111,122,72
900,460,650,180,510,690,2.8333,150,350,500,2.3333,150,280,430,1.8667,130,160,290,1.2308,100,110,210,1.1,100,100,200,1,122,72
900,250,680,180,450,630,2.5,160,330,490,2.0625,150,260,410,1.7333,130,160,290,1.2308,110,120,230,1.0909,90,90,180,1,122,72
910,220,570,180,450,630,2.5,160,320,480,2,140,270,410,1.9286,130,160,290,1.2308,100,120,220,1.2,100,100,200,1,123,72
890,340,670,190,680,870,3.5789,170,380,550,2.2353,160,320,480,2,130,190,320,1.4615,120,130,250,1.0833,90,100,190,1.1111,123,72
890,220,680,240,420,660,1.75,180,280,460,1.5556,170,210,380,1.2353,150,130,280,0.86667,120,90,210,0.75,100,70,170,0.7,124,72
900,210,680,230,430,660,1.8696,190,320,510,1.6842,170,270,440,1.5882,150,180,330,1.2,120,130,250,1.0833,110,110,220,1,123,72
890,220,650,170,660,830,3.8824,150,450,600,3,140,310,450,2.2143,130,160,290,1.2308,100,120,220,1.2,90,90,180,1,123,72
900,240,680,170,480,650,2.8235,150,340,490,2.2667,140,270,410,1.9286,120,170,290,1.4167,100,120,220,1.2,90,110,200,1.2222,122,72
910,220,660,180,490,670,2.7222,160,350,510,2.1875,150,300,450,2,120,180,300,1.5,100,130,230,1.3,90,100,190,1.1111,123,72
900,250,670,190,490,680,2.5789,160,330,490,2.0625,150,270,420,1.8,130,150,280,1.1538,110,110,220,1,100,100,200,1,123,72
900,230,670,190,460,650,2.4211,170,330,500,1.9412,160,270,430,1.6875,140,160,300,1.1429,120,120,240,1,100,100,200,1,124,72
890,230,680,250,520,770,2.08,200,370,570,1.85,190,300,490,1.5789,160,180,340,1.125,140,130,270,0.92857,130,100,230,0.76923,124,72
890,210,570,230,420,650,1.8261,170,290,460,1.7059,160,230,390,1.4375,140,150,290,1.0714,120,120,240,1,100,100,200,1,124,73
900,320,650,170,660,830,3.8824,150,440,590,2.9333,140,360,500,2.5714,130,200,330,1.5385,100,120,220,1.2,90,100,190,1.1111,124,73
900,250,680,180,470,650,2.6111,150,330,480,2.2,150,270,420,1.8,120,160,280,1.3333,110,120,230,1.0909,90,110,200,1.2222,123,72
920,220,680,180,460,640,2.5556,160,360,520,2.25,150,290,440,1.9333,130,190,320,1.4615,100,120,220,1.2,100,110,210,1.1,123,72
900,240,660,190,670,860,3.5263,170,340,510,2,160,280,440,1.75,140,160,300,1.1429,120,120,240,1,100,90,190,0.9,124,72
890,240,680,200,450,650,2.25,170,320,490,1.8824,160,260,420,1.625,150,160,310,1.0667,120,120,240,1,110,100,210,0.90909,125,73
900,210,660,230,460,690,2,200,340,540,1.7,180,290,470,1.6111,150,180,330,1.2,120,130,250,1.0833,120,110,230,0.91667,125,73
920,240,560,180,430,610,2.3889,160,300,460,1.875,150,230,380,1.5333,130,150,280,1.1538,110,120,230,1.0909,100,100,200,1,125,73
890,360,630,190,640,830,3.3684,180,380,560,2.1111,160,300,460,1.875,150,160,310,1.0667,120,110,230,0.91667,110,90,200,0.81818,124,73
900,260,640,190,470,660,2.4737,160,340,500,2.125,150,280,430,1.8667,130,160,290,1.2308,110,110,220,1,100,100,200,1,124,73
920,260,540,180,440,620,2.4444,160,330,490,2.0625,140,280,420,2,130,160,290,1.2308,110,120,230,1.0909,100,100,200,1,125,73
910,380,680,200,690,890,3.45,180,360,540,2,160,290,450,1.8125,140,170,310,1.2143,120,120,240,1,110,90,200,0.81818,125,73
890,230,690,210,470,680,2.2381,180,350,530,1.9444,170,280,450,1.6471,150,170,320,1.1333,120,110,230,0.91667,120,100,220,0.83333,125,73
910,200,680,220,440,660,2,200,310,510,1.55,180,250,430,1.3889,140,170,310,1.2143,130,130,260,1,110,110,220,1,125,73
900,230,600,180,490,670,2.7222,160,330,490,2.0625,150,270,420,1.8,130,160,290,1.2308,110,110,220,1,100,90,190,0.9,125,73
910,300,600,190,610,800,3.2105,170,430,600,2.5294,150,340,490,2.2667,130,190,320,1.4615,110,120,230,1.0909,100,100,200,1,124,73
900,310,680,180,440,620,2.4444,160,330,490,2.0625,150,260,410,1.7333,130,170,300,1.3077,110,120,230,1.0909,100,90,190,0.9,124,72
900,220,670,190,420,610,2.2105,160,290,450,1.8125,150,230,380,1.5333,130,150,280,1.1538,110,110,220,1,100,100,200,1,124,72
890,230,680,180,510,690,2.8333,160,340,500,2.125,150,280,430,1.8667,130,170,300,1.3077,110,130,240,1.1818,100,110,210,1.1,125,73
910,210,700,230,480,710,2.087,180,360,540,2,160,320,480,2,140,230,370,1.6429,110,150,260,1.3636,100,120,220,1.2,125,73
910,210,680,230,420,650,1.8261,170,300,470,1.7647,150,250,400,1.6667,130,160,290,1.2308,110,120,230,1.0909,90,100,190,1.1111,124,73
900,230,530,180,510,690,2.8333,160,340,500,2.125,150,270,420,1.8,120,150,270,1.25,110,110,220,1,100,100,200,1,124,72
1820,370,660,370,670,1040,1.8108,180,440,620,2.4444,170,360,530,2.1176,140,190,330,1.3571,120,120,240,1,110,100,210,0.90909,124,72
900,1160,660,820,450,1270,0.54878,670,300,970,0.44776,600,250,850,0.41667,130,150,280,1.1538,120,110,230,0.91667,100,90,190,0.9,123,72
900,240,660,190,420,610,2.2105,170,290,460,1.7059,160,240,400,1.5,140,160,300,1.1429,110,120,230,1.0909,110,100,210,0.90909,124,72
890,240,650,260,430,690,1.6538,250,300,550,1.2,190,240,430,1.2632,160,150,310,0.9375,130,130,260,1,120,110,230,0.91667,124,72
910,240,640,170,430,600,2.5294,150,300,450,2,130,250,380,1.9231,120,160,280,1.3333,100,130,230,1.3,90,100,190,1.1111,123,72
900,270,360,180,370,550,2.0556,160,340,500,2.125,150,280,430,1.8667,130,160,290,1.2308,110,120,230,1.0909,100,90,190,0.9,123,72
900,540,640,250,480,730,1.92,160,330,490,2.0625,150,270,420,1.8,130,160,290,1.2308,110,120,230,1.0909,100,100,200,1,123,72
900,260,660,190,470,660,2.4737,160,330,490,2.0625,160,270,430,1.6875,130,160,290,1.2308,120,120,240,1,100,100,200,1,124,72
900,240,670,180,680,860,3.7778,160,360,520,2.25,140,290,430,2.0714,140,170,310,1.2143,110,120,230,1.0909,110,100,210,0.90909,124,72
850,230,690,200,430,630,2.15,170,310,480,1.8235,160,250,410,1.5625,140,160,300,1.1429,120,120,240,1,110,100,210,0.90909,124,72
940,160,690,180,470,650,2.6111,180,340,520,1.8889,130,290,420,2.2308,100,200,300,2,90,160,250,1.7778,70,140,210,2,124,72
900,250,640,180,490,670,2.7222,150,330,480,2.2,150,270,420,1.8,120,150,270,1.25,110,110,220,1,90,100,190,1.1111,124,72
900,260,640,180,650,830,3.6111,160,450,610,2.8125,140,370,510,2.6429,130,160,290,1.2308,110,120,230,1.0909,90,90,180,1,123,72
910,260,690,190,470,660,2.4737,160,310,470,1.9375,160,250,410,1.5625,130,150,280,1.1538,110,110,220,1,100,100,200,1,123,72
900,220,630,190,460,650,2.4211,170,320,490,1.8824,160,260,420,1.625,140,150,290,1.0714,120,110,230,0.91667,100,90,190,0.9,124,72
900,270,670,200,500,700,2.5,170,330,500,1.9412,160,270,430,1.6875,140,160,300,1.1429,120,120,240,1,110,90,200,0.81818,125,73
910,230,710,250,510,760,2.04,180,380,560,2.1111,170,310,480,1.8235,140,200,340,1.4286,120,130,250,1.0833,110,110,220,1,124,73
890,200,610,220,410,630,1.8636,180,280,460,1.5556,160,230,390,1.4375,140,150,290,1.0714,120,110,230,0.91667,110,90,200,0.81818,124,72
970,280,670,170,500,670,2.9412,140,330,470,2.3571,140,270,410,1.9286,120,160,280,1.3333,80,110,190,1.375,80,100,180,1.25,123,72
850,300,610,240,620,860,2.5833,220,360,580,1.6364,210,300,510,1.4286,190,160,350,0.84211,170,90,260,0.52941,150,70,220,0.46667,123,72
900,240,670,180,450,630,2.5,160,310,470,1.9375,150,260,410,1.7333,130,160,290,1.2308,120,110,230,0.91667,100,90,190,0.9,123,72
900,230,670,190,450,640,2.3684,160,310,470,1.9375,150,290,440,1.9333,130,170,300,1.3077,110,120,230,1.0909,100,100,200,1,124,72
900,230,680,190,450,640,2.3684,160,310,470,1.9375,160,250,410,1.5625,130,160,290,1.2308,120,120,240,1,100,100,200,1,124,72
890,220,670,240,440,680,1.8333,190,320,510,1.6842,170,270,440,1.5882,140,170,310,1.2143,130,120,250,0.92308,110,110,220,1,123,72
900,220,580,180,450,630,2.5,150,320,470,2.1333,150,250,400,1.6667,120,150,270,1.25,110,110,220,1,90,100,190,1.1111,123,72
910,320,700,180,570,750,3.1667,160,320,480,2,140,260,400,1.8571,130,160,290,1.2308,110,120,230,1.0909,90,100,190,1.1111,123,72
900,210,680,170,560,730,3.2941,150,340,490,2.2667,140,260,400,1.8571,130,160,290,1.2308,110,110,220,1,100,90,190,0.9,123,72
900,220,670,180,440,620,2.4444,160,310,470,1.9375,150,240,390,1.6,130,160,290,1.2308,110,110,220,1,100,100,200,1,123,72
890,230,670,180,410,590,2.2778,160,260,420,1.625,150,190,340,1.2667,130,140,270,1.0769,110,130,240,1.1818,90,100,190,1.1111,124,72
900,220,690,170,450,620,2.6471,150,320,470,2.1333,140,260,400,1.8571,130,170,300,1.3077,100,130,230,1.3,90,120,210,1.3333,124,72
900,210,670,230,420,650,1.8261,190,310,500,1.6316,160,260,420,1.625,140,170,310,1.2143,110,130,240,1.1818,100,110,210,1.1,124,72
890,230,680,170,450,620,2.6471,160,320,480,2,140,250,390,1.7857,130,150,280,1.1538,100,120,220,1.2,100,90,190,0.9,123,72
920,210,630,170,470,640,2.7647,150,340,490,2.2667,140,270,410,1.9286,120,170,290,1.4167,100,130,230,1.3,90,110,200,1.2222,123,72
910,290,670,270,680,950,2.5185,180,400,580,2.2222,160,320,480,2,140,180,320,1.2857,120,120,240,1,100,100,200,1,123,72
850,240,650,190,480,670,2.5263,170,310,480,1.8235,160,250,410,1.5625,140,150,290,1.0714,120,110,230,0.91667,110,90,200,0.81818,123,72
950,200,710,140,450,590,3.2143,130,320,450,2.4615,110,260,370,2.3636,100,180,280,1.8,70,140,210,2,60,120,180,2,124,72
900,240,690,260,490,750,1.8846,180,370,550,2.0556,170,310,480,1.8235,150,190,340,1.2667,130,120,250,0.92308,110,110,220,1,124,72
910,210,640,230,400,630,1.7391,180,270,450,1.5,160,230,390,1.4375,140,160,300,1.1429,120,120,240,1,110,100,210,0.90909,124,72
900,270,680,180,450,630,2.5,160,310,470,1.9375,150,250,400,1.6667,140,160,300,1.1429,110,110,220,1,100,90,190,0.9,124,72
910,220,440,180,430,610,2.3889,160,310,470,1.9375,150,250,400,1.6667,130,150,280,1.1538,120,110,230,0.91667,100,90,190,0.9,124,72
900,470,630,190,480,670,2.5263,160,330,490,2.0625,150,260,410,1.7333,130,150,280,1.1538,110,110,220,1,100,100,200,1,124,72
900,270,700,190,690,880,3.6316,170,370,540,2.1765,150,290,440,1.9333,130,160,290,1.2308,120,120,240,1,100,90,190,0.9,124,72
900,200,670,190,430,620,2.2632,160,300,460,1.875,160,250,410,1.5625,130,160,290,1.2308,110,110,220,1,100,100,200,1,125,72
910,230,690,250,450,700,1.8,190,330,520,1.7368,170,280,450,1.6471,150,180,330,1.2,130,130,260,1,110,110,220,1,125,72
620,220,600,180,450,630,2.5,170,290,460,1.7059,150,220,370,1.4667,130,140,270,1.0769,120,90,210,0.75,100,80,180,0.8,124,72
1180,20,900,20,760,780,38,20,640,660,32,20,580,600,29,20,480,500,24,20,20,40,1,20,20,40,1,123,72
900,280,690,180,500,680,2.7778,160,370,530,2.3125,150,260,410,1.7333,130,160,290,1.2308,120,110,230,0.91667,100,100,200,1,123,72
910,210,670,180,450,630,2.5,160,310,470,1.9375,140,250,390,1.7857,130,150,280,1.1538,110,120,230,1.0909,100,100,200,1,124,72
900,240,670,190,520,710,2.7368,170,350,520,2.0588,160,290,450,1.8125,140,170,310,1.2143,120,120,240,1,100,90,190,0.9,125,72
880,230,680,190,430,620,2.2632,170,310,480,1.8235,160,250,410,1.5625,150,160,310,1.0667,120,110,230,0.91667,110,100,210,0.90909,124,72
900,200,670,220,430,650,1.9545,180,300,480,1.6667,160,260,420,1.625,130,170,300,1.3077,110,130,240,1.1818,100,110,210,1.1,124,72
880,230,680,180,690,870,3.8333,160,420,580,2.625,140,330,470,2.3571,130,180,310,1.3846,110,130,240,1.1818,100,90,190,0.9,124,72
900,200,600,170,480,650,2.8235,140,320,460,2.2857,130,250,380,1.9231,120,160,280,1.3333,100,120,220,1.2,90,100,190,1.1111,123,72
900,300,680,180,450,630,2.5,160,340,500,2.125,150,280,430,1.8667,130,180,310,1.3846,110,110,220,1,100,100,200,1,124,72
900,220,680,180,460,640,2.5556,160,330,490,2.0625,150,260,410,1.7333,130,160,290,1.2308,110,120,230,1.0909,90,100,190,1.1111,124,72
900,220,670,190,420,610,2.2105,160,350,510,2.1875,160,280,440,1.75,130,170,300,1.3077,110,130,240,1.1818,100,100,200,1,125,72
900,230,690,250,490,740,1.96,180,370,550,2.0556,170,310,480,1.8235,140,190,330,1.3571,120,130,250,1.0833,100,110,210,1.1,124,72
900,210,590,200,410,610,2.05,160,290,450,1.8125,150,230,380,1.5333,130,150,280,1.1538,110,120,230,1.0909,90,110,200,1.2222,124,72
900,310,680,210,690,900,3.2857,170,400,570,2.3529,150,320,470,2.1333,140,180,320,1.2857,110,130,240,1.1818,100,100,200,1,124,72
920,220,680,180,470,650,2.6111,160,330,490,2.0625,150,270,420,1.8,120,160,280,1.3333,110,120,230,1.0909,90,110,200,1.2222,124,72
900,240,670,180,450,630,2.5,150,330,480,2.2,150,270,420,1.8,120,160,280,1.3333,100,110,210,1.1,80,100,180,1.25,123,72
910,230,680,190,670,860,3.5263,170,360,530,2.1176,160,280,440,1.75,130,160,290,1.2308,110,120,230,1.0909,100,100,200,1,125,72
890,230,660,200,390,590,1.95,180,260,440,1.4444,160,220,380,1.375,150,170,320,1.1333,130,120,250,0.92308,110,100,210,0.90909,125,73
890,230,670,250,450,700,1.8,200,330,530,1.65,180,280,460,1.5556,150,180,330,1.2,130,130,260,1,110,110,220,1,124,73
900,220,450,180,420,600,2.3333,150,280,430,1.8667,150,240,390,1.6,120,160,280,1.3333,100,110,210,1.1,90,100,190,1.1111,124,72
1550,450,970,180,550,730,3.0556,160,380,540,2.375,150,300,450,2,130,160,290,1.2308,110,120,230,1.0909,90,100,190,1.1111,124,72
990,580,710,230,630,860,2.7391,170,370,540,2.1765,150,280,430,1.8667,140,160,300,1.1429,110,110,220,1,110,90,200,0.81818,124,72
950,280,720,190,730,920,3.8421,160,380,540,2.375,150,310,460,2.0667,130,190,320,1.4615,110,120,230,1.0909,100,110,210,1.1,124,72
930,230,710,200,430,630,2.15,170,320,490,1.8824,160,270,430,1.6875,140,180,320,1.2857,120,130,250,1.0833,100,110,210,1.1,125,73
910,220,640,240,440,680,1.8333,220,310,530,1.4091,180,260,440,1.4444,160,170,330,1.0625,140,120,260,0.85714,120,100,220,0.83333,125,73
920,270,630,170,640,810,3.7647,160,390,550,2.4375,140,270,410,1.9286,130,160,290,1.2308,110,120,230,1.0909,90,90,180,1,124,73
900,290,640,190,490,680,2.5789,170,330,500,1.9412,160,270,430,1.6875,140,160,300,1.1429,120,110,230,0.91667,100,90,190,0.9,124,73
910,260,700,180,470,650,2.6111,150,340,490,2.2667,150,270,420,1.8,130,160,290,1.2308,110,120,230,1.0909,100,100,200,1,124,71
920,210,690,180,510,690,2.8333,150,340,490,2.2667,140,280,420,2,130,170,300,1.3077,100,120,220,1.2,100,110,210,1.1,123,71
910,230,680,190,650,840,3.4211,170,360,530,2.1176,160,300,460,1.875,140,180,320,1.2857,120,120,240,1,110,100,210,0.90909,124,71
900,230,690,250,500,750,2,200,360,560,1.8,180,300,480,1.6667,170,170,340,1,140,130,270,0.92857,130,100,230,0.76923,124,71
900,210,630,230,420,650,1.8261,180,300,480,1.6667,160,240,400,1.5,140,150,290,1.0714,120,110,230,0.91667,110,100,210,0.90909,123,71
900,270,610,170,620,790,3.6471,150,390,540,2.6,150,310,460,2.0667,130,150,280,1.1538,110,110,220,1,100,90,190,0.9,123,71
920,290,660,190,490,680,2.5789,160,350,510,2.1875,150,280,430,1.8667,130,170,300,1.3077,110,120,230,1.0909,100,110,210,1.1,123,71
910,260,690,200,440,640,2.2,160,340,500,2.125,160,270,430,1.6875,140,160,300,1.1429,110,110,220,1,110,100,210,0.90909,123,71
910,220,680,180,660,840,3.6667,160,370,530,2.3125,150,300,450,2,140,170,310,1.2143,110,120,230,1.0909,100,100,200,1,123,71
900,230,680,200,460,660,2.3,180,320,500,1.7778,170,270,440,1.5882,140,160,300,1.1429,130,110,240,0.84615,110,90,200,0.81818,124,71
900,220,690,240,460,700,1.9167,190,340,530,1.7895,170,280,450,1.6471,150,190,340,1.2667,120,130,250,1.0833,120,110,230,0.91667,124,72
910,210,600,170,440,610,2.5882,150,300,450,2,130,250,380,1.9231,120,160,280,1.3333,100,120,220,1.2,90,100,190,1.1111,123,72
920,310,670,170,680,850,4,150,410,560,2.7333,140,340,480,2.4286,120,180,300,1.5,90,130,220,1.4444,80,110,190,1.375,123,72
920,250,650,180,450,630,2.5,160,320,480,2,150,260,410,1.7333,120,160,280,1.3333,110,120,230,1.0909,90,100,190,1.1111,123,71
910,270,630,190,450,640,2.3684,160,320,480,2,160,260,420,1.625,130,160,290,1.2308,120,120,240,1,100,100,200,1,123,72
920,280,690,190,700,890,3.6842,170,350,520,2.0588,160,290,450,1.8125,140,180,320,1.2857,110,120,230,1.0909,110,100,210,0.90909,124,72
530,230,480,190,410,600,2.1579,170,310,480,1.8235,160,260,420,1.625,150,160,310,1.0667,120,110,230,0.91667,110,100,210,0.90909,124,72
1280,50,980,70,780,850,11.143,70,660,730,9.4286,50,610,660,12.2,50,530,580,10.6,50,500,550,10,50,470,520,9.4,124,72
910,300,600,180,480,660,2.6667,160,330,490,2.0625,150,270,420,1.8,120,160,280,1.3333,110,120,230,1.0909,90,100,190,1.1111,123,72
910,310,690,300,700,1000,2.3333,170,420,590,2.4706,160,340,500,2.125,140,200,340,1.4286,110,130,240,1.1818,100,100,200,1,123,72
920,220,680,180,460,640,2.5556,150,330,480,2.2,140,270,410,1.9286,130,160,290,1.2308,100,120,220,1.2,100,110,210,1.1,123,72
920,240,650,180,450,630,2.5,160,320,480,2,150,250,400,1.6667,130,150,280,1.1538,110,110,220,1,100,100,200,1,123,72
910,270,670,190,490,680,2.5789,170,330,500,1.9412,160,280,440,1.75,140,160,300,1.1429,120,120,240,1,110,100,210,0.90909,124,72
900,240,690,260,470,730,1.8077,220,330,550,1.5,190,260,450,1.3684,160,170,330,1.0625,130,140,270,1.0769,120,120,240,1,124,72
920,210,620,190,420,610,2.2105,160,300,460,1.875,150,240,390,1.6,130,160,290,1.2308,110,120,230,1.0909,100,110,210,1.1,123,72
910,300,360,180,370,550,2.0556,160,350,510,2.1875,150,280,430,1.8667,130,160,290,1.2308,110,110,220,1,100,100,200,1,123,72
920,550,690,250,520,770,2.08,150,360,510,2.4,140,280,420,2,120,170,290,1.4167,100,130,230,1.3,90,110,200,1.2222,123,71
920,230,670,190,510,700,2.6842,160,350,510,2.1875,150,280,430,1.8667,130,170,300,1.3077,110,120,230,1.0909,100,110,210,1.1,123,71
910,250,650,190,660,850,3.4737,170,390,560,2.2941,160,320,480,2,140,190,330,1.3571,110,120,230,1.0909,100,100,200,1,124,72
900,260,680,190,460,650,2.4211,170,330,500,1.9412,160,270,430,1.6875,130,170,300,1.3077,120,120,240,1,100,100,200,1,124,72
910,220,690,240,420,660,1.75,240,310,550,1.2917,200,260,460,1.3,160,170,330,1.0625,150,120,270,0.8,130,100,230,0.76923,124,72
910,220,620,190,470,660,2.4737,160,320,480,2,150,260,410,1.7333,130,160,290,1.2308,110,110,220,1,100,90,190,0.9,123,72
910,290,690,180,700,880,3.8889,160,440,600,2.75,150,370,520,2.4667,130,210,340,1.6154,110,110,220,1,100,90,190,0.9,122,71
900,220,690,180,460,640,2.5556,160,330,490,2.0625,150,270,420,1.8,130,160,290,1.2308,110,120,230,1.0909,100,100,200,1,123,71
920,210,680,180,440,620,2.4444,150,350,500,2.3333,140,280,420,2,130,170,300,1.3077,110,130,240,1.1818,90,110,200,1.2222,123,72
910,240,670,190,520,710,2.7368,170,350,520,2.0588,160,280,440,1.75,140,170,310,1.2143,110,120,230,1.0909,110,110,220,1,124,72
900,240,690,260,610,870,2.3462,200,400,600,2,180,340,520,1.8889,160,200,360,1.25,130,130,260,1,120,110,230,0.91667,124,72
910,210,660,230,420,650,1.8261,170,300,470,1.7647,160,240,400,1.5,140,160,300,1.1429,120,120,240,1,110,110,220,1,123,72
910,250,630,190,490,680,2.5789,160,330,490,2.0625,150,280,430,1.8667,130,160,290,1.2308,110,110,220,1,100,90,190,0.9,123,72
910,280,630,180,640,820,3.5556,150,440,590,2.9333,130,360,490,2.7692,120,200,320,1.6667,100,130,230,1.3,90,100,190,1.1111,123,72
910,280,680,190,450,640,2.3684,160,310,470,1.9375,160,250,410,1.5625,130,150,280,1.1538,120,110,230,0.91667,110,90,200,0.81818,123,72
900,230,670,190,410,600,2.1579,160,270,430,1.6875,150,210,360,1.4,140,150,290,1.0714,120,110,230,0.91667,110,100,210,0.90909,124,72
910,230,680,180,450,630,2.5,170,320,490,1.8824,150,260,410,1.7333,130,170,300,1.3077,110,120,230,1.0909,100,100,200,1,124,72
900,230,690,250,450,700,1.8,250,380,630,1.52,190,320,510,1.6842,160,200,360,1.25,130,140,270,1.0769,120,110,230,0.91667,123,72
910,210,590,180,430,610,2.3889,150,300,450,2,140,240,380,1.7143,120,150,270,1.25,110,120,230,1.0909,90,100,190,1.1111,123,72
930,320,630,170,510,680,3,150,350,500,2.3333,140,290,430,2.0714,130,160,290,1.2308,100,120,220,1.2,90,100,190,1.1111,123,72
910,300,660,300,670,970,2.2333,180,440,620,2.4444,170,350,520,2.0588,140,200,340,1.4286,120,120,240,1,110,100,210,0.90909,123,72
910,250,640,190,450,640,2.3684,170,320,490,1.8824,160,250,410,1.5625,130,160,290,1.2308,120,110,230,0.91667,100,90,190,0.9,123,72
910,270,680,200,470,670,2.35,170,330,500,1.9412,160,270,430,1.6875,140,160,300,1.1429,120,120,240,1,120,100,220,0.83333,123,72
900,230,690,190,440,630,2.3158,170,310,480,1.8235,160,260,420,1.625,140,160,300,1.1429,120,110,230,0.91667,110,100,210,0.90909,124,72
910,210,620,230,400,630,1.7391,230,280,510,1.2174,210,210,420,1,160,170,330,1.0625,130,130,260,1,120,110,230,0.91667,124,72
900,290,670,180,500,680,2.7778,160,340,500,2.125,150,270,420,1.8,130,160,290,1.2308,120,110,230,0.91667,100,90,190,0.9,124,72
900,230,390,180,400,580,2.2222,150,330,480,2.2,140,270,410,1.9286,130,150,280,1.1538,110,110,220,1,100,90,190,0.9,123,72
910,510,690,510,700,1210,1.3725,170,410,580,2.4118,160,330,490,2.0625,140,190,330,1.3571,120,130,250,1.0833,110,100,210,0.90909,123,72
910,220,690,190,640,830,3.3684,160,360,520,2.25,150,290,440,1.9333,130,170,300,1.3077,110,120,230,1.0909,100,110,210,1.1,123,72
920,220,680,180,500,680,2.7778,170,340,510,2,150,280,430,1.8667,140,170,310,1.2143,110,120,230,1.0909,100,110,210,1.1,124,72
850,240,690,260,470,730,1.8077,190,360,550,1.8947,180,300,480,1.6667,160,190,350,1.1875,140,120,260,0.85714,120,100,220,0.83333,125,72
960,160,600,150,450,600,3,120,330,450,2.75,110,270,380,2.4545,90,190,280,2.1111,70,150,220,2.1429,60,140,200,2.3333,124,72
910,360,630,190,500,690,2.6316,160,330,490,2.0625,150,270,420,1.8,130,160,290,1.2308,120,110,230,0.91667,100,90,190,0.9,123,72
920,280,690,180,590,770,3.2778,160,390,550,2.4375,140,320,460,2.2857,130,160,290,1.2308,110,110,220,1,100,90,190,0.9,123,72
910,230,660,180,450,630,2.5,160,310,470,1.9375,150,260,410,1.7333,140,160,300,1.1429,120,110,230,0.91667,110,90,200,0.81818,124,72
900,250,630,190,430,620,2.2632,170,30,200,0.17647,160,30,190,0.1875,130,30,160,0.23077,120,30,150,0.25,100,30,130,0.3,124,72
900,270,700,180,450,630,2.5,150,310,460,2.0667,150,270,420,1.8,130,190,320,1.4615,110,140,250,1.2727,90,110,200,1.2222,124,72
910,200,640,220,440,660,2,180,330,510,1.8333,160,280,440,1.75,130,180,310,1.3846,110,140,250,1.2727,90,120,210,1.3333,124,72
920,270,650,200,570,770,2.85,160,370,530,2.3125,150,300,450,2,130,180,310,1.3846,110,120,230,1.0909,90,100,190,1.1111,124,72
920,270,660,190,460,650,2.4211,160,320,480,2,160,260,420,1.625,130,150,280,1.1538,120,110,230,0.91667,90,100,190,1.1111,123,72
900,260,640,190,450,640,2.3684,160,310,470,1.9375,150,250,400,1.6667,120,150,270,1.25,100,100,200,1,80,90,170,1.125,123,72
910,260,640,190,460,650,2.4211,160,320,480,2,150,250,400,1.6667,140,160,300,1.1429,110,110,220,1,100,100,200,1,123,72
910,270,670,200,410,610,2.05,170,270,440,1.5882,160,210,370,1.3125,140,170,310,1.2143,120,120,240,1,110,90,200,0.81818,124,72
890,240,670,200,460,660,2.3,180,330,510,1.8333,170,260,430,1.5294,150,160,310,1.0667,120,110,230,0.91667,120,90,210,0.75,124,72
900,220,600,240,390,630,1.625,180,280,460,1.5556,170,220,390,1.2941,140,150,290,1.0714,130,110,240,0.84615,110,90,200,0.81818,123,72
900,300,620,190,480,670,2.5263,160,330,490,2.0625,150,270,420,1.8,130,150,280,1.1538,110,110,220,1,100,90,190,0.9,123,72
900,280,620,180,460,640,2.5556,160,320,480,2,150,250,400,1.6667,130,150,280,1.1538,110,110,220,1,90,90,180,1,123,72
910,280,680,190,580,770,3.0526,160,370,530,2.3125,160,300,460,1.875,130,180,310,1.3846,110,120,230,1.0909,100,100,200,1,123,72
900,230,680,180,640,820,3.5556,160,350,510,2.1875,150,280,430,1.8667,140,160,300,1.1429,110,120,230,1.0909,100,100,200,1,123,72
900,220,680,200,390,590,1.95,170,260,430,1.5294,160,190,350,1.1875,140,130,270,0.92857,120,90,210,0.75,100,60,160,0.6,125,72
900,220,690,240,480,720,2,180,350,530,1.9444,170,320,490,1.8824,140,190,330,1.3571,120,140,260,1.1667,100,110,210,1.1,124,72
900,210,600,170,490,660,2.8824,150,340,490,2.2667,140,230,370,1.6429,120,160,280,1.3333,100,120,220,1.2,80,100,180,1.25,124,72
910,300,700,180,490,670,2.7222,150,340,490,2.2667,140,280,420,2,120,170,290,1.4167,110,120,230,1.0909,90,110,200,1.2222,124,72
910,210,670,180,560,740,3.1111,160,330,490,2.0625,140,270,410,1.9286,130,160,290,1.2308,100,120,220,1.2,90,100,190,1.1111,124,72
910,240,670,190,450,640,2.3684,160,310,470,1.9375,160,260,420,1.625,130,170,300,1.3077,110,120,230,1.0909,100,100,200,1,124,72
900,240,660,190,670,860,3.5263,170,370,540,2.1765,160,310,470,1.9375,140,180,320,1.2857,120,120,240,1,110,100,210,0.90909,125,73
890,240,660,200,410,610,2.05,170,300,470,1.7647,160,240,400,1.5,140,160,300,1.1429,120,120,240,1,100,100,200,1,125,73
910,230,660,250,440,690,1.76,180,320,500,1.7778,170,270,440,1.5882,140,180,320,1.2857,110,140,250,1.2727,100,110,210,1.1,125,73
920,250,660,180,670,850,3.7222,150,370,520,2.4667,140,290,430,2.0714,120,160,280,1.3333,100,120,220,1.2,90,100,190,1.1111,124,72
910,260,640,180,480,660,2.6667,160,320,480,2,150,260,410,1.7333,130,150,280,1.1538,110,110,220,1,100,90,190,0.9,124,72
910,270,680,190,480,670,2.5263,160,350,510,2.1875,160,270,430,1.6875,130,160,290,1.2308,120,110,230,0.91667,100,100,200,1,124,72
900,230,670,190,470,660,2.4737,160,320,480,2,160,260,420,1.625,140,150,290,1.0714,110,110,220,1,110,100,210,0.90909,125,72
910,230,680,190,510,700,2.6842,170,340,510,2,160,280,440,1.75,140,170,310,1.2143,120,120,240,1,100,100,200,1,125,73
890,230,680,230,480,710,2.087,180,340,520,1.8889,170,290,460,1.7059,150,170,320,1.1333,130,120,250,0.92308,120,100,220,0.83333,125,73
900,210,610,230,410,640,1.7826,180,290,470,1.6111,160,240,400,1.5,130,160,290,1.2308,120,120,240,1,100,100,200,1,124,73
900,290,600,170,610,780,3.5882,150,430,580,2.8667,150,350,500,2.3333,120,190,310,1.5833,120,120,240,1,100,100,200,1,124,72
900,300,680,170,440,610,2.5882,150,300,450,2,140,250,390,1.7857,130,150,280,1.1538,100,110,210,1.1,90,90,180,1,124,72
900,220,680,190,460,650,2.4211,160,350,510,2.1875,150,290,440,1.9333,130,190,320,1.4615,110,120,230,1.0909,100,100,200,1,124,72
900,220,660,170,670,840,3.9412,160,350,510,2.1875,150,290,440,1.9333,130,170,300,1.3077,110,120,230,1.0909,100,100,200,1,124,72
910,240,680,190,430,620,2.2632,160,340,500,2.125,150,280,430,1.8667,140,170,310,1.2143,120,120,240,1,100,100,200,1,125,73
890,230,670,250,460,710,1.84,200,340,540,1.7,190,290,480,1.5263,160,180,340,1.125,140,120,260,0.85714,120,110,230,0.91667,125,73
900,220,610,180,420,600,2.3333,160,290,450,1.8125,150,230,380,1.5333,130,150,280,1.1538,120,110,230,0.91667,100,100,200,1,124,73
900,290,660,200,670,870,3.35,170,400,570,2.3529,150,320,470,2.1333,130,170,300,1.3077,110,130,240,1.1818,90,100,190,1.1111,124,72
910,240,650,180,430,610,2.3889,160,320,480,2,150,270,420,1.8,130,160,290,1.2308,110,110,220,1,100,100,200,1,124,72
910,260,680,180,440,620,2.4444,160,300,460,1.875,150,260,410,1.7333,130,170,300,1.3077,100,120,220,1.2,70,100,170,1.4286,124,72
900,230,630,200,570,770,2.85,180,330,510,1.8333,160,260,420,1.625,140,160,300,1.1429,120,110,230,0.91667,110,90,200,0.81818,125,73
900,270,690,220,410,630,1.8636,180,260,440,1.4444,170,220,390,1.2941,150,190,340,1.2667,120,130,250,1.0833,110,110,220,1,125,73
910,210,680,230,420,650,1.8261,190,310,500,1.6316,170,250,420,1.4706,140,160,300,1.1429,130,120,250,0.92308,110,100,210,0.90909,125,73
910,230,420,180,430,610,2.3889,160,320,480,2,150,250,400,1.6667,130,150,280,1.1538,120,100,220,0.83333,100,90,190,0.9,125,73
1820,490,1600,190,1320,1510,6.9474,160,940,1100,5.875,160,810,970,5.0625,130,290,420,2.2308,110,110,220,1,100,90,190,0.9,125,73
900,220,680,190,480,670,2.5263,170,320,490,1.8824,160,260,420,1.625,130,160,290,1.2308,120,120,240,1,100,90,190,0.9,124,72
890,220,680,190,540,730,2.8421,160,350,510,2.1875,160,290,450,1.8125,130,180,310,1.3846,110,130,240,1.1818,100,110,210,1.1,125,73
920,210,710,230,500,730,2.1739,170,350,520,2.0588,160,290,450,1.8125,130,170,300,1.3077,110,120,230,1.0909,90,100,190,1.1111,126,73
900,210,660,230,420,650,1.8261,170,300,470,1.7647,160,240,400,1.5,140,150,290,1.0714,120,120,240,1,100,90,190,0.9,125,73
910,240,660,180,670,850,3.7222,150,440,590,2.9333,140,360,500,2.5714,130,160,290,1.2308,100,110,210,1.1,100,100,200,1,125,73
900,250,630,180,470,650,2.6111,170,330,500,1.9412,150,270,420,1.8,140,160,300,1.1429,110,110,220,1,100,90,190,0.9,125,73
910,270,650,190,470,660,2.4737,150,340,490,2.2667,150,270,420,1.8,130,160,290,1.2308,120,120,240,1,100,100,200,1,125,73
910,260,670,180,680,860,3.7778,170,380,550,2.2353,150,300,450,2,140,170,310,1.2143,110,120,230,1.0909,110,100,210,0.90909,125,73
900,240,710,200,460,660,2.3,180,320,500,1.7778,170,260,430,1.5294,140,170,310,1.2143,130,120,250,0.92308,110,90,200,0.81818,126,73
900,190,680,210,450,660,2.1429,210,320,530,1.5238,190,270,460,1.4211,160,180,340,1.125,130,120,250,0.92308,120,110,230,0.91667,126,73
900,220,620,180,410,590,2.2778,160,290,450,1.8125,150,230,380,1.5333,130,150,280,1.1538,110,110,220,1,100,90,190,0.9,125,73
910,280,670,180,680,860,3.7778,160,410,570,2.5625,150,350,500,2.3333,130,190,320,1.4615,110,130,240,1.1818,100,100,200,1,125,73
900,240,610,180,440,620,2.4444,160,310,470,1.9375,150,250,400,1.6667,140,150,290,1.0714,120,110,230,0.91667,110,90,200,0.81818,125,72
900,290,680,190,410,600,2.1579,170,300,470,1.7647,160,260,420,1.625,130,150,280,1.1538,120,110,230,0.91667,100,100,200,1,125,73
910,220,670,180,480,660,2.6667,160,330,490,2.0625,150,270,420,1.8,140,170,310,1.2143,110,120,230,1.0909,100,100,200,1,126,73
890,240,680,220,530,750,2.4091,180,360,540,2,170,290,460,1.7059,150,170,320,1.1333,130,120,250,0.92308,110,100,210,0.90909,126,73
910,210,600,230,430,660,1.8696,180,310,490,1.7222,170,250,420,1.4706,150,170,320,1.1333,120,130,250,1.0833,100,110,210,1.1,125,73
900,310,680,180,540,720,3,160,340,500,2.125,150,280,430,1.8667,140,180,320,1.2857,110,120,230,1.0909,90,100,190,1.1111,125,73
910,220,680,170,690,860,4.0588,150,480,630,3.2,140,380,520,2.7143,130,220,350,1.6923,120,140,260,1.1667,100,110,210,1.1,125,73
900,230,680,190,440,630,2.3158,160,310,470,1.9375,150,250,400,1.6667,130,160,290,1.2308,110,110,220,1,100,100,200,1,125,73
910,220,670,180,410,590,2.2778,160,290,450,1.8125,150,220,370,1.4667,130,150,280,1.1538,110,120,230,1.0909,90,100,190,1.1111,125,73
900,240,670,190,490,680,2.5789,170,330,500,1.9412,160,270,430,1.6875,150,160,310,1.0667,120,120,240,1,110,120,230,1.0909,126,73
900,230,680,250,470,720,1.88,200,370,570,1.85,180,340,520,1.8889,160,210,370,1.3125,140,130,270,0.92857,120,110,230,0.91667,125,73
900,220,570,210,410,620,1.9524,170,290,460,1.7059,150,220,370,1.4667,140,140,280,1,120,110,230,0.91667,100,100,200,1,125,73
910,330,600,180,500,680,2.7778,160,330,490,2.0625,150,270,420,1.8,130,160,290,1.2308,100,120,220,1.2,90,100,190,1.1111,125,73
900,310,650,310,660,970,2.129,180,420,600,2.3333,170,340,510,2,140,180,320,1.2857,120,120,240,1,110,100,210,0.90909,124,72
900,250,650,190,450,640,2.3684,160,310,470,1.9375,150,260,410,1.7333,130,160,290,1.2308,110,110,220,1,100,100,200,1,125,72
910,250,680,180,470,650,2.6111,160,330,490,2.0625,150,270,420,1.8,120,170,290,1.4167,110,120,230,1.0909,100,100,200,1,125,73
900,230,670,190,440,630,2.3158,170,310,480,1.8235,150,250,400,1.6667,140,150,290,1.0714,110,110,220,1,110,100,210,0.90909,125,73
890,230,680,250,430,680,1.72,250,300,550,1.2,200,250,450,1.25,160,190,350,1.1875,130,130,260,1,120,110,230,0.91667,125,73
910,210,640,180,440,620,2.4444,150,310,460,2.0667,140,240,380,1.7143,120,160,280,1.3333,110,110,220,1,90,100,190,1.1111,124,72
900,270,420,180,430,610,2.3889,160,330,490,2.0625,150,270,420,1.8,130,160,290,1.2308,110,110,220,1,100,90,190,0.9,124,72
910,480,680,350,690,1040,1.9714,170,390,560,2.2941,150,310,460,2.0667,140,180,320,1.2857,110,120,230,1.0909,110,100,210,0.90909,124,72
900,230,690,190,480,670,2.5263,170,320,490,1.8824,150,260,410,1.7333,140,160,300,1.1429,120,110,230,0.91667,100,90,190,0.9,124,72
910,210,680,190,520,710,2.7368,160,340,500,2.125,160,290,450,1.8125,130,180,310,1.3846,120,120,240,1,100,100,200,1,124,72
890,230,690,200,450,650,2.25,170,310,480,1.8235,160,260,420,1.625,150,160,310,1.0667,120,110,230,0.91667,110,100,210,0.90909,125,73
920,200,620,220,410,630,1.8636,210,270,480,1.2857,170,220,390,1.2941,140,150,290,1.0714,120,100,220,0.83333,110,90,200,0.81818,124,73
900,300,660,180,490,670,2.7222,160,330,490,2.0625,150,260,410,1.7333,130,160,290,1.2308,110,110,220,1,90,100,190,1.1111,124,72
910,240,680,170,690,860,4.0588,150,490,640,3.2667,140,410,550,2.9286,120,160,280,1.3333,100,120,220,1.2,90,110,200,1.2222,124,72
910,230,690,180,450,630,2.5,160,320,480,2,140,260,400,1.8571,130,170,300,1.3077,100,130,230,1.3,100,100,200,1,124,72
900,220,660,190,480,670,2.5263,160,340,500,2.125,160,270,430,1.6875,130,150,280,1.1538,110,110,220,1,100,100,200,1,124,72
910,240,670,190,470,660,2.4737,170,330,500,1.9412,160,280,440,1.75,140,160,300,1.1429,120,120,240,1,100,100,200,1,125,73
890,240,650,260,480,740,1.8462,200,360,560,1.8,180,300,480,1.6667,160,190,350,1.1875,130,130,260,1,120,100,220,0.83333,125,73
1880,240,480,180,400,580,2.2222,160,280,440,1.75,150,230,380,1.5333,130,150,280,1.1538,110,110,220,1,100,100,200,1,125,73
830,1400,560,1140,570,1710,0.5,970,360,1330,0.37113,880,300,1180,0.34091,240,160,400,0.66667,230,80,310,0.34783,170,60,230,0.35294,124,73
910,270,630,180,480,660,2.6667,160,330,490,2.0625,150,270,420,1.8,130,160,290,1.2308,110,120,230,1.0909,100,90,190,0.9,124,72
900,280,670,200,420,620,2.1,170,310,480,1.8235,160,300,460,1.875,140,180,320,1.2857,120,120,240,1,110,90,200,0.81818,125,73
890,230,660,190,480,670,2.5263,170,320,490,1.8824,160,260,420,1.625,140,160,300,1.1429,120,120,240,1,100,100,200,1,125,73
890,230,540,250,420,670,1.68,200,310,510,1.55,180,260,440,1.4444,150,170,320,1.1333,130,120,250,0.92308,120,110,230,0.91667,125,73
900,350,630,180,470,650,2.6111,160,320,480,2,140,250,390,1.7857,120,150,270,1.25,110,110,220,1,90,100,190,1.1111,125,73
900,270,640,180,500,680,2.7778,150,340,490,2.2667,140,270,410,1.9286,130,160,290,1.2308,100,120,220,1.2,100,100,200,1,124,73
900,260,680,170,520,690,3.0588,150,340,490,2.2667,130,280,410,2.1538,110,170,280,1.5455,100,120,220,1.2,90,100,190,1.1111,124,72
910,220,640,180,460,640,2.5556,160,310,470,1.9375,150,240,390,1.6,140,150,290,1.0714,110,110,220,1,110,90,200,0.81818,125,73
890,270,660,200,380,580,1.9,170,250,420,1.4706,170,190,360,1.1176,140,160,300,1.1429,130,120,250,0.92308,110,90,200,0.81818,126,73
890,230,680,190,480,670,2.5263,170,330,500,1.9412,160,280,440,1.75,140,170,310,1.2143,120,120,240,1,110,100,210,0.90909,126,73
910,210,650,230,430,660,1.8696,190,310,500,1.6316,170,260,430,1.5294,150,170,320,1.1333,120,120,240,1,110,100,210,0.90909,125,73
900,260,640,180,480,660,2.6667,150,330,480,2.2,150,260,410,1.7333,120,160,280,1.3333,110,120,230,1.0909,100,100,200,1,125,73
900,260,640,180,480,660,2.6667,160,320,480,2,150,260,410,1.7333,130,160,290,1.2308,110,110,220,1,100,100,200,1,125,73
900,260,640,230,650,880,2.8261,170,410,580,2.4118,150,320,470,2.1333,140,190,330,1.3571,110,120,230,1.0909,110,110,220,1,125,73
900,260,680,180,690,870,3.8333,160,340,500,2.125,150,270,420,1.8,130,160,290,1.2308,110,120,230,1.0909,100,100,200,1,125,73
910,220,670,190,400,590,2.1053,160,260,420,1.625,150,190,340,1.2667,140,120,260,0.85714,110,80,190,0.72727,110,50,160,0.45455,126,73
900,240,690,260,490,750,1.8846,190,360,550,1.8947,170,310,480,1.8235,150,190,340,1.2667,130,130,260,1,120,110,230,0.91667,126,73
900,210,610,210,410,620,1.9524,170,270,440,1.5882,160,220,380,1.375,140,150,290,1.0714,120,110,230,0.91667,110,100,210,0.90909,125,73
890,290,610,190,510,700,2.6842,170,350,520,2.0588,150,280,430,1.8667,130,160,290,1.2308,120,110,230,0.91667,100,90,190,0.9,125,73
910,280,500,180,460,640,2.5556,150,310,460,2.0667,150,260,410,1.7333,120,160,280,1.3333,100,110,210,1.1,100,100,200,1,125,73
900,410,680,190,530,720,2.7895,170,360,530,2.1176,150,280,430,1.8667,140,170,310,1.2143,120,120,240,1,100,100,200,1,126,73
910,220,680,190,690,880,3.6316,160,360,520,2.25,150,300,450,2,130,180,310,1.3846,110,120,230,1.0909,100,110,210,1.1,126,73
890,230,670,220,410,630,1.8636,180,290,470,1.6111,160,240,400,1.5,150,160,310,1.0667,120,110,230,0.91667,100,90,190,0.9,126,73
890,220,680,240,450,690,1.875,200,320,520,1.6,180,270,450,1.5,150,180,330,1.2,130,130,260,1,120,110,230,0.91667,126,74
900,210,610,170,620,790,3.6471,160,370,530,2.3125,140,290,430,2.0714,120,160,280,1.3333,110,110,220,1,90,100,190,1.1111,126,73
900,290,610,180,480,660,2.6667,160,330,490,2.0625,140,270,410,1.9286,130,160,290,1.2308,110,110,220,1,100,90,190,0.9,125,73
900,290,680,180,460,640,2.5556,160,310,470,1.9375,150,260,410,1.7333,130,160,290,1.2308,110,110,220,1,90,90,180,1,126,73
910,220,670,180,460,640,2.5556,160,320,480,2,150,270,420,1.8,130,160,290,1.2308,110,110,220,1,100,100,200,1,126,73
890,240,660,200,530,730,2.65,170,340,510,2,160,270,430,1.6875,140,160,300,1.1429,130,120,250,0.92308,110,90,200,0.81818,127,74
890,230,680,190,440,630,2.3158,170,310,480,1.8235,160,250,410,1.5625,140,160,300,1.1429,120,120,240,1,110,100,210,0.90909,127,74
900,210,620,230,420,650,1.8261,190,300,490,1.5789,170,260,430,1.5294,150,160,310,1.0667,120,120,240,1,120,110,230,0.91667,126,74
910,280,690,170,700,870,4.1176,150,440,590,2.9333,140,360,500,2.5714,130,200,330,1.5385,100,130,230,1.3,90,110,200,1.2222,126,73
890,220,610,180,460,640,2.5556,160,310,470,1.9375,150,250,400,1.6667,130,140,270,1.0769,120,100,220,0.83333,100,90,190,0.9,126,73
900,280,680,190,450,640,2.3684,160,330,490,2.0625,150,280,430,1.8667,130,170,300,1.3077,110,120,230,1.0909,100,100,200,1,126,73
890,220,660,180,510,690,2.8333,150,320,470,2.1333,150,260,410,1.7333,130,160,290,1.2308,110,120,230,1.0909,100,100,200,1,126,73
910,230,690,190,480,670,2.5263,170,350,520,2.0588,160,290,450,1.8125,130,170,300,1.3077,120,120,240,1,100,100,200,1,127,74
900,220,680,240,490,730,2.0417,180,370,550,2.0556,160,310,470,1.9375,150,190,340,1.2667,120,130,250,1.0833,110,110,220,1,127,74
890,220,670,210,410,620,1.9524,170,290,460,1.7059,160,230,390,1.4375,140,150,290,1.0714,120,110,230,0.91667,110,90,200,0.81818,127,74
900,220,670,190,680,870,3.5789,170,400,570,2.3529,150,320,470,2.1333,140,180,320,1.2857,110,120,230,1.0909,100,100,200,1,126,74
900,230,680,180,460,640,2.5556,160,310,470,1.9375,150,250,400,1.6667,130,150,280,1.1538,120,110,230,0.91667,100,100,200,1,126,73
910,220,680,190,440,630,2.3158,160,330,490,2.0625,150,280,430,1.8667,140,180,320,1.2857,110,130,240,1.1818,100,120,220,1.2,126,73
880,230,660,190,670,860,3.5263,170,360,530,2.1176,160,290,450,1.8125,140,170,310,1.2143,130,110,240,0.84615,110,90,200,0.81818,127,74
1800,220,1580,240,1330,1570,5.5417,180,900,1080,5,170,770,940,4.5294,140,240,380,1.7143,120,140,260,1.1667,110,120,230,1.0909,127,74
890,220,560,180,430,610,2.3889,160,290,450,1.8125,150,240,390,1.6,130,150,280,1.1538,110,110,220,1,90,90,180,1,127,74
900,330,610,190,620,810,3.2632,160,380,540,2.375,150,310,460,2.0667,130,180,310,1.3846,110,120,230,1.0909,100,100,200,1,126,73
910,290,680,170,460,630,2.7059,150,320,470,2.1333,140,260,400,1.8571,130,160,290,1.2308,110,120,230,1.0909,90,100,190,1.1111,125,73
900,230,670,190,470,660,2.4737,160,310,470,1.9375,150,250,400,1.6667,120,150,270,1.25,110,110,220,1,90,90,180,1,125,73
890,230,670,190,660,850,3.4737,170,360,530,2.1176,160,290,450,1.8125,140,170,310,1.2143,120,120,240,1,100,90,190,0.9,126,73
900,220,690,220,430,650,1.9545,170,280,450,1.6471,160,220,380,1.375,140,170,310,1.2143,120,130,250,1.0833,100,110,210,1.1,126,73
900,210,700,230,420,650,1.8261,180,300,480,1.6667,160,260,420,1.625,140,170,310,1.2143,120,130,250,1.0833,110,100,210,0.90909,125,73
900,200,410,170,420,590,2.4706,140,320,460,2.2857,140,260,400,1.8571,120,160,280,1.3333,100,120,220,1.2,90,100,190,1.1111,125,73
890,490,590,180,520,700,2.8889,160,360,520,2.25,150,290,440,1.9333,130,150,280,1.1538,110,110,220,1,90,90,180,1,125,73
890,300,670,180,450,630,2.5,160,320,480,2,150,250,400,1.6667,140,160,300,1.1429,110,120,230,1.0909,100,90,190,0.9,125,73
900,220,650,180,500,680,2.7778,160,320,480,2,150,260,410,1.7333,130,160,290,1.2308,110,120,230,1.0909,100,100,200,1,125,73
900,250,690,180,530,710,2.9444,160,350,510,2.1875,150,300,450,2,130,170,300,1.3077,110,130,240,1.1818,90,110,200,1.2222,126,73
920,210,710,230,490,720,2.1304,180,350,530,1.9444,160,280,440,1.75,140,160,300,1.1429,110,120,230,1.0909,100,90,190,0.9,126,73
900,210,630,230,420,650,1.8261,180,290,470,1.6111,160,230,390,1.4375,140,150,290,1.0714,120,110,230,0.91667,100,90,190,0.9,125,73
900,270,650,190,660,850,3.4737,160,410,570,2.5625,160,330,490,2.0625,130,150,280,1.1538,110,110,220,1,100,90,190,0.9,125,73
910,250,660,180,460,640,2.5556,160,310,470,1.9375,140,250,390,1.7857,130,150,280,1.1538,100,120,220,1.2,100,100,200,1,124,73
900,250,640,190,480,670,2.5263,170,330,500,1.9412,160,270,430,1.6875,140,160,300,1.1429,120,120,240,1,100,90,190,0.9,125,73
900,260,670,190,680,870,3.5789,150,360,510,2.4,150,290,440,1.9333,130,170,300,1.3077,120,120,240,1,100,100,200,1,125,73
890,230,650,190,450,640,2.3684,170,320,490,1.8824,160,260,420,1.625,140,160,300,1.1429,120,120,240,1,100,100,200,1,125,73
900,240,650,260,450,710,1.7308,220,330,550,1.5,190,280,470,1.4737,140,180,320,1.2857,120,130,250,1.0833,110,110,220,1,126,73
900,250,650,180,420,600,2.3333,160,290,450,1.8125,150,230,380,1.5333,120,140,260,1.1667,110,110,220,1,100,100,200,1,125,73
900,250,640,180,650,830,3.6111,160,400,560,2.5,150,320,470,2.1333,130,200,330,1.5385,110,120,230,1.0909,100,100,200,1,124,72
900,260,650,190,460,650,2.4211,170,320,490,1.8824,160,250,410,1.5625,130,150,280,1.1538,120,110,230,0.91667,100,100,200,1,124,72
900,250,640,190,430,620,2.2632,170,320,490,1.8824,160,270,430,1.6875,140,160,300,1.1429,120,120,240,1,110,100,210,0.90909,125,72
900,260,680,190,690,880,3.6316,160,370,530,2.3125,160,290,450,1.8125,140,170,310,1.2143,120,120,240,1,110,100,210,0.90909,125,73
900,220,680,200,510,710,2.55,180,330,510,1.8333,160,270,430,1.6875,140,170,310,1.2143,120,120,240,1,110,100,210,0.90909,125,73
910,220,650,240,440,680,1.8333,200,320,520,1.6,180,260,440,1.4444,150,180,330,1.2,130,130,260,1,120,110,230,0.91667,125,73
900,260,630,180,480,660,2.6667,150,320,470,2.1333,150,260,410,1.7333,130,150,280,1.1538,110,110,220,1,100,90,190,0.9,124,73
900,270,590,180,600,780,3.3333,160,410,570,2.5625,140,340,480,2.4286,130,190,320,1.4615,100,120,220,1.2,100,100,200,1,124,73
910,310,690,190,470,660,2.4737,160,320,480,2,150,260,410,1.7333,130,160,290,1.2308,120,110,230,0.91667,100,100,200,1,125,73
900,220,620,190,420,610,2.2105,170,280,450,1.6471,160,230,390,1.4375,140,160,300,1.1429,120,110,230,0.91667,110,90,200,0.81818,125,73
900,280,660,200,590,790,2.95,170,350,520,2.0588,160,290,450,1.8125,140,180,320,1.2857,120,120,240,1,110,100,210,0.90909,126,73
900,240,690,260,470,730,1.8077,210,410,620,1.9524,180,360,540,2,150,210,360,1.4,140,130,270,0.92857,120,110,230,0.91667,126,73
900,210,600,230,400,630,1.7391,170,280,450,1.6471,170,220,390,1.2941,140,140,280,1,120,110,230,0.91667,110,100,210,0.90909,125,73
900,300,650,190,490,680,2.5789,160,340,500,2.125,140,280,420,2,130,160,290,1.2308,110,110,220,1,100,90,190,0.9,125,73
910,250,690,250,700,950,2.8,170,460,630,2.7059,170,370,540,2.1765,140,200,340,1.4286,120,130,250,1.0833,100,100,200,1,125,73
890,220,680,180,450,630,2.5,160,320,480,2,150,260,410,1.7333,130,160,290,1.2308,110,120,230,1.0909,100,100,200,1,127,74
910,210,690,170,510,680,3,150,340,490,2.2667,140,260,400,1.8571,130,160,290,1.2308,100,120,220,1.2,80,100,180,1.25,127,74
900,220,680,190,490,680,2.5789,160,340,500,2.125,150,270,420,1.8,130,170,300,1.3077,120,130,250,1.0833,100,100,200,1,127,74
910,220,680,240,450,690,1.875,240,320,560,1.3333,190,270,460,1.4211,150,220,370,1.4667,130,150,280,1.1538,110,130,240,1.1818,127,74
900,230,680,190,480,670,2.5263,160,340,500,2.125,150,280,430,1.8667,130,160,290,1.2308,110,120,230,1.0909,100,100,200,1,127,74
910,220,470,180,480,660,2.6667,150,370,520,2.4667,150,310,460,2.0667,130,170,300,1.3077,100,120,220,1.2,90,100,190,1.1111,126,74
900,440,660,440,670,1110,1.5227,180,460,640,2.5556,170,370,540,2.1765,140,220,360,1.5714,120,130,250,1.0833,100,110,210,1.1,126,73
590,240,560,180,470,650,2.6111,160,330,490,2.0625,150,270,420,1.8,130,160,290,1.2308,110,120,230,1.0909,100,100,200,1,126,73
1220,30,990,20,740,760,37,20,620,640,31,20,560,580,28,20,480,500,24,20,440,460,22,20,420,440,21,127,73
890,230,690,200,450,650,2.25,170,320,490,1.8824,160,270,430,1.6875,140,170,310,1.2143,120,120,240,1,110,100,210,0.90909,127,73
910,200,650,220,430,650,1.9545,220,290,510,1.3182,200,220,420,1.1,150,150,300,1,130,100,230,0.76923,110,80,190,0.72727,127,74
890,260,620,180,510,690,2.8333,160,340,500,2.125,150,270,420,1.8,130,160,290,1.2308,110,110,220,1,100,90,190,0.9,126,73
910,270,310,170,320,490,1.8824,150,320,470,2.1333,140,280,420,2,130,160,290,1.2308,90,120,210,1.3333,90,100,190,1.1111,126,73
900,600,680,350,520,870,1.4857,160,350,510,2.1875,160,290,450,1.8125,130,170,300,1.3077,120,110,230,0.91667,100,90,190,0.9,126,73
900,220,630,190,560,750,2.9474,160,360,520,2.25,150,280,430,1.8667,130,160,290,1.2308,110,120,230,1.0909,110,100,210,0.90909,126,73
900,270,680,190,510,700,2.6842,160,330,490,2.0625,160,270,430,1.6875,140,170,310,1.2143,120,120,240,1,100,100,200,1,127,74
890,220,680,240,500,740,2.0833,180,370,550,2.0556,180,320,500,1.7778,150,200,350,1.3333,130,120,250,0.92308,110,110,220,1,127,74
900,210,610,230,430,660,1.8696,170,290,460,1.7059,150,230,380,1.5333,140,150,290,1.0714,120,110,230,0.91667,110,100,210,0.90909,127,74
900,290,640,180,510,690,2.8333,160,350,510,2.1875,140,280,420,2,130,160,290,1.2308,110,120,230,1.0909,90,90,180,1,126,73
900,260,640,180,650,830,3.6111,150,440,590,2.9333,150,380,530,2.5333,120,240,360,2,110,110,220,1,100,100,200,1,126,73
910,260,670,180,440,620,2.4444,160,320,480,2,150,250,400,1.6667,130,160,290,1.2308,110,120,230,1.0909,100,90,190,0.9,126,73
900,240,670,200,430,630,2.15,170,370,540,2.1765,160,300,460,1.875,140,170,310,1.2143,120,110,230,0.91667,110,100,210,0.90909,127,74
890,230,660,190,460,650,2.4211,170,320,490,1.8824,160,260,420,1.625,140,160,300,1.1429,120,110,230,0.91667,100,100,200,1,127,74
900,230,640,250,460,710,1.84,200,340,540,1.7,180,290,470,1.6111,150,190,340,1.2667,130,140,270,1.0769,120,110,230,0.91667,127,74
900,260,630,220,640,860,2.9091,170,360,530,2.1176,150,280,430,1.8667,130,160,290,1.2308,110,110,220,1,100,100,200,1,126,74
930,270,630,180,470,650,2.6111,160,330,490,2.0625,150,270,420,1.8,130,160,290,1.2308,110,110,220,1,100,100,200,1,126,73
880,300,650,200,450,650,2.25,180,300,480,1.6667,170,250,420,1.4706,150,140,290,0.93333,120,90,210,0.75,100,70,170,0.7,125,73
900,230,620,190,440,630,2.3158,160,300,460,1.875,160,260,420,1.625,130,150,280,1.1538,120,110,230,0.91667,110,100,210,0.90909,126,73
1720,280,1510,190,870,1060,4.5789,170,500,670,2.9412,160,410,570,2.5625,140,180,320,1.2857,120,120,240,1,100,100,200,1,127,74
990,210,570,230,440,670,1.913,170,320,490,1.8824,150,270,420,1.8,140,190,330,1.3571,110,140,250,1.2727,100,120,220,1.2,127,74
940,420,600,200,610,810,3.05,160,390,550,2.4375,150,320,470,2.1333,140,170,310,1.2143,110,130,240,1.1818,100,100,200,1,126,74
930,340,650,190,490,680,2.5789,160,350,510,2.1875,160,270,430,1.6875,130,160,290,1.2308,110,120,230,1.0909,100,100,200,1,126,73
920,280,630,200,580,780,2.9,160,360,520,2.25,160,290,450,1.8125,130,170,300,1.3077,120,120,240,1,100,100,200,1,126,73
890,290,680,190,690,880,3.6316,170,380,550,2.2353,160,310,470,1.9375,130,200,330,1.5385,120,130,250,1.0833,100,100,200,1,124,75
910,210,720,230,490,720,2.1304,170,340,510,2,150,270,420,1.8,130,160,290,1.2308,110,130,240,1.1818,90,80,170,0.88889,125,74
910,190,600,210,450,660,2.1429,160,330,490,2.0625,150,260,410,1.7333,130,180,310,1.3846,110,140,250,1.2727,90,110,200,1.2222,125,73
910,310,660,180,670,850,3.7222,160,390,550,2.4375,140,310,450,2.2143,120,160,280,1.3333,100,120,220,1.2,90,100,190,1.1111,124,73
900,250,660,180,460,640,2.5556,160,320,480,2,150,270,420,1.8,130,160,290,1.2308,100,120,220,1.2,100,100,200,1,124,73
910,240,680,180,460,640,2.5556,160,330,490,2.0625,150,270,420,1.8,120,170,290,1.4167,110,120,230,1.0909,90,100,190,1.1111,124,73
910,230,670,190,680,870,3.5789,160,390,550,2.4375,150,310,460,2.0667,130,180,310,1.3846,120,130,250,1.0833,100,110,210,1.1,125,73
900,240,710,230,520,750,2.2609,180,360,540,2,180,300,480,1.6667,150,180,330,1.2,130,120,250,0.92308,110,100,210,0.90909,125,73
890,190,650,210,420,630,2,190,300,490,1.5789,170,240,410,1.4118,150,150,300,1,120,110,230,0.91667,110,100,210,0.90909,125,73
970,240,660,170,500,670,2.9412,150,340,490,2.2667,130,280,410,2.1538,120,160,280,1.3333,100,120,220,1.2,100,100,200,1,124,73
840,310,570,240,580,820,2.4167,220,390,610,1.7727,210,310,520,1.4762,190,180,370,0.94737,170,90,260,0.52941,160,70,230,0.4375,124,73
910,270,610,190,550,740,2.8947,150,370,520,2.4667,140,300,440,2.1429,130,170,300,1.3077,100,120,220,1.2,100,110,210,1.1,124,73
