cp,st,dt,sw10,dw10,sw10+dw10,dw10/sw10,sw25,dw25,sw25+dw25,dw25/sw25,sw33,dw33,sw33+dw33,dw33/sw33,sw50,dw50,sw50+dw50,dw50/sw50,sw66,dw66,sw66+dw66,dw66/sw66,sw75,dw75,sw75+dw75,dw75/sw75,sys,dia,
910,500,680,260,590,850,2.2692,160,390,550,2.4375,150,310,460,2.0667,130,170,300,1.3077,110,120,230,1.0909,100,90,190,0.9,133,76
910,230,690,190,480,670,2.5263,170,350,520,2.0588,150,280,430,1.8667,130,160,290,1.2308,110,120,230,1.0909,100,90,190,0.9,133,76
910,220,680,180,690,870,3.8333,160,370,530,2.3125,150,300,450,2,130,170,300,1.3077,110,120,230,1.0909,90,100,190,1.1111,134,77
840,230,690,190,500,690,2.6316,160,350,510,2.1875,150,290,440,1.9333,130,160,290,1.2308,110,120,230,1.0909,100,100,200,1,134,77
970,150,760,170,530,700,3.1176,140,410,550,2.9286,120,350,470,2.9167,100,230,330,2.3,70,180,250,2.5714,70,160,230,2.2857,134,77
910,210,640,200,420,620,2.1,160,300,460,1.875,160,240,400,1.5,130,140,270,1.0769,120,110,230,0.91667,100,100,200,1,134,77
910,270,580,190,590,780,3.1053,160,420,580,2.625,150,350,500,2.3333,130,160,290,1.2308,110,110,220,1,100,90,190,0.9,134,77
910,330,610,180,460,640,2.5556,160,340,500,2.125,150,270,420,1.8,130,150,280,1.1538,110,120,230,1.0909,100,90,190,0.9,133,77
900,300,680,190,440,630,2.3158,170,330,500,1.9412,160,280,440,1.75,130,160,290,1.2308,120,120,240,1,100,90,190,0.9,133,76
920,220,690,180,700,880,3.8889,150,390,540,2.6,150,310,460,2.0667,130,190,320,1.4615,110,130,240,1.1818,90,100,190,1.1111,133,76
890,230,690,200,470,670,2.35,170,340,510,2,150,270,420,1.8,140,160,300,1.1429,120,120,240,1,110,110,220,1,134,77
920,200,680,220,450,670,2.0455,200,340,540,1.7,160,280,440,1.75,130,180,310,1.3846,110,140,250,1.2727,100,120,220,1.2,134,77
910,240,620,170,460,630,2.7059,160,320,480,2,140,250,390,1.7857,120,150,270,1.25,110,110,220,1,90,90,180,1,133,77
920,290,650,180,660,840,3.6667,150,420,570,2.8,150,340,490,2.2667,120,190,310,1.5833,100,120,220,1.2,90,100,190,1.1111,133,76
900,270,630,190,450,640,2.3684,160,320,480,2,150,260,410,1.7333,130,150,280,1.1538,120,110,230,0.91667,110,90,200,0.81818,132,76
920,270,530,180,410,590,2.2778,160,300,460,1.875,140,240,380,1.7143,130,160,290,1.2308,110,120,230,1.0909,90,100,190,1.1111,132,76
910,390,680,190,500,690,2.6316,180,340,520,1.8889,160,280,440,1.75,140,170,310,1.2143,130,120,250,0.92308,110,90,200,0.81818,133,76
900,230,700,250,470,720,1.88,200,410,610,2.05,180,350,530,1.9444,160,220,380,1.375,120,140,260,1.1667,120,110,230,0.91667,134,77
910,200,590,220,420,640,1.9091,170,300,470,1.7647,150,230,380,1.5333,140,160,300,1.1429,110,120,230,1.0909,100,100,200,1,134,77
920,320,580,170,530,700,3.1176,150,360,510,2.4,140,280,420,2,130,160,290,1.2308,100,120,220,1.2,90,100,190,1.1111,133,77
920,340,650,290,660,950,2.2759,180,480,660,2.6667,170,390,560,2.2941,140,220,360,1.5714,120,130,250,1.0833,100,110,210,1.1,132,76
910,270,640,190,440,630,2.3158,170,320,490,1.8824,160,260,420,1.625,140,150,290,1.0714,120,110,230,0.91667,110,90,200,0.81818,132,76
910,270,680,200,460,660,2.3,170,320,490,1.8824,170,260,430,1.5294,150,150,300,1,120,110,230,0.91667,120,100,220,0.83333,133,76
900,230,680,200,460,660,2.3,170,330,500,1.9412,160,270,430,1.6875,150,170,320,1.1333,120,120,240,1,110,100,210,0.90909,134,77
920,220,690,240,450,690,1.875,240,320,560,1.3333,210,260,470,1.2381,160,200,360,1.25,130,160,290,1.2308,120,130,250,1.0833,134,77
900,230,600,180,400,580,2.2222,160,290,450,1.8125,150,230,380,1.5333,140,140,280,1,120,110,230,0.91667,100,90,190,0.9,133,77
910,300,410,180,420,600,2.3333,150,340,490,2.2667,150,270,420,1.8,130,160,290,1.2308,110,110,220,1,90,100,190,1.1111,133,77
920,500,680,330,690,1020,2.0909,160,390,550,2.4375,150,320,470,2.1333,130,180,310,1.3846,110,130,240,1.1818,100,110,210,1.1,133,77
920,240,670,190,460,650,2.4211,160,320,480,2,140,260,400,1.8571,140,160,300,1.1429,110,120,230,1.0909,100,100,200,1,134,77
900,250,670,200,680,880,3.4,180,360,540,2,170,300,470,1.7647,150,170,320,1.1333,120,120,240,1,110,90,200,0.81818,134,77
850,230,320,190,320,510,1.6842,160,320,480,2,160,260,420,1.625,140,170,310,1.2143,120,120,240,1,110,100,210,0.90909,135,77
960,530,660,550,460,1010,0.83636,550,340,890,0.61818,360,280,640,0.77778,100,210,310,2.1,80,160,240,2,70,140,210,2,134,77
910,300,620,170,490,660,2.8824,150,340,490,2.2667,140,280,420,2,130,160,290,1.2308,110,110,220,1,90,90,180,1,134,77
910,290,660,180,670,850,3.7222,160,470,630,2.9375,150,400,550,2.6667,130,210,340,1.6154,110,110,220,1,100,100,200,1,134,77
910,250,670,190,440,630,2.3158,160,320,480,2,150,260,410,1.7333,130,150,280,1.1538,120,110,230,0.91667,100,90,190,0.9,134,77
910,240,680,180,440,620,2.4444,160,350,510,2.1875,150,280,430,1.8667,140,160,300,1.1429,110,120,230,1.0909,100,90,190,0.9,134,77
910,230,680,190,520,710,2.7368,170,340,510,2,160,280,440,1.75,140,170,310,1.2143,120,120,240,1,100,100,200,1,135,77
900,230,670,250,470,720,1.88,200,360,560,1.8,180,310,490,1.7222,160,190,350,1.1875,130,130,260,1,120,100,220,0.83333,134,77
910,230,660,190,420,610,2.2105,160,300,460,1.875,150,240,390,1.6,130,150,280,1.1538,110,110,220,1,100,100,200,1,134,77
920,250,650,180,470,650,2.6111,160,330,490,2.0625,150,270,420,1.8,130,150,280,1.1538,110,110,220,1,90,90,180,1,133,77
900,270,630,190,570,760,3,160,360,520,2.25,150,290,440,1.9333,130,160,290,1.2308,100,110,210,1.1,70,90,160,1.2857,133,77
910,270,620,180,460,640,2.5556,150,330,480,2.2,150,270,420,1.8,130,160,290,1.2308,110,110,220,1,100,100,200,1,133,77
910,290,680,180,470,650,2.6111,160,310,470,1.9375,150,240,390,1.6,130,180,310,1.3846,110,120,230,1.0909,100,100,200,1,134,77
910,230,690,190,440,630,2.3158,170,320,490,1.8824,160,260,420,1.625,130,160,290,1.2308,120,120,240,1,100,100,200,1,135,77
900,220,680,240,430,670,1.7917,210,310,520,1.4762,180,260,440,1.4444,150,170,320,1.1333,120,130,250,1.0833,120,100,220,0.83333,135,77
910,220,590,170,460,630,2.7059,150,330,480,2.2,150,260,410,1.7333,120,150,270,1.25,100,120,220,1.2,90,100,190,1.1111,133,77
910,320,670,170,500,670,2.9412,160,350,510,2.1875,140,290,430,2.0714,130,170,300,1.3077,110,120,230,1.0909,90,90,180,1,133,77
910,240,660,220,670,890,3.0455,170,420,590,2.4706,160,330,490,2.0625,130,180,310,1.3846,120,130,250,1.0833,100,100,200,1,133,77
890,250,650,180,630,810,3.5,160,360,520,2.25,150,300,450,2,130,160,290,1.2308,110,120,230,1.0909,100,110,210,1.1,134,77
930,240,700,170,420,590,2.4706,150,290,440,1.9333,140,220,360,1.5714,120,140,260,1.1667,100,100,200,1,80,80,160,1,135,77
890,230,690,210,490,700,2.3333,180,360,540,2,170,290,460,1.7059,130,170,300,1.3077,130,120,250,0.92308,110,100,210,0.90909,135,77
900,200,630,220,420,640,1.9091,220,310,530,1.4091,220,260,480,1.1818,150,210,360,1.4,120,130,250,1.0833,110,110,220,1,135,77
900,270,630,180,560,740,3.1111,160,380,540,2.375,140,300,440,2.1429,120,170,290,1.4167,110,110,220,1,100,100,200,1,134,77
920,270,470,180,480,660,2.6667,150,360,510,2.4,140,300,440,2.1429,120,170,290,1.4167,100,120,220,1.2,100,100,200,1,134,77
910,450,670,450,680,1130,1.5111,180,440,620,2.4444,170,360,530,2.1176,140,200,340,1.4286,120,120,240,1,110,100,210,0.90909,133,77
900,240,720,190,710,900,3.7368,170,390,560,2.2941,160,330,490,2.0625,140,170,310,1.2143,120,120,240,1,110,90,200,0.81818,134,77
900,180,690,180,440,620,2.4444,160,330,490,2.0625,150,270,420,1.8,130,170,300,1.3077,110,130,240,1.1818,100,110,210,1.1,135,77
900,210,690,230,470,700,2.0435,190,370,560,1.9474,170,320,490,1.8824,140,210,350,1.5,130,140,270,1.0769,100,120,220,1.2,135,78
920,210,690,170,420,590,2.4706,150,290,440,1.9333,140,220,360,1.5714,120,140,260,1.1667,100,100,200,1,90,80,170,0.88889,134,78
910,230,670,190,490,680,2.5789,160,350,510,2.1875,150,280,430,1.8667,130,160,290,1.2308,120,110,230,0.91667,100,100,200,1,134,77
910,240,660,180,550,730,3.0556,170,390,560,2.2941,150,340,490,2.2667,140,150,290,1.0714,110,110,220,1,100,90,190,0.9,134,77
910,250,630,190,450,640,2.3684,170,320,490,1.8824,160,260,420,1.625,140,160,300,1.1429,120,110,230,0.91667,90,90,180,1,134,77
910,280,670,200,510,710,2.55,160,380,540,2.375,160,310,470,1.9375,140,180,320,1.2857,120,120,240,1,110,100,210,0.90909,134,77
900,240,700,200,460,660,2.3,170,330,500,1.9412,160,270,430,1.6875,150,160,310,1.0667,120,110,230,0.91667,110,110,220,1,136,78
910,200,630,220,440,660,2,220,320,540,1.4545,170,270,440,1.5882,140,170,310,1.2143,130,120,250,0.92308,110,110,220,1,135,78
910,280,610,190,620,810,3.2632,170,500,670,2.9412,160,400,560,2.5,140,220,360,1.5714,120,130,250,1.0833,110,100,210,0.90909,135,78
980,300,670,180,510,690,2.8333,160,340,500,2.125,150,280,430,1.8667,130,160,290,1.2308,110,110,220,1,100,100,200,1,135,78
850,310,620,250,420,670,1.68,220,310,530,1.4091,210,250,460,1.1905,200,150,350,0.75,170,80,250,0.47059,160,60,220,0.375,135,78
910,230,670,190,510,700,2.6842,160,330,490,2.0625,150,270,420,1.8,130,160,290,1.2308,110,110,220,1,100,100,200,1,135,78
910,240,660,190,400,590,2.1053,170,290,460,1.7059,160,280,440,1.75,130,170,300,1.3077,120,120,240,1,100,100,200,1,135,78
890,250,690,270,480,750,1.7778,190,370,560,1.9474,170,310,480,1.8235,150,190,340,1.2667,130,130,260,1,120,100,220,0.83333,136,78
920,200,520,220,420,640,1.9091,160,310,470,1.9375,150,240,390,1.6,130,160,290,1.2308,110,120,230,1.0909,100,100,200,1,135,78
910,400,630,210,640,850,3.0476,160,410,570,2.5625,150,330,480,2.2,140,190,330,1.3571,110,130,240,1.1818,90,100,190,1.1111,135,78
910,280,670,180,490,670,2.7222,160,350,510,2.1875,150,290,440,1.9333,130,170,300,1.3077,110,120,230,1.0909,100,100,200,1,134,78
1820,240,610,180,490,670,2.7222,160,360,520,2.25,150,300,450,2,130,170,300,1.3077,110,120,230,1.0909,100,110,210,1.1,134,78
890,1210,690,1100,420,1520,0.38182,680,290,970,0.42647,310,210,520,0.67742,180,130,310,0.72222,130,90,220,0.69231,110,80,190,0.72727,135,78
920,200,690,220,470,690,2.1364,200,350,550,1.75,170,300,470,1.7647,140,200,340,1.4286,110,150,260,1.3636,100,130,230,1.3,136,78
910,230,630,180,640,820,3.5556,150,380,530,2.5333,140,250,390,1.7857,130,150,280,1.1538,100,120,220,1.2,100,100,200,1,135,78
910,280,650,180,480,660,2.6667,160,330,490,2.0625,150,260,410,1.7333,130,160,290,1.2308,110,110,220,1,100,90,190,0.9,135,78
900,260,680,190,460,650,2.4211,170,320,490,1.8824,160,260,420,1.625,130,150,280,1.1538,120,100,220,0.83333,110,90,200,0.81818,135,78
920,220,640,180,470,650,2.6111,150,320,470,2.1333,140,270,410,1.9286,130,160,290,1.2308,110,120,230,1.0909,100,100,200,1,135,78
910,280,670,200,680,880,3.4,180,360,540,2,160,290,450,1.8125,140,170,310,1.2143,130,120,250,0.92308,110,90,200,0.81818,136,78
890,240,690,260,460,720,1.7692,190,330,520,1.7368,180,270,450,1.5,150,170,320,1.1333,130,120,250,0.92308,120,100,220,0.83333,136,78
910,200,630,220,430,650,1.9545,180,320,500,1.7778,160,260,420,1.625,140,170,310,1.2143,120,120,240,1,110,110,220,1,136,78
910,280,610,170,620,790,3.6471,150,440,590,2.9333,140,350,490,2.5,130,180,310,1.3846,110,120,230,1.0909,100,90,190,0.9,135,78
910,300,690,180,470,650,2.6111,160,340,500,2.125,150,280,430,1.8667,130,160,290,1.2308,110,110,220,1,90,100,190,1.1111,135,78
900,220,680,190,450,640,2.3684,160,340,500,2.125,150,270,420,1.8,130,160,290,1.2308,110,110,220,1,100,100,200,1,135,78
930,220,690,170,700,870,4.1176,150,370,520,2.4667,140,300,440,2.1429,130,170,300,1.3077,100,130,230,1.3,90,110,200,1.2222,135,78
910,240,660,200,510,710,2.55,180,340,520,1.8889,170,280,450,1.6471,140,160,300,1.1429,130,110,240,0.84615,110,100,210,0.90909,136,78
890,250,680,270,460,730,1.7037,210,350,560,1.6667,190,300,490,1.5789,170,180,350,1.0588,140,120,260,0.85714,130,100,230,0.76923,135,78
910,210,640,180,390,570,2.1667,160,280,440,1.75,140,230,370,1.6429,130,150,280,1.1538,110,120,230,1.0909,100,100,200,1,134,78
910,270,680,180,690,870,3.8333,160,400,560,2.5,140,330,470,2.3571,130,190,320,1.4615,110,130,240,1.1818,100,100,200,1,134,77
900,230,670,190,440,630,2.3158,160,320,480,2,150,260,410,1.7333,130,150,280,1.1538,120,110,230,0.91667,100,100,200,1,134,77
910,230,680,190,440,630,2.3158,160,320,480,2,150,270,420,1.8,130,170,300,1.3077,110,120,230,1.0909,100,100,200,1,134,77
910,230,680,180,580,760,3.2222,160,360,520,2.25,150,290,440,1.9333,140,170,310,1.2143,110,130,240,1.1818,100,100,200,1,134,77
900,230,690,190,410,600,2.1579,160,330,490,2.0625,160,270,430,1.6875,140,170,310,1.2143,120,120,240,1,110,100,210,0.90909,135,78
910,210,680,230,440,670,1.913,190,320,510,1.6842,180,270,450,1.5,140,170,310,1.2143,130,120,250,0.92308,110,110,220,1,135,78
900,230,580,180,460,640,2.5556,160,320,480,2,150,260,410,1.7333,130,150,280,1.1538,110,110,220,1,90,90,180,1,134,78
910,320,670,310,680,990,2.1935,180,420,600,2.3333,160,350,510,2.1875,140,200,340,1.4286,120,120,240,1,110,100,210,0.90909,134,77
910,240,670,180,450,630,2.5,160,320,480,2,150,270,420,1.8,130,150,280,1.1538,110,120,230,1.0909,100,90,190,0.9,134,77
920,240,650,180,440,620,2.4444,160,320,480,2,140,250,390,1.7857,130,160,290,1.2308,100,120,220,1.2,90,90,180,1,134,77
910,270,670,200,680,880,3.4,170,370,540,2.1765,170,290,460,1.7059,140,170,310,1.2143,130,120,250,0.92308,110,90,200,0.81818,135,78
900,240,690,260,470,730,1.8077,200,340,540,1.7,180,260,440,1.4444,150,160,310,1.0667,130,140,270,1.0769,120,110,230,0.91667,135,78
910,210,630,230,410,640,1.7826,170,300,470,1.7647,140,240,380,1.7143,140,160,300,1.1429,110,120,230,1.0909,110,110,220,1,135,78
910,280,360,170,370,540,2.1765,150,330,480,2.2,140,270,410,1.9286,120,160,280,1.3333,100,120,220,1.2,90,100,190,1.1111,135,78
910,550,680,220,470,690,2.1364,160,350,510,2.1875,150,280,430,1.8667,130,160,290,1.2308,110,110,220,1,100,100,200,1,134,78
910,230,690,190,480,670,2.5263,160,350,510,2.1875,160,280,440,1.75,130,160,290,1.2308,120,120,240,1,100,100,200,1,134,77
920,220,680,180,690,870,3.8333,160,370,530,2.3125,150,320,470,2.1333,140,180,320,1.2857,110,120,230,1.0909,100,100,200,1,134,77
900,240,680,200,470,670,2.35,180,320,500,1.7778,170,280,450,1.6471,150,160,310,1.0667,130,120,250,0.92308,110,100,210,0.90909,135,78
900,220,690,240,450,690,1.875,240,340,580,1.4167,200,290,490,1.45,160,190,350,1.1875,150,130,280,0.86667,130,110,240,0.84615,135,78
890,210,640,180,420,600,2.3333,150,300,450,2,140,230,370,1.6429,120,140,260,1.1667,110,110,220,1,100,90,190,0.9,135,78
910,250,640,170,650,820,3.8235,150,420,570,2.8,140,350,490,2.5,120,200,320,1.6667,110,120,230,1.0909,90,110,200,1.2222,134,77
910,270,690,180,450,630,2.5,150,320,470,2.1333,140,270,410,1.9286,130,150,280,1.1538,110,120,230,1.0909,100,90,190,0.9,134,77
900,220,610,180,420,600,2.3333,160,330,490,2.0625,160,270,430,1.6875,140,150,290,1.0714,120,110,230,0.91667,110,90,200,0.81818,134,77
920,290,690,190,700,890,3.6842,160,380,540,2.375,160,310,470,1.9375,130,190,320,1.4615,110,130,240,1.1818,100,110,210,1.1,135,78
890,230,690,210,600,810,2.8571,180,360,540,2,170,310,480,1.8235,150,180,330,1.2,130,120,250,0.92308,110,110,220,1,135,78
920,200,670,220,440,660,2,190,330,520,1.7368,170,260,430,1.5294,140,180,320,1.2857,120,130,250,1.0833,100,110,210,1.1,135,78
910,250,660,180,470,650,2.6111,160,330,490,2.0625,150,270,420,1.8,130,150,280,1.1538,110,110,220,1,100,90,190,0.9,135,78
910,250,430,180,440,620,2.4444,160,420,580,2.625,150,340,490,2.2667,120,190,310,1.5833,100,120,220,1.2,90,110,200,1.2222,134,78
910,480,690,490,420,910,0.85714,490,310,800,0.63265,490,250,740,0.5102,490,150,640,0.30612,420,110,530,0.2619,420,90,510,0.21429,134,77
910,220,680,180,430,610,2.3889,160,290,450,1.8125,150,240,390,1.6,130,160,290,1.2308,110,120,230,1.0909,100,90,190,0.9,134,77
920,230,690,190,500,690,2.6316,160,350,510,2.1875,160,300,460,1.875,140,170,310,1.2143,120,120,240,1,110,100,210,0.90909,135,77
900,230,690,250,470,720,1.88,220,390,610,1.7727,190,350,540,1.8421,160,220,380,1.375,140,140,280,1,130,110,240,0.84615,135,78
910,210,600,190,410,600,2.1579,160,300,460,1.875,150,240,390,1.6,130,150,280,1.1538,110,120,230,1.0909,100,100,200,1,134,77
910,310,600,180,490,670,2.7222,160,330,490,2.0625,150,280,430,1.8667,130,150,280,1.1538,110,110,220,1,90,90,180,1,134,77
920,310,670,290,680,970,2.3448,170,440,610,2.5882,170,360,530,2.1176,140,220,360,1.5714,120,130,250,1.0833,100,100,200,1,133,77
910,250,650,190,430,620,2.2632,160,310,470,1.9375,160,250,410,1.5625,140,150,290,1.0714,120,110,230,0.91667,110,90,200,0.81818,133,77
900,260,640,190,470,660,2.4737,180,320,500,1.7778,160,260,420,1.625,150,150,300,1,130,110,240,0.84615,120,90,210,0.75,134,77
900,260,680,200,450,650,2.25,170,320,490,1.8824,160,270,430,1.6875,140,170,310,1.2143,120,130,250,1.0833,110,100,210,0.90909,135,77
900,220,640,240,420,660,1.75,240,300,540,1.25,200,240,440,1.2,150,190,340,1.2667,130,140,270,1.0769,110,110,220,1,134,77
910,260,640,170,430,600,2.5294,150,310,460,2.0667,140,250,390,1.7857,130,160,290,1.2308,100,120,220,1.2,90,100,190,1.1111,134,77
910,270,410,180,420,600,2.3333,160,340,500,2.125,140,270,410,1.9286,120,160,280,1.3333,110,110,220,1,90,100,190,1.1111,133,77
910,500,690,280,670,950,2.3929,170,370,540,2.1765,160,310,470,1.9375,140,170,310,1.2143,110,120,230,1.0909,110,100,210,0.90909,134,77
910,220,680,180,460,640,2.5556,170,320,490,1.8824,150,260,410,1.7333,140,160,300,1.1429,120,120,240,1,110,90,200,0.81818,134,77
890,230,670,190,610,800,3.2105,170,350,520,2.0588,160,280,440,1.75,140,170,310,1.2143,120,120,240,1,100,90,190,0.9,135,78
880,220,710,180,490,670,2.7222,160,360,520,2.25,150,300,450,2,140,190,330,1.3571,110,140,250,1.2727,100,120,220,1.2,135,78
940,170,710,190,450,640,2.3684,150,320,470,2.1333,140,270,410,1.9286,110,180,290,1.6364,90,150,240,1.6667,60,120,180,2,135,78
920,230,660,170,500,670,2.9412,160,350,510,2.1875,140,290,430,2.0714,120,170,290,1.4167,100,120,220,1.2,90,100,190,1.1111,134,78
910,260,690,190,700,890,3.6842,160,480,640,3,160,400,560,2.5,130,210,340,1.6154,120,100,220,0.83333,100,100,200,1,134,77
910,220,640,190,440,630,2.3158,160,320,480,2,150,270,420,1.8,130,160,290,1.2308,120,110,230,0.91667,100,100,200,1,134,77
920,270,690,180,440,620,2.4444,160,350,510,2.1875,150,290,440,1.9333,130,170,300,1.3077,110,120,230,1.0909,100,100,200,1,134,77
910,230,680,190,440,630,2.3158,170,320,490,1.8824,160,270,430,1.6875,140,160,300,1.1429,120,120,240,1,110,100,210,0.90909,135,78
900,230,640,250,450,700,1.8,190,330,520,1.7368,180,280,460,1.5556,150,170,320,1.1333,130,120,250,0.92308,120,100,220,0.83333,134,78
910,260,670,190,460,650,2.4211,160,330,490,2.0625,150,270,420,1.8,130,160,290,1.2308,110,120,230,1.0909,90,100,190,1.1111,134,78
920,240,680,180,480,660,2.6667,160,340,500,2.125,140,270,410,1.9286,130,160,290,1.2308,110,120,230,1.0909,100,90,190,0.9,134,77
900,240,660,190,450,640,2.3684,170,310,480,1.8235,160,260,420,1.625,140,150,290,1.0714,110,100,210,0.90909,100,80,180,0.8,133,77
900,240,660,180,440,620,2.4444,170,310,480,1.8235,160,260,420,1.625,140,150,290,1.0714,120,110,230,0.91667,110,90,200,0.81818,133,77
920,240,650,190,440,630,2.3158,170,310,480,1.8235,150,250,400,1.6667,140,180,320,1.2857,100,120,220,1.2,100,100,200,1,133,77
890,270,680,200,440,640,2.2,180,310,490,1.7222,170,260,430,1.5294,140,160,300,1.1429,130,110,240,0.84615,110,90,200,0.81818,134,77
910,210,690,230,410,640,1.7826,190,300,490,1.5789,170,240,410,1.4118,150,160,310,1.0667,120,120,240,1,120,110,230,0.91667,135,77
900,220,630,180,470,650,2.6111,160,320,480,2,150,270,420,1.8,140,150,290,1.0714,110,110,220,1,100,90,190,0.9,134,77
910,270,680,180,460,640,2.5556,160,320,480,2,150,260,410,1.7333,130,150,280,1.1538,120,110,230,0.91667,100,90,190,0.9,134,77
910,230,680,200,600,800,3,170,370,540,2.1765,160,300,460,1.875,140,170,310,1.2143,120,110,230,0.91667,110,100,210,0.90909,133,77
910,230,670,190,490,680,2.5789,170,330,500,1.9412,160,270,430,1.6875,140,150,290,1.0714,120,110,230,0.91667,100,90,190,0.9,134,77
910,240,680,200,390,590,1.95,180,270,450,1.5,170,210,380,1.2353,140,130,270,0.92857,130,90,220,0.69231,110,50,160,0.45455,134,77
910,230,680,250,490,740,1.96,190,360,550,1.8947,170,310,480,1.8235,150,190,340,1.2667,130,130,260,1,120,100,220,0.83333,135,78
900,230,660,200,410,610,2.05,170,300,470,1.7647,160,240,400,1.5,140,140,280,1,110,110,220,1,110,100,210,0.90909,134,78
920,240,660,170,520,690,3.0588,150,360,510,2.4,140,300,440,2.1429,120,170,290,1.4167,100,120,220,1.2,90,100,190,1.1111,134,77
920,260,690,180,620,800,3.4444,160,330,490,2.0625,150,280,430,1.8667,130,160,290,1.2308,110,120,230,1.0909,90,90,180,1,134,77
910,230,620,190,420,610,2.2105,170,310,480,1.8235,160,250,410,1.5625,140,150,290,1.0714,120,110,230,0.91667,110,80,190,0.72727,133,77
910,290,700,190,690,880,3.6316,160,380,540,2.375,160,300,460,1.875,140,170,310,1.2143,120,110,230,0.91667,110,100,210,0.90909,133,77
910,210,700,180,430,610,2.3889,160,320,480,2,160,270,430,1.6875,130,170,300,1.3077,110,120,230,1.0909,100,110,210,1.1,134,77
900,210,680,230,430,660,1.8696,190,320,510,1.6842,180,280,460,1.5556,150,170,320,1.1333,130,120,250,0.92308,110,110,220,1,134,77
920,220,690,170,700,870,4.1176,150,70,220,0.46667,140,10,150,0.071429,120,10,130,0.083333,100,10,110,0.1,80,10,90,0.125,133,77
910,230,660,180,460,640,2.5556,160,330,490,2.0625,150,260,410,1.7333,130,150,280,1.1538,110,110,220,1,100,100,200,1,133,77
900,250,650,190,440,630,2.3158,160,340,500,2.125,160,290,450,1.8125,130,150,280,1.1538,110,110,220,1,100,90,190,0.9,132,76
920,250,650,180,450,630,2.5,160,320,480,2,140,260,400,1.8571,130,160,290,1.2308,110,120,230,1.0909,90,100,190,1.1111,132,76
910,270,680,190,470,660,2.4737,170,350,520,2.0588,160,290,450,1.8125,130,170,300,1.3077,120,120,240,1,100,100,200,1,133,77
900,230,690,200,470,670,2.35,170,340,510,2,170,280,450,1.6471,140,170,310,1.2143,120,120,240,1,110,100,210,0.90909,133,77
900,210,660,230,440,670,1.913,180,320,500,1.7778,160,260,420,1.625,140,160,300,1.1429,120,120,240,1,100,110,210,1.1,133,77
920,240,590,200,600,800,3,160,450,610,2.8125,150,380,530,2.5333,130,200,330,1.5385,110,130,240,1.1818,90,100,190,1.1111,132,77
940,330,590,180,480,660,2.6667,160,340,500,2.125,150,280,430,1.8667,130,160,290,1.2308,110,120,230,1.0909,90,100,190,1.1111,132,77
880,350,650,210,420,630,2,190,300,490,1.5789,180,240,420,1.3333,160,140,300,0.875,140,90,230,0.64286,120,70,190,0.58333,132,76
910,230,570,180,580,760,3.2222,160,370,530,2.3125,150,300,450,2,130,160,290,1.2308,110,120,230,1.0909,100,100,200,1,132,76
910,340,690,210,410,620,1.9524,180,290,470,1.6111,160,260,420,1.625,140,190,330,1.3571,120,130,250,1.0833,100,110,210,1.1,133,77
920,220,700,240,460,700,1.9167,190,340,530,1.7895,170,290,460,1.7059,150,180,330,1.2,120,130,250,1.0833,110,110,220,1,133,77
910,220,450,180,410,590,2.2778,160,290,450,1.8125,150,220,370,1.4667,130,140,270,1.0769,110,110,220,1,100,90,190,0.9,133,77
910,460,650,190,500,690,2.6316,160,350,510,2.1875,150,290,440,1.9333,130,160,290,1.2308,120,110,230,0.91667,100,90,190,0.9,133,77
920,260,680,180,470,650,2.6111,150,330,480,2.2,140,280,420,2,130,160,290,1.2308,100,120,220,1.2,90,100,190,1.1111,133,77
920,240,670,190,470,660,2.4737,160,330,490,2.0625,150,270,420,1.8,130,160,290,1.2308,110,120,230,1.0909,100,100,200,1,133,77
900,250,700,190,630,820,3.3158,170,370,540,2.1765,160,310,470,1.9375,140,180,320,1.2857,120,120,240,1,100,110,210,1.1,134,77
920,200,710,220,460,680,2.0909,160,330,490,2.0625,150,260,410,1.7333,130,160,290,1.2308,110,120,230,1.0909,90,100,190,1.1111,134,77
920,210,640,200,410,610,2.05,170,300,470,1.7647,150,250,400,1.6667,130,160,290,1.2308,110,120,230,1.0909,100,100,200,1,133,77
910,280,610,190,540,730,2.8421,160,340,500,2.125,160,280,440,1.75,130,150,280,1.1538,120,110,230,0.91667,100,100,200,1,133,77
910,300,690,190,700,890,3.6842,160,390,550,2.4375,150,320,470,2.1333,140,190,330,1.3571,110,120,230,1.0909,110,100,210,0.90909,132,77
900,220,690,200,450,650,2.25,170,330,500,1.9412,160,280,440,1.75,140,160,300,1.1429,120,120,240,1,100,100,200,1,132,76
930,210,710,180,420,600,2.3333,160,310,470,1.9375,150,260,410,1.7333,120,170,290,1.4167,110,130,240,1.1818,90,110,200,1.2222,132,76
920,220,710,210,480,690,2.2857,170,330,500,1.9412,160,280,440,1.75,140,160,300,1.1429,120,120,240,1,100,90,190,0.9,132,76
920,210,590,180,400,580,2.2222,160,280,440,1.75,150,220,370,1.4667,130,130,260,1,110,100,210,0.90909,100,90,190,0.9,132,76
920,330,610,170,440,610,2.5882,150,300,450,2,140,250,390,1.7857,120,150,270,1.25,100,110,210,1.1,90,90,180,1,132,76
940,310,590,160,460,620,2.875,130,320,450,2.4615,120,250,370,2.0833,100,150,250,1.5,70,120,190,1.7143,60,90,150,1.5,132,76
920,350,560,170,430,600,2.5294,150,310,460,2.0667,140,230,370,1.6429,110,140,250,1.2727,110,110,220,1,90,90,180,1,133,76
920,360,590,170,430,600,2.5294,140,300,440,2.1429,140,250,390,1.7857,120,150,270,1.25,100,100,200,1,90,90,180,1,133,77
930,330,600,150,430,580,2.8667,140,300,440,2.1429,130,230,360,1.7692,110,150,260,1.3636,90,110,200,1.2222,70,90,160,1.2857,133,77
930,330,660,170,430,600,2.5294,140,320,460,2.2857,130,260,390,2,110,150,260,1.3636,90,110,200,1.2222,90,100,190,1.1111,133,77
920,270,620,160,430,590,2.6875,130,310,440,2.3846,130,240,370,1.8462,110,140,250,1.2727,90,110,200,1.2222,90,90,180,1,133,77
930,300,610,160,450,610,2.8125,130,310,440,2.3846,130,250,380,1.9231,110,150,260,1.3636,90,110,200,1.2222,80,90,170,1.125,130,77
930,320,660,170,440,610,2.5882,140,320,460,2.2857,140,250,390,1.7857,110,150,260,1.3636,100,110,210,1.1,80,90,170,1.125,129,77
930,270,640,170,450,620,2.6471,120,330,450,2.75,120,270,390,2.25,110,150,260,1.3636,100,110,210,1.1,80,100,180,1.25,128,77
930,290,620,200,580,780,2.9,150,370,520,2.4667,140,290,430,2.0714,120,160,280,1.3333,100,110,210,1.1,90,90,180,1,126,76
930,310,590,170,460,630,2.7059,140,330,470,2.3571,130,260,390,2,120,150,270,1.25,100,110,210,1.1,90,80,170,0.88889,125,76
910,340,560,170,520,690,3.0588,140,360,500,2.5714,140,280,420,2,110,150,260,1.3636,100,120,220,1.2,90,90,180,1,124,76
930,350,620,170,450,620,2.6471,140,320,460,2.2857,130,250,380,1.9231,110,150,260,1.3636,100,120,220,1.2,90,100,190,1.1111,123,75
910,310,660,200,420,620,2.1,160,280,440,1.75,140,210,350,1.5,130,160,290,1.2308,110,120,230,1.0909,100,100,200,1,122,75
910,250,650,170,450,620,2.6471,140,320,460,2.2857,130,250,380,1.9231,120,160,280,1.3333,100,120,220,1.2,90,100,190,1.1111,121,75
930,260,640,160,440,600,2.75,140,320,460,2.2857,130,260,390,2,120,160,280,1.3333,90,120,210,1.3333,80,100,180,1.25,119,74
910,290,570,170,430,600,2.5294,150,310,460,2.0667,140,250,390,1.7857,130,150,280,1.1538,110,110,220,1,100,90,190,0.9,119,74
910,340,610,170,90,260,0.52941,150,90,240,0.6,140,90,230,0.64286,120,90,210,0.75,110,90,200,0.81818,90,90,180,1,119,74
920,300,600,180,460,640,2.5556,150,320,470,2.1333,140,260,400,1.8571,120,150,270,1.25,110,110,220,1,90,110,200,1.2222,119,74
910,320,620,170,420,590,2.4706,150,310,460,2.0667,140,250,390,1.7857,120,150,270,1.25,110,110,220,1,100,100,200,1,119,74
910,290,600,170,440,610,2.5882,150,320,470,2.1333,140,280,420,2,120,160,280,1.3333,110,120,230,1.0909,90,100,190,1.1111,119,74
920,310,590,170,440,610,2.5882,140,320,460,2.2857,130,250,380,1.9231,120,160,280,1.3333,90,120,210,1.3333,90,100,190,1.1111,119,74
920,330,570,170,450,620,2.6471,150,320,470,2.1333,140,250,390,1.7857,120,150,270,1.25,100,120,220,1.2,100,100,200,1,119,74
910,350,640,170,420,590,2.4706,150,310,460,2.0667,140,240,380,1.7143,130,150,280,1.1538,100,110,210,1.1,100,90,190,0.9,119,74
910,270,570,170,420,590,2.4706,150,300,450,2,140,240,380,1.7143,120,150,270,1.25,110,110,220,1,90,90,180,1,119,74
910,340,660,180,440,620,2.4444,150,310,460,2.0667,140,260,400,1.8571,120,150,270,1.25,110,110,220,1,90,100,190,1.1111,119,74
910,250,580,270,430,700,1.5926,150,310,460,2.0667,140,240,380,1.7143,120,160,280,1.3333,110,120,230,1.0909,90,100,190,1.1111,119,74
920,330,650,320,660,980,2.0625,160,430,590,2.6875,130,350,480,2.6923,120,180,300,1.5,100,130,230,1.3,90,110,200,1.2222,119,74
920,270,690,180,700,880,3.8889,150,430,580,2.8667,140,350,490,2.5,130,170,300,1.3077,100,120,220,1.2,90,100,190,1.1111,119,74
910,230,690,180,480,660,2.6667,170,350,520,2.0588,150,290,440,1.9333,130,170,300,1.3077,110,120,230,1.0909,100,100,200,1,119,73
900,220,680,240,450,690,1.875,200,340,540,1.7,170,290,460,1.7059,150,180,330,1.2,120,140,260,1.1667,110,110,220,1,119,73
910,220,650,180,400,580,2.2222,150,270,420,1.8,140,190,330,1.3571,130,150,280,1.1538,100,120,220,1.2,100,100,200,1,119,73
900,260,640,180,430,610,2.3889,160,330,490,2.0625,150,270,420,1.8,130,150,280,1.1538,110,110,220,1,100,90,190,0.9,119,73
910,260,540,180,450,630,2.5,150,320,470,2.1333,140,270,410,1.9286,120,160,280,1.3333,110,120,230,1.0909,100,110,210,1.1,118,73
900,370,670,180,440,620,2.4444,160,300,460,1.875,150,250,400,1.6667,140,160,300,1.1429,120,110,230,0.91667,100,100,200,1,118,72
890,230,680,180,550,730,3.0556,170,340,510,2,160,290,450,1.8125,140,170,310,1.2143,120,120,240,1,110,100,210,0.90909,119,73
890,210,690,170,460,630,2.7059,160,330,490,2.0625,150,280,430,1.8667,140,180,320,1.2857,110,120,230,1.0909,100,110,210,1.1,119,73
910,200,690,220,430,650,1.9545,170,320,490,1.8824,150,270,420,1.8,140,180,320,1.2857,120,140,260,1.1667,110,120,230,1.0909,119,73
900,220,670,180,680,860,3.7778,160,390,550,2.4375,150,330,480,2.2,130,170,300,1.3077,120,120,240,1,100,90,190,0.9,119,73
910,230,670,180,470,650,2.6111,150,340,490,2.2667,150,270,420,1.8,130,150,280,1.1538,110,110,220,1,90,100,190,1.1111,119,72
910,240,680,180,470,650,2.6111,160,350,510,2.1875,150,310,460,2.0667,130,160,290,1.2308,100,120,220,1.2,100,100,200,1,119,72
910,230,670,190,570,760,3,170,350,520,2.0588,160,280,440,1.75,140,170,310,1.2143,120,120,240,1,100,90,190,0.9,119,72
900,240,680,200,420,620,2.1,170,330,500,1.9412,160,280,440,1.75,140,170,310,1.2143,120,120,240,1,110,90,200,0.81818,120,72
910,220,690,240,460,700,1.9167,190,360,550,1.8947,170,310,480,1.8235,140,190,330,1.3571,120,130,250,1.0833,110,120,230,1.0909,120,72
900,220,610,200,410,610,2.05,170,290,460,1.7059,160,230,390,1.4375,140,140,280,1,120,110,230,0.91667,100,90,190,0.9,120,72
910,290,640,200,630,830,3.15,160,390,550,2.4375,150,310,460,2.0667,130,180,310,1.3846,120,120,240,1,100,110,210,1.1,120,72
920,270,630,180,480,660,2.6667,160,340,500,2.125,140,280,420,2,130,170,300,1.3077,110,110,220,1,100,100,200,1,120,72
900,290,670,190,440,630,2.3158,170,310,480,1.8235,160,250,410,1.5625,140,150,290,1.0714,110,110,220,1,100,90,190,0.9,120,72
900,230,690,190,700,890,3.6842,170,370,540,2.1765,160,300,460,1.875,130,180,310,1.3846,120,120,240,1,100,100,200,1,120,72
910,210,690,190,400,590,2.1053,160,290,450,1.8125,150,240,390,1.6,140,190,330,1.3571,110,140,250,1.2727,100,120,220,1.2,120,72
910,220,680,240,440,680,1.8333,190,320,510,1.6842,170,270,440,1.5882,150,180,330,1.2,130,130,260,1,110,110,220,1,121,72
910,230,430,180,430,610,2.3889,160,310,470,1.9375,150,250,400,1.6667,130,150,280,1.1538,110,110,220,1,100,90,190,0.9,122,72
900,480,660,190,520,710,2.7368,170,350,520,2.0588,160,280,440,1.75,130,160,290,1.2308,110,110,220,1,100,100,200,1,121,72
910,240,690,180,450,630,2.5,160,330,490,2.0625,150,260,410,1.7333,130,160,290,1.2308,110,120,230,1.0909,90,100,190,1.1111,121,72
910,220,640,180,450,630,2.5,160,310,470,1.9375,160,250,410,1.5625,130,150,280,1.1538,120,110,230,0.91667,100,90,190,0.9,122,72
890,270,670,190,620,810,3.2632,170,350,520,2.0588,150,290,440,1.9333,140,170,310,1.2143,110,120,230,1.0909,110,100,210,0.90909,122,72
910,220,700,200,460,660,2.3,170,320,490,1.8824,160,260,420,1.625,130,150,280,1.1538,120,110,230,0.91667,100,80,180,0.8,123,73
910,210,630,230,420,650,1.8261,180,300,480,1.6667,160,250,410,1.5625,140,160,300,1.1429,120,120,240,1,110,110,220,1,123,73
910,280,610,180,620,800,3.4444,150,410,560,2.7333,150,340,490,2.2667,130,160,290,1.2308,110,120,230,1.0909,100,100,200,1,123,73
900,300,680,190,460,650,2.4211,170,330,500,1.9412,150,270,420,1.8,130,160,290,1.2308,120,110,230,0.91667,100,90,190,0.9,123,73
910,220,680,190,480,670,2.5263,150,350,500,2.3333,150,280,430,1.8667,130,170,300,1.3077,110,120,230,1.0909,100,110,210,1.1,123,73
610,230,600,180,610,790,3.3889,150,350,500,2.3333,140,280,420,2,130,170,300,1.3077,100,120,220,1.2,100,100,200,1,123,72
1210,10,1020,20,780,800,39,20,640,660,32,20,580,600,29,20,480,500,24,20,430,450,21.5,20,40,60,2,124,73
910,190,670,210,460,670,2.1905,190,350,540,1.8421,170,300,470,1.7647,150,200,350,1.3333,120,130,250,1.0833,110,120,230,1.0909,124,73
920,240,560,180,400,580,2.2222,150,290,440,1.9333,150,230,380,1.5333,120,150,270,1.25,110,110,220,1,100,100,200,1,124,73
910,360,600,190,610,800,3.2105,160,390,550,2.4375,150,320,470,2.1333,130,180,310,1.3846,110,120,230,1.0909,100,100,200,1,124,73
910,310,690,180,450,630,2.5,160,320,480,2,150,270,420,1.8,130,160,290,1.2308,110,110,220,1,100,90,190,0.9,124,73
920,220,660,180,430,610,2.3889,160,320,480,2,150,270,420,1.8,130,170,300,1.3077,110,120,230,1.0909,100,100,200,1,124,73
910,260,690,190,700,890,3.6842,170,370,540,2.1765,160,300,460,1.875,140,170,310,1.2143,120,130,250,1.0833,100,100,200,1,125,73
910,220,700,190,480,670,2.5263,160,340,500,2.125,160,280,440,1.75,130,180,310,1.3846,110,130,240,1.1818,100,110,210,1.1,125,74
910,210,650,230,430,660,1.8696,190,310,500,1.6316,170,260,430,1.5294,150,170,320,1.1333,120,130,250,1.0833,110,110,220,1,125,74
910,260,640,180,460,640,2.5556,150,330,480,2.2,140,270,410,1.9286,130,160,290,1.2308,100,120,220,1.2,100,100,200,1,125,74
910,270,650,210,660,870,3.1429,170,390,560,2.2941,160,320,480,2,130,190,320,1.4615,110,130,240,1.1818,100,100,200,1,125,73
910,260,640,180,450,630,2.5,160,320,480,2,150,260,410,1.7333,130,160,290,1.2308,110,110,220,1,100,90,190,0.9,124,73
910,270,680,190,430,620,2.2632,160,300,460,1.875,150,260,410,1.7333,130,150,280,1.1538,110,110,220,1,100,100,200,1,125,73
910,230,680,190,480,670,2.5263,170,340,510,2,150,270,420,1.8,140,160,300,1.1429,120,120,240,1,100,100,200,1,125,73
900,230,690,250,460,710,1.84,200,330,530,1.65,180,280,460,1.5556,160,210,370,1.3125,130,130,260,1,120,110,230,0.91667,126,74
910,210,600,200,410,610,2.05,160,300,460,1.875,150,240,390,1.6,130,150,280,1.1538,110,110,220,1,100,100,200,1,125,74
910,310,470,180,480,660,2.6667,150,350,500,2.3333,140,280,420,2,130,160,290,1.2308,100,120,220,1.2,90,100,190,1.1111,125,73
920,440,670,280,680,960,2.4286,170,380,550,2.2353,150,320,470,2.1333,130,180,310,1.3846,110,120,230,1.0909,90,100,190,1.1111,125,73
920,250,710,190,440,630,2.3158,170,310,480,1.8235,160,250,410,1.5625,130,150,280,1.1538,120,110,230,0.91667,100,90,190,0.9,125,73
910,210,630,190,490,680,2.5789,170,330,500,1.9412,160,270,430,1.6875,140,160,300,1.1429,120,110,230,0.91667,100,90,190,0.9,126,73
900,280,680,200,440,640,2.2,170,310,480,1.8235,160,260,420,1.625,140,160,300,1.1429,120,120,240,1,110,90,200,0.81818,126,73
920,220,700,240,420,660,1.75,190,300,490,1.5789,170,230,400,1.3529,150,150,300,1,120,110,230,0.91667,100,80,180,0.8,126,74
920,220,590,180,430,610,2.3889,150,310,460,2.0667,140,250,390,1.7857,130,150,280,1.1538,100,120,220,1.2,90,100,190,1.1111,125,73
910,330,640,190,650,840,3.4211,160,420,580,2.625,150,350,500,2.3333,130,160,290,1.2308,110,110,220,1,100,90,190,0.9,125,73
920,270,660,180,450,630,2.5,160,320,480,2,150,270,420,1.8,130,160,290,1.2308,110,120,230,1.0909,90,100,190,1.1111,125,73
920,260,650,190,450,640,2.3684,170,320,490,1.8824,150,260,410,1.7333,140,160,300,1.1429,120,110,230,0.91667,100,90,190,0.9,125,73
920,270,690,190,610,800,3.2105,170,360,530,2.1176,160,290,450,1.8125,130,180,310,1.3846,120,120,240,1,100,100,200,1,126,74
900,230,690,250,550,800,2.2,190,370,560,1.9474,170,300,470,1.7647,150,180,330,1.2,140,130,270,0.92857,120,100,220,0.83333,126,74
910,210,600,230,420,650,1.8261,180,300,480,1.6667,160,250,410,1.5625,140,160,300,1.1429,120,120,240,1,110,100,210,0.90909,125,74
930,310,660,180,470,650,2.6111,160,320,480,2,150,260,410,1.7333,130,150,280,1.1538,110,110,220,1,100,90,190,0.9,125,73
900,270,630,190,640,830,3.3684,170,410,580,2.4118,160,330,490,2.0625,140,190,330,1.3571,110,110,220,1,90,90,180,1,125,73
910,270,660,180,450,630,2.5,170,330,500,1.9412,150,260,410,1.7333,130,160,290,1.2308,110,120,230,1.0909,100,90,190,0.9,125,73
920,250,640,190,500,690,2.6316,160,340,500,2.125,150,280,430,1.8667,130,180,310,1.3846,110,120,230,1.0909,100,100,200,1,125,73
910,280,680,200,460,660,2.3,170,330,500,1.9412,170,280,450,1.6471,140,170,310,1.2143,120,120,240,1,110,90,200,0.81818,126,73
890,230,690,250,450,700,1.8,250,390,640,1.56,200,340,540,1.7,160,210,370,1.3125,140,130,270,0.92857,120,110,230,0.91667,126,74
920,200,610,170,420,590,2.4706,150,300,450,2,140,250,390,1.7857,130,150,280,1.1538,100,120,220,1.2,90,100,190,1.1111,126,74
910,310,650,180,500,680,2.7778,160,350,510,2.1875,150,290,440,1.9333,130,160,290,1.2308,110,110,220,1,90,100,190,1.1111,125,73
920,260,680,260,690,950,2.6538,180,430,610,2.3889,160,340,500,2.125,140,200,340,1.4286,110,130,240,1.1818,100,110,210,1.1,125,73
860,240,660,190,450,640,2.3684,160,330,490,2.0625,150,270,420,1.8,130,160,290,1.2308,110,110,220,1,110,90,200,0.81818,125,73
970,200,730,140,480,620,3.4286,120,360,480,3,110,300,410,2.7273,90,200,290,2.2222,70,160,230,2.2857,60,130,190,2.1667,126,73
890,240,680,200,450,650,2.25,180,320,500,1.7778,170,270,440,1.5882,140,170,310,1.2143,130,120,250,0.92308,110,100,210,0.90909,127,74
910,210,630,230,420,650,1.8261,230,300,530,1.3043,200,240,440,1.2,160,200,360,1.25,130,140,270,1.0769,110,110,220,1,126,74
910,280,620,180,480,660,2.6667,140,340,480,2.4286,140,270,410,1.9286,130,160,290,1.2308,110,110,220,1,100,90,190,0.9,126,73
910,290,420,180,430,610,2.3889,160,330,490,2.0625,150,270,420,1.8,130,160,290,1.2308,110,110,220,1,100,90,190,0.9,126,73
920,490,690,490,700,1190,1.4286,170,120,290,0.70588,170,50,220,0.29412,140,50,190,0.35714,120,50,170,0.41667,100,50,150,0.5,125,73
920,230,690,190,660,850,3.4737,170,350,520,2.0588,160,280,440,1.75,140,170,310,1.2143,120,140,260,1.1667,100,100,200,1,125,73
900,230,650,200,450,650,2.25,170,330,500,1.9412,160,270,430,1.6875,140,160,300,1.1429,120,110,230,0.91667,110,100,210,0.90909,126,73
880,250,690,270,480,750,1.7778,180,360,540,2,170,320,490,1.8824,150,200,350,1.3333,120,140,260,1.1667,110,120,230,1.0909,126,74
930,190,570,160,440,600,2.75,140,310,450,2.2143,130,240,370,1.8462,100,160,260,1.6,90,130,220,1.4444,80,110,190,1.375,125,74
910,360,620,180,510,690,2.8333,150,340,490,2.2667,150,290,440,1.9333,120,160,280,1.3333,110,110,220,1,100,100,200,1,125,73
910,290,670,190,680,870,3.5789,160,430,590,2.6875,140,380,520,2.7143,130,200,330,1.5385,110,120,230,1.0909,100,90,190,0.9,124,73
910,240,670,180,460,640,2.5556,160,330,490,2.0625,150,270,420,1.8,130,160,290,1.2308,110,110,220,1,100,90,190,0.9,124,73
900,240,680,190,450,640,2.3684,160,380,540,2.375,160,310,470,1.9375,140,170,310,1.2143,120,120,240,1,110,100,210,0.90909,125,73
910,220,700,180,480,660,2.6667,160,350,510,2.1875,140,290,430,2.0714,130,180,310,1.3846,110,130,240,1.1818,100,110,210,1.1,125,73
900,210,670,230,450,680,1.9565,210,330,540,1.5714,180,280,460,1.5556,150,180,330,1.2,130,130,260,1,110,110,220,1,125,73
920,230,640,190,580,770,3.0526,150,360,510,2.4,150,320,470,2.1333,120,170,290,1.4167,110,130,240,1.1818,90,100,190,1.1111,125,73
930,280,650,190,480,670,2.5263,160,350,510,2.1875,150,290,440,1.9333,130,170,300,1.3077,110,110,220,1,100,100,200,1,125,73
900,280,650,200,440,640,2.2,170,310,480,1.8235,160,260,420,1.625,140,140,280,1,120,90,210,0.75,100,80,180,0.8,125,73
910,250,640,190,510,700,2.6842,170,350,520,2.0588,150,280,430,1.8667,140,160,300,1.1429,120,110,230,0.91667,110,90,200,0.81818,125,73
910,270,680,190,410,600,2.1579,170,290,460,1.7059,160,240,400,1.5,140,180,320,1.2857,120,120,240,1,100,100,200,1,126,73
900,230,700,220,450,670,2.0455,180,330,510,1.8333,170,280,450,1.6471,150,170,320,1.1333,120,120,240,1,110,100,210,0.90909,126,74
910,200,690,220,390,610,1.7727,170,290,460,1.7059,150,240,390,1.6,140,160,300,1.1429,110,120,230,1.0909,100,100,200,1,126,74
910,220,600,170,480,650,2.8235,150,340,490,2.2667,140,280,420,2,130,160,290,1.2308,100,120,220,1.2,90,90,180,1,125,74
920,310,660,180,450,630,2.5,160,320,480,2,150,260,410,1.7333,130,160,290,1.2308,110,120,230,1.0909,90,100,190,1.1111,125,73
930,260,660,200,510,710,2.55,160,340,500,2.125,160,290,450,1.8125,140,160,300,1.1429,120,110,230,0.91667,110,100,210,0.90909,126,73
870,270,640,190,600,790,3.1579,170,340,510,2,160,290,450,1.8125,130,170,300,1.3077,120,120,240,1,90,90,180,1,126,73
940,230,710,160,420,580,2.625,130,300,430,2.3077,130,230,360,1.7692,110,160,270,1.4545,80,130,210,1.625,80,100,180,1.25,126,74
910,230,680,250,460,710,1.84,200,340,540,1.7,180,280,460,1.5556,150,190,340,1.2667,130,130,260,1,110,120,230,1.0909,127,74
900,230,610,180,480,660,2.6667,160,330,490,2.0625,150,270,420,1.8,130,140,270,1.0769,120,100,220,0.83333,100,90,190,0.9,126,74
910,290,570,180,460,640,2.5556,150,330,480,2.2,150,270,420,1.8,130,150,280,1.1538,110,110,220,1,100,100,200,1,126,74
900,340,680,180,440,620,2.4444,160,320,480,2,150,260,410,1.7333,130,150,280,1.1538,110,110,220,1,100,90,190,0.9,125,73
910,220,660,180,440,620,2.4444,160,320,480,2,150,260,410,1.7333,120,170,290,1.4167,100,120,220,1.2,90,100,190,1.1111,126,73
910,250,710,190,520,710,2.7368,160,350,510,2.1875,150,290,440,1.9333,130,180,310,1.3846,110,120,230,1.0909,100,110,210,1.1,126,74
900,200,700,190,430,620,2.2632,170,320,490,1.8824,160,260,420,1.625,140,160,300,1.1429,110,120,230,1.0909,100,100,200,1,126,74
920,200,640,220,420,640,1.9091,190,320,510,1.6842,170,260,430,1.5294,140,170,310,1.2143,120,130,250,1.0833,110,110,220,1,125,73
900,280,650,190,660,850,3.4737,160,440,600,2.75,150,350,500,2.3333,130,210,340,1.6154,120,120,240,1,100,100,200,1,125,73
910,250,690,190,470,660,2.4737,160,330,490,2.0625,140,280,420,2,130,160,290,1.2308,110,110,220,1,100,90,190,0.9,125,73
920,220,680,190,450,640,2.3684,160,330,490,2.0625,150,290,440,1.9333,130,170,300,1.3077,110,120,230,1.0909,100,100,200,1,125,73
910,240,680,190,490,680,2.5789,170,330,500,1.9412,160,270,430,1.6875,130,160,290,1.2308,120,110,230,0.91667,100,90,190,0.9,126,73
900,230,680,200,460,660,2.3,170,340,510,2,160,280,440,1.75,140,170,310,1.2143,120,120,240,1,110,100,210,0.90909,126,73
910,220,700,240,480,720,2,180,360,540,2,170,320,490,1.8824,150,200,350,1.3333,120,130,250,1.0833,110,110,220,1,126,74
910,210,580,200,410,610,2.05,170,290,460,1.7059,160,240,400,1.5,130,150,280,1.1538,110,110,220,1,100,90,190,0.9,126,74
910,330,650,210,660,870,3.1429,170,400,570,2.3529,160,320,480,2,140,170,310,1.2143,120,120,240,1,100,100,200,1,125,74
930,260,660,190,440,630,2.3158,160,320,480,2,150,260,410,1.7333,130,150,280,1.1538,120,110,230,0.91667,100,90,190,0.9,125,73
890,270,600,200,410,610,2.05,180,300,480,1.6667,170,250,420,1.4706,150,140,290,0.93333,130,100,230,0.76923,110,70,180,0.63636,125,73
890,290,530,190,540,730,2.8421,170,370,540,2.1765,150,300,450,2,140,170,310,1.2143,120,120,240,1,100,100,200,1,125,73
890,360,680,190,390,580,2.0526,140,280,420,2,140,250,390,1.7857,130,180,310,1.3846,110,120,230,1.0909,100,110,210,1.1,126,74
910,210,680,230,430,660,1.8696,190,320,510,1.6842,160,270,430,1.6875,140,180,320,1.2857,110,130,240,1.1818,100,100,200,1,126,74
550,230,470,180,440,620,2.4444,150,310,460,2.0667,140,240,380,1.7143,130,150,280,1.1538,110,110,220,1,100,90,190,0.9,126,74
1260,80,940,20,950,970,47.5,20,760,780,38,20,660,680,33,20,530,550,26.5,20,470,490,23.5,20,90,110,4.5,125,73
910,320,680,180,460,640,2.5556,160,330,490,2.0625,150,270,420,1.8,130,160,290,1.2308,110,110,220,1,90,100,190,1.1111,125,73
920,230,680,180,470,650,2.6111,150,330,480,2.2,140,280,420,2,130,160,290,1.2308,110,120,230,1.0909,90,110,200,1.2222,125,73
910,240,660,190,670,860,3.5263,170,360,530,2.1176,160,300,460,1.875,140,170,310,1.2143,120,120,240,1,110,100,210,0.90909,125,73
900,250,690,270,440,710,1.6296,190,290,480,1.5263,170,230,400,1.3529,150,130,280,0.86667,130,80,210,0.61538,120,60,180,0.5,126,74
900,210,550,230,420,650,1.8261,190,310,500,1.6316,170,250,420,1.4706,150,150,300,1,120,120,240,1,110,100,210,0.90909,126,74
910,350,630,170,640,810,3.7647,150,430,580,2.8667,140,360,500,2.5714,130,160,290,1.2308,100,120,220,1.2,90,90,180,1,125,74
910,280,690,180,480,660,2.6667,160,340,500,2.125,150,290,440,1.9333,120,170,290,1.4167,110,120,230,1.0909,100,100,200,1,125,73
910,220,610,190,460,650,2.4211,160,340,500,2.125,150,280,430,1.8667,130,160,290,1.2308,120,110,230,0.91667,100,100,200,1,125,73
910,300,610,180,590,770,3.2778,160,360,520,2.25,150,290,440,1.9333,130,170,300,1.3077,110,120,230,1.0909,100,100,200,1,125,73
900,300,680,190,460,650,2.4211,170,330,500,1.9412,160,280,440,1.75,130,170,300,1.3077,120,120,240,1,100,100,200,1,126,74
900,220,690,240,470,710,1.9583,220,360,580,1.6364,170,310,480,1.8235,150,190,340,1.2667,120,140,260,1.1667,110,110,220,1,127,74
900,210,570,180,410,590,2.2778,160,290,450,1.8125,140,240,380,1.7143,130,160,290,1.2308,100,120,220,1.2,90,100,190,1.1111,126,74
910,330,650,170,660,830,3.8824,150,420,570,2.8,140,340,480,2.4286,120,200,320,1.6667,100,140,240,1.4,80,110,190,1.375,126,74
910,260,680,180,430,610,2.3889,150,310,460,2.0667,140,260,400,1.8571,120,160,280,1.3333,100,120,220,1.2,90,100,190,1.1111,126,74
920,230,680,180,440,620,2.4444,160,330,490,2.0625,150,280,430,1.8667,130,170,300,1.3077,110,130,240,1.1818,90,110,200,1.2222,126,73
910,240,650,190,650,840,3.4211,170,360,530,2.1176,160,300,460,1.875,130,170,300,1.3077,120,120,240,1,100,100,200,1,127,74
900,260,680,200,440,640,2.2,170,310,480,1.8235,160,260,420,1.625,140,150,290,1.0714,130,110,240,0.84615,110,90,200,0.81818,127,74
900,220,640,240,420,660,1.75,200,310,510,1.55,180,240,420,1.3333,150,150,300,1,130,120,250,0.92308,110,100,210,0.90909,126,74
900,260,640,180,450,630,2.5,160,310,470,1.9375,140,250,390,1.7857,130,150,280,1.1538,110,110,220,1,80,90,170,1.125,126,74
910,260,610,170,620,790,3.6471,140,420,560,3,140,340,480,2.4286,120,180,300,1.5,110,120,230,1.0909,100,110,210,1.1,125,73
920,300,690,170,450,620,2.6471,150,320,470,2.1333,140,260,400,1.8571,130,160,290,1.2308,110,130,240,1.1818,90,100,190,1.1111,125,73
900,230,670,190,400,590,2.1053,170,290,460,1.7059,160,240,400,1.5,130,150,280,1.1538,120,110,230,0.91667,100,90,190,0.9,125,73
910,230,670,180,490,670,2.7222,160,350,510,2.1875,150,290,440,1.9333,130,170,300,1.3077,110,120,230,1.0909,100,110,210,1.1,126,73
900,240,690,260,470,730,1.8077,180,360,540,2,170,330,500,1.9412,140,190,330,1.3571,120,130,250,1.0833,110,110,220,1,126,73
910,210,580,230,420,650,1.8261,170,310,480,1.8235,150,250,400,1.6667,130,170,300,1.3077,110,130,240,1.1818,90,110,200,1.2222,125,73
900,330,570,180,460,640,2.5556,150,340,490,2.2667,150,260,410,1.7333,120,150,270,1.25,110,110,220,1,90,100,190,1.1111,124,73
920,330,670,320,680,1000,2.125,170,420,590,2.4706,150,350,500,2.3333,130,200,330,1.5385,110,130,240,1.1818,90,110,200,1.2222,124,73
910,250,650,180,450,630,2.5,170,320,490,1.8824,150,260,410,1.7333,140,160,300,1.1429,110,120,230,1.0909,100,90,190,0.9,124,73
900,260,660,200,440,640,2.2,170,310,480,1.8235,170,260,430,1.5294,140,150,290,1.0714,130,110,240,0.84615,110,90,200,0.81818,125,73
910,240,680,190,430,620,2.2632,170,320,490,1.8824,150,260,410,1.7333,140,160,300,1.1429,120,120,240,1,110,100,210,0.90909,125,73
900,230,690,250,430,680,1.72,250,300,550,1.2,200,250,450,1.25,170,160,330,0.94118,130,130,260,1,130,110,240,0.84615,125,73
910,210,590,180,420,600,2.3333,150,310,460,2.0667,150,230,380,1.5333,130,140,270,1.0769,110,110,220,1,100,90,190,0.9,125,73
900,320,360,180,370,550,2.0556,160,320,480,2,150,270,420,1.8,130,160,290,1.2308,110,110,220,1,100,90,190,0.9,123,72
920,540,700,230,460,690,2,160,340,500,2.125,150,260,410,1.7333,130,160,290,1.2308,110,120,230,1.0909,90,90,180,1,123,72
900,220,680,190,460,650,2.4211,170,330,500,1.9412,160,260,420,1.625,130,160,290,1.2308,120,110,230,0.91667,100,100,200,1,124,72
910,220,680,180,690,870,3.8333,160,360,520,2.25,150,300,450,2,130,180,310,1.3846,100,130,230,1.3,90,110,200,1.2222,124,72
910,230,700,180,440,620,2.4444,170,320,490,1.8824,150,260,410,1.7333,140,170,310,1.2143,110,130,240,1.1818,90,110,200,1.2222,124,72
900,210,670,230,420,650,1.8261,230,310,540,1.3478,180,260,440,1.4444,160,170,330,1.0625,140,130,270,0.92857,120,100,220,0.83333,124,72
900,230,660,180,480,660,2.6667,150,340,490,2.2667,140,280,420,2,120,160,280,1.3333,110,120,230,1.0909,90,100,190,1.1111,123,72
910,240,650,180,660,840,3.6667,160,440,600,2.75,140,380,520,2.7143,120,230,350,1.9167,110,120,230,1.0909,90,100,190,1.1111,122,72
910,260,640,180,430,610,2.3889,150,310,460,2.0667,150,260,410,1.7333,120,150,270,1.25,110,110,220,1,100,100,200,1,122,72
910,270,630,180,420,600,2.3333,160,340,500,2.125,140,280,420,2,130,160,290,1.2308,110,110,220,1,100,100,200,1,122,72
910,280,680,190,460,650,2.4211,170,320,490,1.8824,160,270,430,1.6875,130,170,300,1.3077,120,120,240,1,100,100,200,1,123,72
900,230,690,250,230,480,0.92,190,230,420,1.2105,170,230,400,1.3529,150,190,340,1.2667,120,130,250,1.0833,120,100,220,0.83333,123,72
910,210,580,190,410,600,2.1579,160,290,450,1.8125,140,240,380,1.7143,130,160,290,1.2308,110,110,220,1,100,100,200,1,123,72
910,330,600,180,480,660,2.6667,160,330,490,2.0625,150,270,420,1.8,130,160,290,1.2308,110,110,220,1,100,90,190,0.9,122,72
910,310,660,180,620,800,3.4444,160,360,520,2.25,140,290,430,2.0714,120,170,290,1.4167,80,120,200,1.5,60,100,160,1.6667,122,72
910,250,570,190,420,610,2.2105,160,310,470,1.9375,150,250,400,1.6667,130,150,280,1.1538,110,110,220,1,100,100,200,1,122,72
910,340,660,190,400,590,2.1053,170,260,430,1.5294,160,210,370,1.3125,140,160,300,1.1429,110,110,220,1,110,100,210,0.90909,122,72
890,250,650,190,440,630,2.3158,170,310,480,1.8235,160,250,410,1.5625,140,160,300,1.1429,120,120,240,1,110,100,210,0.90909,123,72
920,240,640,260,430,690,1.6538,190,310,500,1.6316,170,260,430,1.5294,150,170,320,1.1333,120,130,250,1.0833,100,110,210,1.1,123,72
900,280,630,180,470,650,2.6111,160,310,470,1.9375,150,250,400,1.6667,130,150,280,1.1538,110,110,220,1,100,90,190,0.9,123,72
910,270,630,170,470,640,2.7647,150,340,490,2.2667,140,270,410,1.9286,120,160,280,1.3333,100,120,220,1.2,90,100,190,1.1111,122,72
920,280,690,220,700,920,3.1818,160,390,550,2.4375,150,310,460,2.0667,130,180,310,1.3846,120,120,240,1,100,110,210,1.1,122,72
880,230,570,190,450,640,2.3684,160,310,470,1.9375,150,270,420,1.8,130,150,280,1.1538,120,110,230,0.91667,100,90,190,0.9,122,72
930,310,710,160,420,580,2.625,140,290,430,2.0714,130,220,350,1.6923,110,160,270,1.4545,90,120,210,1.3333,80,100,180,1.25,122,72
890,220,700,190,460,650,2.4211,160,340,500,2.125,160,280,440,1.75,130,180,310,1.3846,120,130,250,1.0833,100,110,210,1.1,123,72
910,190,650,210,430,640,2.0476,210,300,510,1.4286,170,250,420,1.4706,140,190,330,1.3571,110,140,250,1.2727,90,130,220,1.4444,123,72
910,260,690,170,510,680,3,150,340,490,2.2667,140,270,410,1.9286,120,170,290,1.4167,100,120,220,1.2,80,100,180,1.25,122,72
910,220,450,180,460,640,2.5556,150,330,480,2.2,150,270,420,1.8,120,160,280,1.3333,110,110,220,1,90,100,190,1.1111,122,72
910,460,670,450,680,1130,1.5111,180,390,570,2.1667,160,330,490,2.0625,140,200,340,1.4286,120,120,240,1,100,110,210,1.1,122,72
910,240,710,180,510,690,2.8333,170,330,500,1.9412,150,270,420,1.8,130,170,300,1.3077,110,120,230,1.0909,100,100,200,1,122,72
900,200,680,190,420,610,2.2105,170,300,470,1.7647,160,240,400,1.5,140,150,290,1.0714,120,110,230,0.91667,110,100,210,0.90909,123,72
910,220,690,240,460,700,1.9167,190,350,540,1.8421,180,300,480,1.6667,150,200,350,1.3333,130,130,260,1,110,120,230,1.0909,123,72
900,220,600,180,400,580,2.2222,160,260,420,1.625,150,200,350,1.3333,130,130,260,1,120,90,210,0.75,100,70,170,0.7,123,72
910,300,690,180,470,650,2.6111,150,340,490,2.2667,150,270,420,1.8,130,160,290,1.2308,120,110,230,0.91667,100,100,200,1,122,72
910,220,670,180,560,740,3.1111,150,380,530,2.5333,150,320,470,2.1333,130,160,290,1.2308,110,120,230,1.0909,100,100,200,1,122,72
910,240,660,180,430,610,2.3889,160,310,470,1.9375,150,250,400,1.6667,130,160,290,1.2308,110,120,230,1.0909,100,90,190,0.9,123,72
910,250,680,190,490,680,2.5789,160,360,520,2.25,160,290,450,1.8125,130,170,300,1.3077,110,130,240,1.1818,100,100,200,1,124,72
910,230,700,190,450,640,2.3684,160,320,480,2,160,260,420,1.625,140,170,310,1.2143,110,120,230,1.0909,100,110,210,1.1,124,72
910,210,650,230,430,660,1.8696,200,310,510,1.55,180,250,430,1.3889,150,160,310,1.0667,130,120,250,0.92308,110,100,210,0.90909,123,72
910,260,550,200,560,760,2.8,170,390,560,2.2941,160,320,480,2,130,180,310,1.3846,120,120,240,1,100,100,200,1,123,72
970,360,620,180,440,620,2.4444,160,310,470,1.9375,150,250,400,1.6667,130,150,280,1.1538,110,110,220,1,100,90,190,0.9,123,72
850,350,570,250,380,630,1.52,220,270,490,1.2273,210,220,430,1.0476,190,120,310,0.63158,180,70,250,0.38889,160,50,210,0.3125,122,72
910,280,680,180,480,660,2.6667,150,330,480,2.2,140,270,410,1.9286,130,160,290,1.2308,100,120,220,1.2,100,100,200,1,122,72
910,230,680,180,410,590,2.2778,160,290,450,1.8125,150,270,420,1.8,130,160,290,1.2308,110,120,230,1.0909,100,100,200,1,123,72
900,230,690,250,480,730,1.92,180,360,540,2,160,300,460,1.875,150,180,330,1.2,120,130,250,1.0833,110,100,210,0.90909,123,72
900,210,500,220,400,620,1.8182,170,290,460,1.7059,150,230,380,1.5333,140,160,300,1.1429,110,120,230,1.0909,100,100,200,1,122,72
900,400,590,190,600,790,3.1579,160,380,540,2.375,150,300,450,2,120,170,290,1.4167,110,120,230,1.0909,90,100,190,1.1111,121,71
920,310,690,170,450,620,2.6471,140,320,460,2.2857,140,270,410,1.9286,120,160,280,1.3333,100,120,220,1.2,90,110,200,1.2222,121,71
910,230,650,180,470,650,2.6111,160,330,490,2.0625,150,270,420,1.8,140,160,300,1.1429,110,120,230,1.0909,100,100,200,1,122,71
910,260,660,190,670,860,3.5263,170,360,530,2.1176,160,290,450,1.8125,140,160,300,1.1429,120,120,240,1,100,100,200,1,122,71
900,250,680,210,380,590,1.8095,180,260,440,1.4444,160,190,350,1.1875,150,130,280,0.86667,130,90,220,0.69231,110,80,190,0.72727,122,71
900,220,640,240,440,680,1.8333,190,320,510,1.6842,180,270,450,1.5,150,180,330,1.2,130,120,250,0.92308,110,110,220,1,122,71
900,260,540,180,550,730,3.0556,160,330,490,2.0625,150,240,390,1.6,120,150,270,1.25,110,110,220,1,100,100,200,1,122,72
1690,360,1020,180,800,980,4.4444,150,470,620,3.1333,140,300,440,2.1429,120,170,290,1.4167,100,120,220,1.2,90,100,190,1.1111,122,71
1950,670,640,230,570,800,2.4783,160,370,530,2.3125,160,300,460,1.875,130,180,310,1.3846,110,140,250,1.2727,100,110,210,1.1,121,71
930,1310,720,1170,480,1650,0.41026,870,340,1210,0.3908,760,280,1040,0.36842,630,180,810,0.28571,120,130,250,1.0833,100,110,210,1.1,122,71
1830,210,650,230,430,660,1.8696,190,310,500,1.6316,170,260,430,1.5294,140,170,310,1.2143,120,130,250,1.0833,110,110,220,1,122,72
920,1180,620,1090,630,1720,0.57798,710,470,1180,0.66197,600,370,970,0.61667,400,210,610,0.525,290,130,420,0.44828,230,110,340,0.47826,122,72
910,300,700,180,460,640,2.5556,150,360,510,2.4,150,280,430,1.8667,120,170,290,1.4167,100,120,220,1.2,90,110,200,1.2222,121,70
930,210,690,170,560,730,3.2941,150,360,510,2.4,140,290,430,2.0714,120,170,290,1.4167,90,130,220,1.4444,90,110,200,1.2222,121,70
910,240,670,190,470,660,2.4737,170,330,500,1.9412,160,270,430,1.6875,140,160,300,1.1429,120,120,240,1,110,100,210,0.90909,122,70
900,240,690,260,450,710,1.7308,200,350,550,1.75,180,300,480,1.6667,160,190,350,1.1875,130,130,260,1,120,110,230,0.91667,122,70
910,210,540,180,410,590,2.2778,150,300,450,2,150,230,380,1.5333,130,150,280,1.1538,110,110,220,1,100,100,200,1,121,70
910,370,690,190,700,890,3.6842,160,410,570,2.5625,150,330,480,2.2,130,190,320,1.4615,110,120,230,1.0909,100,110,210,1.1,120,70
970,220,680,170,450,620,2.6471,150,320,470,2.1333,140,260,400,1.8571,130,160,290,1.2308,100,120,220,1.2,100,100,200,1,120,70
860,290,630,230,380,610,1.6522,210,270,480,1.2857,200,220,420,1.1,180,120,300,0.66667,160,80,240,0.5,140,60,200,0.42857,120,70
920,230,690,180,700,880,3.8889,160,370,530,2.3125,150,300,450,2,130,180,310,1.3846,110,130,240,1.1818,90,100,190,1.1111,120,70
900,230,690,200,400,600,2,170,280,450,1.6471,170,250,420,1.4706,140,170,310,1.2143,130,120,250,0.92308,110,100,210,0.90909,121,71
910,210,670,230,430,660,1.8696,200,310,510,1.55,180,260,440,1.4444,150,160,310,1.0667,130,120,250,0.92308,110,110,220,1,121,71
900,240,480,180,490,670,2.7222,160,330,490,2.0625,150,260,410,1.7333,130,150,280,1.1538,110,110,220,1,100,90,190,0.9,120,71
920,420,650,270,660,930,2.4444,160,390,550,2.4375,160,310,470,1.9375,130,180,310,1.3846,110,120,230,1.0909,90,110,200,1.2222,120,70
910,270,690,190,430,620,2.2632,150,310,460,2.0667,150,250,400,1.6667,130,150,280,1.1538,120,110,230,0.91667,100,100,200,1,120,70
910,220,680,170,410,580,2.4118,150,290,440,1.9333,140,230,370,1.6429,130,150,280,1.1538,100,110,210,1.1,100,90,190,0.9,120,70
900,230,670,180,500,680,2.7778,160,340,500,2.125,150,280,430,1.8667,130,170,300,1.3077,110,130,240,1.1818,100,100,200,1,121,71
910,230,700,250,490,740,1.96,190,350,540,1.8421,170,300,470,1.7647,140,170,310,1.2143,120,120,240,1,110,90,200,0.81818,121,71
900,210,640,190,410,600,2.1579,160,280,440,1.75,140,230,370,1.6429,130,150,280,1.1538,100,120,220,1.2,90,100,190,1.1111,121,71
900,260,650,170,660,830,3.8824,150,490,640,3.2667,140,400,540,2.8571,120,160,280,1.3333,100,110,210,1.1,80,100,180,1.25,121,71
920,250,650,170,450,620,2.6471,150,320,470,2.1333,140,250,390,1.7857,130,150,280,1.1538,100,110,210,1.1,100,90,190,0.9,120,71
910,270,640,200,480,680,2.4,170,330,500,1.9412,160,270,430,1.6875,140,160,300,1.1429,120,120,240,1,100,90,190,0.9,120,71
910,270,680,190,530,720,2.7895,170,340,510,2,160,280,440,1.75,130,170,300,1.3077,120,120,240,1,100,90,190,0.9,121,71
900,230,680,190,440,630,2.3158,170,310,480,1.8235,160,260,420,1.625,140,160,300,1.1429,120,120,240,1,110,100,210,0.90909,121,71
920,220,700,240,440,680,1.8333,240,320,560,1.3333,170,270,440,1.5882,150,180,330,1.2,120,130,250,1.0833,100,120,220,1.2,121,71
910,220,560,190,430,620,2.2632,160,300,460,1.875,150,230,380,1.5333,130,150,280,1.1538,110,110,220,1,100,90,190,0.9,121,71
920,350,630,170,640,810,3.7647,160,420,580,2.625,140,350,490,2.5,130,210,340,1.6154,100,130,230,1.3,90,110,200,1.2222,121,71
910,290,660,190,440,630,2.3158,170,310,480,1.8235,160,240,400,1.5,130,150,280,1.1538,120,110,230,0.91667,100,90,190,0.9,121,71
920,250,540,190,420,610,2.2105,160,310,470,1.9375,160,250,410,1.5625,130,160,290,1.2308,120,120,240,1,100,90,190,0.9,121,71
900,380,670,200,680,880,3.4,170,360,530,2.1176,160,290,450,1.8125,140,170,310,1.2143,120,120,240,1,110,100,210,0.90909,122,72
910,230,700,230,490,720,2.1304,180,360,540,2,160,300,460,1.875,140,190,330,1.3571,120,130,250,1.0833,110,110,220,1,122,72
910,210,570,230,410,640,1.7826,180,290,470,1.6111,170,240,410,1.4118,140,160,300,1.1429,120,130,250,1.0833,110,100,210,0.90909,122,71
920,340,570,170,500,670,2.9412,150,350,500,2.3333,140,280,420,2,120,160,280,1.3333,100,120,220,1.2,80,100,180,1.25,121,71
920,350,650,210,660,870,3.1429,170,410,580,2.4118,160,340,500,2.125,140,180,320,1.2857,120,120,240,1,100,100,200,1,121,71
910,270,660,190,430,620,2.2632,160,310,470,1.9375,160,250,410,1.5625,130,150,280,1.1538,120,110,230,0.91667,100,90,190,0.9,121,71
920,250,690,190,430,620,2.2632,150,300,450,2,150,230,380,1.5333,130,150,280,1.1538,120,110,230,0.91667,100,90,190,0.9,122,71
910,230,690,190,470,660,2.4737,170,320,490,1.8824,160,270,430,1.6875,140,150,290,1.0714,120,110,230,0.91667,110,100,210,0.90909,122,71
910,220,690,240,440,680,1.8333,240,320,560,1.3333,190,270,460,1.4211,160,210,370,1.3125,140,150,290,1.0714,120,120,240,1,123,72
900,220,560,190,400,590,2.1053,170,290,460,1.7059,150,220,370,1.4667,130,140,270,1.0769,120,110,230,0.91667,100,90,190,0.9,123,72
930,340,450,170,460,630,2.7059,150,340,490,2.2667,140,270,410,1.9286,120,170,290,1.4167,100,120,220,1.2,90,110,200,1.2222,121,71
900,480,670,340,650,990,1.9118,170,170,340,1,160,170,330,1.0625,140,170,310,1.2143,120,120,240,1,100,100,200,1,121,71
920,230,710,180,450,630,2.5,150,320,470,2.1333,150,260,410,1.7333,120,160,280,1.3333,100,120,220,1.2,100,100,200,1,121,71
910,210,680,190,670,860,3.5263,170,340,510,2,150,270,420,1.8,140,160,300,1.1429,120,120,240,1,100,100,200,1,121,71
890,230,690,200,440,640,2.2,170,320,490,1.8824,160,260,420,1.625,140,160,300,1.1429,130,120,250,0.92308,110,90,200,0.81818,122,71
920,200,640,220,430,650,1.9545,220,320,540,1.4545,180,250,430,1.3889,140,160,300,1.1429,120,110,230,0.91667,100,90,190,0.9,122,71
910,280,680,180,480,660,2.6667,160,330,490,2.0625,140,260,400,1.8571,130,160,290,1.2308,110,110,220,1,110,90,200,0.81818,121,71
900,230,680,180,690,870,3.8333,160,460,620,2.875,150,370,520,2.4667,130,150,280,1.1538,110,110,220,1,100,90,190,0.9,121,71
910,220,700,170,450,620,2.6471,150,320,470,2.1333,140,260,400,1.8571,120,160,280,1.3333,100,120,220,1.2,90,110,200,1.2222,121,71
920,210,560,180,470,650,2.6111,150,350,500,2.3333,140,290,430,2.0714,130,170,300,1.3077,110,130,240,1.1818,90,110,200,1.2222,121,71
900,360,670,190,480,670,2.5263,170,330,500,1.9412,160,280,440,1.75,140,170,310,1.2143,120,120,240,1,100,100,200,1,122,71
900,230,710,250,500,750,2,180,380,560,2.1111,170,320,490,1.8824,140,200,340,1.4286,120,140,260,1.1667,110,110,220,1,122,71
920,190,560,210,420,630,2,160,320,480,2,140,240,380,1.7143,120,160,280,1.3333,100,120,220,1.2,100,110,210,1.1,122,71
940,360,610,190,460,650,2.4211,160,320,480,2,140,260,400,1.8571,130,160,290,1.2308,110,110,220,1,100,90,190,0.9,121,71
880,330,600,210,610,820,2.9048,180,360,540,2,170,290,460,1.7059,150,160,310,1.0667,130,90,220,0.69231,120,80,200,0.66667,120,71
910,280,670,180,430,610,2.3889,160,300,460,1.875,150,240,390,1.6,130,150,280,1.1538,110,110,220,1,100,90,190,0.9,120,71
900,240,570,190,420,610,2.2105,160,280,440,1.75,160,250,410,1.5625,140,160,300,1.1429,110,110,220,1,110,100,210,0.90909,120,71
900,330,690,180,440,620,2.4444,160,320,480,2,150,260,410,1.7333,130,170,300,1.3077,120,120,240,1,100,100,200,1,121,71
910,210,600,230,410,640,1.7826,180,300,480,1.6667,150,260,410,1.7333,140,170,310,1.2143,120,130,250,1.0833,110,110,220,1,120,71
910,310,590,180,420,600,2.3333,150,300,450,2,140,240,380,1.7143,130,160,290,1.2308,100,120,220,1.2,90,100,190,1.1111,120,71
920,320,680,180,470,650,2.6111,160,340,500,2.125,150,280,430,1.8667,130,170,300,1.3077,110,120,230,1.0909,90,100,190,1.1111,120,71
910,240,660,190,470,660,2.4737,170,330,500,1.9412,150,270,420,1.8,130,160,290,1.2308,110,130,240,1.1818,100,100,200,1,120,71
910,250,550,190,430,620,2.2632,170,300,470,1.7647,150,240,390,1.6,130,150,280,1.1538,120,110,230,0.91667,100,100,200,1,120,71
910,360,680,200,420,620,2.1,170,280,450,1.6471,150,220,370,1.4667,140,140,280,1,110,90,200,0.81818,110,70,180,0.63636,120,71
900,230,690,200,460,660,2.3,170,310,480,1.8235,160,250,410,1.5625,140,160,300,1.1429,120,110,230,0.91667,110,100,210,0.90909,121,71
900,210,610,230,410,640,1.7826,210,290,500,1.381,180,270,450,1.5,150,170,320,1.1333,120,120,240,1,110,100,210,0.90909,121,71
910,290,580,180,470,650,2.6111,150,320,470,2.1333,140,260,400,1.8571,130,160,290,1.2308,100,120,220,1.2,100,100,200,1,120,71
910,330,500,180,450,630,2.5,160,330,490,2.0625,150,260,410,1.7333,130,160,290,1.2308,110,110,220,1,100,90,190,0.9,120,71
900,410,680,400,690,1090,1.725,180,400,580,2.2222,160,330,490,2.0625,140,190,330,1.3571,120,130,250,1.0833,100,100,200,1,121,71
900,220,680,180,510,690,2.8333,140,330,470,2.3571,140,270,410,1.9286,130,160,290,1.2308,110,120,230,1.0909,90,100,190,1.1111,121,71
900,220,690,190,410,600,2.1579,150,290,440,1.9333,140,230,370,1.6429,120,160,280,1.3333,100,130,230,1.3,90,100,190,1.1111,121,71
920,210,690,230,480,710,2.087,180,360,540,2,160,310,470,1.9375,140,200,340,1.4286,110,150,260,1.3636,100,120,220,1.2,122,71
900,230,570,180,410,590,2.2778,160,280,440,1.75,150,220,370,1.4667,130,140,270,1.0769,110,100,210,0.90909,100,80,180,0.8,121,71
910,330,660,170,470,640,2.7647,160,340,500,2.125,140,270,410,1.9286,120,160,280,1.3333,100,120,220,1.2,90,100,190,1.1111,121,71
920,250,660,170,520,690,3.0588,150,370,520,2.4667,140,250,390,1.7857,120,160,280,1.3333,110,120,230,1.0909,90,100,190,1.1111,120,71
900,260,630,190,460,650,2.4211,160,320,480,2,150,260,410,1.7333,130,160,290,1.2308,110,110,220,1,110,100,210,0.90909,121,71
910,270,680,180,540,720,3,160,360,520,2.25,150,280,430,1.8667,130,170,300,1.3077,110,130,240,1.1818,90,100,190,1.1111,121,71
900,230,690,190,410,600,2.1579,160,290,450,1.8125,160,240,400,1.5,130,160,290,1.2308,120,120,240,1,110,100,210,0.90909,121,71
910,210,690,230,420,650,1.8261,190,310,500,1.6316,170,250,420,1.4706,140,170,310,1.2143,120,120,240,1,110,110,220,1,121,71
910,220,660,180,580,760,3.2222,160,350,510,2.1875,150,280,430,1.8667,130,160,290,1.2308,120,110,230,0.91667,100,90,190,0.9,120,71
900,250,590,180,460,640,2.5556,160,320,480,2,150,260,410,1.7333,120,150,270,1.25,110,110,220,1,90,90,180,1,120,71
900,310,680,180,470,650,2.6111,150,360,510,2.4,150,290,440,1.9333,130,200,330,1.5385,100,140,240,1.4,90,100,190,1.1111,120,71
900,220,690,170,460,630,2.7059,160,310,470,1.9375,140,250,390,1.7857,120,160,280,1.3333,110,120,230,1.0909,90,100,190,1.1111,120,71
910,210,690,180,450,630,2.5,150,360,510,2.4,140,300,440,2.1429,120,200,320,1.6667,100,140,240,1.4,90,120,210,1.3333,121,71
890,220,680,200,470,670,2.35,170,340,510,2,160,290,450,1.8125,130,170,300,1.3077,120,130,250,1.0833,100,110,210,1.1,121,71
1810,210,590,230,440,670,1.913,170,310,480,1.8235,150,240,390,1.6,130,160,290,1.2308,100,130,230,1.3,100,110,210,1.1,120,71
910,1220,670,1110,680,1790,0.61261,770,470,1240,0.61039,650,360,1010,0.55385,140,220,360,1.5714,110,140,250,1.2727,100,110,210,1.1,120,71
910,240,660,180,460,640,2.5556,150,330,480,2.2,140,270,410,1.9286,110,160,270,1.4545,90,120,210,1.3333,80,100,180,1.25,120,71
890,250,650,190,600,790,3.1579,170,340,510,2,160,270,430,1.6875,130,150,280,1.1538,110,110,220,1,100,90,190,0.9,120,71
910,240,690,200,390,590,1.95,170,250,420,1.4706,160,200,360,1.25,140,180,320,1.2857,120,130,250,1.0833,100,110,210,1.1,121,71
900,220,690,240,460,700,1.9167,200,340,540,1.7,170,290,460,1.7059,150,190,340,1.2667,130,130,260,1,110,110,220,1,121,71
900,210,620,180,420,600,2.3333,150,270,420,1.8,150,220,370,1.4667,130,140,270,1.0769,120,110,230,0.91667,100,90,190,0.9,121,71
910,280,640,180,470,650,2.6111,160,320,480,2,140,260,400,1.8571,130,150,280,1.1538,110,110,220,1,90,90,180,1,120,71
900,270,620,190,450,640,2.3684,160,310,470,1.9375,160,260,420,1.625,130,150,280,1.1538,120,110,230,0.91667,100,90,190,0.9,120,71
910,280,670,180,450,630,2.5,160,310,470,1.9375,150,250,400,1.6667,130,160,290,1.2308,110,120,230,1.0909,100,100,200,1,120,71
880,240,670,190,680,870,3.5789,170,350,520,2.0588,160,280,440,1.75,140,160,300,1.1429,120,120,240,1,100,100,200,1,121,71
920,210,710,180,410,590,2.2778,150,280,430,1.8667,140,210,350,1.5,120,150,270,1.25,100,110,210,1.1,90,80,170,0.88889,121,71
910,210,600,230,420,650,1.8261,190,310,500,1.6316,180,250,430,1.3889,140,170,310,1.2143,130,130,260,1,110,110,220,1,121,71
900,310,580,180,590,770,3.2778,160,400,560,2.5,150,320,470,2.1333,130,150,280,1.1538,110,110,220,1,90,90,180,1,121,71
920,320,600,170,470,640,2.7647,150,320,470,2.1333,140,250,390,1.7857,120,160,280,1.3333,100,120,220,1.2,90,100,190,1.1111,120,71
900,320,670,180,470,650,2.6111,160,320,480,2,150,270,420,1.8,140,150,290,1.0714,100,110,210,1.1,100,100,200,1,120,71
910,230,680,170,460,630,2.7059,160,320,480,2,140,260,400,1.8571,120,160,280,1.3333,100,120,220,1.2,90,100,190,1.1111,120,71
910,230,710,190,470,660,2.4737,160,320,480,2,150,270,420,1.8,130,170,300,1.3077,110,120,230,1.0909,100,110,210,1.1,121,71
900,200,690,220,480,700,2.1818,180,350,530,1.9444,170,300,470,1.7647,150,200,350,1.3333,120,130,250,1.0833,110,110,220,1,122,71
900,210,630,230,410,640,1.7826,170,300,470,1.7647,160,230,390,1.4375,130,150,280,1.1538,120,120,240,1,100,100,200,1,121,71
910,270,650,180,660,840,3.6667,150,440,590,2.9333,140,350,490,2.5,120,200,320,1.6667,100,130,230,1.3,90,110,200,1.2222,121,71
910,260,640,180,450,630,2.5,150,330,480,2.2,140,260,400,1.8571,130,160,290,1.2308,110,120,230,1.0909,90,90,180,1,120,71
900,270,690,200,430,630,2.15,160,320,480,2,160,270,430,1.6875,130,160,290,1.2308,120,110,230,0.91667,110,100,210,0.90909,120,71
910,210,680,180,510,690,2.8333,150,360,510,2.4,150,280,430,1.8667,130,170,300,1.3077,110,120,230,1.0909,100,110,210,1.1,121,71
900,230,680,190,460,650,2.4211,170,320,490,1.8824,160,260,420,1.625,140,160,300,1.1429,120,120,240,1,100,100,200,1,121,71
900,220,680,240,440,680,1.8333,190,330,520,1.7368,170,270,440,1.5882,150,180,330,1.2,120,130,250,1.0833,110,110,220,1,120,71
900,220,610,170,410,580,2.4118,150,290,440,1.9333,140,230,370,1.6429,130,150,280,1.1538,110,110,220,1,100,90,190,0.9,120,71
900,290,690,180,700,880,3.8889,150,370,520,2.4667,150,300,450,2,130,170,300,1.3077,110,120,230,1.0909,100,100,200,1,120,71
910,210,690,170,450,620,2.6471,150,330,480,2.2,140,260,400,1.8571,120,170,290,1.4167,100,130,230,1.3,90,100,190,1.1111,119,71
900,220,660,180,420,600,2.3333,160,300,460,1.875,150,260,410,1.7333,130,170,300,1.3077,110,130,240,1.1818,90,100,190,1.1111,119,70
900,240,680,180,690,870,3.8333,160,360,520,2.25,140,300,440,2.1429,130,180,310,1.3846,100,130,230,1.3,100,110,210,1.1,120,71
900,220,700,190,410,600,2.1579,160,340,500,2.125,150,280,430,1.8667,130,180,310,1.3846,110,140,250,1.2727,90,110,200,1.2222,120,71
910,200,680,220,420,640,1.9091,180,310,490,1.7222,160,250,410,1.5625,140,170,310,1.2143,110,130,240,1.1818,100,120,220,1.2,120,71
900,230,580,180,470,650,2.6111,160,320,480,2,150,250,400,1.6667,130,150,280,1.1538,110,110,220,1,90,90,180,1,119,71
910,320,670,310,680,990,2.1935,160,410,570,2.5625,150,340,490,2.2667,130,190,320,1.4615,110,130,240,1.1818,90,110,200,1.2222,119,71
900,240,670,180,440,620,2.4444,160,310,470,1.9375,150,240,390,1.6,130,150,280,1.1538,100,110,210,1.1,100,100,200,1,119,71
910,230,660,180,440,620,2.4444,160,300,460,1.875,140,250,390,1.7857,130,160,290,1.2308,100,120,220,1.2,80,100,180,1.25,119,71
900,250,660,200,480,680,2.4,170,330,500,1.9412,160,270,430,1.6875,140,160,300,1.1429,120,110,230,0.91667,90,100,190,1.1111,120,71
890,240,680,260,450,710,1.7308,200,320,520,1.6,180,260,440,1.4444,150,170,320,1.1333,130,130,260,1,120,110,230,0.91667,121,71
910,210,640,210,410,620,1.9524,160,300,460,1.875,150,240,390,1.6,130,160,290,1.2308,110,120,230,1.0909,100,100,200,1,119,71
890,270,400,180,410,590,2.2778,170,330,500,1.9412,150,270,420,1.8,130,150,280,1.1538,110,110,220,1,100,90,190,0.9,119,71
910,490,640,260,640,900,2.4615,170,370,540,2.1765,150,300,450,2,130,150,280,1.1538,110,120,230,1.0909,110,100,210,0.90909,119,70
900,270,690,200,450,650,2.25,170,320,490,1.8824,160,250,410,1.5625,130,150,280,1.1538,120,110,230,0.91667,100,90,190,0.9,119,70
900,210,680,190,620,810,3.2632,160,340,500,2.125,160,270,430,1.6875,130,170,300,1.3077,110,120,230,1.0909,110,100,210,0.90909,120,71
890,220,480,180,450,630,2.5,170,330,500,1.9412,160,270,430,1.6875,140,160,300,1.1429,120,120,240,1,110,90,200,0.81818,120,71
900,410,640,430,430,860,1,430,310,740,0.72093,400,240,640,0.6,400,160,560,0.4,400,120,520,0.3,400,90,490,0.225,120,71
890,260,630,170,430,600,2.5294,160,300,460,1.875,150,250,400,1.6667,130,150,280,1.1538,120,110,230,0.91667,100,100,200,1,120,71
900,260,630,170,640,810,3.7647,150,380,530,2.5333,140,310,450,2.2143,120,150,270,1.25,100,110,210,1.1,100,90,190,0.9,120,71
900,270,690,190,430,620,2.2632,150,310,460,2.0667,150,250,400,1.6667,130,150,280,1.1538,110,110,220,1,100,100,200,1,119,71
900,210,610,180,430,610,2.3889,160,300,460,1.875,150,250,400,1.6667,130,160,290,1.2308,110,120,230,1.0909,90,90,180,1,119,70
900,290,670,190,650,840,3.4211,160,350,510,2.1875,150,270,420,1.8,140,160,300,1.1429,120,110,230,0.91667,110,100,210,0.90909,120,71
890,230,680,200,430,630,2.15,170,290,460,1.7059,170,240,410,1.4118,140,160,300,1.1429,130,110,240,0.84615,110,90,200,0.81818,121,71
900,210,610,230,410,640,1.7826,230,300,530,1.3043,190,240,430,1.2632,140,160,300,1.1429,130,120,250,0.92308,110,100,210,0.90909,120,71
910,290,620,170,480,650,2.8235,160,330,490,2.0625,140,270,410,1.9286,130,170,300,1.3077,110,120,230,1.0909,90,100,190,1.1111,120,71
900,290,610,180,620,800,3.4444,150,450,600,3,150,380,530,2.5333,130,230,360,1.7692,110,150,260,1.3636,100,120,220,1.2,120,71
910,290,690,170,440,610,2.5882,150,310,460,2.0667,140,250,390,1.7857,130,160,290,1.2308,110,120,230,1.0909,90,100,190,1.1111,119,71
890,220,670,180,390,570,2.1667,160,320,480,2,150,260,410,1.7333,130,160,290,1.2308,110,120,230,1.0909,100,100,200,1,119,71
910,220,690,180,480,660,2.6667,150,330,480,2.2,140,280,420,2,130,170,300,1.3077,100,130,230,1.3,90,110,200,1.2222,120,71
900,220,690,240,510,750,2.125,180,380,560,2.1111,170,320,490,1.8824,140,190,330,1.3571,120,140,260,1.1667,110,110,220,1,121,71
910,210,580,190,410,600,2.1579,160,290,450,1.8125,150,240,390,1.6,130,160,290,1.2308,100,120,220,1.2,100,110,210,1.1,121,71
910,330,570,170,470,640,2.7647,150,330,480,2.2,140,260,400,1.8571,130,160,290,1.2308,100,120,220,1.2,100,100,200,1,120,71
900,340,640,170,650,820,3.8235,150,370,520,2.4667,140,300,440,2.1429,120,170,290,1.4167,110,120,230,1.0909,90,100,190,1.1111,120,71
920,260,660,180,420,600,2.3333,150,300,450,2,140,240,380,1.7143,120,150,270,1.25,100,120,220,1.2,90,100,190,1.1111,120,71
900,260,530,190,400,590,2.1053,170,270,440,1.5882,160,210,370,1.3125,140,140,280,1,120,120,240,1,100,90,190,0.9,120,71
900,370,680,190,430,620,2.2632,160,300,460,1.875,160,250,410,1.5625,130,160,290,1.2308,120,120,240,1,110,100,210,0.90909,121,71
890,220,670,240,420,660,1.75,220,360,580,1.6364,180,290,470,1.6111,150,190,340,1.2667,130,130,260,1,110,110,220,1,120,71
890,220,640,180,410,590,2.2778,150,290,440,1.9333,150,220,370,1.4667,120,140,260,1.1667,110,110,220,1,100,90,190,0.9,120,71
910,250,640,170,450,620,2.6471,150,320,470,2.1333,140,260,400,1.8571,120,160,280,1.3333,100,120,220,1.2,90,100,190,1.1111,120,71
900,270,680,270,690,960,2.5556,170,390,560,2.2941,160,320,480,2,140,180,320,1.2857,120,130,250,1.0833,100,110,210,1.1,119,71
870,220,540,170,440,610,2.5882,150,300,450,2,140,240,380,1.7143,130,160,290,1.2308,100,120,220,1.2,100,100,200,1,119,71
940,330,560,150,460,610,3.0667,120,320,440,2.6667,120,250,370,2.0833,100,170,270,1.7,80,130,210,1.625,70,110,180,1.5714,120,71
900,380,700,180,430,610,2.3889,160,320,480,2,150,260,410,1.7333,130,160,290,1.2308,110,120,230,1.0909,100,110,210,1.1,120,71
910,200,620,220,410,630,1.8636,220,290,510,1.3182,200,250,450,1.25,150,190,340,1.2667,120,140,260,1.1667,120,110,230,0.91667,120,71
900,290,670,190,470,660,2.4737,160,310,470,1.9375,150,260,410,1.7333,130,150,280,1.1538,110,110,220,1,110,90,200,0.81818,119,70
900,230,460,170,460,630,2.7059,160,320,480,2,140,260,400,1.8571,130,160,290,1.2308,110,130,240,1.1818,100,90,190,0.9,119,70
900,440,690,440,700,1140,1.5909,170,440,610,2.5882,160,350,510,2.1875,140,200,340,1.4286,110,140,250,1.2727,100,110,210,1.1,119,70
910,210,680,170,510,680,3,140,340,480,2.4286,140,280,420,2,130,160,290,1.2308,100,130,230,1.3,90,100,190,1.1111,119,70
900,230,680,170,420,590,2.4706,160,300,460,1.875,150,240,390,1.6,130,160,290,1.2308,110,120,230,1.0909,90,100,190,1.1111,119,70
900,220,700,240,490,730,2.0417,180,370,550,2.0556,170,310,480,1.8235,140,200,340,1.4286,120,140,260,1.1667,100,120,220,1.2,120,70
900,200,580,200,400,600,2,160,270,430,1.6875,150,210,360,1.4,130,140,270,1.0769,110,100,210,0.90909,90,80,170,0.88889,119,70
920,320,670,170,520,690,3.0588,140,350,490,2.5,140,280,420,2,120,170,290,1.4167,100,120,220,1.2,80,110,190,1.375,118,70
900,250,670,190,680,870,3.5789,160,420,580,2.625,150,330,480,2.2,130,150,280,1.1538,110,110,220,1,100,90,190,0.9,118,70
910,230,670,180,440,620,2.4444,160,310,470,1.9375,150,250,400,1.6667,130,160,290,1.2308,110,120,230,1.0909,100,100,200,1,118,70
900,240,670,190,530,720,2.7895,170,360,530,2.1176,150,300,450,2,140,170,310,1.2143,110,120,230,1.0909,110,100,210,0.90909,119,70
900,230,680,190,450,640,2.3684,170,330,500,1.9412,160,260,420,1.625,130,160,290,1.2308,110,130,240,1.1818,100,100,200,1,119,70
900,220,660,240,440,680,1.8333,190,320,510,1.6842,180,260,440,1.4444,150,180,330,1.2,120,130,250,1.0833,110,110,220,1,119,70
910,240,550,170,560,730,3.2941,160,360,520,2.25,140,290,430,2.0714,130,160,290,1.2308,110,130,240,1.1818,90,100,190,1.1111,118,70
900,360,630,180,490,670,2.7222,160,340,500,2.125,150,280,430,1.8667,130,160,290,1.2308,110,110,220,1,100,90,190,0.9,118,70
900,270,610,180,450,630,2.5,150,340,490,2.2667,150,290,440,1.9333,130,190,320,1.4615,110,140,250,1.2727,100,100,200,1,118,70
920,290,330,170,330,500,1.9412,150,300,450,2,140,250,390,1.7857,120,170,290,1.4167,110,120,230,1.0909,90,100,190,1.1111,118,70
900,590,680,340,390,730,1.1471,170,340,510,2,160,250,410,1.5625,140,170,310,1.2143,120,100,220,0.83333,100,90,190,0.9,120,71
890,220,690,190,440,630,2.3158,170,320,490,1.8824,160,240,400,1.5,140,160,300,1.1429,120,110,230,0.91667,110,100,210,0.90909,119,71
910,200,590,220,420,640,1.9091,180,310,490,1.7222,160,250,410,1.5625,140,170,310,1.2143,110,130,240,1.1818,110,100,210,0.90909,119,70
910,320,590,290,600,890,2.069,160,410,570,2.5625,140,330,470,2.3571,130,180,310,1.3846,100,120,220,1.2,100,110,210,1.1,118,70
900,320,680,180,470,650,2.6111,160,330,490,2.0625,150,260,410,1.7333,130,160,290,1.2308,110,110,220,1,100,90,190,0.9,118,70
900,220,680,180,460,640,2.5556,150,320,470,2.1333,140,260,400,1.8571,120,160,280,1.3333,90,110,200,1.2222,80,100,180,1.25,118,70
900,220,670,180,490,670,2.7222,160,330,490,2.0625,150,260,410,1.7333,130,160,290,1.2308,110,120,230,1.0909,90,100,190,1.1111,119,70
900,230,670,190,390,580,2.0526,170,250,420,1.4706,160,200,360,1.25,140,180,320,1.2857,110,130,240,1.1818,100,110,210,1.1,119,70
890,230,680,250,460,710,1.84,180,340,520,1.8889,170,290,460,1.7059,140,180,320,1.2857,130,130,260,1,110,100,210,0.90909,119,70
900,210,580,180,380,560,2.1111,150,270,420,1.8,140,210,350,1.5,130,150,280,1.1538,110,110,220,1,90,100,190,1.1111,119,70
900,320,590,170,480,650,2.8235,150,340,490,2.2667,140,280,420,2,120,170,290,1.4167,100,120,220,1.2,90,100,190,1.1111,119,70
910,310,590,170,460,630,2.7059,150,320,470,2.1333,140,260,400,1.8571,120,160,280,1.3333,100,120,220,1.2,90,100,190,1.1111,118,70
910,320,680,190,510,700,2.6842,160,350,510,2.1875,150,290,440,1.9333,130,160,290,1.2308,110,130,240,1.1818,90,100,190,1.1111,118,70
890,230,670,190,680,870,3.5789,170,340,510,2,160,280,440,1.75,130,170,300,1.3077,120,120,240,1,100,100,200,1,119,70
910,220,680,190,390,580,2.0526,160,270,430,1.6875,150,210,360,1.4,130,140,270,1.0769,100,100,200,1,100,70,170,0.7,119,70
900,230,660,250,420,670,1.68,200,310,510,1.55,170,260,430,1.5294,150,170,320,1.1333,130,130,260,1,110,110,220,1,119,70
900,240,660,180,600,780,3.3333,150,350,500,2.3333,150,260,410,1.7333,120,150,270,1.25,100,120,220,1.2,100,100,200,1,118,70
900,240,660,180,460,640,2.5556,160,320,480,2,150,250,400,1.6667,120,150,270,1.25,110,110,220,1,90,90,180,1,118,70
910,240,640,180,440,620,2.4444,160,310,470,1.9375,140,250,390,1.7857,130,160,290,1.2308,110,120,230,1.0909,100,100,200,1,118,70
910,270,640,180,440,620,2.4444,170,310,480,1.8235,150,240,390,1.6,140,160,300,1.1429,110,120,230,1.0909,100,90,190,0.9,118,70
900,270,670,200,660,860,3.3,170,340,510,2,170,280,450,1.6471,140,180,320,1.2857,120,120,240,1,110,90,200,0.81818,119,70
900,230,690,220,440,660,2,180,310,490,1.7222,160,260,420,1.625,140,160,300,1.1429,120,120,240,1,100,100,200,1,119,70
900,210,640,230,420,650,1.8261,190,300,490,1.5789,160,240,400,1.5,140,160,300,1.1429,120,120,240,1,110,100,210,0.90909,119,70
910,260,610,180,620,800,3.4444,140,400,540,2.8571,140,310,450,2.2143,120,180,300,1.5,100,120,220,1.2,90,100,190,1.1111,118,70
910,300,680,180,450,630,2.5,160,310,470,1.9375,150,250,400,1.6667,130,150,280,1.1538,110,110,220,1,100,90,190,0.9,118,70
890,230,670,200,440,640,2.2,160,330,490,2.0625,160,270,430,1.6875,140,160,300,1.1429,120,110,230,0.91667,110,100,210,0.90909,118,70
910,220,690,170,510,680,3,150,330,480,2.2,140,270,410,1.9286,130,160,290,1.2308,100,130,230,1.3,90,100,190,1.1111,119,70
900,220,670,180,470,650,2.6111,160,330,490,2.0625,150,270,420,1.8,130,180,310,1.3846,120,130,250,1.0833,100,100,200,1,119,70
900,230,680,250,470,720,1.88,180,360,540,2,170,300,470,1.7647,140,200,340,1.4286,120,130,250,1.0833,110,110,220,1,119,70
900,220,610,190,400,590,2.1053,170,280,450,1.6471,150,220,370,1.4667,130,140,270,1.0769,120,110,230,0.91667,100,90,190,0.9,119,70
900,290,680,180,690,870,3.8333,150,390,540,2.6,150,310,460,2.0667,130,170,300,1.3077,110,120,230,1.0909,100,100,200,1,118,70
900,220,670,180,460,640,2.5556,160,310,470,1.9375,150,260,410,1.7333,130,150,280,1.1538,110,110,220,1,90,100,190,1.1111,118,70
900,230,670,180,430,610,2.3889,160,320,480,2,150,270,420,1.8,130,170,300,1.3077,110,120,230,1.0909,100,100,200,1,118,70
900,230,680,180,690,870,3.8333,160,350,510,2.1875,150,290,440,1.9333,120,180,300,1.5,110,130,240,1.1818,90,100,190,1.1111,119,70
900,220,690,180,420,600,2.3333,150,330,480,2.2,150,280,430,1.8667,130,180,310,1.3846,100,130,230,1.3,90,110,200,1.2222,119,70
900,210,690,230,440,670,1.913,190,330,520,1.7368,170,270,440,1.5882,140,180,320,1.2857,130,130,260,1,100,120,220,1.2,119,70
900,210,580,170,430,600,2.5294,140,310,450,2.2143,140,240,380,1.7143,120,160,280,1.3333,100,120,220,1.2,90,100,190,1.1111,118,70
910,320,650,240,660,900,2.75,160,400,560,2.5,150,330,480,2.2,120,190,310,1.5833,100,140,240,1.4,90,110,200,1.2222,118,70
920,260,670,180,440,620,2.4444,150,320,470,2.1333,150,260,410,1.7333,130,160,290,1.2308,110,120,230,1.0909,90,100,190,1.1111,118,70
900,250,650,190,430,620,2.2632,170,300,470,1.7647,160,240,400,1.5,130,140,270,1.0769,110,110,220,1,90,90,180,1,118,70
900,250,650,200,660,860,3.3,180,360,540,2,170,290,460,1.7059,140,170,310,1.2143,120,130,250,1.0833,110,100,210,0.90909,119,70
890,250,690,270,420,690,1.5556,190,270,460,1.4211,170,230,400,1.3529,150,170,320,1.1333,130,120,250,0.92308,110,110,220,1,120,70
910,200,630,220,420,640,1.9091,190,310,500,1.6316,170,260,430,1.5294,140,170,310,1.2143,120,130,250,1.0833,110,100,210,0.90909,119,70
910,280,460,180,470,650,2.6111,150,340,490,2.2667,140,270,410,1.9286,120,150,270,1.25,110,110,220,1,90,100,190,1.1111,118,70
910,450,610,290,620,910,2.1379,180,390,570,2.1667,160,320,480,2,140,160,300,1.1429,120,120,240,1,100,100,200,1,118,70
