cp,st,dt,sw10,dw10,sw10+dw10,dw10/sw10,sw25,dw25,sw25+dw25,dw25/sw25,sw33,dw33,sw33+dw33,dw33/sw33,sw50,dw50,sw50+dw50,dw50/sw50,sw66,dw66,sw66+dw66,dw66/sw66,sw75,dw75,sw75+dw75,dw75/sw75,sys,dia,
1000,240,750,210,540,750,2.5714,180,380,560,2.1111,170,330,500,1.9412,150,220,370,1.4667,130,130,260,1,110,100,210,0.90909,132,78
1010,250,760,200,490,690,2.45,180,350,530,1.9444,170,290,460,1.7059,150,240,390,1.6,130,140,270,1.0769,120,110,230,0.91667,132,78
1020,250,790,240,560,800,2.3333,190,410,600,2.1579,180,360,540,2,160,250,410,1.5625,140,150,290,1.0714,120,120,240,1,132,78
1010,230,750,250,460,710,1.84,190,350,540,1.8421,170,300,470,1.7647,150,200,350,1.3333,120,130,250,1.0833,110,110,220,1,132,78
1000,260,750,200,580,780,2.9,170,390,560,2.2941,170,330,500,1.9412,140,220,360,1.5714,120,130,250,1.0833,110,100,210,0.90909,132,77
1010,250,750,200,760,960,3.8,170,490,660,2.8824,170,420,590,2.4706,140,220,360,1.5714,120,130,250,1.0833,100,100,200,1,130,77
1010,260,740,200,490,690,2.45,170,370,540,2.1765,170,320,490,1.8824,140,210,350,1.5,120,130,250,1.0833,110,100,210,0.90909,130,76
980,270,730,200,460,660,2.3,180,350,530,1.9444,160,320,480,2,140,220,360,1.5714,120,130,250,1.0833,100,110,210,1.1,130,76
1010,250,770,200,490,690,2.45,180,360,540,2,170,310,480,1.8235,150,210,360,1.4,130,140,270,1.0769,120,100,220,0.83333,130,76
1010,240,730,260,480,740,1.8462,230,390,620,1.6957,210,360,570,1.7143,170,250,420,1.4706,140,150,290,1.0714,130,120,250,0.92308,130,76
1010,280,730,190,480,670,2.5263,170,350,520,2.0588,150,310,460,2.0667,140,190,330,1.3571,110,120,230,1.0909,100,100,200,1,129,75
1000,280,780,190,790,980,4.1579,160,490,650,3.0625,150,310,460,2.0667,130,210,340,1.6154,110,120,230,1.0909,100,110,210,1.1,128,75
1010,220,780,190,510,700,2.6842,160,390,550,2.4375,150,340,490,2.2667,130,230,360,1.7692,120,130,250,1.0833,100,110,210,1.1,127,74
1020,230,770,190,780,970,4.1053,160,410,570,2.5625,160,350,510,2.1875,140,250,390,1.7857,120,150,270,1.25,100,120,220,1.2,127,74
1010,250,760,210,770,980,3.6667,180,550,730,3.0556,180,440,620,2.4444,160,300,460,1.875,140,160,300,1.1429,120,120,240,1,127,74
1010,250,780,220,580,800,2.6364,190,440,630,2.3158,190,370,560,1.9474,160,270,430,1.6875,150,150,300,1,130,110,240,0.84615,128,74
1000,230,760,250,520,770,2.08,210,390,600,1.8571,190,340,530,1.7895,170,240,410,1.4118,140,140,280,1,130,110,240,0.84615,127,74
1000,240,750,200,760,960,3.8,170,470,640,2.7647,160,400,560,2.5,140,280,420,2,120,130,250,1.0833,110,100,210,0.90909,126,74
1000,250,750,200,640,840,3.2,180,460,640,2.5556,170,390,560,2.2941,150,290,440,1.9333,120,150,270,1.25,120,110,230,0.91667,125,73
1010,250,750,200,580,780,2.9,180,480,660,2.6667,160,410,570,2.5625,150,300,450,2,120,160,280,1.3333,110,110,220,1,125,73
1010,260,740,210,640,850,3.0476,180,430,610,2.3889,170,370,540,2.1765,150,260,410,1.7333,130,150,280,1.1538,120,110,230,0.91667,125,73
1010,270,760,230,590,820,2.5652,190,450,640,2.3684,180,390,570,2.1667,160,270,430,1.6875,140,170,310,1.2143,120,120,240,1,126,73
980,250,760,270,560,830,2.0741,200,420,620,2.1,190,370,560,1.9474,160,270,430,1.6875,140,160,300,1.1429,120,120,240,1,127,74
1000,220,640,220,470,690,2.1364,170,360,530,2.1176,170,310,480,1.8235,140,200,340,1.4286,120,120,240,1,110,100,210,0.90909,126,74
1000,360,720,280,730,1010,2.6071,180,460,640,2.5556,170,380,550,2.2353,140,260,400,1.8571,130,140,270,1.0769,110,110,220,1,126,73
1000,280,680,200,520,720,2.6,170,390,560,2.2941,160,330,490,2.0625,140,220,360,1.5714,120,130,250,1.0833,110,100,210,0.90909,125,73
1010,320,760,200,560,760,2.8,170,400,570,2.3529,170,340,510,2,140,240,380,1.7143,120,140,260,1.1667,110,110,220,1,125,73
1010,250,770,200,730,930,3.65,180,430,610,2.3889,170,360,530,2.1176,150,240,390,1.6,130,140,270,1.0769,110,110,220,1,125,73
1020,240,790,200,540,740,2.7,180,390,570,2.1667,170,340,510,2,150,230,380,1.5333,120,140,260,1.1667,110,110,220,1,126,73
990,230,750,250,520,770,2.08,200,390,590,1.95,180,340,520,1.8889,160,250,410,1.5625,140,160,300,1.1429,110,130,240,1.1818,126,73
1000,240,690,210,700,910,3.3333,170,440,610,2.5882,160,370,530,2.3125,140,250,390,1.7857,120,140,260,1.1667,100,120,220,1.2,125,73
990,310,770,200,530,730,2.65,170,390,560,2.2941,160,330,490,2.0625,140,220,360,1.5714,120,130,250,1.0833,110,100,210,0.90909,125,73
1010,220,780,190,520,710,2.7368,160,390,550,2.4375,160,340,500,2.125,140,230,370,1.6429,110,140,250,1.2727,100,110,210,1.1,125,73
1020,230,770,200,560,760,2.8,170,410,580,2.4118,160,350,510,2.1875,140,240,380,1.7143,130,130,260,1,110,110,220,1,125,73
1010,250,760,210,770,980,3.6667,180,580,760,3.2222,180,480,660,2.6667,160,320,480,2,140,190,330,1.3571,130,120,250,0.92308,125,73
990,250,790,210,620,830,2.9524,190,420,610,2.2105,180,350,530,1.9444,150,240,390,1.6,130,140,270,1.0769,120,110,230,0.91667,126,73
1020,200,820,220,550,770,2.5,220,420,640,1.9091,220,360,580,1.6364,180,250,430,1.3889,140,160,300,1.1429,120,130,250,1.0833,126,73
3000,200,730,170,740,910,4.3529,150,130,280,0.86667,140,110,250,0.78571,120,110,230,0.91667,110,110,220,1,100,110,210,1.1,126,73
1010,2270,760,2160,770,2930,0.35648,2130,770,2900,0.3615,2120,770,2890,0.36321,1150,500,1650,0.43478,580,280,860,0.48276,410,130,540,0.31707,126,73
980,250,770,220,780,1000,3.5455,200,650,850,3.25,190,520,710,2.7368,170,390,560,2.2941,150,280,430,1.8667,140,190,330,1.3571,126,73
1060,210,830,230,630,860,2.7391,230,460,690,2,230,390,620,1.6957,170,190,360,1.1176,140,80,220,0.57143,120,30,150,0.25,126,73
1020,230,750,250,550,800,2.2,210,410,620,1.9524,190,360,550,1.8947,170,250,420,1.4706,140,140,280,1,130,110,240,0.84615,127,73
990,270,740,220,750,970,3.4091,190,750,940,3.9474,190,580,770,3.0526,170,360,530,2.1176,150,230,380,1.5333,130,130,260,1,127,73
1060,250,760,200,560,760,2.8,180,420,600,2.3333,170,360,530,2.1176,150,260,410,1.7333,130,140,270,1.0769,110,110,220,1,126,73
960,300,700,270,510,780,1.8889,240,380,620,1.5833,230,340,570,1.4783,200,240,440,1.2,180,140,320,0.77778,160,90,250,0.5625,126,73
1010,260,770,200,740,940,3.7,180,450,630,2.5,170,380,550,2.2353,150,270,420,1.8,130,150,280,1.1538,110,110,220,1,126,73
1020,240,780,220,530,750,2.4091,190,370,560,1.9474,180,320,500,1.7778,150,190,340,1.2667,130,100,230,0.76923,120,80,200,0.66667,127,74
1010,240,770,260,510,770,1.9615,230,380,610,1.6522,200,330,530,1.65,170,230,400,1.3529,150,150,300,1,130,110,240,0.84615,128,74
1000,240,690,200,700,900,3.5,170,500,670,2.9412,160,420,580,2.625,140,290,430,2.0714,120,170,290,1.4167,100,140,240,1.4,128,74
1020,310,780,190,560,750,2.9474,170,420,590,2.4706,160,350,510,2.1875,130,250,380,1.9231,110,140,250,1.2727,100,110,210,1.1,128,74
1010,240,760,200,520,720,2.6,180,400,580,2.2222,170,350,520,2.0588,150,260,410,1.7333,120,160,280,1.3333,110,120,230,1.0909,128,74
1000,250,730,200,530,730,2.65,180,380,560,2.1111,170,320,490,1.8824,150,220,370,1.4667,120,130,250,1.0833,110,100,210,0.90909,128,74
1000,270,750,210,510,720,2.4286,190,350,540,1.8421,180,310,490,1.7222,150,190,340,1.2667,130,140,270,1.0769,120,110,230,0.91667,128,74
1010,250,790,220,540,760,2.4545,190,380,570,2,180,330,510,1.8333,150,230,380,1.5333,130,140,270,1.0769,120,110,230,0.91667,128,74
1010,220,710,240,470,710,1.9583,210,340,550,1.619,180,300,480,1.6667,160,200,360,1.25,130,130,260,1,120,110,230,0.91667,129,74
1010,300,720,190,600,790,3.1579,170,400,570,2.3529,150,350,500,2.3333,130,230,360,1.7692,120,130,250,1.0833,100,100,200,1,128,74
1000,290,710,190,720,910,3.7895,170,570,740,3.3529,160,470,630,2.9375,140,330,470,2.3571,120,130,250,1.0833,100,100,200,1,128,74
1010,290,780,190,500,690,2.6316,160,380,540,2.375,150,320,470,2.1333,140,220,360,1.5714,110,140,250,1.2727,100,110,210,1.1,127,74
1000,230,770,220,480,700,2.1818,180,350,530,1.9444,170,310,480,1.8235,150,240,390,1.6,120,140,260,1.1667,110,110,220,1,127,73
1030,230,790,190,540,730,2.8421,170,390,560,2.2941,160,340,500,2.125,140,240,380,1.7143,120,150,270,1.25,100,120,220,1.2,127,74
970,240,750,260,540,800,2.0769,210,410,620,1.9524,190,360,550,1.8947,170,270,440,1.5882,150,160,310,1.0667,120,120,240,1,127,74
2010,220,700,190,510,700,2.6842,160,380,540,2.375,150,320,470,2.1333,130,210,340,1.6154,110,140,250,1.2727,100,110,210,1.1,126,73
1010,1310,770,1190,780,1970,0.65546,920,710,1630,0.77174,670,520,1190,0.77612,350,340,690,0.97143,130,210,340,1.6154,120,140,260,1.1667,125,73
1020,240,760,220,520,740,2.3636,180,410,590,2.2778,170,390,560,2.2941,150,280,430,1.8667,130,160,290,1.2308,110,130,240,1.1818,125,73
1030,260,770,210,780,990,3.7143,190,500,690,2.6316,180,420,600,2.3333,160,300,460,1.875,130,170,300,1.3077,110,120,230,1.0909,125,73
1010,260,780,260,490,750,1.8846,210,400,610,1.9048,200,380,580,1.9,180,270,450,1.5,150,160,310,1.0667,140,110,250,0.78571,126,73
990,230,710,250,500,750,2,220,380,600,1.7273,200,330,530,1.65,160,230,390,1.4375,150,140,290,0.93333,130,110,240,0.84615,126,73
990,280,720,190,730,920,3.8421,170,490,660,2.8824,160,360,520,2.25,140,240,380,1.7143,120,120,240,1,110,100,210,0.90909,125,73
1010,270,770,190,570,760,3,170,410,580,2.4118,160,360,520,2.25,140,250,390,1.7857,120,130,250,1.0833,100,110,210,1.1,125,73
1000,240,770,220,510,730,2.3182,180,410,590,2.2778,170,360,530,2.1176,150,240,390,1.6,130,140,270,1.0769,110,110,220,1,125,72
1000,230,770,200,480,680,2.4,180,360,540,2,160,310,470,1.9375,140,200,340,1.4286,120,120,240,1,110,100,210,0.90909,125,72
1040,230,760,200,520,720,2.6,170,400,570,2.3529,160,350,510,2.1875,140,250,390,1.7857,120,150,270,1.25,100,120,220,1.2,125,72
1960,280,1530,250,1190,1440,4.76,200,830,1030,4.15,180,750,930,4.1667,170,460,630,2.7059,140,160,300,1.1429,120,120,240,1,125,73
1000,430,770,220,780,1000,3.5455,170,510,680,3,160,430,590,2.6875,140,290,430,2.0714,110,160,270,1.4545,100,120,220,1.2,125,73
1000,230,770,190,780,970,4.1053,170,450,620,2.6471,150,390,540,2.6,140,270,410,1.9286,110,150,260,1.3636,100,120,220,1.2,124,72
1000,230,760,200,570,770,2.85,170,400,570,2.3529,160,340,500,2.125,140,250,390,1.7857,120,160,280,1.3333,100,120,220,1.2,123,72
1020,240,770,200,680,880,3.4,170,460,630,2.7059,160,400,560,2.5,140,280,420,2,120,160,280,1.3333,110,120,230,1.0909,123,72
1020,250,770,210,530,740,2.5238,200,380,580,1.9,180,330,510,1.8333,160,230,390,1.4375,140,140,280,1,120,110,230,0.91667,123,72
1000,250,680,270,510,780,1.8889,210,390,600,1.8571,200,340,540,1.7,180,240,420,1.3333,140,160,300,1.1429,130,120,250,0.92308,124,72
990,320,740,210,600,810,2.8571,180,390,570,2.1667,170,340,510,2,140,230,370,1.6429,130,130,260,1,110,110,220,1,124,72
1000,250,730,190,570,760,3,170,410,580,2.4118,150,350,500,2.3333,140,240,380,1.7143,110,140,250,1.2727,90,110,200,1.2222,124,72
990,270,750,190,540,730,2.8421,170,400,570,2.3529,160,340,500,2.125,140,230,370,1.6429,110,140,250,1.2727,100,120,220,1.2,123,72
990,240,740,200,500,700,2.5,170,370,540,2.1765,160,320,480,2,140,220,360,1.5714,130,130,260,1,110,100,210,0.90909,123,72
1000,250,750,200,510,710,2.55,180,370,550,2.0556,160,320,480,2,150,220,370,1.4667,120,130,250,1.0833,110,110,220,1,123,72
1010,250,770,200,490,690,2.45,190,360,550,1.8947,170,310,480,1.8235,160,220,380,1.375,130,140,270,1.0769,120,110,230,0.91667,124,72
1010,240,740,260,490,750,1.8846,260,360,620,1.3846,210,310,520,1.4762,180,210,390,1.1667,140,130,270,0.92857,120,110,230,0.91667,125,72
1000,270,720,190,540,730,2.8421,170,390,560,2.2941,160,330,490,2.0625,130,210,340,1.6154,120,130,250,1.0833,100,100,200,1,125,72
970,280,730,190,740,930,3.8947,170,540,710,3.1765,150,440,590,2.9333,130,290,420,2.2308,120,160,280,1.3333,110,120,230,1.0909,124,72
1000,240,760,190,520,710,2.7368,170,390,560,2.2941,150,330,480,2.2,140,230,370,1.6429,110,140,250,1.2727,100,120,220,1.2,124,72
980,240,740,200,460,660,2.3,180,350,530,1.9444,170,300,470,1.7647,140,190,330,1.3571,120,120,240,1,100,100,200,1,123,72
1000,240,760,200,740,940,3.7,170,430,600,2.5294,160,370,530,2.3125,140,260,400,1.8571,120,160,280,1.3333,100,120,220,1.2,123,72
1010,240,780,260,510,770,1.9615,190,370,560,1.9474,170,310,480,1.8235,150,200,350,1.3333,120,130,250,1.0833,110,90,200,0.81818,124,72
1000,230,720,250,470,720,1.88,200,350,550,1.75,180,310,490,1.7222,160,210,370,1.3125,130,130,260,1,120,110,230,0.91667,125,72
970,280,740,200,750,950,3.75,170,530,700,3.1176,170,430,600,2.5294,140,300,440,2.1429,120,170,290,1.4167,110,130,240,1.1818,124,72
980,230,740,180,550,730,3.0556,160,400,560,2.5,140,350,490,2.5,130,240,370,1.8462,110,150,260,1.3636,90,120,210,1.3333,124,72
970,240,720,200,540,740,2.7,170,420,590,2.4706,160,370,530,2.3125,140,270,410,1.9286,120,140,260,1.1667,110,110,220,1,123,72
990,250,750,190,690,880,3.6316,170,410,580,2.4118,160,360,520,2.25,130,240,370,1.8462,110,140,250,1.2727,100,120,220,1.2,123,72
990,240,760,200,490,690,2.45,180,350,530,1.9444,170,300,470,1.7647,160,240,400,1.5,130,140,270,1.0769,120,110,230,0.91667,124,72
1010,230,770,250,550,800,2.2,190,420,610,2.2105,190,370,560,1.9474,150,270,420,1.8,140,160,300,1.1429,120,120,240,1,124,72
1000,240,700,200,470,670,2.35,170,340,510,2,170,300,470,1.7647,140,180,320,1.2857,120,120,240,1,110,100,210,0.90909,125,72
980,300,710,200,580,780,2.9,180,410,590,2.2778,160,350,510,2.1875,150,240,390,1.6,130,130,260,1,120,100,220,0.83333,124,72
990,270,730,200,700,900,3.5,180,450,630,2.5,160,390,550,2.4375,140,240,380,1.7143,120,130,250,1.0833,100,110,210,1.1,124,72
980,260,730,220,500,720,2.2727,190,370,560,1.9474,180,330,510,1.8333,150,220,370,1.4667,130,120,250,0.92308,120,100,220,0.83333,124,72
1000,250,750,200,540,740,2.7,180,420,600,2.3333,170,350,520,2.0588,150,240,390,1.6,130,150,280,1.1538,110,110,220,1,125,73
1010,250,760,210,590,800,2.8095,190,380,570,2,180,330,510,1.8333,160,230,390,1.4375,130,150,280,1.1538,120,110,230,0.91667,126,73
1010,250,740,270,500,770,1.8519,270,410,680,1.5185,210,360,570,1.7143,180,260,440,1.4444,160,160,320,1,130,120,250,0.92308,126,73
1000,270,710,210,530,740,2.5238,180,390,570,2.1667,170,330,500,1.9412,150,220,370,1.4667,130,130,260,1,110,100,210,0.90909,126,73
1000,290,490,210,500,710,2.381,180,410,590,2.2778,170,350,520,2.0588,150,240,390,1.6,130,130,260,1,120,100,220,0.83333,126,73
970,510,720,240,590,830,2.4583,190,410,600,2.1579,170,360,530,2.1176,150,250,400,1.6667,130,130,260,1,120,100,220,0.83333,126,73
990,250,730,220,580,800,2.6364,180,410,590,2.2778,180,360,540,2,150,250,400,1.6667,130,140,270,1.0769,110,110,220,1,126,73
1010,260,750,210,700,910,3.3333,190,410,600,2.1579,170,350,520,2.0588,160,240,400,1.5,140,130,270,0.92857,120,110,230,0.91667,126,73
1000,260,770,240,630,870,2.625,210,400,610,1.9048,190,340,530,1.7895,170,230,400,1.3529,150,140,290,0.93333,130,110,240,0.84615,127,74
1000,230,740,250,470,720,1.88,200,350,550,1.75,180,300,480,1.6667,160,250,410,1.5625,140,130,270,0.92857,120,110,230,0.91667,127,74
2020,260,660,190,560,750,2.9474,170,400,570,2.3529,150,350,500,2.3333,140,240,380,1.7143,110,140,250,1.2727,100,110,210,1.1,127,74
990,1360,750,1320,720,2040,0.54545,860,440,1300,0.51163,760,370,1130,0.48684,620,250,870,0.40323,250,130,380,0.52,120,100,220,0.83333,127,74
1010,240,740,200,510,710,2.55,170,380,550,2.2353,160,320,480,2,140,220,360,1.5714,120,140,260,1.1667,110,110,220,1,127,74
1010,270,770,200,500,700,2.5,180,370,550,2.0556,170,310,480,1.8235,150,200,350,1.3333,130,120,250,0.92308,120,90,210,0.75,127,74
1000,240,770,260,540,800,2.0769,210,400,610,1.9048,190,350,540,1.8421,170,250,420,1.4706,140,150,290,1.0714,130,110,240,0.84615,128,74
1000,230,710,210,480,690,2.2857,180,360,540,2,160,300,460,1.875,140,200,340,1.4286,120,130,250,1.0833,110,110,220,1,128,74
1000,290,760,210,770,980,3.6667,180,550,730,3.0556,170,440,610,2.5882,140,290,430,2.0714,130,160,290,1.2308,110,130,240,1.1818,128,74
990,240,710,200,550,750,2.75,170,400,570,2.3529,170,340,510,2,140,240,380,1.7143,130,130,260,1,110,100,210,0.90909,127,74
1000,280,750,190,530,720,2.7895,160,390,550,2.4375,160,330,490,2.0625,140,230,370,1.6429,130,140,270,1.0769,110,100,210,0.90909,126,73
1000,250,750,200,760,960,3.8,180,450,630,2.5,170,380,550,2.2353,150,260,410,1.7333,130,140,270,1.0769,120,110,230,0.91667,126,73
980,250,750,230,510,740,2.2174,200,380,580,1.9,190,330,520,1.7368,160,240,400,1.5,150,140,290,0.93333,140,110,250,0.78571,126,73
960,230,770,250,520,770,2.08,220,400,620,1.8182,190,350,540,1.8421,160,260,420,1.625,140,170,310,1.2143,120,120,240,1,126,73
1030,190,750,160,760,920,4.75,140,490,630,3.5,120,420,540,3.5,100,290,390,2.9,90,180,270,2,70,150,220,2.1429,126,73
1040,280,730,200,570,770,2.85,170,400,570,2.3529,170,350,520,2.0588,140,240,380,1.7143,130,130,260,1,110,100,210,0.90909,125,73
950,310,690,260,480,740,1.8462,220,350,570,1.5909,210,300,510,1.4286,190,210,400,1.1053,170,110,280,0.64706,150,80,230,0.53333,125,73
1000,260,730,210,530,740,2.5238,170,380,550,2.2353,170,340,510,2,140,230,370,1.6429,120,140,260,1.1667,110,110,220,1,125,73
1010,270,760,210,510,720,2.4286,180,370,550,2.0556,170,310,480,1.8235,150,190,340,1.2667,120,110,230,0.91667,120,90,210,0.75,125,73
1010,250,790,210,500,710,2.381,190,370,560,1.9474,180,320,500,1.7778,160,220,380,1.375,130,140,270,1.0769,120,120,240,1,125,73
1010,220,710,240,470,710,1.9583,240,360,600,1.5,200,300,500,1.5,160,190,350,1.1875,140,130,270,0.92857,120,120,240,1,126,73
1000,300,700,190,590,780,3.1053,160,400,560,2.5,160,340,500,2.125,140,230,370,1.6429,120,130,250,1.0833,100,110,210,1.1,126,73
990,300,700,200,710,910,3.55,170,710,880,4.1765,160,510,670,3.1875,140,360,500,2.5714,120,230,350,1.9167,110,100,210,0.90909,126,73
1000,290,760,180,500,680,2.7778,160,370,530,2.3125,150,320,470,2.1333,130,210,340,1.6154,110,140,250,1.2727,100,110,210,1.1,125,73
1000,240,760,190,450,640,2.3684,170,330,500,1.9412,160,280,440,1.75,140,210,350,1.5,110,140,250,1.2727,100,120,220,1.2,125,73
1010,240,780,190,560,750,2.9474,170,400,570,2.3529,160,340,500,2.125,140,240,380,1.7143,120,150,270,1.25,100,120,220,1.2,125,73
1020,230,780,250,550,800,2.2,190,410,600,2.1579,180,350,530,1.9444,150,260,410,1.7333,130,170,300,1.3077,120,140,260,1.1667,126,73
1000,240,650,210,460,670,2.1905,170,340,510,2,170,290,460,1.7059,140,190,330,1.3571,120,130,250,1.0833,100,110,210,1.1,126,73
960,350,730,190,740,930,3.8947,170,610,780,3.5882,160,480,640,3,130,280,410,2.1538,110,130,240,1.1818,100,110,210,1.1,125,73
980,230,700,180,530,710,2.9444,170,390,560,2.2941,150,330,480,2.2,130,220,350,1.6923,110,130,240,1.1818,100,110,210,1.1,125,73
990,280,720,200,480,680,2.4,170,390,560,2.2941,160,350,510,2.1875,140,230,370,1.6429,120,140,260,1.1667,110,110,220,1,125,72
1010,270,760,190,600,790,3.1579,170,400,570,2.3529,150,340,490,2.2667,140,240,380,1.7143,110,140,250,1.2727,110,110,220,1,125,72
1010,250,770,210,460,670,2.1905,180,370,550,2.0556,170,320,490,1.8824,150,230,380,1.5333,130,140,270,1.0769,110,110,220,1,126,73
1010,240,700,260,500,760,1.9231,210,380,590,1.8095,190,340,530,1.7895,160,240,400,1.5,130,150,280,1.1538,120,120,240,1,126,73
1000,310,450,180,460,640,2.5556,160,360,520,2.25,150,310,460,2.0667,130,200,330,1.5385,110,130,240,1.1818,100,110,210,1.1,125,73
990,550,750,190,720,910,3.7895,170,430,600,2.5294,160,370,530,2.3125,130,250,380,1.9231,110,140,250,1.2727,100,120,220,1.2,124,72
990,240,700,200,480,680,2.4,170,360,530,2.1176,160,310,470,1.9375,140,200,340,1.4286,120,130,250,1.0833,110,90,200,0.81818,124,72
1000,290,710,190,490,680,2.5789,160,370,530,2.3125,160,310,470,1.9375,140,210,350,1.5,110,140,250,1.2727,110,110,220,1,124,72
1000,290,760,200,590,790,2.95,180,400,580,2.2222,160,340,500,2.125,150,230,380,1.5333,120,140,260,1.1667,110,110,220,1,124,72
1000,240,780,200,480,680,2.4,180,360,540,2,170,310,480,1.8235,150,210,360,1.4,130,140,270,1.0769,110,110,220,1,125,72
1010,220,620,240,460,700,1.9167,190,350,540,1.8421,180,300,480,1.6667,150,190,340,1.2667,130,140,270,1.0769,110,120,230,1.0909,125,72
990,390,690,250,700,950,2.8,170,450,620,2.6471,170,370,540,2.1765,140,250,390,1.7857,120,140,260,1.1667,100,110,210,1.1,124,72
980,300,290,180,260,440,1.4444,150,260,410,1.7333,150,260,410,1.7333,130,210,340,1.6154,110,140,250,1.2727,90,100,190,1.1111,123,72
990,690,720,200,490,690,2.45,170,370,540,2.1765,160,320,480,2,130,210,340,1.6154,120,130,250,1.0833,100,110,210,1.1,123,72
990,270,770,210,490,700,2.3333,180,360,540,2,160,300,460,1.875,140,190,330,1.3571,120,130,250,1.0833,110,100,210,0.90909,123,72
1000,220,740,190,470,660,2.4737,180,360,540,2,160,310,470,1.9375,150,210,360,1.4,120,130,250,1.0833,110,110,220,1,123,72
1010,260,780,250,510,760,2.04,190,380,570,2,180,330,510,1.8333,150,230,380,1.5333,130,140,270,1.0769,110,110,220,1,123,72
1000,230,620,250,460,710,1.84,190,340,530,1.7895,170,290,460,1.7059,150,180,330,1.2,130,130,260,1,120,100,220,0.83333,124,72
990,380,700,200,580,780,2.9,170,400,570,2.3529,170,340,510,2,140,220,360,1.5714,120,130,250,1.0833,110,100,210,0.90909,123,72
990,290,730,190,740,930,3.8947,160,440,600,2.75,160,370,530,2.3125,140,250,390,1.7857,120,150,270,1.25,110,110,220,1,123,72
990,260,730,190,490,680,2.5789,170,360,530,2.1176,160,310,470,1.9375,140,200,340,1.4286,120,130,250,1.0833,110,100,210,0.90909,122,72
1000,260,740,210,450,660,2.1429,180,330,510,1.8333,170,290,460,1.7059,150,180,330,1.2,130,120,250,0.92308,120,100,220,0.83333,122,72
960,260,750,210,510,720,2.4286,190,370,560,1.9474,180,320,500,1.7778,150,210,360,1.4,130,130,260,1,120,100,220,0.83333,123,72
1040,210,760,230,540,770,2.3478,190,420,610,2.2105,170,370,540,2.1765,140,250,390,1.7857,110,170,280,1.5455,90,130,220,1.4444,123,72
1040,280,700,190,480,670,2.5263,170,350,520,2.0588,150,300,450,2,130,180,310,1.3846,120,130,250,1.0833,100,110,210,1.1,124,72
960,340,690,220,700,920,3.1818,200,490,690,2.45,180,390,570,2.1667,170,260,430,1.5294,150,140,290,0.93333,130,90,220,0.69231,123,72
1000,270,730,190,520,710,2.7368,160,390,550,2.4375,150,340,490,2.2667,130,220,350,1.6923,110,130,240,1.1818,90,110,200,1.2222,123,72
890,270,650,200,480,680,2.4,170,360,530,2.1176,160,320,480,2,140,210,350,1.5,120,140,260,1.1667,100,120,220,1.2,122,72
930,240,690,200,530,730,2.65,180,360,540,2,170,310,480,1.8235,140,200,340,1.4286,130,120,250,0.92308,110,100,210,0.90909,122,71
1000,240,770,220,450,670,2.0455,190,340,530,1.7895,170,310,480,1.8235,150,220,370,1.4667,130,140,270,1.0769,110,100,210,0.90909,123,71
1020,230,700,250,520,770,2.08,200,370,570,1.85,180,320,500,1.7778,150,220,370,1.4667,130,150,280,1.1538,110,120,230,1.0909,123,72
970,320,680,190,690,880,3.6316,170,450,620,2.6471,160,330,490,2.0625,140,180,320,1.2857,120,120,240,1,100,100,200,1,123,72
990,290,710,190,510,700,2.6842,160,370,530,2.3125,150,320,470,2.1333,140,200,340,1.4286,110,120,230,1.0909,110,100,210,0.90909,123,72
1000,280,710,200,490,690,2.45,170,370,540,2.1765,160,310,470,1.9375,140,200,340,1.4286,120,120,240,1,110,100,210,0.90909,122,71
1000,290,710,200,480,680,2.4,180,360,540,2,170,300,470,1.7647,140,200,340,1.4286,130,130,260,1,110,100,210,0.90909,122,71
1000,290,760,210,500,710,2.381,170,400,570,2.3529,170,340,510,2,150,230,380,1.5333,130,130,260,1,110,100,210,0.90909,123,72
1010,240,790,210,490,700,2.3333,180,380,560,2.1111,170,330,500,1.9412,150,230,380,1.5333,130,140,270,1.0769,110,120,230,1.0909,124,72
980,220,700,240,410,650,1.7083,180,310,490,1.7222,170,270,440,1.5882,140,180,320,1.2857,120,130,250,1.0833,100,110,210,1.1,123,72
980,280,710,190,550,740,2.8947,170,390,560,2.2941,160,330,490,2.0625,130,220,350,1.6923,120,120,240,1,100,100,200,1,123,72
1000,270,580,190,500,690,2.6316,160,370,530,2.3125,150,320,470,2.1333,130,200,330,1.5385,110,130,240,1.1818,100,110,210,1.1,122,71
1000,420,730,200,560,760,2.8,170,400,570,2.3529,160,330,490,2.0625,140,220,360,1.5714,110,140,250,1.2727,110,110,220,1,122,71
1010,270,700,200,610,810,3.05,170,390,560,2.2941,160,330,490,2.0625,140,220,360,1.5714,120,130,250,1.0833,100,110,210,1.1,122,71
1020,310,780,200,550,750,2.75,180,390,570,2.1667,160,330,490,2.0625,150,220,370,1.4667,120,140,260,1.1667,110,110,220,1,122,71
1000,240,800,260,610,870,2.3462,200,450,650,2.25,180,370,550,2.0556,160,250,410,1.5625,140,150,290,1.0714,120,120,240,1,122,71
980,200,700,220,470,690,2.1364,160,360,520,2.25,150,300,450,2,130,200,330,1.5385,100,150,250,1.5,90,130,220,1.4444,122,71
990,280,710,180,600,780,3.3333,160,400,560,2.5,150,340,490,2.2667,120,220,340,1.8333,110,140,250,1.2727,100,110,210,1.1,121,71
1000,280,720,260,730,990,2.8077,190,470,660,2.4737,170,390,560,2.2941,140,270,410,1.9286,120,150,270,1.25,100,120,220,1.2,120,70
990,280,720,190,500,690,2.6316,170,370,540,2.1765,160,320,480,2,140,210,350,1.5,120,130,250,1.0833,110,110,220,1,120,70
1010,270,730,180,490,670,2.7222,160,370,530,2.3125,150,310,460,2.0667,130,210,340,1.6154,110,130,240,1.1818,100,110,210,1.1,120,70
1010,280,770,210,520,730,2.4762,190,380,570,2,170,320,490,1.8824,150,220,370,1.4667,130,130,260,1,110,110,220,1,121,70
1010,240,780,260,520,780,2,260,400,660,1.5385,230,350,580,1.5217,170,250,420,1.4706,140,160,300,1.1429,120,120,240,1,121,70
1000,230,700,190,490,680,2.5789,160,370,530,2.3125,160,310,470,1.9375,130,190,320,1.4615,120,130,250,1.0833,100,110,210,1.1,120,70
970,300,740,190,750,940,3.9474,160,630,790,3.9375,160,460,620,2.875,140,310,450,2.2143,120,170,290,1.4167,110,130,240,1.1818,119,70
1000,230,720,180,510,690,2.8333,160,20,180,0.125,150,20,170,0.13333,130,20,150,0.15385,110,20,130,0.18182,100,20,120,0.2,119,70
1000,280,720,210,480,690,2.2857,170,360,530,2.1176,160,310,470,1.9375,130,210,340,1.6154,100,130,230,1.3,80,110,190,1.375,119,70
990,280,720,210,730,940,3.4762,180,410,590,2.2778,180,340,520,1.8889,150,230,380,1.5333,140,130,270,0.92857,120,100,220,0.83333,120,70
980,270,770,220,460,680,2.0909,190,320,510,1.6842,170,270,440,1.5882,150,150,300,1,130,100,230,0.76923,120,60,180,0.5,121,70
1010,210,720,230,480,710,2.087,190,360,550,1.8947,170,300,470,1.7647,150,200,350,1.3333,120,140,260,1.1667,110,120,230,1.0909,121,70
970,290,690,190,700,890,3.6842,160,540,700,3.375,150,420,570,2.8,140,280,420,2,110,150,260,1.3636,110,110,220,1,121,70
970,280,730,200,500,700,2.5,170,370,540,2.1765,160,310,470,1.9375,140,200,340,1.4286,120,120,240,1,110,100,210,0.90909,120,70
1000,240,760,200,510,710,2.55,170,400,570,2.3529,160,360,520,2.25,130,270,400,2.0769,110,170,280,1.5455,100,110,210,1.1,120,70
980,240,670,210,490,700,2.3333,180,360,540,2,170,310,480,1.8235,150,200,350,1.3333,130,120,250,0.92308,120,100,220,0.83333,120,70
990,310,760,200,770,970,3.85,180,470,650,2.6111,170,410,580,2.4118,150,290,440,1.9333,130,150,280,1.1538,110,110,220,1,120,70
990,230,790,190,600,790,3.1579,180,420,600,2.3333,170,360,530,2.1176,140,260,400,1.8571,130,160,290,1.2308,110,120,230,1.0909,120,70
990,200,770,220,530,750,2.4091,220,390,610,1.7727,220,330,550,1.5,150,280,430,1.8667,130,170,300,1.3077,110,150,260,1.3636,121,71
1970,220,700,180,710,890,3.9444,160,500,660,3.125,150,410,560,2.7333,130,280,410,2.1538,120,140,260,1.1667,100,110,210,1.1,120,71
1000,1270,760,1170,770,1940,0.65812,1130,770,1900,0.68142,780,610,1390,0.78205,380,400,780,1.0526,250,250,500,1,130,150,280,1.1538,120,70
1000,240,750,240,480,720,2,200,420,620,2.1,180,410,590,2.2778,160,290,450,1.8125,140,160,300,1.1429,130,120,250,0.92308,121,70
1010,250,760,220,670,890,3.0455,190,450,640,2.3684,180,390,570,2.1667,160,280,440,1.75,140,170,310,1.2143,120,130,250,1.0833,122,71
990,250,760,270,550,820,2.037,230,460,690,2,210,440,650,2.0952,180,320,500,1.7778,150,200,350,1.3333,140,140,280,1,122,71
990,230,710,250,490,740,1.96,180,370,550,2.0556,170,330,500,1.9412,150,210,360,1.4,130,140,270,1.0769,110,110,220,1,122,71
990,280,510,200,520,720,2.6,160,410,570,2.5625,160,340,500,2.125,140,230,370,1.6429,120,130,250,1.0833,110,100,210,0.90909,122,71
1000,480,720,480,730,1210,1.5208,190,510,700,2.6842,180,430,610,2.3889,150,290,440,1.9333,130,150,280,1.1538,110,110,220,1,122,71
1010,280,720,210,520,730,2.4762,190,390,580,2.0526,170,350,520,2.0588,150,240,390,1.6,130,140,270,1.0769,110,100,210,0.90909,122,71
1010,290,750,210,760,970,3.619,190,450,640,2.3684,180,380,560,2.1111,160,250,410,1.5625,130,140,270,1.0769,120,100,220,0.83333,123,72
1000,260,750,220,610,830,2.7727,190,410,600,2.1579,180,350,530,1.9444,170,240,410,1.4118,140,150,290,1.0714,130,110,240,0.84615,123,72
1000,250,770,270,550,820,2.037,220,430,650,1.9545,200,370,570,1.85,170,270,440,1.5882,140,170,310,1.2143,130,130,260,1,124,72
990,230,640,190,530,720,2.7895,170,380,550,2.2353,160,330,490,2.0625,130,210,340,1.6154,120,130,250,1.0833,100,110,210,1.1,123,72
990,350,690,210,700,910,3.3333,170,420,590,2.4706,160,370,530,2.3125,140,250,390,1.7857,120,130,250,1.0833,110,100,210,0.90909,123,72
990,300,750,190,500,690,2.6316,170,380,550,2.2353,160,320,480,2,140,220,360,1.5714,120,130,250,1.0833,110,110,220,1,123,72
1000,240,710,190,480,670,2.5263,170,350,520,2.0588,160,310,470,1.9375,140,200,340,1.4286,120,120,240,1,110,110,220,1,123,72
1010,290,800,200,710,910,3.55,180,400,580,2.2222,170,350,520,2.0588,150,230,380,1.5333,120,140,260,1.1667,110,110,220,1,123,72
990,210,780,230,540,770,2.3478,190,380,570,2,180,330,510,1.8333,160,230,390,1.4375,140,150,290,1.0714,120,110,230,0.91667,124,73
3010,210,700,230,480,710,2.087,230,360,590,1.5652,190,310,500,1.6316,150,200,350,1.3333,130,140,270,1.0769,110,120,230,1.0909,124,73
1000,2310,770,2190,780,2970,0.35616,2020,780,2800,0.38614,1390,580,1970,0.41727,740,360,1100,0.48649,370,210,580,0.56757,120,140,260,1.1667,124,72
1010,230,770,190,780,970,4.1053,170,460,630,2.7059,160,380,540,2.375,140,260,400,1.8571,120,150,270,1.25,110,110,220,1,123,72
1020,240,770,200,610,810,3.05,180,410,590,2.2778,170,370,540,2.1765,160,260,420,1.625,140,150,290,1.0714,130,120,250,0.92308,124,72
930,250,770,270,580,850,2.1481,200,440,640,2.2,180,390,570,2.1667,170,280,450,1.6471,140,170,310,1.2143,130,120,250,0.92308,124,72
1090,160,730,180,560,740,3.1111,180,410,590,2.2778,150,350,500,2.3333,100,230,330,2.3,70,190,260,2.7143,60,150,210,2.5,124,72
1000,360,730,200,740,940,3.7,180,460,640,2.5556,170,390,560,2.2941,150,260,410,1.7333,120,140,260,1.1667,120,100,220,0.83333,123,72
640,270,620,220,630,850,2.8636,190,530,720,2.7895,180,430,610,2.3889,160,300,460,1.875,130,170,300,1.3077,120,100,220,0.83333,123,72
1330,20,1080,20,860,880,43,20,730,750,36.5,20,680,700,34,20,580,600,29,20,480,500,24,20,440,460,22,123,72
1010,250,750,220,490,710,2.2273,190,360,550,1.8947,180,300,480,1.6667,160,180,340,1.125,140,100,240,0.71429,120,80,200,0.66667,123,72
1010,260,760,220,550,770,2.5,190,390,580,2.0526,180,330,510,1.8333,160,230,390,1.4375,140,130,270,0.92857,120,110,230,0.91667,124,72
1020,250,740,270,510,780,1.8889,230,370,600,1.6087,200,310,510,1.55,170,220,390,1.2941,150,130,280,0.86667,130,110,240,0.84615,124,72
1000,280,710,210,510,720,2.4286,180,370,550,2.0556,170,310,480,1.8235,150,210,360,1.4,130,120,250,0.92308,120,100,220,0.83333,123,72
1000,290,720,210,730,940,3.4762,170,590,760,3.4706,170,490,660,2.8824,150,330,480,2.2,130,240,370,1.8462,110,160,270,1.4545,123,72
1000,280,720,210,570,780,2.7143,170,380,550,2.2353,170,330,500,1.9412,140,210,350,1.5,130,120,250,0.92308,110,100,210,0.90909,123,72
1000,280,720,210,460,670,2.1905,180,330,510,1.8333,170,270,440,1.5882,150,180,330,1.2,130,140,270,1.0769,120,110,230,0.91667,123,72
1010,280,760,210,570,780,2.7143,180,400,580,2.2222,170,330,500,1.9412,150,230,380,1.5333,130,140,270,1.0769,110,110,220,1,123,72
1000,250,770,220,510,730,2.3182,190,350,540,1.8421,190,290,480,1.5263,160,200,360,1.25,140,150,290,1.0714,120,120,240,1,124,72
990,230,700,250,460,710,1.84,200,350,550,1.75,190,300,490,1.5789,160,200,360,1.25,140,130,270,0.92857,120,110,230,0.91667,124,72
990,290,710,190,720,910,3.7895,160,650,810,4.0625,150,460,610,3.0667,130,270,400,2.0769,110,130,240,1.1818,100,100,200,1,123,72
1000,280,710,190,500,690,2.6316,160,370,530,2.3125,160,330,490,2.0625,130,220,350,1.6923,120,130,250,1.0833,100,100,200,1,123,72
1000,290,770,210,480,690,2.2857,170,360,530,2.1176,160,320,480,2,140,220,360,1.5714,120,140,260,1.1667,110,100,210,0.90909,122,71
1000,230,710,200,500,700,2.5,170,370,540,2.1765,160,310,470,1.9375,140,200,340,1.4286,120,130,250,1.0833,110,100,210,0.90909,122,71
1000,290,700,200,500,700,2.5,180,370,550,2.0556,160,330,490,2.0625,120,220,340,1.8333,120,140,260,1.1667,110,100,210,0.90909,123,71
1010,300,780,320,550,870,1.7188,200,410,610,2.05,180,360,540,2,160,260,420,1.625,130,160,290,1.2308,120,130,250,1.0833,123,72
990,230,670,200,480,680,2.4,170,340,510,2,160,290,450,1.8125,130,190,320,1.4615,120,130,250,1.0833,100,110,210,1.1,123,71
980,320,760,200,520,720,2.6,170,410,580,2.4118,170,360,530,2.1176,140,210,350,1.5,120,130,250,1.0833,110,100,210,0.90909,122,71
1000,220,710,180,720,900,4,160,390,550,2.4375,150,330,480,2.2,140,210,350,1.5,110,130,240,1.1818,110,110,220,1,122,71
1010,290,720,210,480,690,2.2857,180,350,530,1.9444,160,300,460,1.875,150,200,350,1.3333,120,140,260,1.1667,110,110,220,1,121,71
990,290,770,220,540,760,2.4545,190,440,630,2.3158,170,370,540,2.1765,150,250,400,1.6667,130,150,280,1.1538,110,110,220,1,122,71
1000,220,760,190,520,710,2.7368,170,390,560,2.2941,160,340,500,2.125,140,240,380,1.7143,120,140,260,1.1667,100,120,220,1.2,122,71
1000,240,560,260,460,720,1.7692,200,350,550,1.75,180,290,470,1.6111,150,190,340,1.2667,140,140,280,1,120,120,240,1,122,71
1000,440,610,210,570,780,2.7143,170,410,580,2.4118,160,350,510,2.1875,140,200,340,1.4286,120,130,250,1.0833,110,110,220,1,122,71
990,390,610,200,600,800,3,170,400,570,2.3529,160,350,510,2.1875,140,220,360,1.5714,120,120,240,1,110,100,210,0.90909,121,71
1000,380,720,200,530,730,2.65,170,390,560,2.2941,160,340,500,2.125,130,230,360,1.7692,120,130,250,1.0833,110,110,220,1,121,71
990,280,720,220,680,900,3.0909,180,430,610,2.3889,170,360,530,2.1176,150,240,390,1.6,130,140,270,1.0769,110,110,220,1,121,71
1010,270,760,200,770,970,3.85,170,460,630,2.7059,160,380,540,2.375,140,260,400,1.8571,120,150,270,1.25,110,120,230,1.0909,121,71
1000,250,770,210,550,760,2.619,190,390,580,2.0526,170,330,500,1.9412,150,240,390,1.6,130,150,280,1.1538,120,120,240,1,122,71
990,230,710,250,470,720,1.88,220,340,560,1.5455,200,290,490,1.45,170,200,370,1.1765,140,130,270,0.92857,130,110,240,0.84615,122,71
970,280,720,210,550,760,2.619,170,380,550,2.2353,170,320,490,1.8824,150,210,360,1.4,120,120,240,1,120,100,220,0.83333,121,71
1000,250,740,200,750,950,3.75,170,450,620,2.6471,170,380,550,2.2353,140,260,400,1.8571,120,150,270,1.25,110,120,230,1.0909,121,71
990,260,720,210,490,700,2.3333,180,370,550,2.0556,180,320,500,1.7778,150,210,360,1.4,130,130,260,1,110,100,210,0.90909,120,71
1000,270,740,210,470,680,2.2381,180,350,530,1.9444,170,300,470,1.7647,140,210,350,1.5,120,130,250,1.0833,110,100,210,0.90909,120,71
1010,260,750,210,540,750,2.5714,190,380,570,2,170,330,500,1.9412,150,210,360,1.4,130,130,260,1,120,100,220,0.83333,121,71
1000,260,770,280,520,800,1.8571,210,380,590,1.8095,200,330,530,1.65,180,220,400,1.2222,160,130,290,0.8125,140,110,250,0.78571,122,71
990,230,690,250,450,700,1.8,190,330,520,1.7368,180,290,470,1.6111,150,180,330,1.2,130,130,260,1,120,110,230,0.91667,121,71
980,300,750,200,760,960,3.8,170,690,860,4.0588,160,450,610,2.8125,140,290,430,2.0714,120,160,280,1.3333,110,120,230,1.0909,121,71
1000,230,760,180,500,680,2.7778,170,360,530,2.1176,150,310,460,2.0667,140,200,340,1.4286,110,130,240,1.1818,100,110,210,1.1,121,71
990,240,760,220,200,420,0.90909,190,200,390,1.0526,170,200,370,1.1765,150,200,350,1.3333,120,160,280,1.3333,110,120,230,1.0909,121,71
1000,230,760,190,560,750,2.9474,170,380,550,2.2353,160,320,480,2,140,200,340,1.4286,120,130,250,1.0833,100,110,210,1.1,122,71
1010,240,770,200,470,670,2.35,170,350,520,2.0588,170,290,460,1.7059,140,190,330,1.3571,120,120,240,1,100,110,210,1.1,122,71
1010,240,760,260,520,780,2,200,400,600,2,180,350,530,1.9444,160,250,410,1.5625,140,150,290,1.0714,120,120,240,1,123,71
980,250,650,190,660,850,3.4737,160,410,570,2.5625,150,340,490,2.2667,130,220,350,1.6923,110,120,230,1.0909,100,110,210,1.1,122,71
970,330,660,190,530,720,2.7895,170,370,540,2.1765,160,330,490,2.0625,130,210,340,1.6154,120,130,250,1.0833,100,100,200,1,121,71
1000,310,740,180,520,700,2.8889,150,390,540,2.6,140,350,490,2.5,120,210,330,1.75,100,140,240,1.4,90,110,200,1.2222,121,71
990,260,760,190,480,670,2.5263,160,360,520,2.25,150,310,460,2.0667,140,210,350,1.5,110,140,250,1.2727,100,110,210,1.1,122,71
1010,230,770,180,510,690,2.8333,160,360,520,2.25,150,310,460,2.0667,140,240,380,1.7143,110,150,260,1.3636,90,120,210,1.3333,122,71
1020,240,790,190,480,670,2.5263,170,360,530,2.1176,160,320,480,2,150,220,370,1.4667,120,150,270,1.25,110,120,230,1.0909,122,71
1010,230,740,250,490,740,1.96,250,350,600,1.4,220,320,540,1.4545,170,240,410,1.4118,150,150,300,1,130,120,250,0.92308,122,71
1990,270,650,190,520,710,2.7368,170,380,550,2.2353,160,330,490,2.0625,140,200,340,1.4286,120,130,250,1.0833,100,100,200,1,121,71
1000,1340,760,1170,770,1940,0.65812,1130,770,1900,0.68142,830,770,1600,0.92771,320,410,730,1.2813,140,240,380,1.7143,120,140,260,1.1667,120,71
1010,240,750,240,490,730,2.0417,190,410,600,2.1579,170,400,570,2.3529,160,280,440,1.75,130,140,270,1.0769,120,110,230,0.91667,120,70
1010,260,750,220,760,980,3.4545,190,570,760,3,180,450,630,2.5,170,300,470,1.7647,140,160,300,1.1429,130,110,240,0.84615,120,70
1000,260,740,280,520,800,1.8571,220,440,660,2,200,430,630,2.15,180,300,480,1.6667,150,190,340,1.2667,140,130,270,0.92857,121,71
1000,260,720,280,500,780,1.7857,280,380,660,1.3571,200,320,520,1.6,160,220,380,1.375,140,140,280,1,130,110,240,0.84615,121,71
990,280,470,190,480,670,2.5263,170,470,640,2.7647,160,390,550,2.4375,140,270,410,1.9286,120,140,260,1.1667,100,110,210,1.1,120,71
1000,520,730,200,590,790,2.95,180,430,610,2.3889,170,370,540,2.1765,140,260,400,1.8571,130,140,270,1.0769,110,110,220,1,120,70
990,270,730,230,540,770,2.3478,180,450,630,2.5,170,390,560,2.2941,150,270,420,1.8,130,160,290,1.2308,110,120,230,1.0909,120,70
990,260,740,210,610,820,2.9048,180,410,590,2.2778,170,340,510,2,150,230,380,1.5333,130,130,260,1,120,100,220,0.83333,121,71
1000,250,750,220,580,800,2.6364,190,400,590,2.1053,180,350,530,1.9444,150,230,380,1.5333,130,140,270,1.0769,110,100,210,0.90909,121,71
1000,250,750,270,550,820,2.037,220,430,650,1.9545,190,370,560,1.9474,170,270,440,1.5882,150,160,310,1.0667,130,120,250,0.92308,122,71
990,250,640,200,470,670,2.35,170,340,510,2,160,300,460,1.875,140,190,330,1.3571,120,120,240,1,110,100,210,0.90909,121,71
1000,350,730,340,740,1080,2.1765,180,550,730,3.0556,170,450,620,2.6471,150,310,460,2.0667,120,160,280,1.3333,100,120,220,1.2,121,71
1000,270,700,190,620,810,3.2632,170,440,610,2.5882,160,380,540,2.375,140,250,390,1.7857,120,150,270,1.25,110,110,220,1,121,71
1000,300,740,200,510,710,2.55,180,390,570,2.1667,170,330,500,1.9412,140,230,370,1.6429,120,140,260,1.1667,110,110,220,1,121,71
1000,260,780,210,760,970,3.619,190,430,620,2.2632,180,360,540,2,150,240,390,1.6,130,130,260,1,110,110,220,1,121,71
1000,220,760,210,480,690,2.2857,180,360,540,2,180,310,490,1.7222,150,210,360,1.4,130,130,260,1,120,110,230,0.91667,122,71
970,240,730,260,480,740,1.8462,230,360,590,1.5652,200,320,520,1.6,170,220,390,1.2941,140,140,280,1,130,110,240,0.84615,122,71
960,240,670,200,680,880,3.4,180,460,640,2.5556,160,390,550,2.4375,150,250,400,1.6667,120,140,260,1.1667,110,110,220,1,121,71
990,290,750,180,530,710,2.9444,150,390,540,2.6,150,340,490,2.2667,130,230,360,1.7692,110,140,250,1.2727,90,110,200,1.2222,121,71
990,240,750,180,500,680,2.7778,160,380,540,2.375,150,320,470,2.1333,120,220,340,1.8333,100,140,240,1.4,90,120,210,1.3333,121,71
960,240,690,210,490,700,2.3333,170,360,530,2.1176,170,300,470,1.7647,150,210,360,1.4,130,130,260,1,120,100,220,0.83333,121,70
1030,270,780,180,520,700,2.8889,150,380,530,2.5333,130,320,450,2.4615,110,200,310,1.8182,100,120,220,1.2,90,100,190,1.1111,121,70
990,250,770,210,500,710,2.381,190,370,560,1.9474,160,310,470,1.9375,160,210,370,1.3125,130,140,270,1.0769,120,100,220,0.83333,121,71
1000,220,700,240,480,720,2,240,350,590,1.4583,190,300,490,1.5789,160,190,350,1.1875,130,130,260,1,110,100,210,0.90909,122,71
980,300,700,190,660,850,3.4737,150,400,550,2.6667,150,350,500,2.3333,130,230,360,1.7692,110,130,240,1.1818,100,100,200,1,122,71
980,280,720,200,730,930,3.65,170,730,900,4.2941,160,540,700,3.375,130,370,500,2.8462,120,260,380,2.1667,110,190,300,1.7273,121,71
1990,260,1730,200,1220,1420,6.1,180,910,1090,5.0556,160,530,690,3.3125,140,230,370,1.6429,120,140,260,1.1667,110,100,210,0.90909,121,71
1000,260,750,210,570,780,2.7143,190,390,580,2.0526,180,330,510,1.8333,160,230,390,1.4375,140,130,270,0.92857,120,110,230,0.91667,121,71
990,250,760,270,520,790,1.9259,210,380,590,1.8095,190,320,510,1.6842,170,230,400,1.3529,150,150,300,1,130,120,250,0.92308,122,71
990,230,640,250,450,700,1.8,180,340,520,1.8889,170,290,460,1.7059,140,180,320,1.2857,120,130,250,1.0833,110,110,220,1,122,72
990,350,660,190,670,860,3.5263,160,670,830,4.1875,160,560,720,3.5,130,320,450,2.4615,110,140,250,1.2727,100,110,210,1.1,122,72
980,330,670,190,520,710,2.7368,170,390,560,2.2941,160,330,490,2.0625,140,210,350,1.5,120,130,250,1.0833,100,100,200,1,121,71
990,310,750,210,480,690,2.2857,170,380,550,2.2353,160,350,510,2.1875,140,240,380,1.7143,120,140,260,1.1667,100,120,220,1.2,121,71
990,240,690,200,700,900,3.5,170,400,570,2.3529,160,340,500,2.125,150,220,370,1.4667,120,130,250,1.0833,110,100,210,0.90909,122,71
990,300,750,210,460,670,2.1905,180,380,560,2.1111,170,330,500,1.9412,150,220,370,1.4667,130,140,270,1.0769,110,110,220,1,123,72
1000,240,710,260,520,780,2,210,400,610,1.9048,190,350,540,1.8421,160,250,410,1.5625,140,150,290,1.0714,120,120,240,1,123,72
990,290,490,190,460,650,2.4211,170,340,510,2,160,290,450,1.8125,140,180,320,1.2857,120,120,240,1,100,100,200,1,122,72
990,500,720,190,610,800,3.2105,170,400,570,2.3529,150,340,490,2.2667,130,220,350,1.6923,110,130,240,1.1818,100,110,210,1.1,122,72
980,270,700,200,490,690,2.45,170,370,540,2.1765,160,320,480,2,140,210,350,1.5,120,130,250,1.0833,110,100,210,0.90909,122,72
990,280,650,190,470,660,2.4737,170,350,520,2.0588,160,310,470,1.9375,140,200,340,1.4286,120,120,240,1,100,110,210,1.1,122,72
980,340,740,210,650,860,3.0952,180,400,580,2.2222,180,340,520,1.8889,150,230,380,1.5333,130,130,260,1,110,100,210,0.90909,122,72
990,240,760,200,480,680,2.4,180,360,540,2,160,310,470,1.9375,150,210,360,1.4,120,140,260,1.1667,110,110,220,1,123,72
1000,230,680,250,480,730,1.92,210,360,570,1.7143,180,310,490,1.7222,150,210,360,1.4,140,150,290,1.0714,110,120,230,1.0909,124,72
990,320,640,270,650,920,2.4074,180,470,650,2.6111,170,400,570,2.3529,140,250,390,1.7857,120,140,260,1.1667,110,120,230,1.0909,124,72
990,350,690,190,510,700,2.6842,170,370,540,2.1765,150,330,480,2.2,140,200,340,1.4286,110,130,240,1.1818,90,100,190,1.1111,123,72
970,300,690,200,490,690,2.45,170,380,550,2.2353,160,330,490,2.0625,140,210,350,1.5,120,140,260,1.1667,100,100,200,1,123,72
990,280,720,190,490,680,2.5789,160,360,520,2.25,150,310,460,2.0667,130,210,340,1.6154,110,140,250,1.2727,100,110,210,1.1,123,72
990,270,580,200,470,670,2.35,180,360,540,2,170,300,470,1.7647,150,200,350,1.3333,130,140,270,1.0769,110,100,210,0.90909,123,72
930,410,760,210,470,680,2.2381,190,350,540,1.8421,180,300,480,1.6667,150,200,350,1.3333,130,130,260,1,110,110,220,1,123,72
1030,170,700,190,500,690,2.6316,190,380,570,2,160,330,490,2.0625,130,220,350,1.6923,90,180,270,2,80,150,230,1.875,124,73
1040,330,660,190,620,810,3.2632,160,410,570,2.5625,160,350,510,2.1875,130,220,350,1.6923,110,140,250,1.2727,100,110,210,1.1,123,73
930,380,630,250,640,890,2.56,230,640,870,2.7826,210,450,660,2.1429,190,290,480,1.5263,170,170,340,1,150,100,250,0.66667,123,72
970,300,740,200,490,690,2.45,170,360,530,2.1176,160,310,470,1.9375,150,200,350,1.3333,120,130,250,1.0833,110,90,200,0.81818,122,72
1000,230,730,200,470,670,2.35,170,370,540,2.1765,160,320,480,2,130,210,340,1.6154,120,140,260,1.1667,100,110,210,1.1,122,72
1000,270,720,220,680,900,3.0909,190,410,600,2.1579,170,350,520,2.0588,160,250,410,1.5625,130,130,260,1,120,100,220,0.83333,122,72
970,280,760,240,510,750,2.125,210,380,590,1.8095,200,320,520,1.6,180,210,390,1.1667,150,140,290,0.93333,130,110,240,0.84615,123,72
1840,210,650,230,490,720,2.1304,230,360,590,1.5652,180,320,500,1.7778,150,200,350,1.3333,130,140,270,1.0769,110,110,220,1,123,72
840,1190,610,1030,620,1650,0.60194,1010,620,1630,0.61386,870,620,1490,0.71264,480,360,840,0.75,300,170,470,0.56667,220,120,340,0.54545,122,72
970,230,750,250,640,890,2.56,170,460,630,2.7059,160,390,550,2.4375,140,260,400,1.8571,120,140,260,1.1667,110,120,230,1.0909,122,72
990,220,750,170,730,900,4.2941,150,470,620,3.1333,150,380,530,2.5333,130,270,400,2.0769,110,150,260,1.3636,100,130,230,1.3,122,72
1070,240,810,180,820,1000,4.5556,160,720,880,4.5,150,550,700,3.6667,140,350,490,2.5,120,180,300,1.5,100,140,240,1.4,123,72
920,260,740,210,650,860,3.0952,190,440,630,2.3158,170,390,560,2.2941,160,280,440,1.75,140,160,300,1.1429,130,120,250,0.92308,123,72
1940,180,710,200,510,710,2.55,200,390,590,1.95,200,340,540,1.7,140,210,350,1.5,120,150,270,1.25,100,130,230,1.3,122,72
1030,1230,750,1030,760,1790,0.73786,740,540,1280,0.72973,640,460,1100,0.71875,390,320,710,0.82051,280,170,450,0.60714,210,120,330,0.57143,122,72
980,280,740,210,560,770,2.6667,180,420,600,2.3333,160,370,530,2.3125,140,260,400,1.8571,130,140,270,1.0769,120,110,230,0.91667,122,72
920,240,730,200,740,940,3.7,180,130,310,0.72222,170,130,300,0.76471,150,130,280,0.86667,130,130,260,1,120,110,230,0.91667,123,72
1030,190,800,150,560,710,3.7333,130,420,550,3.2308,120,370,490,3.0833,100,230,330,2.3,90,150,240,1.6667,70,120,190,1.7143,124,73
990,230,780,250,590,840,2.36,200,460,660,2.3,190,410,600,2.1579,150,300,450,2,140,190,330,1.3571,120,140,260,1.1667,125,73
1000,210,710,230,480,710,2.087,180,350,530,1.9444,160,290,450,1.8125,140,170,310,1.2143,120,120,240,1,100,100,200,1,125,73
990,290,700,190,710,900,3.7368,170,470,640,2.7647,160,400,560,2.5,140,270,410,1.9286,120,150,270,1.25,100,120,220,1.2,125,73
980,290,710,200,720,920,3.6,180,590,770,3.2778,160,490,650,3.0625,140,370,510,2.6429,130,280,410,2.1538,110,220,330,2,125,73
1000,270,730,200,540,740,2.7,170,410,580,2.4118,160,350,510,2.1875,150,250,400,1.6667,120,130,250,1.0833,120,110,230,0.91667,125,73
1000,270,740,200,540,740,2.7,180,390,570,2.1667,160,320,480,2,150,190,340,1.2667,120,150,270,1.25,120,110,230,0.91667,125,73
980,260,740,210,630,840,3,200,410,610,2.05,180,350,530,1.9444,150,250,400,1.6667,140,150,290,1.0714,120,110,230,0.91667,126,74
960,240,730,260,510,770,1.9615,260,390,650,1.5,250,330,580,1.32,180,250,430,1.3889,160,190,350,1.1875,130,130,260,1,126,73
1000,230,680,180,480,660,2.6667,160,370,530,2.3125,150,310,460,2.0667,130,190,320,1.4615,110,130,240,1.1818,90,110,200,1.2222,125,73
980,320,690,200,700,900,3.5,170,700,870,4.1176,170,570,740,3.3529,140,300,440,2.1429,130,130,260,1,110,100,210,0.90909,125,73
970,290,710,190,520,710,2.7368,170,390,560,2.2941,150,340,490,2.2667,140,230,370,1.6429,120,130,250,1.0833,110,110,220,1,125,73
990,260,730,210,480,690,2.2857,170,400,570,2.3529,160,340,500,2.125,140,240,380,1.7143,120,140,260,1.1667,110,110,220,1,125,73
970,260,720,210,730,940,3.4762,190,430,620,2.2632,180,370,550,2.0556,150,250,400,1.6667,130,140,270,1.0769,110,100,210,0.90909,125,73
970,250,740,210,500,710,2.381,190,360,550,1.8947,180,310,490,1.7222,160,220,380,1.375,140,140,280,1,120,100,220,0.83333,125,73
1020,230,770,250,530,780,2.12,250,400,650,1.6,180,350,530,1.9444,150,250,400,1.6667,130,160,290,1.2308,110,130,240,1.1818,126,73
1000,250,560,190,550,740,2.8947,170,380,550,2.2353,160,320,480,2,140,200,340,1.4286,110,130,240,1.1818,110,110,220,1,126,73
970,440,710,440,720,1160,1.6364,190,600,790,3.1579,180,460,640,2.5556,150,310,460,2.0667,130,160,290,1.2308,110,110,220,1,125,73
1000,260,750,200,570,770,2.85,170,420,590,2.4706,160,370,530,2.3125,130,250,380,1.9231,120,150,270,1.25,100,130,230,1.3,125,73
960,250,700,200,490,690,2.45,180,360,540,2,170,310,480,1.8235,160,200,360,1.25,130,120,250,0.92308,120,100,220,0.83333,124,73
990,260,760,200,730,930,3.65,180,410,590,2.2778,170,350,520,2.0588,150,240,390,1.6,120,130,250,1.0833,120,100,220,0.83333,124,72
990,230,770,220,530,750,2.4091,190,370,560,1.9474,180,320,500,1.7778,150,230,380,1.5333,130,140,270,1.0769,120,110,230,0.91667,125,73
1000,220,710,240,470,710,1.9583,200,350,550,1.75,190,300,490,1.5789,150,200,350,1.3333,130,130,260,1,110,120,230,1.0909,126,73
1000,290,640,220,650,870,2.9545,190,530,720,2.7895,180,430,610,2.3889,150,280,430,1.8667,130,150,280,1.1538,110,110,220,1,125,73
1000,360,740,190,520,710,2.7368,170,390,560,2.2941,160,330,490,2.0625,140,220,360,1.5714,110,130,240,1.1818,100,110,210,1.1,125,73
1000,260,740,200,490,690,2.45,170,370,540,2.1765,160,320,480,2,140,200,340,1.4286,120,130,250,1.0833,110,110,220,1,124,73
1000,260,610,200,510,710,2.55,180,370,550,2.0556,170,310,480,1.8235,150,200,350,1.3333,120,130,250,1.0833,110,110,220,1,124,72
1000,390,760,210,560,770,2.6667,180,390,570,2.1667,180,330,510,1.8333,150,230,380,1.5333,140,140,280,1,120,110,230,0.91667,124,73
1010,240,730,260,530,790,2.0385,200,400,600,2,190,350,540,1.8421,160,250,410,1.5625,140,150,290,1.0714,120,120,240,1,125,73
990,280,620,210,450,660,2.1429,180,340,520,1.8889,170,290,460,1.7059,150,180,330,1.2,130,130,260,1,120,110,230,0.91667,125,73
1020,370,730,190,540,730,2.8421,170,400,570,2.3529,150,330,480,2.2,140,210,350,1.5,110,120,230,1.0909,100,110,210,1.1,125,73
970,290,610,220,580,800,2.6364,200,380,580,1.9,180,320,500,1.7778,160,220,380,1.375,130,110,240,0.84615,120,80,200,0.66667,124,73
990,360,710,210,480,690,2.2857,180,350,530,1.9444,170,300,470,1.7647,150,200,350,1.3333,130,130,260,1,110,100,210,0.90909,124,72
1000,280,740,200,460,660,2.3,180,340,520,1.8889,160,290,450,1.8125,140,170,310,1.2143,120,110,230,0.91667,110,90,200,0.81818,124,72
1000,260,750,210,480,690,2.2857,190,360,550,1.8947,170,310,480,1.8235,150,210,360,1.4,130,140,270,1.0769,120,110,230,0.91667,124,72
1010,250,640,270,470,740,1.7407,230,340,570,1.4783,200,300,500,1.5,170,200,370,1.1765,140,130,270,0.92857,120,120,240,1,125,73
980,370,680,190,490,680,2.5789,170,360,530,2.1176,160,300,460,1.875,130,180,310,1.3846,120,130,250,1.0833,100,100,200,1,125,73
990,300,740,190,750,940,3.9474,170,630,800,3.7059,150,500,650,3.3333,130,350,480,2.6923,120,200,320,1.6667,100,100,200,1,124,72
990,250,640,190,480,670,2.5263,170,360,530,2.1176,160,310,470,1.9375,140,190,330,1.3571,120,120,240,1,110,100,210,0.90909,123,72
990,350,620,210,450,660,2.1429,180,330,510,1.8333,170,280,450,1.6471,150,210,360,1.4,130,130,260,1,110,110,220,1,123,72
1010,370,760,200,610,810,3.05,180,70,250,0.38889,160,10,170,0.0625,150,10,160,0.066667,120,10,130,0.083333,110,10,120,0.090909,124,72
990,250,770,220,460,680,2.0909,200,330,530,1.65,180,300,480,1.6667,160,210,370,1.3125,130,140,270,1.0769,120,110,230,0.91667,125,72
1010,220,670,240,460,700,1.9167,200,350,550,1.75,170,300,470,1.7647,150,200,350,1.3333,130,140,270,1.0769,110,120,230,1.0909,124,72
990,340,650,190,660,850,3.4737,170,530,700,3.1176,160,430,590,2.6875,140,210,350,1.5,110,120,230,1.0909,100,100,200,1,124,72
980,340,670,200,500,700,2.5,170,370,540,2.1765,160,320,480,2,140,210,350,1.5,120,130,250,1.0833,110,100,210,0.90909,123,72
1000,310,680,200,470,670,2.35,170,390,560,2.2941,160,330,490,2.0625,140,230,370,1.6429,110,140,250,1.2727,100,120,220,1.2,123,72
990,320,760,190,520,710,2.7368,170,360,530,2.1176,160,310,470,1.9375,140,200,340,1.4286,120,130,250,1.0833,100,110,210,1.1,123,72
1000,230,760,200,490,690,2.45,170,370,540,2.1765,160,320,480,2,140,210,350,1.5,120,140,260,1.1667,100,130,230,1.3,124,72
1010,240,780,210,550,760,2.619,170,400,570,2.3529,170,330,500,1.9412,140,240,380,1.7143,130,160,290,1.2308,100,130,230,1.3,124,72
990,230,510,210,410,620,1.9524,180,310,490,1.7222,160,270,430,1.6875,140,170,310,1.2143,120,140,260,1.1667,110,120,230,1.0909,123,72
970,480,680,200,690,890,3.45,160,440,600,2.75,150,370,520,2.4667,130,260,390,2,100,150,250,1.5,90,130,220,1.4444,123,72
1010,290,570,170,490,660,2.8824,140,360,500,2.5714,140,310,450,2.2143,120,200,320,1.6667,100,140,240,1.4,90,110,200,1.2222,122,71
1000,440,760,190,520,710,2.7368,170,380,550,2.2353,160,330,490,2.0625,140,220,360,1.5714,120,150,270,1.25,110,110,220,1,122,71
1000,240,760,190,620,810,3.2632,170,390,560,2.2941,160,330,490,2.0625,140,220,360,1.5714,120,140,260,1.1667,100,110,210,1.1,122,71
1020,240,780,200,510,710,2.55,170,370,540,2.1765,160,320,480,2,140,210,350,1.5,110,150,260,1.3636,100,110,210,1.1,123,71
1020,240,630,260,490,750,1.8846,210,380,590,1.8095,190,320,510,1.6842,170,230,400,1.3529,140,150,290,1.0714,120,140,260,1.1667,123,71
1000,390,620,220,630,850,2.8636,180,430,610,2.3889,160,360,520,2.25,140,230,370,1.6429,120,140,260,1.1667,110,110,220,1,122,71
980,380,650,190,540,730,2.8421,160,390,550,2.4375,160,330,490,2.0625,130,220,350,1.6923,110,130,240,1.1818,100,110,210,1.1,122,71
1000,330,710,190,480,670,2.5263,170,370,540,2.1765,160,310,470,1.9375,140,200,340,1.4286,120,130,250,1.0833,100,100,200,1,122,71
1000,290,770,210,570,780,2.7143,180,400,580,2.2222,170,340,510,2,140,230,370,1.6429,130,140,270,1.0769,110,130,240,1.1818,122,71
1010,230,740,200,560,760,2.8,170,400,570,2.3529,160,330,490,2.0625,130,230,360,1.7692,120,150,270,1.25,100,130,230,1.3,121,70
1010,270,800,210,490,700,2.3333,180,360,540,2,170,310,480,1.8235,140,210,350,1.5,130,140,270,1.0769,110,120,230,1.0909,122,71
1010,210,680,230,470,700,2.0435,200,350,550,1.75,180,300,480,1.6667,150,190,340,1.2667,130,140,270,1.0769,110,110,220,1,122,71
990,330,700,190,570,760,3,160,390,550,2.4375,160,340,500,2.125,130,210,340,1.6154,120,130,250,1.0833,100,100,200,1,122,71
990,290,710,200,720,920,3.6,180,470,650,2.6111,170,390,560,2.2941,150,260,410,1.7333,120,140,260,1.1667,110,110,220,1,121,71
990,280,710,190,480,670,2.5263,170,360,530,2.1176,150,320,470,2.1333,140,200,340,1.4286,110,140,250,1.2727,100,120,220,1.2,121,70
1010,280,720,200,450,650,2.25,170,340,510,2,160,290,450,1.8125,130,190,320,1.4615,120,130,250,1.0833,100,110,210,1.1,120,70
990,290,750,220,550,770,2.5,180,380,560,2.1111,180,320,500,1.7778,150,220,370,1.4667,140,130,270,0.92857,120,110,230,0.91667,120,70
1010,240,790,260,540,800,2.0769,210,400,610,1.9048,190,340,530,1.7895,170,240,410,1.4118,140,150,290,1.0714,140,130,270,0.92857,121,70
980,220,670,240,440,680,1.8333,180,330,510,1.8333,170,280,450,1.6471,150,180,330,1.2,120,130,250,1.0833,100,120,220,1.2,121,70
970,310,620,200,630,830,3.15,160,550,710,3.4375,160,430,590,2.6875,130,290,420,2.2308,120,160,280,1.3333,100,120,220,1.2,121,70
970,350,730,190,500,690,2.6316,170,360,530,2.1176,150,320,470,2.1333,140,210,350,1.5,110,130,240,1.1818,100,110,210,1.1,120,70
980,240,680,260,500,760,1.9231,180,380,560,2.1111,160,340,500,2.125,140,240,380,1.7143,110,160,270,1.4545,100,140,240,1.4,120,70
980,300,590,200,600,800,3,170,390,560,2.2941,160,330,490,2.0625,140,220,360,1.5714,120,140,260,1.1667,110,110,220,1,120,70
980,390,730,220,520,740,2.3636,180,350,530,1.9444,180,280,460,1.5556,150,190,340,1.2667,130,130,260,1,120,110,230,0.91667,120,70
1010,250,770,270,520,790,1.9259,210,390,600,1.8571,200,340,540,1.7,160,230,390,1.4375,140,140,280,1,120,120,240,1,121,70
980,240,680,200,480,680,2.4,170,350,520,2.0588,170,300,470,1.7647,140,180,320,1.2857,130,120,250,0.92308,110,100,210,0.90909,121,70
990,300,700,190,540,730,2.8421,170,390,560,2.2941,160,330,490,2.0625,140,210,350,1.5,120,130,250,1.0833,110,110,220,1,120,70
1000,290,750,190,530,720,2.7895,170,400,570,2.3529,160,350,510,2.1875,140,210,350,1.5,110,140,250,1.2727,100,110,210,1.1,120,70
950,250,720,200,480,680,2.4,180,360,540,2,170,310,480,1.8235,140,200,340,1.4286,130,130,260,1,110,100,210,0.90909,120,70
710,230,700,180,480,660,2.6667,160,410,570,2.5625,150,350,500,2.3333,130,240,370,1.8462,110,160,270,1.4545,90,130,220,1.4444,120,70
1300,10,1060,20,780,800,39,20,650,670,32.5,20,620,640,31,20,520,540,26,20,450,470,22.5,20,420,440,21,121,70
1030,240,680,260,480,740,1.8462,210,380,590,1.8095,180,330,510,1.8333,160,230,390,1.4375,140,160,300,1.1429,110,120,230,1.0909,121,70
990,350,650,210,520,730,2.4762,180,360,540,2,170,300,470,1.7647,140,190,330,1.3571,130,120,250,0.92308,110,100,210,0.90909,121,70
1010,340,480,190,490,680,2.5789,170,380,550,2.2353,160,320,480,2,130,210,340,1.6154,120,140,260,1.1667,100,110,210,1.1,120,70
1000,530,740,210,590,800,2.8095,180,390,570,2.1667,170,330,500,1.9412,140,220,360,1.5714,120,140,260,1.1667,110,110,220,1,120,70
1000,260,640,210,530,740,2.5238,180,400,580,2.2222,170,330,500,1.9412,150,220,370,1.4667,130,130,260,1,110,110,220,1,120,70
1000,360,740,210,520,730,2.4762,190,370,560,1.9474,180,320,500,1.7778,150,210,360,1.4,130,120,250,0.92308,120,100,220,0.83333,121,70
1000,260,780,230,570,800,2.4783,190,390,580,2.0526,180,320,500,1.7778,160,220,380,1.375,130,140,270,1.0769,120,110,230,0.91667,122,70
1010,220,640,240,470,710,1.9583,190,340,530,1.7895,170,290,460,1.7059,150,190,340,1.2667,130,140,270,1.0769,110,120,230,1.0909,121,70
1000,370,600,200,550,750,2.75,170,400,570,2.3529,150,340,490,2.2667,140,200,340,1.4286,110,130,240,1.1818,100,110,210,1.1,121,70
1000,400,700,390,710,1100,1.8205,190,480,670,2.5263,180,390,570,2.1667,140,260,400,1.8571,120,150,270,1.25,110,120,230,1.0909,120,69
1010,300,750,210,570,780,2.7143,180,400,580,2.2222,160,340,500,2.125,140,230,370,1.6429,120,140,260,1.1667,100,120,220,1.2,120,69
990,260,700,200,550,750,2.75,180,380,560,2.1111,170,310,480,1.8235,150,200,350,1.3333,130,130,260,1,110,100,210,0.90909,120,69
1010,290,750,210,510,720,2.4286,180,360,540,2,170,310,480,1.8235,150,210,360,1.4,130,140,270,1.0769,110,110,220,1,121,70
1020,260,790,280,550,830,1.9643,190,410,600,2.1579,180,360,540,2,150,260,410,1.7333,130,150,280,1.1538,110,120,230,1.0909,121,70
1000,230,590,200,450,650,2.25,170,330,500,1.9412,160,280,440,1.75,140,180,320,1.2857,120,130,250,1.0833,100,100,200,1,120,70
1000,410,650,210,540,750,2.5714,170,380,550,2.2353,170,330,500,1.9412,140,200,340,1.4286,120,130,250,1.0833,100,100,200,1,120,69
1010,350,580,200,480,680,2.4,180,370,550,2.0556,160,320,480,2,140,210,350,1.5,120,140,260,1.1667,100,120,220,1.2,119,69
970,430,630,210,520,730,2.4762,180,370,550,2.0556,170,270,440,1.5882,150,180,330,1.2,120,130,250,1.0833,100,110,210,1.1,119,69
1000,340,580,200,590,790,2.95,170,400,570,2.3529,150,340,490,2.2667,140,220,360,1.5714,120,150,270,1.25,100,120,220,1.2,119,69
1000,420,590,260,430,690,1.6538,190,320,510,1.6842,180,270,450,1.5,150,190,340,1.2667,130,140,270,1.0769,110,110,220,1,119,69
1020,410,590,430,440,870,1.0233,190,330,520,1.7368,170,280,450,1.6471,150,200,350,1.3333,120,150,270,1.25,110,130,240,1.1818,120,69
1010,430,750,180,610,790,3.3889,160,440,600,2.75,150,370,520,2.4667,130,210,340,1.6154,100,140,240,1.4,100,120,220,1.2,120,69
1010,260,660,180,510,690,2.8333,160,400,560,2.5,150,340,490,2.2667,130,200,330,1.5385,110,130,240,1.1818,100,110,210,1.1,120,69
1000,350,750,190,560,750,2.9474,170,410,580,2.4118,150,350,500,2.3333,120,230,350,1.9167,110,130,240,1.1818,100,100,200,1,119,69
950,250,750,190,740,930,3.8947,170,410,580,2.4118,160,340,500,2.125,140,230,370,1.6429,120,140,260,1.1667,110,110,220,1,119,69
1060,200,690,140,540,680,3.8571,130,420,550,3.2308,120,360,480,3,100,260,360,2.6,80,180,260,2.25,70,160,230,2.2857,119,69
980,370,590,210,420,630,2,180,300,480,1.6667,170,250,420,1.4706,150,170,320,1.1333,130,130,260,1,120,100,220,0.83333,119,69
1030,390,640,410,470,880,1.1463,410,350,760,0.85366,410,300,710,0.73171,140,200,340,1.4286,110,150,260,1.3636,100,130,230,1.3,120,69
1040,390,610,210,620,830,2.9524,170,390,560,2.2941,160,330,490,2.0625,130,220,350,1.6923,110,130,240,1.1818,100,110,210,1.1,119,69
940,430,720,230,730,960,3.1739,210,660,870,3.1429,190,450,640,2.3684,170,290,460,1.7059,150,130,280,0.86667,130,80,210,0.61538,118,69
990,220,630,190,480,670,2.5263,160,350,510,2.1875,150,300,450,2,130,180,310,1.3846,110,120,230,1.0909,100,110,210,1.1,118,69
980,360,740,200,430,630,2.15,170,330,500,1.9412,160,270,430,1.6875,140,160,300,1.1429,120,120,240,1,110,110,220,1,118,68
980,240,760,200,500,700,2.5,170,350,520,2.0588,170,290,460,1.7059,150,170,320,1.1333,120,130,250,1.0833,110,100,210,0.90909,118,68
970,220,770,240,520,760,2.1667,200,380,580,1.9,180,360,540,2,150,200,350,1.3333,130,150,280,1.1538,110,120,230,1.0909,118,69
980,200,600,220,440,660,2,170,320,490,1.8824,150,260,410,1.7333,130,170,300,1.3077,120,130,250,1.0833,100,110,210,1.1,118,69
990,380,720,180,730,910,4.0556,160,730,890,4.5625,140,580,720,4.1429,130,310,440,2.3846,110,130,240,1.1818,90,100,190,1.1111,117,68
990,270,720,200,520,720,2.6,160,400,560,2.5,160,350,510,2.1875,140,230,370,1.6429,120,130,250,1.0833,110,110,220,1,116,68
1000,270,740,290,520,810,1.7931,190,390,580,2.0526,170,350,520,2.0588,150,230,380,1.5333,120,140,260,1.1667,110,110,220,1,116,68
1010,260,740,200,750,950,3.75,180,550,730,3.0556,170,440,610,2.5882,150,290,440,1.9333,130,160,290,1.2308,110,120,230,1.0909,116,68
990,270,730,220,740,960,3.3636,200,160,360,0.8,190,160,350,0.84211,160,160,320,1,140,160,300,1.1429,130,120,250,0.92308,117,68
1020,260,730,280,560,840,2,200,440,640,2.2,190,390,580,2.0526,160,280,440,1.75,140,170,310,1.2143,120,140,260,1.1667,117,68
990,290,710,310,480,790,1.5484,210,440,650,2.0952,180,400,580,2.2222,160,260,420,1.625,130,150,280,1.1538,130,110,240,0.84615,117,68
1000,280,700,200,710,910,3.55,160,460,620,2.875,160,390,550,2.4375,140,260,400,1.8571,120,140,260,1.1667,110,110,220,1,116,68
990,300,710,210,610,820,2.9048,180,400,580,2.2222,170,350,520,2.0588,150,240,390,1.6,130,140,270,1.0769,120,100,220,0.83333,116,68
990,280,700,200,540,740,2.7,180,400,580,2.2222,170,350,520,2.0588,150,240,390,1.6,130,150,280,1.1538,120,110,230,0.91667,117,68
990,290,740,220,570,790,2.5909,190,470,660,2.4737,180,390,570,2.1667,160,280,440,1.75,140,160,300,1.1429,120,120,240,1,117,68
990,250,750,210,490,700,2.3333,190,360,550,1.8947,180,310,490,1.7222,160,210,370,1.3125,130,130,260,1,120,100,220,0.83333,119,69
980,240,620,260,470,730,1.8077,240,360,600,1.5,200,310,510,1.55,170,210,380,1.2353,150,130,280,0.86667,130,110,240,0.84615,119,69
980,360,670,350,680,1030,1.9429,190,510,700,2.6842,180,410,590,2.2778,150,270,420,1.8,120,150,270,1.25,100,120,220,1.2,119,69
1000,310,670,190,480,670,2.5263,160,370,530,2.3125,150,320,470,2.1333,130,200,330,1.5385,110,140,250,1.2727,90,110,200,1.2222,118,69
980,330,740,200,550,750,2.75,180,390,570,2.1667,160,340,500,2.125,150,240,390,1.6,130,140,270,1.0769,110,110,220,1,119,69
1000,240,690,200,490,690,2.45,170,360,530,2.1176,160,310,470,1.9375,150,200,350,1.3333,120,130,250,1.0833,100,110,210,1.1,119,69
990,310,740,210,500,710,2.381,190,370,560,1.9474,180,320,500,1.7778,150,220,370,1.4667,130,130,260,1,120,110,230,0.91667,120,70
990,250,770,220,450,670,2.0455,190,340,530,1.7895,170,290,460,1.7059,160,180,340,1.125,130,120,250,0.92308,120,100,220,0.83333,121,70
990,220,610,240,460,700,1.9167,240,350,590,1.4583,210,300,510,1.4286,170,190,360,1.1176,130,140,270,1.0769,120,110,230,0.91667,121,71
1000,380,620,190,490,680,2.5789,170,370,540,2.1765,150,310,460,2.0667,140,200,340,1.4286,110,130,240,1.1818,100,100,200,1,121,71
990,380,620,200,630,830,3.15,170,470,640,2.7647,160,400,560,2.5,130,270,400,2.0769,110,150,260,1.3636,100,110,210,1.1,121,70
1000,370,640,190,500,690,2.6316,170,370,540,2.1765,160,320,480,2,140,200,340,1.4286,120,130,250,1.0833,110,110,220,1,121,70
1000,360,600,200,430,630,2.15,180,320,500,1.7778,160,280,440,1.75,150,170,320,1.1333,120,120,240,1,100,100,200,1,121,70
1000,400,740,210,530,740,2.5238,190,380,570,2,170,320,490,1.8824,140,220,360,1.5714,130,130,260,1,110,110,220,1,122,71
1000,260,720,280,500,780,1.7857,220,370,590,1.6818,200,310,510,1.55,170,180,350,1.0588,140,110,250,0.78571,130,70,200,0.53846,122,71
990,280,630,210,450,660,2.1429,180,330,510,1.8333,170,280,450,1.6471,140,180,320,1.2857,120,120,240,1,110,100,210,0.90909,123,71
1000,360,630,200,640,840,3.2,170,510,680,3,160,420,580,2.625,130,290,420,2.2308,120,170,290,1.4167,100,130,230,1.3,122,71
990,370,710,200,490,690,2.45,170,360,530,2.1176,170,310,480,1.8235,140,200,340,1.4286,130,130,260,1,110,100,210,0.90909,121,70
990,280,730,210,450,660,2.1429,180,350,530,1.9444,160,310,470,1.9375,140,220,360,1.5714,120,130,250,1.0833,110,110,220,1,121,70
990,260,620,200,510,710,2.55,170,380,550,2.2353,160,310,470,1.9375,140,200,340,1.4286,110,130,240,1.1818,110,110,220,1,121,70
990,370,760,210,470,680,2.2381,180,330,510,1.8333,180,280,460,1.5556,150,210,360,1.4,130,140,270,1.0769,110,120,230,1.0909,122,71
1010,230,730,250,500,750,2,210,380,590,1.8095,180,330,510,1.8333,160,230,390,1.4375,130,160,290,1.2308,110,130,240,1.1818,122,70
1000,280,630,190,640,830,3.3684,170,440,610,2.5882,160,360,520,2.25,140,190,330,1.3571,110,120,230,1.0909,100,110,210,1.1,121,70
980,370,640,200,520,720,2.6,180,370,550,2.0556,170,320,490,1.8824,150,190,340,1.2667,120,120,240,1,110,100,210,0.90909,121,70
1000,340,760,200,500,700,2.5,170,370,540,2.1765,160,320,480,2,140,210,350,1.5,120,130,250,1.0833,110,110,220,1,121,70
990,240,650,200,480,680,2.4,180,350,530,1.9444,160,300,460,1.875,150,200,350,1.3333,120,130,250,1.0833,110,100,210,0.90909,121,70
990,340,660,200,470,670,2.35,180,380,560,2.1111,160,340,500,2.125,150,220,370,1.4667,130,150,280,1.1538,110,110,220,1,121,70
1000,330,780,190,480,670,2.5263,170,350,520,2.0588,160,300,460,1.875,140,200,340,1.4286,120,130,250,1.0833,110,110,220,1,122,70
1020,220,640,240,460,700,1.9167,220,370,590,1.6818,180,320,500,1.7778,150,210,360,1.4,130,140,270,1.0769,110,120,230,1.0909,121,70
990,380,620,200,560,760,2.8,170,380,550,2.2353,160,330,490,2.0625,140,210,350,1.5,120,130,250,1.0833,110,100,210,0.90909,121,70
990,370,440,200,450,650,2.25,170,370,540,2.1765,150,310,460,2.0667,140,200,340,1.4286,120,130,250,1.0833,110,110,220,1,120,70
990,550,640,250,560,810,2.24,180,390,570,2.1667,160,320,480,2,140,210,350,1.5,120,130,250,1.0833,100,110,210,1.1,120,69
1010,350,630,210,530,740,2.5238,180,410,590,2.2778,170,340,510,2,140,220,360,1.5714,120,140,260,1.1667,100,120,220,1.2,120,69
890,380,760,210,460,670,2.1905,190,360,550,1.8947,180,310,490,1.7222,150,200,350,1.3333,130,120,250,0.92308,120,100,220,0.83333,120,69
1120,130,830,150,680,830,4.5333,150,590,740,3.9333,100,540,640,5.4,70,450,520,6.4286,50,10,60,0.2,40,10,50,0.25,121,70
1000,290,700,200,470,670,2.35,170,360,530,2.1176,150,310,460,2.0667,130,200,330,1.5385,120,140,260,1.1667,100,110,210,1.1,120,69
980,300,580,190,480,670,2.5263,160,350,510,2.1875,150,290,440,1.9333,130,170,300,1.3077,120,120,240,1,100,100,200,1,119,69
1000,400,730,380,740,1120,1.9474,180,510,690,2.8333,170,410,580,2.4118,140,280,420,2,120,170,290,1.4167,110,130,240,1.1818,119,69
1010,270,640,210,480,690,2.2857,180,370,550,2.0556,170,320,490,1.8824,140,200,340,1.4286,130,130,260,1,110,100,210,0.90909,119,69
1020,370,720,200,730,930,3.65,180,480,660,2.6667,160,400,560,2.5,140,270,410,1.9286,120,150,270,1.25,100,120,220,1.2,119,69
1000,300,780,210,570,780,2.7143,180,390,570,2.1667,170,340,510,2,160,220,380,1.375,130,140,270,1.0769,120,100,220,0.83333,120,69
990,220,700,240,510,750,2.125,240,400,640,1.6667,200,350,550,1.75,170,240,410,1.4118,140,160,300,1.1429,130,130,260,1,120,69
1990,290,710,180,540,720,3,150,400,550,2.6667,140,340,480,2.4286,120,200,320,1.6667,110,150,260,1.3636,90,120,210,1.3333,119,69
1010,1280,710,1250,720,1970,0.576,1020,720,1740,0.70588,760,630,1390,0.82895,520,390,910,0.75,330,190,520,0.57576,270,150,420,0.55556,119,69
1020,300,800,180,810,990,4.5,150,490,640,3.2667,140,410,550,2.9286,120,250,370,2.0833,110,150,260,1.3636,100,130,230,1.3,119,69
1040,220,830,180,840,1020,4.6667,170,820,990,4.8235,160,610,770,3.8125,140,400,540,2.8571,120,190,310,1.5833,100,140,240,1.4,119,69
990,210,780,210,610,820,2.9048,190,420,610,2.2105,180,370,550,2.0556,160,270,430,1.6875,140,140,280,1,130,110,240,0.84615,120,69
1010,210,740,230,540,770,2.3478,230,420,650,1.8261,230,360,590,1.5652,170,240,410,1.4118,140,160,300,1.1429,120,130,250,1.0833,120,69
1010,270,730,190,740,930,3.8947,170,570,740,3.3529,170,490,660,2.8824,140,320,460,2.2857,130,170,300,1.3077,110,130,240,1.1818,119,69
1010,280,720,180,610,790,3.3889,160,480,640,3,150,400,550,2.6667,140,260,400,1.8571,120,140,260,1.1667,100,120,220,1.2,119,69
980,290,750,180,570,750,3.1667,150,430,580,2.8667,150,370,520,2.4667,140,250,390,1.7857,120,140,260,1.1667,110,110,220,1,119,69
920,230,760,200,770,970,3.85,170,490,660,2.8824,170,400,570,2.3529,140,270,410,1.9286,130,130,260,1,120,110,230,0.91667,119,69
1080,160,840,140,590,730,4.2143,120,450,570,3.75,110,410,520,3.7273,90,280,370,3.1111,70,190,260,2.7143,60,160,220,2.6667,120,69
960,240,730,260,590,850,2.2692,210,460,670,2.1905,200,400,600,2,180,290,470,1.6111,150,170,320,1.1333,130,120,250,0.92308,121,70
1010,230,750,250,510,760,2.04,250,370,620,1.48,170,320,490,1.8824,140,200,340,1.4286,110,140,250,1.2727,90,120,210,1.3333,121,70
1950,260,660,200,630,830,3.15,180,460,640,2.5556,160,400,560,2.5,140,250,390,1.7857,120,130,250,1.0833,110,110,220,1,121,70
990,1290,700,1170,710,1880,0.60684,1140,690,1830,0.60526,840,530,1370,0.63095,580,350,930,0.60345,260,200,460,0.76923,130,140,270,1.0769,121,70
990,290,720,220,480,700,2.1818,190,340,530,1.7895,180,280,460,1.5556,160,180,340,1.125,140,150,290,1.0714,130,110,240,0.84615,123,70
980,270,740,220,670,890,3.0455,190,420,610,2.2105,190,360,550,1.8947,160,260,420,1.625,140,140,280,1,130,110,240,0.84615,124,71
960,240,730,260,530,790,2.0385,260,410,670,1.5769,240,370,610,1.5417,180,260,440,1.4444,150,210,360,1.4,130,140,270,1.0769,125,72
980,230,660,190,470,660,2.4737,170,330,500,1.9412,160,280,440,1.75,140,170,310,1.2143,120,130,250,1.0833,100,110,210,1.1,125,72
980,320,660,200,670,870,3.35,180,670,850,3.7222,160,670,830,4.1875,150,370,520,2.4667,130,140,270,1.0769,120,100,220,0.83333,125,72
970,320,700,210,580,790,2.7619,180,440,620,2.4444,170,380,550,2.2353,150,260,410,1.7333,130,140,270,1.0769,120,110,230,0.91667,125,72
1010,270,720,290,500,790,1.7241,200,440,640,2.2,190,380,570,2,150,270,420,1.8,130,160,290,1.2308,110,120,230,1.0909,126,72
990,290,750,210,760,970,3.619,190,760,950,4,180,510,690,2.8333,160,300,460,1.875,140,150,290,1.0714,120,110,230,0.91667,127,73
1000,240,780,210,790,1000,3.7619,180,390,570,2.1667,180,350,530,1.9444,150,250,400,1.6667,140,150,290,1.0714,120,120,240,1,128,73
960,220,710,240,520,760,2.1667,240,410,650,1.7083,200,360,560,1.8,170,250,420,1.4706,140,160,300,1.1429,130,130,260,1,128,74
980,250,660,190,500,690,2.6316,160,360,520,2.25,150,310,460,2.0667,130,170,300,1.3077,110,120,230,1.0909,110,110,220,1,128,74
980,320,680,190,690,880,3.6316,160,490,650,3.0625,160,420,580,2.625,140,280,420,2,120,150,270,1.25,100,120,220,1.2,128,74
1000,300,660,190,590,780,3.1053,170,440,610,2.5882,150,390,540,2.6,140,280,420,2,120,160,280,1.3333,110,130,240,1.1818,128,74
990,340,750,200,560,760,2.8,180,410,590,2.2778,170,360,530,2.1176,150,250,400,1.6667,130,150,280,1.1538,110,110,220,1,129,74
1000,240,760,210,730,940,3.4762,180,510,690,2.8333,170,440,610,2.5882,150,310,460,2.0667,130,190,320,1.4615,110,130,240,1.1818,130,75
670,240,600,210,520,730,2.4762,190,390,580,2.0526,180,340,520,1.8889,160,250,410,1.5625,130,150,280,1.1538,120,110,230,0.91667,131,75
1290,70,1000,90,810,900,9,90,700,790,7.7778,70,650,720,9.2857,70,560,630,8,70,470,540,6.7143,70,440,510,6.2857,131,75
970,290,640,200,490,690,2.45,170,380,550,2.2353,170,320,490,1.8824,140,210,350,1.5,130,130,260,1,110,100,210,0.90909,131,75
970,330,670,190,530,720,2.7895,170,390,560,2.2941,160,340,500,2.125,140,230,370,1.6429,120,130,250,1.0833,100,110,210,1.1,131,75
980,300,700,190,520,710,2.7368,150,390,540,2.6,150,340,490,2.2667,110,220,330,2,90,140,230,1.5556,80,110,190,1.375,131,75
990,280,730,200,740,940,3.7,170,400,570,2.3529,170,340,510,2,140,220,360,1.5714,130,130,260,1,110,110,220,1,131,75
980,260,720,210,450,660,2.1429,190,310,500,1.6316,180,250,430,1.3889,160,120,280,0.75,130,50,180,0.38462,120,30,150,0.25,132,76
1940,260,1070,280,990,1270,3.5357,280,850,1130,3.0357,220,650,870,2.9545,180,290,470,1.6111,150,160,310,1.0667,140,120,260,0.85714,133,76
1020,870,690,540,700,1240,1.2963,200,540,740,2.7,170,460,630,2.7059,150,300,450,2,130,170,300,1.3077,110,130,240,1.1818,133,76
970,330,670,190,560,750,2.9474,170,420,590,2.4706,160,360,520,2.25,150,250,400,1.6667,120,120,240,1,100,100,200,1,132,76
970,300,690,190,480,670,2.5263,170,370,540,2.1765,160,320,480,2,140,200,340,1.4286,120,130,250,1.0833,110,110,220,1,132,76
980,280,720,200,460,660,2.3,180,360,540,2,170,310,480,1.8235,150,230,380,1.5333,120,140,260,1.1667,110,110,220,1,132,76
960,260,720,220,600,820,2.7273,190,390,580,2.0526,180,330,510,1.8333,160,230,390,1.4375,140,130,270,0.92857,120,110,230,0.91667,132,76
980,240,690,260,520,780,2,210,400,610,1.9048,190,380,570,2,160,280,440,1.75,140,170,310,1.2143,120,130,250,1.0833,133,76
970,290,610,310,450,760,1.4516,180,330,510,1.8333,170,280,450,1.6471,150,180,330,1.2,120,140,260,1.1667,120,100,220,0.83333,131,75
970,360,470,200,480,680,2.4,170,390,560,2.2941,160,330,490,2.0625,130,210,340,1.6154,120,120,240,1,100,100,200,1,130,74
970,500,660,310,630,940,2.0323,180,400,580,2.2222,180,350,530,1.9444,150,240,390,1.6,130,130,260,1,110,110,220,1,130,74
950,310,680,200,540,740,2.7,180,380,560,2.1111,160,340,500,2.125,150,230,380,1.5333,120,130,250,1.0833,110,110,220,1,130,74
930,270,690,190,700,890,3.6842,170,410,580,2.4118,160,340,500,2.125,140,210,350,1.5,120,130,250,1.0833,100,110,210,1.1,130,74
910,240,680,200,510,710,2.55,180,380,560,2.1111,170,330,500,1.9412,150,220,370,1.4667,130,130,260,1,110,100,210,0.90909,131,75
900,230,690,250,520,770,2.08,200,400,600,2,180,360,540,2,150,250,400,1.6667,130,160,290,1.2308,110,120,230,1.0909,131,75
960,210,600,230,450,680,1.9565,170,340,510,2,160,290,450,1.8125,130,180,310,1.3846,110,140,250,1.2727,90,110,200,1.2222,130,75
840,360,620,200,630,830,3.15,170,470,640,2.7647,170,380,550,2.2353,140,260,400,1.8571,120,140,260,1.1667,110,100,210,0.90909,130,75
840,220,580,190,420,610,2.2105,160,330,490,2.0625,150,280,430,1.8667,130,170,300,1.3077,110,120,230,1.0909,100,90,190,0.9,130,75
830,260,610,200,450,650,2.25,180,350,530,1.9444,160,300,460,1.875,150,190,340,1.2667,120,120,240,1,110,90,200,0.81818,130,75
870,220,620,190,430,620,2.2632,160,320,480,2,160,270,430,1.6875,130,170,300,1.3077,110,110,220,1,100,100,200,1,130,75
870,250,640,190,650,840,3.4211,180,370,550,2.0556,160,320,480,2,140,200,340,1.4286,120,130,250,1.0833,100,110,210,1.1,130,75
870,230,650,200,430,630,2.15,170,330,500,1.9412,170,290,460,1.7059,150,180,330,1.2,140,130,270,0.92857,100,100,200,1,131,76
870,220,650,240,460,700,1.9167,210,350,560,1.6667,190,300,490,1.5789,160,210,370,1.3125,130,140,270,1.0769,120,110,230,0.91667,131,76
930,220,540,180,550,730,3.0556,150,390,540,2.6,150,330,480,2.2,120,160,280,1.3333,110,110,220,1,100,100,200,1,130,76
920,390,600,190,480,670,2.5263,170,360,530,2.1176,160,290,450,1.8125,130,180,310,1.3846,120,120,240,1,100,90,190,0.9,130,76
940,320,680,190,480,670,2.5263,160,350,510,2.1875,160,300,460,1.875,130,180,310,1.3846,110,130,240,1.1818,100,100,200,1,130,76
930,260,630,200,450,650,2.25,180,330,510,1.8333,160,280,440,1.75,140,180,320,1.2857,120,120,240,1,110,90,200,0.81818,130,76
