cp,st,dt,sw10,dw10,sw10+dw10,dw10/sw10,sw25,dw25,sw25+dw25,dw25/sw25,sw33,dw33,sw33+dw33,dw33/sw33,sw50,dw50,sw50+dw50,dw50/sw50,sw66,dw66,sw66+dw66,dw66/sw66,sw75,dw75,sw75+dw75,dw75/sw75,sys,dia,
900,330,700,350,500,850,1.4286,200,390,590,1.95,180,320,500,1.7778,130,190,320,1.4615,120,140,260,1.1667,100,110,210,1.1,111,64
890,200,560,220,420,640,1.9091,160,290,450,1.8125,150,220,370,1.4667,130,160,290,1.2308,100,130,230,1.3,90,100,190,1.1111,110,64
910,330,570,170,580,750,3.4118,150,440,590,2.9333,140,360,500,2.5714,110,200,310,1.8182,100,140,240,1.4,90,120,210,1.3333,111,64
900,340,630,170,450,620,2.6471,150,320,470,2.1333,140,250,390,1.7857,120,170,290,1.4167,100,120,220,1.2,90,100,190,1.1111,111,64
910,270,630,190,440,630,2.3158,150,340,490,2.2667,140,250,390,1.7857,120,160,280,1.3333,110,130,240,1.1818,90,100,190,1.1111,112,65
910,280,550,190,560,750,2.9474,160,350,510,2.1875,140,260,400,1.8571,130,160,290,1.2308,110,120,230,1.0909,100,110,210,1.1,112,65
890,360,600,190,450,640,2.3684,160,310,470,1.9375,150,240,390,1.6,140,160,300,1.1429,120,120,240,1,100,100,200,1,112,65
900,290,630,310,440,750,1.4194,190,320,510,1.6842,170,270,440,1.5882,140,180,320,1.2857,120,140,260,1.1667,110,120,230,1.0909,111,65
900,270,580,170,430,600,2.5294,150,300,450,2,140,220,360,1.5714,120,150,270,1.25,110,110,220,1,90,100,190,1.1111,111,64
890,320,570,180,580,760,3.2222,150,390,540,2.6,140,320,460,2.2857,120,180,300,1.5,100,120,220,1.2,100,100,200,1,111,65
900,320,600,180,430,610,2.3889,150,310,460,2.0667,140,230,370,1.6429,120,160,280,1.3333,110,120,230,1.0909,90,100,190,1.1111,111,65
910,300,550,180,430,610,2.3889,160,320,480,2,140,250,390,1.7857,130,170,300,1.3077,110,130,240,1.1818,90,100,190,1.1111,112,65
890,360,540,200,550,750,2.75,170,370,540,2.1765,160,300,460,1.875,140,180,320,1.2857,120,130,250,1.0833,100,100,200,1,112,65
890,350,700,190,450,640,2.3684,160,340,500,2.125,150,280,430,1.8667,130,180,310,1.3846,110,130,240,1.1818,100,110,210,1.1,111,65
910,190,620,210,440,650,2.0952,210,310,520,1.4762,160,240,400,1.5,130,180,310,1.3846,100,140,240,1.4,100,120,220,1.2,111,65
890,290,550,180,500,680,2.7778,150,340,490,2.2667,140,250,390,1.7857,130,160,290,1.2308,100,120,220,1.2,100,100,200,1,111,65
900,340,640,220,650,870,2.9545,160,450,610,2.8125,140,360,500,2.5714,120,200,320,1.6667,100,140,240,1.4,90,120,210,1.3333,112,65
890,260,640,170,440,610,2.5882,150,300,450,2,140,240,380,1.7143,120,160,280,1.3333,110,120,230,1.0909,100,100,200,1,112,65
890,250,560,180,400,580,2.2222,150,270,420,1.8,140,210,350,1.5,120,150,270,1.25,100,110,210,1.1,90,90,180,1,112,65
900,330,570,180,580,760,3.2222,150,370,520,2.4667,140,300,440,2.1429,130,180,310,1.3846,110,130,240,1.1818,100,110,210,1.1,112,65
900,330,690,350,480,830,1.3714,180,340,520,1.8889,160,290,450,1.8125,140,190,330,1.3571,120,140,260,1.1667,110,110,220,1,112,65
890,210,600,230,420,650,1.8261,170,290,460,1.7059,160,230,390,1.4375,140,160,300,1.1429,120,120,240,1,100,100,200,1,112,65
890,290,530,180,510,690,2.8333,150,350,500,2.3333,140,270,410,1.9286,120,160,280,1.3333,110,120,230,1.0909,90,110,200,1.2222,111,65
900,360,640,340,650,990,1.9118,160,400,560,2.5,150,320,470,2.1333,120,190,310,1.5833,110,140,250,1.2727,90,110,200,1.2222,111,65
900,260,640,180,460,640,2.5556,150,320,470,2.1333,140,260,400,1.8571,130,160,290,1.2308,100,120,220,1.2,100,100,200,1,112,65
850,260,640,180,420,600,2.3333,160,260,420,1.625,150,200,350,1.3333,130,140,270,1.0769,110,110,220,1,100,100,200,1,113,65
940,210,550,140,560,700,4,120,400,520,3.3333,100,10,110,0.1,90,10,100,0.11111,70,10,80,0.14286,60,10,70,0.16667,113,65
900,390,640,410,440,850,1.0732,410,320,730,0.78049,400,270,670,0.675,400,180,580,0.45,120,150,270,1.25,110,120,230,1.0909,112,65
900,260,550,170,410,580,2.4118,150,270,420,1.8,140,210,350,1.5,130,140,270,1.0769,110,110,220,1,100,90,190,0.9,112,65
900,350,390,180,400,580,2.2222,160,330,490,2.0625,150,240,390,1.6,120,150,270,1.25,110,110,220,1,100,100,200,1,112,65
890,510,620,270,520,790,1.9259,170,340,510,2,150,270,420,1.8,130,170,300,1.3077,110,120,230,1.0909,100,100,200,1,112,65
920,270,700,180,470,650,2.6111,150,330,480,2.2,140,260,400,1.8571,120,170,290,1.4167,100,120,220,1.2,90,110,200,1.2222,113,65
900,220,540,190,510,700,2.6842,160,340,500,2.125,150,260,410,1.7333,130,160,290,1.2308,110,120,230,1.0909,110,100,210,0.90909,114,66
890,360,680,190,440,630,2.3158,160,310,470,1.9375,150,250,400,1.6667,130,170,300,1.3077,120,120,240,1,100,100,200,1,113,65
890,210,630,230,410,640,1.7826,230,270,500,1.1739,180,210,390,1.1667,150,150,300,1,130,110,240,0.84615,110,90,200,0.81818,112,65
900,260,600,170,510,680,3,140,340,480,2.4286,140,270,410,1.9286,110,160,270,1.4545,100,120,220,1.2,90,110,200,1.2222,112,65
900,300,610,170,620,790,3.6471,150,490,640,3.2667,130,390,520,3,120,160,280,1.3333,100,120,220,1.2,90,100,190,1.1111,112,65
900,290,640,170,460,630,2.7059,150,320,470,2.1333,140,250,390,1.7857,120,160,280,1.3333,100,120,220,1.2,90,110,200,1.2222,113,65
900,260,550,190,500,690,2.6316,160,340,500,2.125,150,270,420,1.8,120,170,290,1.4167,110,130,240,1.1818,90,100,190,1.1111,113,66
900,350,580,190,520,710,2.7368,160,360,520,2.25,140,290,430,2.0714,130,180,310,1.3846,110,130,240,1.1818,100,110,210,1.1,113,66
890,320,690,220,420,640,1.9091,170,370,540,2.1765,160,280,440,1.75,130,180,310,1.3846,120,130,250,1.0833,100,110,210,1.1,113,65
890,200,600,220,430,650,1.9545,190,290,480,1.5263,170,220,390,1.2941,130,170,300,1.3077,110,130,240,1.1818,100,110,210,1.1,112,65
900,290,650,170,520,690,3.0588,140,360,500,2.5714,140,280,420,2,110,180,290,1.6364,100,120,220,1.2,90,110,200,1.2222,112,65
890,250,630,180,640,820,3.5556,150,500,650,3.3333,140,420,560,3,130,260,390,2,110,150,260,1.3636,90,90,180,1,112,65
900,260,620,170,480,650,2.8235,150,340,490,2.2667,140,270,410,1.9286,120,170,290,1.4167,100,130,230,1.3,90,110,200,1.2222,113,65
900,280,660,190,470,660,2.4737,160,390,550,2.4375,150,300,450,2,130,180,310,1.3846,110,130,240,1.1818,100,110,210,1.1,113,65
880,240,660,190,510,700,2.6842,180,340,520,1.8889,160,280,440,1.75,140,160,300,1.1429,120,130,250,1.0833,110,100,210,0.90909,112,65
900,220,670,240,490,730,2.0417,190,370,560,1.9474,170,330,500,1.9412,140,210,350,1.5,120,150,270,1.25,100,130,230,1.3,112,65
890,230,570,180,430,610,2.3889,150,290,440,1.9333,150,220,370,1.4667,120,150,270,1.25,110,120,230,1.0909,90,100,190,1.1111,112,65
920,320,570,170,520,690,3.0588,150,370,520,2.4667,140,290,430,2.0714,130,170,300,1.3077,100,130,230,1.3,90,100,190,1.1111,112,65
870,350,640,210,470,680,2.2381,180,340,520,1.8889,170,260,430,1.5294,150,140,290,0.93333,120,100,220,0.83333,110,80,190,0.72727,113,65
910,230,580,180,450,630,2.5,160,320,480,2,150,240,390,1.6,120,160,280,1.3333,110,120,230,1.0909,90,110,200,1.2222,114,66
880,330,670,190,440,630,2.3158,160,300,460,1.875,150,270,420,1.8,140,180,320,1.2857,110,120,230,1.0909,100,110,210,1.1,114,66
900,210,560,170,430,600,2.5294,150,290,440,1.9333,140,220,360,1.5714,120,160,280,1.3333,100,130,230,1.3,90,120,210,1.3333,114,66
900,340,690,360,420,780,1.1667,170,300,470,1.7647,160,250,410,1.5625,130,180,310,1.3846,110,140,250,1.2727,90,120,210,1.3333,113,66
890,210,440,170,440,610,2.5882,150,360,510,2.4,140,260,400,1.8571,120,150,270,1.25,100,120,220,1.2,90,100,190,1.1111,113,66
900,450,590,170,440,610,2.5882,150,320,470,2.1333,140,240,380,1.7143,120,160,280,1.3333,100,120,220,1.2,90,100,190,1.1111,114,66
890,310,660,170,510,680,3,150,350,500,2.3333,130,280,410,2.1538,130,170,300,1.3077,110,130,240,1.1818,90,100,190,1.1111,115,66
900,230,570,180,460,640,2.5556,150,320,470,2.1333,150,250,400,1.6667,120,160,280,1.3333,100,120,220,1.2,90,110,200,1.2222,115,66
890,330,570,180,440,620,2.4444,160,290,450,1.8125,150,220,370,1.4667,130,150,280,1.1538,110,130,240,1.1818,90,110,200,1.2222,115,66
890,320,700,180,450,630,2.5,160,320,480,2,150,250,400,1.6667,140,170,310,1.2143,110,130,240,1.1818,100,100,200,1,114,66
900,190,610,210,430,640,2.0476,190,300,490,1.5789,160,240,400,1.5,140,170,310,1.2143,110,130,240,1.1818,100,120,220,1.2,114,66
890,290,600,170,540,710,3.1765,150,360,510,2.4,140,280,420,2,120,170,290,1.4167,100,120,220,1.2,90,100,190,1.1111,114,66
900,290,620,180,490,670,2.7222,150,330,480,2.2,140,260,400,1.8571,130,160,290,1.2308,110,120,230,1.0909,90,100,190,1.1111,114,66
900,280,610,230,620,850,2.6957,160,380,540,2.375,160,300,460,1.875,130,180,310,1.3846,110,130,240,1.1818,100,100,200,1,116,67
890,290,650,180,600,780,3.3333,160,340,500,2.125,150,250,400,1.6667,140,160,300,1.1429,120,120,240,1,100,90,190,0.9,116,67
890,240,540,190,400,590,2.1053,170,240,410,1.4118,150,190,340,1.2667,140,120,260,0.85714,110,80,190,0.72727,100,50,150,0.5,115,67
900,350,700,370,500,870,1.3514,190,390,580,2.0526,160,330,490,2.0625,140,200,340,1.4286,120,140,260,1.1667,110,110,220,1,115,67
890,200,610,200,420,620,2.1,160,290,450,1.8125,150,220,370,1.4667,130,160,290,1.2308,110,120,230,1.0909,100,100,200,1,115,67
890,280,590,180,540,720,3,150,370,520,2.4667,150,290,440,1.9333,130,160,290,1.2308,110,120,230,1.0909,100,100,200,1,114,66
900,300,540,180,470,650,2.6111,150,330,480,2.2,150,260,410,1.7333,120,160,280,1.3333,110,120,230,1.0909,100,110,210,1.1,114,66
910,360,640,200,540,740,2.7,170,370,540,2.1765,150,290,440,1.9333,130,170,300,1.3077,110,130,240,1.1818,100,100,200,1,115,66
890,270,640,190,650,840,3.4211,160,370,530,2.3125,160,300,460,1.875,130,170,300,1.3077,120,120,240,1,100,90,190,0.9,115,66
890,250,550,210,410,620,1.9524,180,290,470,1.6111,170,230,400,1.3529,140,160,300,1.1429,130,120,250,0.92308,120,100,220,0.83333,116,67
900,340,660,360,460,820,1.2778,190,350,540,1.8421,170,300,470,1.7647,140,200,340,1.4286,120,150,270,1.25,100,120,220,1.2,115,67
890,240,550,180,560,740,3.1111,160,370,530,2.3125,140,280,420,2,120,150,270,1.25,110,110,220,1,90,100,190,1.1111,115,67
890,340,570,180,490,670,2.7222,160,340,500,2.125,140,260,400,1.8571,130,160,290,1.2308,110,120,230,1.0909,90,100,190,1.1111,115,67
900,320,670,170,480,650,2.8235,150,330,480,2.2,140,260,400,1.8571,120,170,290,1.4167,100,120,220,1.2,90,110,200,1.2222,115,67
900,230,570,170,450,620,2.6471,160,310,470,1.9375,150,240,390,1.6,120,160,280,1.3333,100,130,230,1.3,90,100,190,1.1111,115,67
890,330,700,190,700,890,3.6842,160,400,560,2.5,150,320,470,2.1333,130,190,320,1.4615,110,130,240,1.1818,100,110,210,1.1,116,67
890,190,700,180,420,600,2.3333,150,300,450,2,150,240,390,1.6,120,170,290,1.4167,110,130,240,1.1818,90,110,200,1.2222,117,67
900,190,650,210,440,650,2.0952,210,310,520,1.4762,160,260,420,1.625,140,180,320,1.2857,120,130,250,1.0833,100,120,220,1.2,116,67
890,250,580,170,590,760,3.4706,140,440,580,3.1429,140,360,500,2.5714,120,180,300,1.5,100,130,230,1.3,90,110,200,1.2222,116,67
900,310,680,160,480,640,3,140,350,490,2.5,130,280,410,2.1538,110,180,290,1.6364,90,130,220,1.4444,80,110,190,1.375,116,67
1510,220,1080,210,890,1100,4.2381,160,600,760,3.75,140,410,550,2.9286,130,180,310,1.3846,100,130,230,1.3,90,120,210,1.3333,116,67
1170,430,740,200,750,950,3.75,20,740,760,37,20,660,680,33,20,190,210,9.5,20,20,40,1,20,20,40,1,116,67
1840,430,1500,450,1350,1800,3,450,910,1360,2.0222,310,760,1070,2.4516,150,480,630,3.2,130,300,430,2.3077,110,210,320,1.9091,117,68
920,340,560,170,570,740,3.3529,140,430,570,3.0714,140,340,480,2.4286,120,190,310,1.5833,100,130,230,1.3,90,110,200,1.2222,116,67
910,360,630,180,440,620,2.4444,160,320,480,2,140,240,380,1.7143,130,160,290,1.2308,110,120,230,1.0909,100,100,200,1,116,67
920,280,690,180,470,650,2.6111,160,370,530,2.3125,150,310,460,2.0667,130,190,320,1.4615,110,150,260,1.3636,90,130,220,1.4444,116,66
900,230,560,180,570,750,3.1667,160,380,540,2.375,150,300,450,2,130,170,300,1.3077,120,120,240,1,100,100,200,1,116,66
890,340,670,190,400,590,2.1053,170,340,510,2,150,270,420,1.8,140,170,310,1.2143,110,130,240,1.1818,100,110,210,1.1,116,66
900,220,680,240,470,710,1.9583,190,350,540,1.8421,170,300,470,1.7647,150,200,350,1.3333,120,140,260,1.1667,110,120,230,1.0909,115,66
890,220,580,180,420,600,2.3333,160,290,450,1.8125,150,220,370,1.4667,130,160,290,1.2308,110,120,230,1.0909,100,100,200,1,115,66
890,310,610,240,620,860,2.5833,170,430,600,2.5294,150,330,480,2.2,140,190,330,1.3571,110,120,230,1.0909,110,110,220,1,115,66
900,280,610,180,460,640,2.5556,160,320,480,2,150,250,400,1.6667,120,160,280,1.3333,110,120,230,1.0909,100,100,200,1,115,66
890,290,590,180,440,620,2.4444,160,310,470,1.9375,140,240,380,1.7143,130,160,290,1.2308,100,120,220,1.2,80,90,170,1.125,115,66
900,300,530,180,540,720,3,160,360,520,2.25,150,270,420,1.8,130,160,290,1.2308,110,120,230,1.0909,100,100,200,1,116,67
880,370,540,210,390,600,1.8571,170,260,430,1.5294,160,220,380,1.375,140,170,310,1.2143,120,130,250,1.0833,110,100,210,0.90909,116,67
910,340,640,360,430,790,1.1944,360,310,670,0.86111,170,260,430,1.5294,140,180,320,1.2857,120,140,260,1.1667,100,120,220,1.2,116,67
900,270,460,180,470,650,2.6111,150,370,520,2.4667,150,290,440,1.9333,120,160,280,1.3333,110,120,230,1.0909,100,100,200,1,116,67
890,440,590,430,600,1030,1.3953,170,430,600,2.5294,160,360,520,2.25,130,180,310,1.3846,110,120,230,1.0909,100,100,200,1,116,67
910,300,630,180,470,650,2.6111,140,340,480,2.4286,140,270,410,1.9286,120,170,290,1.4167,110,130,240,1.1818,90,110,200,1.2222,116,67
910,280,570,170,410,580,2.4118,150,290,440,1.9333,140,210,350,1.5,130,160,290,1.2308,100,120,220,1.2,90,100,190,1.1111,117,68
900,340,670,190,680,870,3.5789,160,380,540,2.375,160,310,470,1.9375,130,170,300,1.3077,120,130,250,1.0833,100,100,200,1,117,68
900,230,710,250,450,700,1.8,180,310,490,1.7222,160,230,390,1.4375,140,150,290,1.0714,120,110,230,0.91667,110,80,190,0.72727,117,68
910,190,590,210,420,630,2,170,300,470,1.7647,160,240,400,1.5,130,170,300,1.3077,110,140,250,1.2727,100,110,210,1.1,117,68
900,320,590,180,600,780,3.3333,150,550,700,3.6667,150,400,550,2.6667,130,160,290,1.2308,110,120,230,1.0909,90,100,190,1.1111,116,67
910,310,600,170,460,630,2.7059,150,330,480,2.2,140,250,390,1.7857,130,160,290,1.2308,100,130,230,1.3,90,100,190,1.1111,116,67
910,310,630,200,540,740,2.7,160,380,540,2.375,150,300,450,2,130,180,310,1.3846,110,130,240,1.1818,90,110,200,1.2222,117,67
910,280,570,180,580,760,3.2222,150,370,520,2.4667,150,290,440,1.9333,120,170,290,1.4167,110,130,240,1.1818,90,110,200,1.2222,118,68
910,340,560,180,470,650,2.6111,160,340,500,2.125,150,270,420,1.8,130,170,300,1.3077,110,120,230,1.0909,100,110,210,1.1,118,68
900,350,690,370,460,830,1.2432,370,350,720,0.94595,190,300,490,1.5789,160,190,350,1.1875,130,140,270,1.0769,110,120,230,1.0909,118,68
900,210,590,170,430,600,2.5294,150,290,440,1.9333,140,220,360,1.5714,120,150,270,1.25,110,120,230,1.0909,90,100,190,1.1111,117,68
910,310,610,170,620,790,3.6471,150,440,590,2.9333,140,360,500,2.5714,120,200,320,1.6667,100,130,230,1.3,90,100,190,1.1111,117,67
900,300,640,180,460,640,2.5556,160,330,490,2.0625,140,260,400,1.8571,120,170,290,1.4167,110,120,230,1.0909,70,100,170,1.4286,116,67
910,260,620,190,440,630,2.3158,150,340,490,2.2667,140,280,420,2,120,170,290,1.4167,100,130,230,1.3,90,110,200,1.2222,116,67
910,290,680,180,690,870,3.8333,150,390,540,2.6,140,310,450,2.2143,130,180,310,1.3846,100,130,230,1.3,90,110,200,1.2222,117,67
890,230,690,190,480,670,2.5263,160,340,500,2.125,160,260,420,1.625,130,170,300,1.3077,120,130,250,1.0833,110,100,210,0.90909,118,68
920,200,620,220,450,670,2.0455,220,310,530,1.4091,170,250,420,1.4706,130,180,310,1.3846,110,140,250,1.2727,90,120,210,1.3333,117,68
890,300,600,180,520,700,2.8889,160,350,510,2.1875,150,270,420,1.8,130,160,290,1.2308,110,120,230,1.0909,100,90,190,0.9,117,68
900,290,600,170,610,780,3.5882,140,450,590,3.2143,140,360,500,2.5714,110,190,300,1.7273,100,140,240,1.4,90,110,200,1.2222,116,67
910,300,610,170,460,630,2.7059,150,310,460,2.0667,140,250,390,1.7857,120,160,280,1.3333,110,120,230,1.0909,90,100,190,1.1111,116,67
890,300,580,190,420,610,2.2105,160,280,440,1.75,150,220,370,1.4667,130,170,300,1.3077,110,130,240,1.1818,100,100,200,1,117,67
900,310,680,180,550,730,3.0556,160,370,530,2.3125,150,300,450,2,120,180,300,1.5,110,130,240,1.1818,90,110,200,1.2222,117,68
900,220,700,240,500,740,2.0833,190,420,610,2.2105,170,360,530,2.1176,150,220,370,1.4667,120,150,270,1.25,110,120,230,1.0909,117,68
890,200,600,220,430,650,1.9545,160,290,450,1.8125,150,230,380,1.5333,130,160,290,1.2308,110,130,240,1.1818,90,100,190,1.1111,117,68
900,290,600,170,520,690,3.0588,140,370,510,2.6429,130,290,420,2.2308,110,170,280,1.5455,90,130,220,1.4444,80,110,190,1.375,116,67
920,300,600,230,610,840,2.6522,160,460,620,2.875,150,370,520,2.4667,120,200,320,1.6667,110,150,260,1.3636,90,120,210,1.3333,116,67
900,320,660,180,450,630,2.5,150,310,460,2.0667,150,250,400,1.6667,130,180,310,1.3846,110,120,230,1.0909,90,100,190,1.1111,116,67
890,240,550,180,430,610,2.3889,160,280,440,1.75,150,210,360,1.4,130,140,270,1.0769,110,100,210,0.90909,90,80,170,0.88889,117,68
900,340,560,180,470,650,2.6111,150,330,480,2.2,140,260,400,1.8571,130,170,300,1.3077,100,130,230,1.3,90,120,210,1.3333,118,68
900,340,690,360,470,830,1.3056,360,350,710,0.97222,180,300,480,1.6667,150,240,390,1.6,130,170,300,1.3077,100,130,230,1.3,117,68
880,210,570,160,430,590,2.6875,140,290,430,2.0714,130,220,350,1.6923,110,150,260,1.3636,100,110,210,1.1,90,100,190,1.1111,117,68
900,310,500,160,480,640,3,140,340,480,2.4286,140,270,410,1.9286,120,160,280,1.3333,100,120,220,1.2,90,100,190,1.1111,117,67
910,400,630,400,640,1040,1.6,170,430,600,2.5294,160,350,510,2.1875,140,190,330,1.3571,120,140,260,1.1667,100,110,210,1.1,117,67
910,280,670,180,460,640,2.5556,150,320,470,2.1333,150,260,410,1.7333,120,170,290,1.4167,110,130,240,1.1818,100,110,210,1.1,117,67
900,240,550,190,470,660,2.4737,160,320,480,2,140,240,380,1.7143,130,160,290,1.2308,110,120,230,1.0909,100,100,200,1,118,68
900,350,690,190,450,640,2.3684,160,320,480,2,160,260,420,1.625,130,170,300,1.3077,120,130,250,1.0833,100,100,200,1,118,68
900,210,640,230,420,650,1.8261,230,280,510,1.2174,200,230,430,1.15,150,160,310,1.0667,130,110,240,0.84615,110,100,210,0.90909,118,68
900,260,590,170,490,660,2.8824,150,330,480,2.2,140,260,400,1.8571,120,160,280,1.3333,100,120,220,1.2,90,100,190,1.1111,118,68
910,310,320,180,330,510,1.8333,140,320,460,2.2857,140,250,390,1.7857,120,160,280,1.3333,100,120,220,1.2,90,110,200,1.2222,118,68
900,590,630,300,470,770,1.5667,150,330,480,2.2,140,260,400,1.8571,130,170,300,1.3077,100,130,230,1.3,90,100,190,1.1111,118,68
910,270,610,180,500,680,2.7778,160,330,490,2.0625,150,260,410,1.7333,130,160,290,1.2308,120,120,240,1,100,110,210,1.1,118,68
900,300,560,190,570,760,3,170,380,550,2.2353,160,310,470,1.9375,140,180,320,1.2857,120,120,240,1,100,110,210,1.1,119,68
890,340,690,360,500,860,1.3889,180,380,560,2.1111,160,320,480,2,150,190,340,1.2667,120,140,260,1.1667,110,110,220,1,119,68
900,200,610,220,440,660,2,220,300,520,1.3636,170,240,410,1.4118,140,170,310,1.2143,130,130,260,1,120,110,230,0.91667,119,68
890,290,610,180,570,750,3.1667,150,390,540,2.6,150,310,460,2.0667,120,170,290,1.4167,110,120,230,1.0909,100,110,210,1.1,118,68
920,280,690,170,700,870,4.1176,150,510,660,3.4,140,420,560,3,120,280,400,2.3333,100,130,230,1.3,90,100,190,1.1111,118,68
900,230,680,180,460,640,2.5556,160,340,500,2.125,150,270,420,1.8,130,160,290,1.2308,110,120,230,1.0909,100,100,200,1,118,68
900,220,680,180,430,610,2.3889,150,380,530,2.5333,140,300,440,2.1429,130,170,300,1.3077,110,130,240,1.1818,100,110,210,1.1,119,68
900,220,690,180,490,670,2.7222,160,350,510,2.1875,150,290,440,1.9333,130,180,310,1.3846,110,140,250,1.2727,90,110,200,1.2222,120,69
910,210,640,230,480,710,2.087,190,360,550,1.8947,170,310,480,1.8235,140,200,340,1.4286,120,150,270,1.25,100,120,220,1.2,119,69
910,270,590,190,550,740,2.8947,150,370,520,2.4667,140,290,430,2.0714,120,180,300,1.5,100,130,230,1.3,90,120,210,1.3333,119,69
910,320,660,180,500,680,2.7778,160,350,510,2.1875,150,280,430,1.8667,130,170,300,1.3077,110,120,230,1.0909,90,100,190,1.1111,119,69
900,250,570,180,460,640,2.5556,150,330,480,2.2,140,260,400,1.8571,120,160,280,1.3333,90,120,210,1.3333,70,100,170,1.4286,120,69
910,330,560,180,450,630,2.5,160,330,490,2.0625,140,250,390,1.7857,130,160,290,1.2308,100,120,220,1.2,100,100,200,1,121,69
900,350,550,190,480,670,2.5263,160,310,470,1.9375,160,230,390,1.4375,130,180,310,1.3846,110,130,240,1.1818,100,100,200,1,121,69
890,350,700,180,460,640,2.5556,160,330,490,2.0625,140,280,420,2,130,180,310,1.3846,100,130,230,1.3,100,120,220,1.2,121,69
910,190,660,210,420,630,2,190,300,490,1.5789,160,240,400,1.5,130,170,300,1.3077,110,140,250,1.2727,100,110,210,1.1,121,69
900,250,600,180,510,690,2.8333,150,350,500,2.3333,140,280,420,2,120,160,280,1.3333,100,120,220,1.2,100,100,200,1,120,69
910,300,630,180,490,670,2.7222,160,340,500,2.125,140,270,410,1.9286,130,160,290,1.2308,110,120,230,1.0909,90,100,190,1.1111,120,69
900,280,610,200,620,820,3.1,160,390,550,2.4375,160,300,460,1.875,130,180,310,1.3846,110,120,230,1.0909,100,110,210,1.1,119,69
900,290,570,180,470,650,2.6111,160,320,480,2,150,240,390,1.6,130,160,290,1.2308,110,120,230,1.0909,90,100,190,1.1111,120,69
910,330,680,190,400,590,2.1053,160,250,410,1.5625,150,190,340,1.2667,130,130,260,1,110,80,190,0.72727,100,70,170,0.7,121,69
900,230,700,250,500,750,2,180,380,560,2.1111,170,310,480,1.8235,150,180,330,1.2,120,130,250,1.0833,110,110,220,1,120,69
900,200,580,220,420,640,1.9091,160,300,460,1.875,160,240,400,1.5,130,160,290,1.2308,120,120,240,1,100,100,200,1,120,69
900,320,610,180,520,700,2.8889,150,360,510,2.4,150,270,420,1.8,130,160,290,1.2308,110,120,230,1.0909,100,100,200,1,120,69
910,290,520,170,450,620,2.6471,150,320,470,2.1333,140,240,380,1.7143,120,160,280,1.3333,100,120,220,1.2,80,100,180,1.25,119,69
900,390,610,210,590,800,2.8095,160,390,550,2.4375,150,300,450,2,130,180,310,1.3846,110,130,240,1.1818,90,120,210,1.3333,119,69
900,290,540,180,550,730,3.0556,160,370,530,2.3125,140,290,430,2.0714,130,170,300,1.3077,110,130,240,1.1818,90,110,200,1.2222,120,69
900,360,560,180,420,600,2.3333,150,300,450,2,150,240,390,1.6,120,170,290,1.4167,110,130,240,1.1818,90,110,200,1.2222,120,69
910,340,700,360,460,820,1.2778,180,350,530,1.9444,170,290,460,1.7059,140,200,340,1.4286,120,150,270,1.25,100,130,230,1.3,120,69
890,210,580,170,480,650,2.8235,150,330,480,2.2,140,230,370,1.6429,120,150,270,1.25,100,120,220,1.2,90,100,190,1.1111,119,69
900,310,600,180,490,670,2.7222,150,360,510,2.4,140,280,420,2,120,170,290,1.4167,100,130,230,1.3,90,100,190,1.1111,119,69
920,300,700,170,490,660,2.8824,150,340,490,2.2667,140,270,410,1.9286,120,170,290,1.4167,100,130,230,1.3,80,100,180,1.25,119,68
900,220,560,180,460,640,2.5556,160,330,490,2.0625,150,260,410,1.7333,130,160,290,1.2308,110,120,230,1.0909,100,110,210,1.1,119,69
900,340,670,190,600,790,3.1579,170,370,540,2.1765,150,300,450,2,140,170,310,1.2143,110,130,240,1.1818,100,110,210,1.1,119,69
900,230,700,190,450,640,2.3684,160,310,470,1.9375,150,240,390,1.6,130,160,290,1.2308,110,130,240,1.1818,100,100,200,1,120,69
910,200,570,220,440,660,2,220,320,540,1.4545,170,250,420,1.4706,140,170,310,1.2143,120,130,250,1.0833,100,110,210,1.1,120,69
900,340,630,180,640,820,3.5556,160,460,620,2.875,150,380,530,2.5333,130,200,330,1.5385,120,140,260,1.1667,100,100,200,1,119,69
900,270,600,180,470,650,2.6111,150,330,480,2.2,140,250,390,1.7857,130,150,280,1.1538,100,110,210,1.1,100,100,200,1,119,69
910,300,650,200,460,660,2.3,160,350,510,2.1875,150,300,450,2,120,180,300,1.5,110,130,240,1.1818,90,110,200,1.2222,119,69
900,260,540,180,500,680,2.7778,160,330,490,2.0625,150,260,410,1.7333,130,160,290,1.2308,110,120,230,1.0909,100,110,210,1.1,120,69
910,360,680,180,450,630,2.5,160,360,520,2.25,150,290,440,1.9333,130,180,310,1.3846,110,130,240,1.1818,100,110,210,1.1,120,69
890,230,690,250,500,750,2,180,380,560,2.1111,160,320,480,2,140,180,320,1.2857,120,140,260,1.1667,110,110,220,1,120,69
910,200,630,220,430,650,1.9545,150,310,460,2.0667,140,240,380,1.7143,120,170,290,1.4167,100,130,230,1.3,90,110,200,1.2222,120,69
900,280,620,250,630,880,2.52,160,470,630,2.9375,160,380,540,2.375,130,210,340,1.6154,110,140,250,1.2727,100,110,210,1.1,120,69
940,280,620,170,470,640,2.7647,140,340,480,2.4286,140,270,410,1.9286,120,180,300,1.5,100,140,240,1.4,90,110,200,1.2222,119,69
880,320,620,200,460,660,2.3,170,310,480,1.8235,160,240,400,1.5,130,150,280,1.1538,110,110,220,1,80,90,170,1.125,120,69
900,260,680,180,690,870,3.8333,160,380,540,2.375,140,300,440,2.1429,120,180,300,1.5,110,140,250,1.2727,90,110,200,1.2222,120,69
900,220,560,180,400,580,2.2222,160,270,430,1.6875,140,240,380,1.7143,130,190,320,1.4615,100,140,240,1.4,90,120,210,1.3333,120,69
910,340,680,360,450,810,1.25,200,340,540,1.7,170,300,470,1.7647,140,190,330,1.3571,120,140,260,1.1667,100,120,220,1.2,120,69
890,230,460,170,470,640,2.7647,150,330,480,2.2,140,250,390,1.7857,120,160,280,1.3333,100,120,220,1.2,90,110,200,1.2222,119,69
910,430,640,170,540,710,3.1765,150,360,510,2.4,140,300,440,2.1429,120,180,300,1.5,90,130,220,1.4444,80,110,190,1.375,119,69
910,270,640,180,450,630,2.5,160,310,470,1.9375,150,240,390,1.6,120,160,280,1.3333,100,120,220,1.2,90,110,200,1.2222,119,68
910,270,560,180,440,620,2.4444,150,320,470,2.1333,150,250,400,1.6667,130,160,290,1.2308,110,120,230,1.0909,100,100,200,1,120,69
900,350,550,190,560,750,2.9474,170,380,550,2.2353,160,310,470,1.9375,130,170,300,1.3077,120,130,250,1.0833,100,100,200,1,120,69
890,350,690,370,410,780,1.1081,180,280,460,1.5556,170,210,380,1.2353,150,140,290,0.93333,120,90,210,0.75,110,70,180,0.63636,120,69
900,200,620,220,430,650,1.9545,210,300,510,1.4286,170,250,420,1.4706,140,170,310,1.2143,120,130,250,1.0833,110,110,220,1,119,69
900,280,600,180,610,790,3.3889,150,610,760,4.0667,150,440,590,2.9333,120,160,280,1.3333,110,120,230,1.0909,100,100,200,1,119,69
1780,300,1480,180,1110,1290,6.1667,160,780,940,4.875,140,600,740,4.2857,120,370,490,3.0833,110,260,370,2.3636,90,200,290,2.2222,118,69
970,300,580,190,530,720,2.7895,160,370,530,2.3125,150,300,450,2,130,190,320,1.4615,110,140,250,1.2727,100,110,210,1.1,120,69
930,390,570,190,490,680,2.5789,160,350,510,2.1875,160,280,440,1.75,140,180,320,1.2857,110,130,240,1.1818,100,110,210,1.1,120,69
900,360,630,380,480,860,1.2632,230,370,600,1.6087,180,310,490,1.7222,150,180,330,1.2,120,140,260,1.1667,120,110,230,0.91667,120,69
910,270,570,190,430,620,2.2632,160,300,460,1.875,140,230,370,1.6429,130,160,290,1.2308,110,120,230,1.0909,100,110,210,1.1,119,69
910,340,560,180,570,750,3.1667,160,400,560,2.5,150,320,470,2.1333,130,190,320,1.4615,110,130,240,1.1818,100,110,210,1.1,119,70
900,350,620,190,440,630,2.3158,160,310,470,1.9375,150,250,400,1.6667,120,160,280,1.3333,110,120,230,1.0909,90,100,190,1.1111,119,69
910,280,550,180,460,640,2.5556,140,350,490,2.5,140,270,410,1.9286,120,170,290,1.4167,110,120,230,1.0909,90,110,200,1.2222,119,69
910,360,560,180,570,750,3.1667,160,410,570,2.5625,150,330,480,2.2,130,190,320,1.4615,110,130,240,1.1818,100,110,210,1.1,119,69
900,350,670,200,490,690,2.45,170,330,500,1.9412,160,260,420,1.625,140,170,310,1.2143,120,120,240,1,110,100,210,0.90909,120,69
910,230,620,250,450,700,1.8,210,320,530,1.5238,180,270,450,1.5,150,180,330,1.2,120,140,260,1.1667,110,120,230,1.0909,120,69
900,290,600,170,500,670,2.9412,150,350,500,2.3333,140,270,410,1.9286,130,160,290,1.2308,110,120,230,1.0909,100,100,200,1,119,69
900,300,600,180,610,790,3.3889,150,420,570,2.8,150,350,500,2.3333,130,190,320,1.4615,110,130,240,1.1818,100,110,210,1.1,119,69
920,300,680,170,480,650,2.8235,140,350,490,2.5,130,280,410,2.1538,120,180,300,1.5,100,130,230,1.3,80,120,200,1.5,119,69
920,240,580,180,450,630,2.5,160,320,480,2,140,250,390,1.7857,130,170,300,1.3077,100,130,230,1.3,90,120,210,1.3333,120,69
880,340,670,200,680,880,3.4,180,380,560,2.1111,160,320,480,2,140,180,320,1.2857,120,130,250,1.0833,110,100,210,0.90909,121,69
920,210,730,230,490,720,2.1304,160,360,520,2.25,140,350,490,2.5,120,210,330,1.75,100,160,260,1.6,90,130,220,1.4444,120,69
910,190,560,210,430,640,2.0476,180,310,490,1.7222,170,250,420,1.4706,130,170,300,1.3077,110,120,230,1.0909,100,110,210,1.1,120,69
910,350,560,180,510,690,2.8333,150,360,510,2.4,140,290,430,2.0714,120,170,290,1.4167,100,120,220,1.2,90,100,190,1.1111,120,69
910,350,630,350,640,990,1.8286,170,450,620,2.6471,150,370,520,2.4667,130,200,330,1.5385,110,140,250,1.2727,100,110,210,1.1,120,69
910,280,620,180,470,650,2.6111,150,330,480,2.2,150,270,420,1.8,120,170,290,1.4167,100,120,220,1.2,100,110,210,1.1,120,69
910,290,600,170,490,660,2.8824,150,330,480,2.2,140,260,400,1.8571,130,160,290,1.2308,100,120,220,1.2,90,110,200,1.2222,121,69
900,310,670,180,490,670,2.7222,160,340,500,2.125,150,280,430,1.8667,130,180,310,1.3846,110,150,260,1.3636,100,110,210,1.1,121,70
920,230,690,250,480,730,1.92,250,350,600,1.4,180,280,460,1.5556,140,180,320,1.2857,110,140,250,1.2727,100,130,230,1.3,121,70
900,230,570,180,420,600,2.3333,150,290,440,1.9333,140,230,370,1.6429,120,150,270,1.25,100,120,220,1.2,100,100,200,1,120,69
920,330,580,170,590,760,3.4706,150,590,740,3.9333,140,380,520,2.7143,120,170,290,1.4167,100,130,230,1.3,90,100,190,1.1111,120,69
910,340,610,180,460,640,2.5556,160,340,500,2.125,140,260,400,1.8571,120,160,280,1.3333,100,120,220,1.2,90,100,190,1.1111,120,69
910,300,620,190,490,680,2.5789,160,340,500,2.125,150,260,410,1.7333,130,160,290,1.2308,110,120,230,1.0909,100,100,200,1,120,69
910,290,680,190,690,880,3.6316,160,370,530,2.3125,150,290,440,1.9333,130,180,310,1.3846,110,130,240,1.1818,100,110,210,1.1,121,69
900,230,690,180,430,610,2.3889,160,310,470,1.9375,150,250,400,1.6667,130,170,300,1.3077,120,130,250,1.0833,100,100,200,1,121,69
900,210,700,230,420,650,1.8261,210,300,510,1.4286,170,250,420,1.4706,150,170,320,1.1333,130,130,260,1,110,110,220,1,120,69
910,200,700,170,490,660,2.8824,140,330,470,2.3571,130,260,390,2,120,160,280,1.3333,100,120,220,1.2,90,100,190,1.1111,120,69
900,210,700,170,710,880,4.1765,160,410,570,2.5625,150,330,480,2.2,120,200,320,1.6667,110,120,230,1.0909,90,100,190,1.1111,120,69
910,200,700,170,470,640,2.7647,150,330,480,2.2,140,270,410,1.9286,120,160,280,1.3333,100,120,220,1.2,90,110,200,1.2222,120,69
890,210,680,180,450,630,2.5,160,340,500,2.125,150,270,420,1.8,130,160,290,1.2308,110,130,240,1.1818,100,100,200,1,120,69
900,210,680,170,500,670,2.9412,150,350,500,2.3333,150,280,430,1.8667,120,180,300,1.5,100,140,240,1.4,90,110,200,1.2222,121,70
900,220,690,210,510,720,2.4286,170,380,550,2.2353,160,300,460,1.875,130,180,310,1.3846,110,140,250,1.2727,100,120,220,1.2,121,70
890,210,690,180,430,610,2.3889,150,300,450,2,150,230,380,1.5333,120,160,280,1.3333,100,130,230,1.3,90,110,200,1.2222,120,70
920,200,700,160,540,700,3.375,140,340,480,2.4286,130,270,400,2.0769,110,170,280,1.5455,90,130,220,1.4444,80,100,180,1.25,120,69
900,220,680,170,640,810,3.7647,160,350,510,2.1875,130,290,420,2.2308,120,170,290,1.4167,90,120,210,1.3333,70,100,170,1.4286,120,69
900,220,690,170,480,650,2.8235,160,330,490,2.0625,150,260,410,1.7333,130,170,300,1.3077,110,120,230,1.0909,90,100,190,1.1111,120,69
920,210,700,180,440,620,2.4444,150,300,450,2,150,240,390,1.6,120,170,290,1.4167,110,130,240,1.1818,90,110,200,1.2222,121,70
900,220,630,190,470,660,2.4737,170,320,490,1.8824,150,270,420,1.8,140,170,310,1.2143,110,120,230,1.0909,110,110,220,1,121,70
910,270,700,290,460,750,1.5862,180,340,520,1.8889,170,290,460,1.7059,140,190,330,1.3571,120,140,260,1.1667,100,120,220,1.2,121,70
900,210,700,170,560,730,3.2941,150,340,490,2.2667,140,260,400,1.8571,120,160,280,1.3333,110,120,230,1.0909,90,100,190,1.1111,121,70
1710,200,1230,170,1100,1270,6.4706,140,400,540,2.8571,140,270,410,1.9286,120,160,280,1.3333,100,120,220,1.2,90,100,190,1.1111,121,70
970,480,770,170,650,820,3.8235,150,370,520,2.4667,140,290,430,2.0714,120,180,300,1.5,100,130,230,1.3,90,110,200,1.2222,122,70
930,200,580,180,390,570,2.1667,150,200,350,1.3333,140,160,300,1.1429,120,110,230,0.91667,100,70,170,0.7,100,50,150,0.5,122,70
940,350,730,180,460,640,2.5556,160,340,500,2.125,150,280,430,1.8667,130,180,310,1.3846,110,140,250,1.2727,90,110,200,1.2222,122,70
920,210,640,230,440,670,1.913,230,330,560,1.4348,180,270,450,1.5,150,180,330,1.2,130,130,260,1,110,110,220,1,122,70
910,280,620,170,540,710,3.1765,150,370,520,2.4667,140,300,440,2.1429,130,170,300,1.3077,110,120,230,1.0909,90,100,190,1.1111,122,70
910,290,410,180,420,600,2.3333,160,340,500,2.125,150,270,420,1.8,120,170,290,1.4167,110,120,230,1.0909,90,100,190,1.1111,121,70
910,500,690,320,560,880,1.75,160,390,550,2.4375,150,310,460,2.0667,130,180,310,1.3846,110,130,240,1.1818,90,110,200,1.2222,121,69
910,220,690,180,650,830,3.6111,150,370,520,2.4667,140,300,440,2.1429,130,170,300,1.3077,110,130,240,1.1818,90,120,210,1.3333,121,68
920,220,570,180,480,660,2.6667,160,350,510,2.1875,150,290,440,1.9333,130,180,310,1.3846,110,130,240,1.1818,90,110,200,1.2222,121,69
860,350,690,370,490,860,1.3243,200,380,580,1.9,180,330,510,1.8333,150,200,350,1.3333,130,140,270,1.0769,120,120,240,1,120,69
940,170,590,140,470,610,3.3571,120,330,450,2.75,110,260,370,2.3636,90,190,280,2.1111,70,150,220,2.1429,60,130,190,2.1667,120,68
910,350,610,180,510,690,2.8333,160,370,530,2.3125,140,300,440,2.1429,130,170,300,1.3077,110,130,240,1.1818,100,100,200,1,119,68
900,300,600,190,590,780,3.1053,160,420,580,2.625,150,360,510,2.4,130,160,290,1.2308,120,110,230,0.91667,100,100,200,1,119,68
910,300,630,180,470,650,2.6111,150,350,500,2.3333,150,280,430,1.8667,130,170,300,1.3077,100,120,220,1.2,100,110,210,1.1,120,68
900,280,610,190,470,660,2.4737,160,390,550,2.4375,150,320,470,2.1333,130,180,310,1.3846,110,130,240,1.1818,100,110,210,1.1,120,68
900,290,680,200,470,670,2.35,160,340,500,2.125,160,270,430,1.6875,140,180,320,1.2857,110,130,240,1.1818,110,100,210,0.90909,121,69
910,220,680,240,450,690,1.875,200,330,530,1.65,170,270,440,1.5882,140,180,320,1.2857,120,140,260,1.1667,110,120,230,1.0909,121,69
910,230,610,200,620,820,3.1,160,380,540,2.375,160,300,460,1.875,130,180,310,1.3846,120,120,240,1,100,100,200,1,120,69
940,300,600,180,610,790,3.3889,150,390,540,2.6,150,300,450,2,130,170,300,1.3077,110,120,230,1.0909,90,100,190,1.1111,120,69
870,340,670,210,680,890,3.2381,180,510,690,2.8333,170,380,550,2.2353,150,180,330,1.2,130,120,250,0.92308,110,90,200,0.81818,120,69
930,200,690,170,460,630,2.7059,150,320,470,2.1333,140,250,390,1.7857,120,170,290,1.4167,90,140,230,1.5556,80,120,200,1.5,121,69
910,240,680,260,450,710,1.7308,180,310,490,1.7222,170,260,430,1.5294,140,200,340,1.4286,130,130,260,1,110,110,220,1,122,70
900,230,690,200,500,700,2.5,170,360,530,2.1176,170,290,460,1.7059,140,180,320,1.2857,120,130,250,1.0833,110,100,210,0.90909,121,70
900,210,700,190,480,670,2.5263,160,320,480,2,150,260,410,1.7333,130,170,300,1.3077,110,130,240,1.1818,100,110,210,1.1,121,70
900,200,710,220,610,830,2.7727,220,500,720,2.2727,170,420,590,2.4706,140,260,400,1.8571,120,140,260,1.1667,110,110,220,1,121,70
920,190,620,170,630,800,3.7059,150,430,580,2.8667,140,360,500,2.5714,120,190,310,1.5833,100,130,230,1.3,90,110,200,1.2222,121,70
910,300,620,210,630,840,3,200,630,830,3.15,190,630,820,3.3158,160,310,470,1.9375,140,160,300,1.1429,120,120,240,1,121,70
900,290,560,190,570,760,3,170,390,560,2.2941,160,320,480,2,130,170,300,1.3077,120,130,250,1.0833,100,110,210,1.1,123,71
910,340,680,360,400,760,1.1111,180,270,450,1.5,160,210,370,1.3125,140,130,270,0.92857,120,80,200,0.66667,110,60,170,0.54545,123,71
910,230,690,250,480,730,1.92,200,370,570,1.85,180,310,490,1.7222,150,200,350,1.3333,130,150,280,1.1538,110,120,230,1.0909,123,71
920,220,580,170,440,610,2.5882,150,310,460,2.0667,140,240,380,1.7143,130,160,290,1.2308,100,120,220,1.2,100,100,200,1,123,71
910,340,630,190,500,690,2.6316,170,350,520,2.0588,160,290,450,1.8125,140,160,300,1.1429,110,120,230,1.0909,100,90,190,0.9,123,71
910,280,620,190,450,640,2.3684,160,330,490,2.0625,150,260,410,1.7333,130,160,290,1.2308,110,120,230,1.0909,100,100,200,1,123,71
910,290,630,190,440,630,2.3158,160,320,480,2,150,240,390,1.6,130,150,280,1.1538,110,120,230,1.0909,100,100,200,1,124,71
920,280,730,190,740,930,3.8947,160,410,570,2.5625,150,340,490,2.2667,130,200,330,1.5385,110,140,250,1.2727,100,120,220,1.2,125,72
890,190,700,190,430,620,2.2632,170,310,480,1.8235,160,260,420,1.625,140,160,300,1.1429,120,120,240,1,100,100,200,1,124,72
920,190,600,210,450,660,2.1429,210,330,540,1.5714,160,260,420,1.625,140,180,320,1.2857,110,140,250,1.2727,100,120,220,1.2,124,72
930,320,590,170,600,770,3.5294,150,460,610,3.0667,140,380,520,2.7143,120,190,310,1.5833,100,130,230,1.3,90,100,190,1.1111,124,71
920,340,650,180,460,640,2.5556,160,330,490,2.0625,140,250,390,1.7857,130,160,290,1.2308,110,120,230,1.0909,90,100,190,1.1111,124,71
920,270,630,190,460,650,2.4211,170,360,530,2.1176,150,300,450,2,130,170,300,1.3077,120,120,240,1,100,100,200,1,124,71
910,290,680,190,680,870,3.5789,160,360,520,2.25,160,300,460,1.875,130,170,300,1.3077,120,120,240,1,100,100,200,1,124,71
900,230,690,190,460,650,2.4211,160,370,530,2.3125,150,310,460,2.0667,140,180,320,1.2857,110,130,240,1.1818,100,100,200,1,125,71
930,210,690,230,520,750,2.2609,170,390,560,2.2941,160,340,500,2.125,130,210,340,1.6154,120,150,270,1.25,100,130,230,1.3,124,71
910,240,610,200,430,630,2.15,170,310,480,1.8235,150,240,390,1.6,130,150,280,1.1538,110,110,220,1,100,100,200,1,123,71
910,300,650,210,660,870,3.1429,170,420,590,2.4706,150,350,500,2.3333,130,200,330,1.5385,110,130,240,1.1818,90,110,200,1.2222,123,71
930,260,640,180,460,640,2.5556,160,330,490,2.0625,150,270,420,1.8,130,160,290,1.2308,110,120,230,1.0909,100,100,200,1,123,71
900,290,560,190,440,630,2.3158,170,310,480,1.8235,160,250,410,1.5625,130,160,290,1.2308,110,110,220,1,90,90,180,1,124,71
900,340,680,190,550,740,2.8947,160,350,510,2.1875,160,290,450,1.8125,130,180,310,1.3846,110,130,240,1.1818,100,100,200,1,124,71
910,220,590,180,410,590,2.2778,160,260,420,1.625,150,230,380,1.5333,130,190,320,1.4615,90,140,230,1.5556,90,120,210,1.3333,124,71
910,320,650,340,450,790,1.3235,340,340,680,1,170,280,450,1.6471,140,180,320,1.2857,120,140,260,1.1667,100,120,220,1.2,123,71
910,260,430,170,440,610,2.5882,150,340,490,2.2667,140,280,420,2,120,160,280,1.3333,100,120,220,1.2,90,110,200,1.2222,123,71
900,480,650,210,660,870,3.1429,160,400,560,2.5,150,320,470,2.1333,130,180,310,1.3846,100,120,220,1.2,100,100,200,1,123,71
910,250,700,170,470,640,2.7647,150,350,500,2.3333,140,280,420,2,120,170,290,1.4167,100,130,230,1.3,90,100,190,1.1111,122,70
910,210,560,180,480,660,2.6667,160,340,500,2.125,150,270,420,1.8,120,170,290,1.4167,110,130,240,1.1818,90,110,200,1.2222,122,70
900,350,680,190,690,880,3.6316,170,400,570,2.3529,160,320,480,2,140,190,330,1.3571,120,130,250,1.0833,100,110,210,1.1,123,71
890,220,690,240,460,700,1.9167,190,300,490,1.5789,170,220,390,1.2941,150,140,290,0.93333,130,90,220,0.69231,110,60,170,0.54545,123,71
900,200,560,220,430,650,1.9545,190,310,500,1.6316,170,250,420,1.4706,130,170,300,1.3077,120,130,250,1.0833,100,110,210,1.1,122,70
910,340,650,180,660,840,3.6667,160,490,650,3.0625,140,400,540,2.8571,120,180,300,1.5,110,130,240,1.1818,90,110,200,1.2222,122,70
900,260,620,180,470,650,2.6111,160,330,490,2.0625,140,280,420,2,130,160,290,1.2308,110,110,220,1,100,100,200,1,122,70
910,280,640,190,510,700,2.6842,160,380,540,2.375,140,320,460,2.2857,120,190,310,1.5833,110,130,240,1.1818,90,110,200,1.2222,122,70
910,270,690,180,700,880,3.8889,150,390,540,2.6,150,320,470,2.1333,130,180,310,1.3846,110,130,240,1.1818,100,100,200,1,122,70
910,220,680,190,480,670,2.5263,170,340,510,2,150,270,420,1.8,140,180,320,1.2857,120,130,250,1.0833,110,110,220,1,123,71
900,230,680,250,480,730,1.92,250,360,610,1.44,190,300,490,1.5789,150,200,350,1.3333,130,140,270,1.0769,120,120,240,1,123,71
910,220,600,170,440,610,2.5882,150,310,460,2.0667,140,240,380,1.7143,120,160,280,1.3333,110,120,230,1.0909,90,100,190,1.1111,123,71
900,310,590,180,600,780,3.3333,160,440,600,2.75,140,350,490,2.5,130,200,330,1.5385,110,130,240,1.1818,100,110,210,1.1,123,71
930,310,580,170,460,630,2.7059,150,340,490,2.2667,140,250,390,1.7857,120,170,290,1.4167,100,130,230,1.3,80,110,190,1.375,123,71
900,350,560,210,450,660,2.1429,170,340,510,2,170,290,460,1.7059,140,170,310,1.2143,120,130,250,1.0833,110,100,210,0.90909,124,71
920,340,560,190,570,760,3,160,390,550,2.4375,160,310,470,1.9375,130,190,320,1.4615,110,130,240,1.1818,100,110,210,1.1,125,71
900,360,680,200,430,630,2.15,170,310,480,1.8235,150,270,420,1.8,140,170,310,1.2143,120,120,240,1,110,110,220,1,125,71
920,220,680,240,450,690,1.875,210,320,530,1.5238,170,260,430,1.5294,140,180,320,1.2857,130,130,260,1,110,110,220,1,125,71
910,240,700,170,710,880,4.1765,150,370,520,2.4667,140,300,440,2.1429,120,170,290,1.4167,100,130,230,1.3,90,100,190,1.1111,124,71
920,210,590,180,600,780,3.3333,160,380,540,2.375,150,310,460,2.0667,120,170,290,1.4167,100,130,230,1.3,90,110,200,1.2222,124,71
920,330,640,180,440,620,2.4444,160,320,480,2,150,250,400,1.6667,120,160,280,1.3333,100,120,220,1.2,90,100,190,1.1111,124,71
920,280,550,190,410,600,2.1579,160,280,440,1.75,160,220,380,1.375,130,140,270,1.0769,110,120,230,1.0909,100,90,190,0.9,124,71
910,370,690,200,500,700,2.5,170,350,520,2.0588,160,300,460,1.875,130,180,310,1.3846,120,130,250,1.0833,100,100,200,1,124,71
900,220,700,240,490,730,2.0417,200,360,560,1.8,180,300,480,1.6667,150,230,380,1.5333,120,140,260,1.1667,110,120,230,1.0909,124,71
920,200,620,170,440,610,2.5882,140,320,460,2.2857,130,260,390,2,120,170,290,1.4167,90,130,220,1.4444,90,110,200,1.2222,123,71
920,300,480,170,490,660,2.8824,150,370,520,2.4667,130,290,420,2.2308,120,170,290,1.4167,100,120,220,1.2,80,110,190,1.375,123,70
910,440,640,380,650,1030,1.7105,170,390,560,2.2941,150,320,470,2.1333,130,180,310,1.3846,110,130,240,1.1818,90,110,200,1.2222,122,70
920,270,720,180,450,630,2.5,160,330,490,2.0625,150,250,400,1.6667,130,160,290,1.2308,110,130,240,1.1818,90,100,190,1.1111,123,70
910,200,540,180,470,650,2.6111,170,330,500,1.9412,150,250,400,1.6667,130,150,280,1.1538,120,120,240,1,100,120,220,1.2,123,70
890,370,680,190,450,640,2.3684,170,320,490,1.8824,160,270,430,1.6875,140,170,310,1.2143,110,120,230,1.0909,110,100,210,0.90909,123,70
910,210,640,230,430,660,1.8696,230,310,540,1.3478,170,250,420,1.4706,140,170,310,1.2143,120,120,240,1,100,100,200,1,122,70
910,270,600,160,470,630,2.9375,150,330,480,2.2,140,260,400,1.8571,120,160,280,1.3333,100,120,220,1.2,90,110,200,1.2222,122,70
910,310,610,180,620,800,3.4444,150,460,610,3.0667,140,390,530,2.7857,130,160,290,1.2308,100,120,220,1.2,100,100,200,1,122,70
920,300,600,180,450,630,2.5,150,330,480,2.2,140,270,410,1.9286,130,170,300,1.3077,100,130,230,1.3,90,100,190,1.1111,122,70
920,320,570,190,480,670,2.5263,170,340,510,2,150,270,420,1.8,130,170,300,1.3077,110,130,240,1.1818,100,100,200,1,122,70
900,350,560,200,570,770,2.85,170,370,540,2.1765,160,300,460,1.875,140,180,320,1.2857,120,130,250,1.0833,100,100,200,1,123,71
920,340,730,240,530,770,2.2083,170,360,530,2.1176,160,290,450,1.8125,140,180,320,1.2857,120,140,260,1.1667,110,110,220,1,122,70
910,190,610,210,430,640,2.0476,180,310,490,1.7222,160,240,400,1.5,140,160,300,1.1429,110,120,230,1.0909,110,110,220,1,122,70
950,300,620,180,530,710,2.9444,150,370,520,2.4667,150,300,450,2,130,160,290,1.2308,100,110,210,1.1,100,100,200,1,122,70
870,330,570,220,580,800,2.6364,190,400,590,2.1053,180,330,510,1.8333,160,170,330,1.0625,130,100,230,0.76923,120,80,200,0.66667,122,70
920,300,590,170,450,620,2.6471,150,330,480,2.2,140,260,400,1.8571,120,160,280,1.3333,100,130,230,1.3,80,100,180,1.25,122,70
920,330,570,180,430,610,2.3889,160,310,470,1.9375,150,250,400,1.6667,120,180,300,1.5,110,130,240,1.1818,90,110,200,1.2222,123,70
900,350,550,200,440,640,2.2,170,310,480,1.8235,160,250,410,1.5625,140,160,300,1.1429,120,120,240,1,110,90,200,0.81818,123,70
920,350,710,370,470,840,1.2703,200,370,570,1.85,180,320,500,1.7778,140,200,340,1.4286,120,160,280,1.3333,110,120,230,1.0909,122,70
910,210,610,180,450,630,2.5,150,320,470,2.1333,150,240,390,1.6,120,160,280,1.3333,100,120,220,1.2,100,110,210,1.1,122,70
910,300,620,170,490,660,2.8824,150,350,500,2.3333,140,290,430,2.0714,120,170,290,1.4167,100,130,230,1.3,90,100,190,1.1111,122,70
910,290,600,220,610,830,2.7727,160,390,550,2.4375,150,320,470,2.1333,130,180,310,1.3846,110,130,240,1.1818,100,100,200,1,121,70
900,310,580,180,450,630,2.5,150,320,470,2.1333,150,250,400,1.6667,130,160,290,1.2308,110,120,230,1.0909,90,100,190,1.1111,122,70
920,320,680,170,450,620,2.6471,150,300,450,2,140,240,380,1.7143,130,150,280,1.1538,100,100,200,1,90,80,170,0.88889,123,70
900,240,550,190,430,620,2.2632,170,320,490,1.8824,160,250,410,1.5625,140,170,310,1.2143,120,130,250,1.0833,100,100,200,1,123,71
910,350,570,370,430,800,1.1622,370,300,670,0.81081,370,260,630,0.7027,290,200,490,0.68966,290,140,430,0.48276,290,120,410,0.41379,122,70
910,340,630,180,500,680,2.7778,140,350,490,2.5,140,280,420,2,120,160,280,1.3333,100,120,220,1.2,90,100,190,1.1111,122,70
910,280,460,180,460,640,2.5556,160,330,490,2.0625,140,260,400,1.8571,130,160,290,1.2308,110,120,230,1.0909,90,100,190,1.1111,122,70
910,450,610,450,620,1070,1.3778,180,420,600,2.3333,170,350,520,2.0588,140,200,340,1.4286,120,140,260,1.1667,100,110,210,1.1,122,70
900,300,710,190,480,670,2.5263,150,320,470,2.1333,150,260,410,1.7333,130,170,300,1.3077,120,120,240,1,100,100,200,1,122,70
920,190,570,170,450,620,2.6471,150,320,470,2.1333,140,250,390,1.7857,130,160,290,1.2308,100,130,230,1.3,90,110,200,1.2222,123,71
910,350,700,370,490,860,1.3243,180,370,550,2.0556,170,310,480,1.8235,140,190,330,1.3571,120,140,260,1.1667,100,120,220,1.2,123,71
890,210,580,180,420,600,2.3333,160,270,430,1.6875,150,200,350,1.3333,120,140,260,1.1667,110,100,210,0.90909,90,70,160,0.77778,123,71
890,310,570,170,490,660,2.8824,150,340,490,2.2667,140,280,420,2,130,160,290,1.2308,100,120,220,1.2,90,90,180,1,122,70
920,320,660,170,560,730,3.2941,150,400,550,2.6667,150,340,490,2.2667,120,160,280,1.3333,100,120,220,1.2,100,100,200,1,122,70
910,260,590,180,450,630,2.5,160,320,480,2,150,270,420,1.8,130,160,290,1.2308,110,120,230,1.0909,100,100,200,1,122,70
900,320,620,190,480,670,2.5263,170,370,540,2.1765,160,290,450,1.8125,130,170,300,1.3077,120,120,240,1,110,100,210,0.90909,123,70
890,280,590,190,450,640,2.3684,160,330,490,2.0625,150,270,420,1.8,130,180,310,1.3846,110,130,240,1.1818,100,110,210,1.1,123,70
930,300,650,320,440,760,1.375,200,330,530,1.65,170,280,450,1.6471,140,190,330,1.3571,120,140,260,1.1667,100,120,220,1.2,123,70
910,280,610,200,620,820,3.1,170,420,590,2.4706,160,360,520,2.25,130,190,320,1.4615,110,120,230,1.0909,100,110,210,1.1,122,70
960,300,600,180,460,640,2.5556,160,330,490,2.0625,150,260,410,1.7333,130,150,280,1.1538,110,110,220,1,100,100,200,1,122,70
850,360,540,240,400,640,1.6667,210,290,500,1.381,200,240,440,1.2,180,130,310,0.72222,170,80,250,0.47059,150,60,210,0.4,122,70
910,310,570,170,470,640,2.7647,150,330,480,2.2,140,270,410,1.9286,130,160,290,1.2308,100,130,230,1.3,90,110,200,1.2222,123,70
910,340,680,180,460,640,2.5556,160,310,470,1.9375,150,280,430,1.8667,130,190,320,1.4615,110,140,250,1.2727,90,120,210,1.3333,123,71
910,230,710,190,480,670,2.5263,170,350,520,2.0588,150,280,430,1.8667,140,180,320,1.2857,110,130,240,1.1818,100,110,210,1.1,123,71
910,200,490,220,400,620,1.8182,170,280,450,1.6471,160,230,390,1.4375,130,160,290,1.2308,110,120,230,1.0909,100,110,210,1.1,122,71
910,420,600,180,550,730,3.0556,150,380,530,2.5333,140,310,450,2.2143,120,180,300,1.5,100,130,230,1.3,90,100,190,1.1111,122,70
920,310,620,170,480,650,2.8235,150,340,490,2.2667,140,280,420,2,120,170,290,1.4167,100,120,220,1.2,90,100,190,1.1111,122,70
910,300,600,190,500,690,2.6316,170,350,520,2.0588,160,290,450,1.8125,120,170,290,1.4167,120,120,240,1,100,100,200,1,122,70
900,310,590,180,560,740,3.1111,160,360,520,2.25,150,300,450,2,130,180,310,1.3846,110,130,240,1.1818,90,100,190,1.1111,123,70
930,310,720,180,400,580,2.2222,150,270,420,1.8,140,200,340,1.4286,130,140,270,1.0769,100,90,190,0.9,90,70,160,0.77778,123,71
920,210,710,230,470,700,2.0435,190,360,550,1.8947,180,310,490,1.7222,150,190,340,1.2667,120,140,260,1.1667,110,110,220,1,122,70
910,210,590,180,510,690,2.8333,150,350,500,2.3333,150,270,420,1.8,130,150,280,1.1538,100,110,210,1.1,100,100,200,1,122,70
910,320,580,180,490,670,2.7222,150,350,500,2.3333,140,280,420,2,130,160,290,1.2308,100,120,220,1.2,90,90,180,1,121,70
910,330,600,180,470,650,2.6111,160,340,500,2.125,140,260,400,1.8571,120,170,290,1.4167,110,120,230,1.0909,90,100,190,1.1111,121,70
930,310,590,170,450,620,2.6471,150,320,470,2.1333,140,260,400,1.8571,120,170,290,1.4167,100,130,230,1.3,90,110,200,1.2222,122,70
910,340,700,190,670,860,3.5263,160,370,530,2.3125,160,300,460,1.875,140,170,310,1.2143,120,130,250,1.0833,100,100,200,1,122,70
900,210,700,190,430,620,2.2632,160,320,480,2,150,260,410,1.7333,130,170,300,1.3077,110,130,240,1.1818,100,110,210,1.1,122,70
920,200,640,220,450,670,2.0455,200,320,520,1.6,170,260,430,1.5294,130,180,310,1.3846,110,130,240,1.1818,100,120,220,1.2,121,70
910,280,600,170,610,780,3.5882,150,480,630,3.2,140,390,530,2.7857,120,210,330,1.75,100,140,240,1.4,100,120,220,1.2,121,70
910,310,620,170,470,640,2.7647,150,340,490,2.2667,140,270,410,1.9286,120,170,290,1.4167,100,130,230,1.3,80,100,180,1.25,121,70
910,290,620,190,470,660,2.4737,160,360,520,2.25,150,310,460,2.0667,120,180,300,1.5,110,130,240,1.1818,90,110,200,1.2222,122,70
910,290,570,180,580,760,3.2222,150,360,510,2.4,140,300,440,2.1429,130,180,310,1.3846,100,130,230,1.3,100,120,220,1.2,122,70
900,340,690,180,470,650,2.6111,160,370,530,2.3125,150,310,460,2.0667,130,190,320,1.4615,100,140,240,1.4,90,120,210,1.3333,123,71
910,210,690,230,510,740,2.2174,180,390,570,2.1667,160,340,500,2.125,140,230,370,1.6429,110,150,260,1.3636,100,130,230,1.3,123,71
910,220,580,180,430,610,2.3889,150,310,460,2.0667,140,250,390,1.7857,120,160,280,1.3333,100,130,230,1.3,90,110,200,1.2222,122,70
910,330,570,210,580,790,2.7619,170,410,580,2.4118,150,330,480,2.2,130,190,320,1.4615,110,130,240,1.1818,100,110,210,1.1,123,70
930,340,610,180,460,640,2.5556,160,330,490,2.0625,150,270,420,1.8,130,170,300,1.3077,110,120,230,1.0909,100,100,200,1,123,70
810,320,580,210,420,630,2,170,310,480,1.8235,170,250,420,1.4706,140,150,290,1.0714,130,100,230,0.76923,110,90,200,0.81818,123,71
980,230,650,110,660,770,6,90,490,580,5.4444,80,60,140,0.75,60,20,80,0.33333,50,20,70,0.4,40,20,60,0.5,123,71
900,330,570,200,400,600,2,160,280,440,1.75,150,260,410,1.7333,130,190,320,1.4615,120,140,260,1.1667,100,110,210,1.1,124,71
910,330,630,350,440,790,1.2571,200,330,530,1.65,170,280,450,1.6471,140,190,330,1.3571,110,150,260,1.3636,110,120,230,1.0909,124,71
910,280,480,170,470,640,2.7647,150,340,490,2.2667,140,280,420,2,120,170,290,1.4167,100,130,230,1.3,90,100,190,1.1111,124,71
900,430,600,220,610,830,2.7727,160,380,540,2.375,160,310,470,1.9375,130,170,300,1.3077,120,120,240,1,100,100,200,1,123,71
910,300,650,180,430,610,2.3889,150,320,470,2.1333,150,240,390,1.6,130,160,290,1.2308,110,120,230,1.0909,90,100,190,1.1111,123,71
900,260,590,170,440,610,2.5882,150,330,480,2.2,140,250,390,1.7857,130,160,290,1.2308,100,120,220,1.2,100,100,200,1,124,71
910,310,580,180,590,770,3.2778,160,370,530,2.3125,150,300,450,2,130,180,310,1.3846,110,140,250,1.2727,90,110,200,1.2222,125,71
910,330,710,350,450,800,1.2857,180,300,480,1.6667,160,230,390,1.4375,140,150,290,1.0714,120,100,220,0.83333,100,70,170,0.7,124,71
910,200,560,220,420,640,1.9091,190,300,490,1.5789,170,230,400,1.3529,140,170,310,1.2143,120,130,250,1.0833,100,110,210,1.1,124,71
900,350,600,180,610,790,3.3889,160,530,690,3.3125,150,420,570,2.8,120,160,280,1.3333,110,120,230,1.0909,100,100,200,1,124,71
910,300,650,180,470,650,2.6111,150,330,480,2.2,140,270,410,1.9286,120,160,280,1.3333,110,110,220,1,100,100,200,1,124,71
910,260,610,190,510,700,2.6842,160,370,530,2.3125,130,300,430,2.3077,130,170,300,1.3077,110,120,230,1.0909,100,110,210,1.1,124,71
910,300,680,180,680,860,3.7778,160,350,510,2.1875,150,290,440,1.9333,130,170,300,1.3077,110,120,230,1.0909,100,100,200,1,124,71
910,230,570,190,480,670,2.5263,160,340,500,2.125,150,280,430,1.8667,140,170,310,1.2143,120,120,240,1,110,110,220,1,125,72
900,340,690,360,460,820,1.2778,360,350,710,0.97222,190,290,480,1.5263,150,190,340,1.2667,130,130,260,1,120,110,230,0.91667,125,72
900,210,600,170,430,600,2.5294,150,300,450,2,140,230,370,1.6429,120,150,270,1.25,100,120,220,1.2,90,100,190,1.1111,124,72
910,300,600,180,610,790,3.3889,150,420,570,2.8,140,360,500,2.5714,120,190,310,1.5833,110,130,240,1.1818,90,110,200,1.2222,124,71
920,310,590,180,450,630,2.5,150,330,480,2.2,140,260,400,1.8571,130,170,300,1.3077,100,120,220,1.2,90,100,190,1.1111,124,71
910,330,560,190,440,630,2.3158,170,330,500,1.9412,160,260,420,1.625,130,160,290,1.2308,110,120,230,1.0909,100,100,200,1,125,71
900,350,650,190,660,850,3.4737,170,390,560,2.2941,160,320,480,2,130,180,310,1.3846,120,130,250,1.0833,100,100,200,1,125,72
900,250,580,180,450,630,2.5,160,330,490,2.0625,150,270,420,1.8,130,170,300,1.3077,110,130,240,1.1818,100,110,210,1.1,125,72
910,320,630,340,430,770,1.2647,200,310,510,1.55,170,250,420,1.4706,140,170,310,1.2143,120,140,260,1.1667,110,110,220,1,125,72
910,280,630,180,500,680,2.7778,160,350,510,2.1875,150,280,430,1.8667,110,160,270,1.4545,110,120,230,1.0909,90,100,190,1.1111,124,72
900,280,590,180,600,780,3.3333,150,400,550,2.6667,140,320,460,2.2857,130,180,310,1.3846,110,120,230,1.0909,100,100,200,1,124,71
910,310,610,180,460,640,2.5556,160,340,500,2.125,140,270,410,1.9286,120,170,290,1.4167,110,120,230,1.0909,90,100,190,1.1111,124,71
910,300,540,180,410,590,2.2778,150,300,450,2,150,250,400,1.6667,130,160,290,1.2308,110,120,230,1.0909,100,110,210,1.1,124,71
900,370,570,180,530,710,2.9444,170,360,530,2.1176,150,300,450,2,140,180,320,1.2857,120,130,250,1.0833,100,110,210,1.1,125,72
910,330,710,350,500,850,1.4286,190,380,570,2,170,350,520,2.0588,140,230,370,1.6429,120,150,270,1.25,110,120,230,1.0909,124,72
900,200,590,220,430,650,1.9545,160,310,470,1.9375,160,250,410,1.5625,130,170,300,1.3077,110,130,240,1.1818,90,110,200,1.2222,124,72
910,310,590,180,520,700,2.8889,140,370,510,2.6429,140,300,440,2.1429,120,170,290,1.4167,100,130,230,1.3,90,110,200,1.2222,124,71
900,320,580,320,590,910,1.8438,170,440,610,2.5882,160,360,520,2.25,130,210,340,1.6154,110,140,250,1.2727,100,110,210,1.1,124,71
910,320,580,180,460,640,2.5556,150,340,490,2.2667,140,280,420,2,120,170,290,1.4167,110,120,230,1.0909,90,110,200,1.2222,125,72
910,330,560,170,470,640,2.7647,160,330,490,2.0625,150,270,420,1.8,130,170,300,1.3077,110,130,240,1.1818,100,100,200,1,125,72
900,350,430,190,430,620,2.2632,170,330,500,1.9412,160,280,440,1.75,130,170,300,1.3077,120,130,250,1.0833,100,100,200,1,125,72
910,470,700,490,440,930,0.89796,490,320,810,0.65306,300,270,570,0.9,300,180,480,0.6,300,160,460,0.53333,110,130,240,1.1818,125,72
900,210,590,170,440,610,2.5882,150,320,470,2.1333,140,240,380,1.7143,130,160,290,1.2308,100,130,230,1.3,90,100,190,1.1111,124,72
910,310,380,170,390,560,2.2941,150,360,510,2.4,140,300,440,2.1429,120,170,290,1.4167,100,120,220,1.2,90,110,200,1.2222,124,71
910,530,620,240,480,720,2,150,350,500,2.3333,150,280,430,1.8667,130,170,300,1.3077,100,120,220,1.2,100,100,200,1,124,71
910,290,670,180,460,640,2.5556,160,330,490,2.0625,140,270,410,1.9286,130,170,300,1.3077,110,120,230,1.0909,90,100,190,1.1111,125,72
900,240,550,190,560,750,2.9474,170,380,550,2.2353,160,310,470,1.9375,130,180,310,1.3846,120,130,250,1.0833,100,100,200,1,126,72
850,350,710,180,470,650,2.6111,160,340,500,2.125,150,280,430,1.8667,130,180,310,1.3846,110,130,240,1.1818,100,120,220,1.2,125,72
960,140,640,160,480,640,3,160,360,520,2.25,160,300,460,1.875,100,220,320,2.2,80,180,260,2.25,60,150,210,2.5,125,72
900,320,580,170,540,710,3.1765,150,370,520,2.4667,140,310,450,2.2143,120,160,280,1.3333,100,120,220,1.2,90,110,200,1.2222,125,72
540,320,530,170,540,710,3.1765,150,500,650,3.3333,130,420,550,3.2308,120,250,370,2.0833,100,130,230,1.3,90,110,200,1.2222,125,72
1280,10,1030,20,820,840,41,20,700,720,35,20,640,660,32,20,540,560,27,20,500,520,25,20,470,490,23.5,125,72
900,250,550,190,440,630,2.3158,160,360,520,2.25,160,300,460,1.875,130,170,300,1.3077,110,120,230,1.0909,100,110,210,1.1,125,72
910,350,680,180,500,680,2.7778,160,360,520,2.25,150,300,450,2,130,190,320,1.4615,110,130,240,1.1818,90,110,200,1.2222,126,72
910,230,700,250,500,750,2,190,380,570,2,180,330,510,1.8333,150,190,340,1.2667,130,130,260,1,120,110,230,0.91667,126,72
900,210,600,230,420,650,1.8261,170,310,480,1.8235,160,240,400,1.5,130,160,290,1.2308,120,120,240,1,100,100,200,1,126,72
930,300,610,180,540,720,3,150,380,530,2.5333,140,300,440,2.1429,130,170,300,1.3077,100,130,230,1.3,90,100,190,1.1111,125,72
880,320,600,200,610,810,3.05,180,400,580,2.2222,160,320,480,2,140,190,330,1.3571,120,120,240,1,100,90,190,0.9,125,72
910,280,600,180,430,610,2.3889,160,320,480,2,150,250,400,1.6667,130,160,290,1.2308,110,120,230,1.0909,100,100,200,1,125,72
900,310,560,190,410,600,2.1579,170,290,460,1.7059,160,250,410,1.5625,130,180,310,1.3846,120,130,250,1.0833,110,100,210,0.90909,126,72
900,340,570,190,450,640,2.3684,160,320,480,2,160,270,430,1.6875,140,170,310,1.2143,110,120,230,1.0909,110,110,220,1,126,72
900,330,600,350,440,790,1.2571,200,310,510,1.55,170,270,440,1.5882,150,170,320,1.1333,130,130,260,1,120,110,230,0.91667,126,72
900,300,670,180,540,720,3,150,340,490,2.2667,150,280,430,1.8667,130,170,300,1.3077,110,130,240,1.1818,90,110,200,1.2222,125,72
900,230,600,170,480,650,2.8235,150,340,490,2.2667,140,280,420,2,130,170,300,1.3077,100,130,230,1.3,90,100,190,1.1111,125,72
910,300,600,180,610,790,3.3889,160,380,540,2.375,150,320,470,2.1333,130,190,320,1.4615,110,130,240,1.1818,90,110,200,1.2222,125,72
910,310,560,180,450,630,2.5,160,320,480,2,140,260,400,1.8571,130,160,290,1.2308,100,120,220,1.2,100,100,200,1,126,72
890,350,570,190,400,590,2.1053,170,250,420,1.4706,160,190,350,1.1875,130,130,260,1,110,90,200,0.81818,100,80,180,0.8,126,72
900,320,700,180,440,620,2.4444,160,320,480,2,150,260,410,1.7333,130,170,300,1.3077,100,140,240,1.4,100,120,220,1.2,126,72
910,200,580,220,410,630,1.8636,220,330,550,1.5,190,310,500,1.6316,150,180,330,1.2,120,140,260,1.1667,100,130,230,1.3,126,72
900,330,630,180,480,660,2.6667,150,340,490,2.2667,150,280,430,1.8667,120,160,280,1.3333,110,120,230,1.0909,90,100,190,1.1111,126,72
900,270,550,170,460,630,2.7059,160,330,490,2.0625,140,270,410,1.9286,130,170,300,1.3077,100,120,220,1.2,90,100,190,1.1111,126,72
900,350,570,350,580,930,1.6571,190,470,660,2.4737,170,390,560,2.2941,140,230,370,1.6429,120,140,260,1.1667,110,110,220,1,126,72
910,330,560,180,520,700,2.8889,160,350,510,2.1875,150,290,440,1.9333,130,170,300,1.3077,110,130,240,1.1818,100,110,210,1.1,127,72
900,350,540,200,410,610,2.05,170,300,470,1.7647,160,260,420,1.625,140,160,300,1.1429,120,120,240,1,110,100,210,0.90909,127,73
910,360,700,380,500,880,1.3158,190,380,570,2,170,320,490,1.8824,140,210,350,1.5,120,150,270,1.25,100,120,220,1.2,127,73
890,210,550,190,410,600,2.1579,170,290,460,1.7059,150,200,350,1.3333,130,140,270,1.0769,120,110,230,0.91667,100,90,190,0.9,127,73
900,340,560,180,520,700,2.8889,150,360,510,2.4,150,300,450,2,120,170,290,1.4167,100,120,220,1.2,100,100,200,1,126,72
900,340,590,180,600,780,3.3333,160,340,500,2.125,140,270,410,1.9286,120,170,290,1.4167,100,120,220,1.2,90,100,190,1.1111,126,72
910,310,600,180,430,610,2.3889,150,320,470,2.1333,140,260,400,1.8571,130,160,290,1.2308,110,120,230,1.0909,100,110,210,1.1,127,73
900,310,680,190,650,840,3.4211,170,370,540,2.1765,160,300,460,1.875,130,180,310,1.3846,120,130,250,1.0833,100,100,200,1,128,73
900,220,540,190,440,630,2.3158,160,330,490,2.0625,160,260,420,1.625,130,160,290,1.2308,120,120,240,1,100,110,210,1.1,127,73
890,360,630,380,430,810,1.1316,210,330,540,1.5714,180,270,450,1.5,150,180,330,1.2,130,130,260,1,110,110,220,1,127,73
910,260,600,160,610,770,3.8125,140,400,540,2.8571,130,320,450,2.4615,110,190,300,1.7273,100,140,240,1.4,90,110,200,1.2222,127,73
900,310,620,180,480,660,2.6667,150,350,500,2.3333,130,290,420,2.2308,120,170,290,1.4167,100,120,220,1.2,90,100,190,1.1111,127,73
890,280,610,170,450,620,2.6471,150,340,490,2.2667,150,300,450,2,130,150,280,1.1538,110,110,220,1,100,100,200,1,127,73
900,280,570,180,450,630,2.5,160,320,480,2,150,260,410,1.7333,130,170,300,1.3077,110,120,230,1.0909,90,100,190,1.1111,127,73
900,330,550,180,480,660,2.6667,160,370,530,2.3125,150,310,460,2.0667,130,190,320,1.4615,110,130,240,1.1818,100,110,210,1.1,128,73
890,350,690,190,460,650,2.4211,170,330,500,1.9412,160,270,430,1.6875,140,180,320,1.2857,120,130,250,1.0833,100,100,200,1,128,73
890,200,660,220,420,640,1.9091,190,310,500,1.6316,170,250,420,1.4706,140,160,300,1.1429,120,130,250,1.0833,110,110,220,1,127,73
900,230,610,190,620,810,3.2632,160,460,620,2.875,150,370,520,2.4667,130,210,340,1.6154,100,130,230,1.3,100,110,210,1.1,127,73
900,290,610,170,470,640,2.7647,150,340,490,2.2667,140,280,420,2,130,170,300,1.3077,100,130,230,1.3,90,100,190,1.1111,127,73
900,290,600,170,450,620,2.6471,150,350,500,2.3333,140,290,430,2.0714,120,190,310,1.5833,100,150,250,1.5,90,130,220,1.4444,127,73
900,300,550,170,500,670,2.9412,150,340,490,2.2667,140,270,410,1.9286,120,170,290,1.4167,100,130,230,1.3,80,100,180,1.25,128,73
920,350,550,190,400,590,2.1053,160,320,480,2,140,290,430,2.0714,130,180,310,1.3846,110,140,250,1.2727,90,120,210,1.3333,128,73
910,370,680,390,490,880,1.2564,190,370,560,1.9474,170,320,490,1.8824,140,200,340,1.4286,120,140,260,1.1667,100,120,220,1.2,128,73
900,230,530,180,410,590,2.2778,160,300,460,1.875,150,230,380,1.5333,130,150,280,1.1538,110,120,230,1.0909,100,90,190,0.9,127,73
900,370,630,230,640,870,2.7826,160,400,560,2.5,150,330,480,2.2,130,180,310,1.3846,110,130,240,1.1818,100,110,210,1.1,126,73
910,270,570,170,460,630,2.7059,150,330,480,2.2,140,270,410,1.9286,120,170,290,1.4167,100,120,220,1.2,90,100,190,1.1111,127,73
910,340,570,170,470,640,2.7647,150,330,480,2.2,140,270,410,1.9286,120,160,280,1.3333,110,120,230,1.0909,90,100,190,1.1111,127,73
910,340,540,190,550,740,2.8947,160,390,550,2.4375,160,310,470,1.9375,130,170,300,1.3077,110,120,230,1.0909,100,100,200,1,127,73
900,370,540,200,390,590,1.95,180,260,440,1.4444,160,200,360,1.25,140,130,270,0.92857,120,120,240,1,110,110,220,1,127,73
910,360,630,380,440,820,1.1579,210,320,530,1.5238,160,260,420,1.625,150,180,330,1.2,130,140,270,1.0769,110,110,220,1,127,73
900,280,590,170,600,770,3.5294,160,410,570,2.5625,140,270,410,1.9286,120,160,280,1.3333,110,120,230,1.0909,90,100,190,1.1111,126,73
920,310,590,170,490,660,2.8824,140,360,500,2.5714,140,300,440,2.1429,120,170,290,1.4167,100,120,220,1.2,90,110,200,1.2222,126,72
910,330,600,190,480,670,2.5263,160,350,510,2.1875,150,280,430,1.8667,130,160,290,1.2308,110,130,240,1.1818,90,100,190,1.1111,126,72
920,310,570,180,450,630,2.5,160,330,490,2.0625,150,260,410,1.7333,130,170,300,1.3077,110,130,240,1.1818,100,100,200,1,126,72
900,350,660,200,670,870,3.35,170,370,540,2.1765,160,300,460,1.875,150,190,340,1.2667,120,130,250,1.0833,110,100,210,0.90909,127,73
900,240,700,260,480,740,1.8462,190,360,550,1.8947,180,290,470,1.6111,150,170,320,1.1333,140,130,270,0.92857,110,110,220,1,127,73
900,200,560,220,420,640,1.9091,180,300,480,1.6667,170,230,400,1.3529,130,160,290,1.2308,120,130,250,1.0833,100,110,210,1.1,127,73
910,340,560,180,570,750,3.1667,150,440,590,2.9333,140,360,500,2.5714,120,200,320,1.6667,110,120,230,1.0909,90,110,200,1.2222,126,72
920,350,640,170,450,620,2.6471,150,330,480,2.2,140,270,410,1.9286,130,160,290,1.2308,100,120,220,1.2,90,100,190,1.1111,126,72
900,280,610,200,450,650,2.25,170,340,510,2,160,280,440,1.75,140,170,310,1.2143,120,120,240,1,100,90,190,0.9,127,72
900,290,550,180,560,740,3.1111,160,360,520,2.25,150,290,440,1.9333,120,170,290,1.4167,110,120,230,1.0909,100,100,200,1,127,72
920,350,690,180,490,670,2.7222,160,350,510,2.1875,150,290,440,1.9333,130,180,310,1.3846,110,130,240,1.1818,100,110,210,1.1,127,73
900,230,690,250,460,710,1.84,190,360,550,1.8947,170,300,470,1.7647,150,200,350,1.3333,130,140,270,1.0769,110,120,230,1.0909,128,73
900,210,600,170,430,600,2.5294,150,300,450,2,140,240,380,1.7143,120,150,270,1.25,110,120,230,1.0909,90,100,190,1.1111,126,73
910,300,680,170,690,860,4.0588,140,430,570,3.0714,130,350,480,2.6923,120,190,310,1.5833,100,130,230,1.3,90,110,200,1.2222,126,72
900,230,590,180,460,640,2.5556,160,340,500,2.125,150,260,410,1.7333,130,160,290,1.2308,110,120,230,1.0909,90,100,190,1.1111,126,72
920,310,580,180,450,630,2.5,150,350,500,2.3333,140,290,430,2.0714,130,180,310,1.3846,100,130,230,1.3,90,110,200,1.2222,127,72
900,340,670,190,680,870,3.5789,170,370,540,2.1765,160,300,460,1.875,140,170,310,1.2143,120,120,240,1,100,100,200,1,128,73
900,230,690,190,420,610,2.2105,160,330,490,2.0625,160,280,440,1.75,130,180,310,1.3846,120,130,250,1.0833,100,110,210,1.1,128,73
900,210,660,230,440,670,1.913,220,320,540,1.4545,180,260,440,1.4444,140,170,310,1.2143,120,130,250,1.0833,100,120,220,1.2,127,73
910,240,570,170,490,660,2.8824,150,350,500,2.3333,140,290,430,2.0714,120,170,290,1.4167,100,120,220,1.2,90,100,190,1.1111,127,73
900,340,650,260,660,920,2.5385,170,430,600,2.5294,160,340,500,2.125,140,200,340,1.4286,110,130,240,1.1818,100,110,210,1.1,127,73
910,250,630,170,450,620,2.6471,150,330,480,2.2,140,270,410,1.9286,130,160,290,1.2308,100,130,230,1.3,90,100,190,1.1111,127,73
900,280,540,190,420,610,2.2105,170,300,470,1.7647,150,240,390,1.6,130,150,280,1.1538,110,110,220,1,100,100,200,1,128,73
900,360,670,190,540,730,2.8421,160,350,510,2.1875,150,290,440,1.9333,140,180,320,1.2857,110,120,230,1.0909,110,110,220,1,128,73
900,230,700,250,490,740,1.96,200,350,550,1.75,180,280,460,1.5556,150,220,370,1.4667,120,140,260,1.1667,120,110,230,0.91667,128,73
910,200,620,220,430,650,1.9545,160,320,480,2,150,260,410,1.7333,130,170,300,1.3077,100,130,230,1.3,100,110,210,1.1,127,73
910,290,460,170,470,640,2.7647,150,370,520,2.4667,150,290,440,1.9333,130,160,290,1.2308,110,120,230,1.0909,90,90,180,1,127,73
900,450,660,250,670,920,2.68,160,380,540,2.375,160,310,470,1.9375,130,180,310,1.3846,120,120,240,1,100,100,200,1,127,73
910,240,710,180,470,650,2.6111,160,330,490,2.0625,150,270,420,1.8,130,160,290,1.2308,100,120,220,1.2,100,100,200,1,128,74
880,200,550,170,490,660,2.8824,160,330,490,2.0625,150,270,420,1.8,130,170,300,1.3077,110,120,230,1.0909,100,100,200,1,129,74
910,330,700,170,480,650,2.8235,150,350,500,2.3333,140,290,430,2.0714,120,190,310,1.5833,100,150,250,1.5,90,130,220,1.4444,129,74
870,210,690,230,450,680,1.9565,190,320,510,1.6842,160,260,420,1.625,140,170,310,1.2143,120,120,240,1,100,100,200,1,128,74
940,180,620,140,450,590,3.2143,110,320,430,2.9091,110,260,370,2.3636,90,190,280,2.1111,70,150,220,2.1429,60,140,200,2.3333,128,74
900,320,680,180,690,870,3.8333,160,440,600,2.75,150,370,520,2.4667,130,170,300,1.3077,110,120,230,1.0909,90,100,190,1.1111,128,73
900,220,680,180,450,630,2.5,150,310,460,2.0667,150,250,400,1.6667,120,160,280,1.3333,110,120,230,1.0909,90,110,200,1.2222,128,73
910,220,680,170,540,710,3.1765,160,350,510,2.1875,140,280,420,2,130,170,300,1.3077,100,120,220,1.2,90,110,200,1.2222,128,74
830,230,560,180,460,640,2.5556,170,330,500,1.9412,160,250,410,1.5625,130,160,290,1.2308,110,120,230,1.0909,100,100,200,1,129,74
970,270,760,120,550,670,4.5833,120,410,530,3.4167,80,350,430,4.375,70,250,320,3.5714,40,200,240,5,30,180,210,6,129,74
890,210,660,230,450,680,1.9565,230,310,540,1.3478,200,260,460,1.3,160,170,330,1.0625,120,130,250,1.0833,110,110,220,1,128,74
900,230,670,180,460,640,2.5556,150,320,470,2.1333,140,260,400,1.8571,120,160,280,1.3333,100,120,220,1.2,100,100,200,1,128,74
900,230,670,180,680,860,3.7778,150,460,610,3.0667,150,380,530,2.5333,120,230,350,1.9167,110,120,230,1.0909,90,110,200,1.2222,128,74
910,230,660,170,450,620,2.6471,160,320,480,2,140,260,400,1.8571,130,160,290,1.2308,100,130,230,1.3,100,100,200,1,129,74
900,250,600,190,460,650,2.4211,170,340,510,2,160,280,440,1.75,130,170,300,1.3077,120,120,240,1,100,100,200,1,129,74
900,300,670,190,490,680,2.5789,170,340,510,2,160,280,440,1.75,140,180,320,1.2857,120,120,240,1,110,110,220,1,129,74
900,230,690,250,540,790,2.16,190,400,590,2.1053,170,340,510,2,150,200,350,1.3333,130,130,260,1,110,110,220,1,130,74
900,210,640,200,410,610,2.05,170,300,470,1.7647,150,240,390,1.6,130,160,290,1.2308,110,120,230,1.0909,100,100,200,1,130,74
910,260,650,170,490,660,2.8824,150,340,490,2.2667,140,270,410,1.9286,130,160,290,1.2308,100,120,220,1.2,90,100,190,1.1111,129,74
900,260,630,180,640,820,3.5556,150,380,530,2.5333,140,310,450,2.2143,120,170,290,1.4167,90,110,200,1.2222,80,100,180,1.25,129,74
910,270,630,180,430,610,2.3889,160,310,470,1.9375,150,250,400,1.6667,130,160,290,1.2308,110,120,230,1.0909,100,90,190,0.9,129,74
920,280,610,190,500,690,2.6316,170,340,510,2,160,260,420,1.625,130,180,310,1.3846,120,130,250,1.0833,100,100,200,1,130,74
900,310,530,200,450,650,2.25,180,330,510,1.8333,170,260,430,1.5294,150,170,320,1.1333,130,120,250,0.92308,120,100,220,0.83333,130,74
890,370,700,390,470,860,1.2051,190,440,630,2.3158,180,370,550,2.0556,150,180,330,1.2,130,130,260,1,100,110,210,1.1,130,74
900,190,700,190,480,670,2.5263,150,350,500,2.3333,150,270,420,1.8,120,160,280,1.3333,110,120,230,1.0909,90,100,190,1.1111,130,74
910,200,680,170,450,620,2.6471,140,310,450,2.2143,140,250,390,1.7857,120,160,280,1.3333,90,130,220,1.4444,90,100,190,1.1111,129,74
910,230,700,160,470,630,2.9375,150,330,480,2.2,130,250,380,1.9231,120,160,280,1.3333,100,130,230,1.3,80,100,180,1.25,129,74
900,210,680,170,370,540,2.1765,150,260,410,1.7333,140,210,350,1.5,120,150,270,1.25,100,120,220,1.2,90,100,190,1.1111,129,74
920,220,690,170,460,630,2.7059,150,330,480,2.2,140,270,410,1.9286,130,170,300,1.3077,100,120,220,1.2,90,110,200,1.2222,130,74
900,230,700,210,520,730,2.4762,170,370,540,2.1765,170,300,470,1.7647,140,190,330,1.3571,120,130,250,1.0833,110,110,220,1,130,74
900,200,650,180,660,840,3.6667,150,340,490,2.2667,150,210,360,1.4,130,140,270,1.0769,110,110,220,1,100,100,200,1,129,74
890,250,650,180,450,630,2.5,160,330,490,2.0625,150,280,430,1.8667,130,170,300,1.3077,110,120,230,1.0909,100,100,200,1,129,74
910,240,710,180,720,900,4,150,330,480,2.2,140,260,400,1.8571,120,160,280,1.3333,110,110,220,1,90,100,190,1.1111,129,74
910,200,700,180,440,620,2.4444,160,300,460,1.875,130,250,380,1.9231,130,160,290,1.2308,110,120,230,1.0909,100,100,200,1,129,74
910,210,690,180,470,650,2.6111,160,330,490,2.0625,140,250,390,1.7857,120,150,270,1.25,110,120,230,1.0909,100,100,200,1,129,74
900,220,690,220,450,670,2.0455,160,300,460,1.875,150,240,390,1.6,130,160,290,1.2308,120,120,240,1,100,100,200,1,130,74
890,210,720,230,570,800,2.4783,160,390,550,2.4375,150,320,470,2.1333,130,190,320,1.4615,110,140,250,1.2727,90,120,210,1.3333,129,74
940,170,580,190,410,600,2.1579,150,240,390,1.6,140,200,340,1.4286,110,160,270,1.4545,90,120,210,1.3333,80,110,190,1.375,129,74
900,360,590,190,600,790,3.1579,160,460,620,2.875,150,370,520,2.4667,120,200,320,1.6667,110,130,240,1.1818,90,100,190,1.1111,128,74
920,310,590,170,600,770,3.5294,140,600,740,4.2857,140,530,670,3.7857,120,190,310,1.5833,100,130,230,1.3,80,110,190,1.375,128,73
910,330,670,180,470,650,2.6111,160,330,490,2.0625,150,270,420,1.8,130,160,290,1.2308,100,120,220,1.2,100,110,210,1.1,129,74
920,240,570,260,530,790,2.0385,180,450,630,2.5,170,350,520,2.0588,140,200,340,1.4286,120,130,250,1.0833,100,110,210,1.1,129,74
900,350,640,200,520,720,2.6,170,340,510,2,160,280,440,1.75,140,170,310,1.2143,120,120,240,1,100,100,200,1,128,74
900,260,640,280,440,720,1.5714,200,320,520,1.6,180,270,450,1.5,150,180,330,1.2,130,130,260,1,110,110,220,1,128,73
900,260,540,180,550,730,3.0556,160,370,530,2.3125,150,310,460,2.0667,130,170,300,1.3077,110,130,240,1.1818,100,100,200,1,128,73
900,360,620,190,450,640,2.3684,160,330,490,2.0625,150,270,420,1.8,130,160,290,1.2308,110,110,220,1,100,100,200,1,127,73
910,280,620,190,440,630,2.3158,170,330,500,1.9412,150,290,440,1.9333,130,180,310,1.3846,110,130,240,1.1818,100,120,220,1.2,127,73
890,290,530,190,470,660,2.4737,160,330,490,2.0625,160,270,430,1.6875,140,170,310,1.2143,120,120,240,1,110,100,210,0.90909,128,73
890,360,540,200,430,630,2.15,170,340,510,2,160,290,450,1.8125,130,170,300,1.3077,120,130,250,1.0833,100,100,200,1,129,73
900,350,690,190,480,670,2.5263,170,330,500,1.9412,150,280,430,1.8667,140,180,320,1.2857,120,130,250,1.0833,110,110,220,1,128,73
890,210,580,230,440,670,1.913,200,320,520,1.6,170,260,430,1.5294,140,170,310,1.2143,130,130,260,1,110,110,220,1,128,73
900,310,630,200,640,840,3.2,160,420,580,2.625,140,360,500,2.5714,130,190,320,1.4615,100,120,220,1.2,90,110,200,1.2222,128,73
900,270,610,180,460,640,2.5556,150,330,480,2.2,150,270,420,1.8,130,160,290,1.2308,110,110,220,1,100,100,200,1,128,73
900,290,300,180,300,480,1.6667,150,300,450,2,140,300,440,2.1429,120,170,290,1.4167,90,120,210,1.3333,70,100,170,1.4286,129,74
900,600,530,190,480,670,2.5263,160,350,510,2.1875,150,290,440,1.9333,130,170,300,1.3077,110,120,230,1.0909,100,110,210,1.1,129,74
900,370,610,210,410,620,1.9524,180,270,450,1.5,160,220,380,1.375,140,190,330,1.3571,120,130,250,1.0833,100,110,210,1.1,129,74
900,290,690,310,490,800,1.5806,190,370,560,1.9474,170,310,480,1.8235,150,190,340,1.2667,130,130,260,1,110,110,220,1,129,74
900,210,570,190,400,590,2.1053,160,290,450,1.8125,150,240,390,1.6,140,160,300,1.1429,110,120,230,1.0909,100,100,200,1,129,74
900,330,670,180,480,660,2.6667,160,350,510,2.1875,150,280,430,1.8667,130,160,290,1.2308,110,110,220,1,100,100,200,1,129,74
910,230,620,170,460,630,2.7059,150,340,490,2.2667,140,290,430,2.0714,130,160,290,1.2308,110,120,230,1.0909,100,100,200,1,129,74
900,290,600,200,510,710,2.55,170,360,530,2.1176,160,290,450,1.8125,130,180,310,1.3846,120,120,240,1,100,100,200,1,130,74
910,300,550,190,560,750,2.9474,160,370,530,2.3125,150,310,460,2.0667,130,180,310,1.3846,110,120,230,1.0909,100,110,210,1.1,130,74
900,360,600,210,380,590,1.8095,170,250,420,1.4706,160,180,340,1.125,140,120,260,0.85714,120,80,200,0.66667,100,50,150,0.5,130,74
890,300,690,320,440,760,1.375,200,320,520,1.6,180,270,450,1.5,150,180,330,1.2,130,140,270,1.0769,110,110,220,1,129,74
900,200,600,170,610,780,3.5882,150,400,550,2.6667,140,310,450,2.2143,120,160,280,1.3333,110,120,230,1.0909,90,100,190,1.1111,129,74
900,300,650,180,480,660,2.6667,150,350,500,2.3333,140,280,420,2,120,170,290,1.4167,110,120,230,1.0909,90,100,190,1.1111,129,74
900,250,600,170,460,630,2.7059,150,330,480,2.2,140,280,420,2,130,170,300,1.3077,100,130,230,1.3,90,100,190,1.1111,129,74
900,300,570,180,460,640,2.5556,150,330,480,2.2,150,280,430,1.8667,130,160,290,1.2308,110,120,230,1.0909,100,100,200,1,129,74
890,330,670,180,680,860,3.7778,170,390,560,2.2941,150,330,480,2.2,130,190,320,1.4615,110,130,240,1.1818,90,110,200,1.2222,131,75
890,220,690,210,450,660,2.1429,170,330,500,1.9412,160,280,440,1.75,130,170,300,1.3077,100,130,230,1.3,90,110,200,1.2222,130,75
910,200,590,220,430,650,1.9545,220,320,540,1.4545,170,270,440,1.5882,140,180,320,1.2857,110,140,250,1.2727,100,120,220,1.2,130,75
910,320,670,170,680,850,4,150,450,600,3,140,370,510,2.6429,120,210,330,1.75,100,130,230,1.3,90,110,200,1.2222,130,75
900,240,640,180,470,650,2.6111,160,340,500,2.125,150,280,430,1.8667,120,160,280,1.3333,110,110,220,1,100,100,200,1,130,74
920,260,640,180,470,650,2.6111,160,360,520,2.25,140,310,450,2.2143,120,170,290,1.4167,110,130,240,1.1818,100,110,210,1.1,130,74
910,280,630,180,640,820,3.5556,160,370,530,2.3125,140,310,450,2.2143,140,170,310,1.2143,110,120,230,1.0909,110,100,210,0.90909,130,74
900,280,620,190,490,680,2.5789,170,360,530,2.1176,160,290,450,1.8125,140,180,320,1.2857,120,130,250,1.0833,110,100,210,0.90909,131,75
910,280,700,300,500,800,1.6667,190,390,580,2.0526,170,340,510,2,150,220,370,1.4667,120,150,270,1.25,110,120,230,1.0909,132,75
900,210,600,190,430,620,2.2632,160,300,460,1.875,150,240,390,1.6,130,160,290,1.2308,110,120,230,1.0909,100,100,200,1,131,75
910,300,600,180,610,790,3.3889,160,420,580,2.625,150,350,500,2.3333,120,190,310,1.5833,110,130,240,1.1818,100,100,200,1,130,75
900,310,590,180,470,650,2.6111,160,350,510,2.1875,150,270,420,1.8,130,160,290,1.2308,110,120,230,1.0909,90,100,190,1.1111,130,74
910,310,600,180,450,630,2.5,160,350,510,2.1875,140,290,430,2.0714,130,180,310,1.3846,100,130,230,1.3,90,110,200,1.2222,131,74
910,310,560,190,570,760,3,170,380,550,2.2353,150,320,470,2.1333,130,180,310,1.3846,100,130,230,1.3,90,110,200,1.2222,131,75
900,350,550,190,410,600,2.1579,160,350,510,2.1875,150,290,440,1.9333,140,180,320,1.2857,110,140,250,1.2727,100,110,210,1.1,131,75
900,350,680,370,450,820,1.2162,210,330,540,1.5714,170,280,450,1.6471,150,180,330,1.2,120,140,260,1.1667,110,120,230,1.0909,131,75
900,220,580,180,450,630,2.5,160,330,490,2.0625,150,270,420,1.8,120,160,280,1.3333,110,120,230,1.0909,90,100,190,1.1111,131,75
900,320,650,280,660,940,2.3571,170,430,600,2.5294,150,360,510,2.4,130,210,340,1.6154,90,140,230,1.5556,90,120,210,1.3333,130,74
910,250,570,170,460,630,2.7059,150,340,490,2.2667,140,270,410,1.9286,120,160,280,1.3333,100,120,220,1.2,90,110,200,1.2222,130,74
900,340,550,190,440,630,2.3158,150,310,460,2.0667,140,240,380,1.7143,120,150,270,1.25,90,120,210,1.3333,60,100,160,1.6667,130,74
900,350,600,190,610,800,3.2105,160,410,570,2.5625,160,330,490,2.0625,130,190,320,1.4615,120,130,250,1.0833,100,110,210,1.1,131,75
890,300,700,230,440,670,1.913,180,300,480,1.6667,170,240,410,1.4118,150,200,350,1.3333,120,130,250,1.0833,110,110,220,1,130,75
900,190,560,210,430,640,2.0476,210,320,530,1.5238,170,260,430,1.5294,140,170,310,1.2143,110,130,240,1.1818,110,110,220,1,130,75
900,340,460,180,470,650,2.6111,160,410,570,2.5625,140,340,480,2.4286,130,180,310,1.3846,110,130,240,1.1818,90,110,200,1.2222,130,74
900,440,660,220,670,890,3.0455,160,390,550,2.4375,150,330,480,2.2,130,190,320,1.4615,110,130,240,1.1818,100,100,200,1,130,74
900,240,630,170,460,630,2.7059,160,340,500,2.125,140,290,430,2.0714,130,170,300,1.3077,110,130,240,1.1818,100,100,200,1,131,75
900,270,550,170,550,720,3.2353,150,390,540,2.6,150,320,470,2.1333,120,180,300,1.5,110,130,240,1.1818,100,110,210,1.1,131,75
910,350,560,190,570,760,3,170,390,560,2.2941,150,330,480,2.2,130,200,330,1.5385,110,130,240,1.1818,90,120,210,1.3333,132,75
890,350,680,370,470,840,1.2703,370,340,710,0.91892,200,280,480,1.4,160,140,300,0.875,140,100,240,0.71429,120,70,190,0.58333,131,75
900,210,540,190,420,610,2.2105,160,320,480,2,150,240,390,1.6,130,150,280,1.1538,110,130,240,1.1818,100,100,200,1,131,75
900,360,640,190,650,840,3.4211,160,180,340,1.125,150,180,330,1.2,130,180,310,1.3846,110,120,230,1.0909,100,100,200,1,131,75
900,260,640,180,470,650,2.6111,150,340,490,2.2667,140,280,420,2,130,160,290,1.2308,110,120,230,1.0909,100,100,200,1,131,75
920,260,630,190,490,680,2.5789,160,370,530,2.3125,150,310,460,2.0667,130,180,310,1.3846,110,130,240,1.1818,100,110,210,1.1,132,75
900,290,590,190,600,790,3.1579,170,420,590,2.4706,160,350,510,2.1875,140,200,340,1.4286,120,130,250,1.0833,110,100,210,0.90909,133,76
890,310,570,190,480,670,2.5263,170,350,520,2.0588,160,290,450,1.8125,140,180,320,1.2857,130,120,250,0.92308,110,100,210,0.90909,133,76
900,320,680,340,460,800,1.3529,340,350,690,1.0294,340,300,640,0.88235,170,200,370,1.1765,150,140,290,0.93333,140,120,260,0.85714,133,76
890,220,600,180,460,640,2.5556,160,340,500,2.125,150,270,420,1.8,130,150,280,1.1538,120,110,230,0.91667,100,100,200,1,133,76
910,290,630,180,640,820,3.5556,150,470,620,3.1333,140,400,540,2.8571,120,250,370,2.0833,100,130,230,1.3,90,100,190,1.1111,133,76
890,280,590,190,480,670,2.5263,160,350,510,2.1875,160,290,450,1.8125,130,160,290,1.2308,120,110,230,0.91667,110,100,210,0.90909,133,76
910,300,620,180,440,620,2.4444,160,350,510,2.1875,150,290,440,1.9333,130,170,300,1.3077,110,130,240,1.1818,100,100,200,1,134,76
900,290,670,200,680,880,3.4,170,420,590,2.4706,160,350,510,2.1875,140,210,350,1.5,120,130,250,1.0833,110,100,210,0.90909,135,77
880,230,690,220,640,860,2.9091,180,390,570,2.1667,170,320,490,1.8824,150,200,350,1.3333,130,130,260,1,110,110,220,1,135,77
910,190,610,210,440,650,2.0952,210,320,530,1.5238,190,280,470,1.4737,140,180,320,1.2857,120,130,250,1.0833,110,120,230,1.0909,134,77
920,300,610,180,490,670,2.7222,160,360,520,2.25,150,290,440,1.9333,140,160,300,1.1429,110,110,220,1,100,90,190,0.9,134,77
870,310,590,200,600,800,3,170,510,680,3,170,410,580,2.4118,140,240,380,1.7143,130,120,250,0.92308,100,90,190,0.9,134,77
900,280,630,180,490,670,2.7222,160,370,530,2.3125,150,300,450,2,120,170,290,1.4167,110,120,230,1.0909,100,100,200,1,135,77
910,270,530,180,540,720,3,150,390,540,2.6,150,320,470,2.1333,130,170,300,1.3077,110,120,230,1.0909,100,110,210,1.1,135,77
890,380,670,200,680,880,3.4,170,410,580,2.4118,170,340,510,2,150,200,350,1.3333,130,130,260,1,120,100,220,0.83333,135,77
890,220,690,240,530,770,2.2083,240,490,730,2.0417,210,430,640,2.0476,160,300,460,1.875,140,160,300,1.1429,130,120,250,0.92308,136,77
890,200,600,220,430,650,1.9545,160,320,480,2,160,250,410,1.5625,130,160,290,1.2308,110,120,230,1.0909,100,100,200,1,135,77
900,290,640,170,520,690,3.0588,150,380,530,2.5333,140,320,460,2.2857,120,180,300,1.5,100,130,230,1.3,90,100,190,1.1111,135,77
900,260,620,170,630,800,3.7059,150,480,630,3.2,140,400,540,2.8571,130,240,370,1.8462,110,140,250,1.2727,100,110,210,1.1,135,77
910,280,630,180,490,670,2.7222,150,370,520,2.4667,140,310,450,2.2143,120,180,300,1.5,110,130,240,1.1818,100,110,210,1.1,136,77
900,280,670,190,470,660,2.4737,160,320,480,2,150,240,390,1.6,130,150,280,1.1538,120,120,240,1,110,100,210,0.90909,137,78
890,230,670,190,510,700,2.6842,170,360,530,2.1176,160,310,470,1.9375,140,190,330,1.3571,120,130,250,1.0833,100,110,210,1.1,137,78
900,220,690,240,460,700,1.9167,240,390,630,1.625,240,370,610,1.5417,160,250,410,1.5625,140,160,300,1.1429,120,130,250,1.0833,137,78
890,210,590,180,430,610,2.3889,160,320,480,2,150,260,410,1.7333,120,150,270,1.25,110,110,220,1,100,90,190,0.9,137,78
900,300,610,170,490,660,2.8824,150,360,510,2.4,140,300,440,2.1429,130,170,300,1.3077,110,120,230,1.0909,100,100,200,1,137,78
900,290,630,270,640,910,2.3704,190,510,700,2.6842,170,410,580,2.4118,150,260,410,1.7333,120,140,260,1.1667,110,110,220,1,137,78
880,270,580,180,450,630,2.5,160,330,490,2.0625,150,280,430,1.8667,140,170,310,1.2143,120,120,240,1,100,100,200,1,137,78
920,300,690,170,510,680,3,150,330,480,2.2,130,270,400,2.0769,120,160,280,1.3333,100,110,210,1.1,90,80,170,0.88889,138,79
890,230,690,190,440,630,2.3158,170,320,490,1.8824,160,280,440,1.75,140,160,300,1.1429,120,120,240,1,110,100,210,0.90909,138,79
900,200,640,220,430,650,1.9545,220,310,530,1.4091,220,270,490,1.2273,170,230,400,1.3529,140,150,290,1.0714,120,120,240,1,137,78
890,260,610,180,480,660,2.6667,160,340,500,2.125,150,290,440,1.9333,130,150,280,1.1538,110,110,220,1,100,100,200,1,137,78
910,280,490,180,490,670,2.7222,150,350,500,2.3333,140,290,430,2.0714,120,170,290,1.4167,100,120,220,1.2,90,100,190,1.1111,137,78
900,420,600,420,610,1030,1.4524,200,570,770,2.85,180,420,600,2.3333,150,250,400,1.6667,130,130,260,1,110,110,220,1,138,78
900,300,620,190,500,690,2.6316,160,330,490,2.0625,140,280,420,2,140,160,300,1.1429,120,120,240,1,110,100,210,0.90909,138,78
900,280,680,200,440,640,2.2,160,320,480,2,160,270,430,1.6875,140,160,300,1.1429,120,120,240,1,110,90,200,0.81818,138,78
