cp,st,dt,sw10,dw10,sw10+dw10,dw10/sw10,sw25,dw25,sw25+dw25,dw25/sw25,sw33,dw33,sw33+dw33,dw33/sw33,sw50,dw50,sw50+dw50,dw50/sw50,sw66,dw66,sw66+dw66,dw66/sw66,sw75,dw75,sw75+dw75,dw75/sw75,sys,dia,
880,310,590,190,600,790,3.1579,150,380,530,2.5333,140,270,410,1.9286,120,160,280,1.3333,110,120,230,1.0909,90,100,190,1.1111,122,69
890,290,610,180,620,800,3.4444,150,510,660,3.4,140,390,530,2.7857,120,160,280,1.3333,100,110,210,1.1,100,100,200,1,122,69
880,280,610,190,500,690,2.6316,150,340,490,2.2667,150,230,380,1.5333,130,150,280,1.1538,110,110,220,1,100,100,200,1,122,69
890,270,600,290,550,840,1.8966,170,340,510,2,160,230,390,1.4375,140,150,290,1.0714,110,110,220,1,100,100,200,1,122,69
880,290,670,190,680,870,3.5789,160,380,540,2.375,160,300,460,1.875,130,180,310,1.3846,120,130,250,1.0833,100,100,200,1,122,69
840,210,590,230,460,690,2,170,350,520,2.0588,160,290,450,1.8125,130,180,310,1.3846,110,130,240,1.1818,90,120,210,1.3333,121,69
920,250,620,270,460,730,1.7037,270,310,580,1.1481,130,250,380,1.9231,100,190,290,1.9,80,160,240,2,70,140,210,2,121,68
880,300,610,180,520,700,2.8889,150,370,520,2.4667,140,280,420,2,120,170,290,1.4167,100,120,220,1.2,80,100,180,1.25,121,68
890,270,600,180,610,790,3.3889,150,500,650,3.3333,140,400,540,2.8571,120,150,270,1.25,100,120,220,1.2,90,100,190,1.1111,120,68
880,290,590,180,490,670,2.7222,150,320,470,2.1333,140,220,360,1.5714,130,150,280,1.1538,100,120,220,1.2,90,100,190,1.1111,120,68
890,290,570,190,520,710,2.7368,160,330,490,2.0625,150,230,380,1.5333,130,150,280,1.1538,110,120,230,1.0909,100,100,200,1,121,68
880,320,530,190,480,670,2.5263,160,330,490,2.0625,150,250,400,1.6667,140,160,300,1.1429,110,120,230,1.0909,100,100,200,1,121,68
880,350,620,370,470,840,1.2703,190,370,560,1.9474,170,320,490,1.8824,140,200,340,1.4286,120,140,260,1.1667,110,120,230,1.0909,120,68
880,260,580,180,510,690,2.8333,150,350,500,2.3333,150,250,400,1.6667,130,160,290,1.2308,110,120,230,1.0909,100,100,200,1,119,68
880,300,590,180,480,660,2.6667,150,320,470,2.1333,140,230,370,1.6429,120,150,270,1.25,100,120,220,1.2,100,90,190,0.9,119,67
880,290,590,180,480,660,2.6667,150,360,510,2.4,140,280,420,2,120,150,270,1.25,100,110,210,1.1,90,100,190,1.1111,119,67
890,290,570,180,450,630,2.5,150,300,450,2,150,210,360,1.4,120,150,270,1.25,100,120,220,1.2,90,100,190,1.1111,119,67
880,320,560,190,570,760,3,160,390,550,2.4375,150,290,440,1.9333,120,160,280,1.3333,110,120,230,1.0909,90,110,200,1.2222,119,67
880,320,550,180,430,610,2.3889,150,260,410,1.7333,150,200,350,1.3333,120,150,270,1.25,110,120,230,1.0909,90,100,190,1.1111,119,67
900,330,580,350,440,790,1.2571,220,330,550,1.5,170,270,440,1.5882,140,190,330,1.3571,110,140,250,1.2727,110,110,220,1,119,67
880,320,570,190,580,770,3.0526,160,420,580,2.625,150,320,470,2.1333,130,170,300,1.3077,110,130,240,1.1818,100,100,200,1,118,67
890,310,600,180,500,680,2.7778,150,360,510,2.4,140,270,410,1.9286,120,160,280,1.3333,100,120,220,1.2,90,100,190,1.1111,118,67
890,290,610,190,480,670,2.5263,160,370,530,2.3125,140,290,430,2.0714,130,170,300,1.3077,100,110,210,1.1,100,100,200,1,118,67
900,280,590,190,470,660,2.4737,150,310,460,2.0667,150,230,380,1.5333,120,160,280,1.3333,110,120,230,1.0909,90,100,190,1.1111,118,67
890,310,530,200,540,740,2.7,170,390,560,2.2941,160,320,480,2,130,180,310,1.3846,120,130,250,1.0833,100,100,200,1,118,67
880,360,680,200,430,630,2.15,180,310,490,1.7222,170,240,410,1.4118,140,160,300,1.1429,110,120,230,1.0909,100,100,200,1,119,67
890,200,580,220,430,650,1.9545,220,280,500,1.2727,180,220,400,1.2222,140,160,300,1.1429,120,120,240,1,110,110,220,1,118,67
890,310,580,200,590,790,2.95,160,460,620,2.875,160,380,540,2.375,130,180,310,1.3846,110,130,240,1.1818,90,110,200,1.2222,118,67
890,310,580,180,480,660,2.6667,160,330,490,2.0625,140,230,370,1.6429,120,150,270,1.25,100,120,220,1.2,80,90,170,1.125,117,67
890,310,600,190,460,650,2.4211,160,340,500,2.125,150,250,400,1.6667,130,170,300,1.3077,100,130,230,1.3,100,110,210,1.1,117,66
900,290,560,180,460,640,2.5556,150,290,440,1.9333,140,220,360,1.5714,120,160,280,1.3333,110,120,230,1.0909,90,100,190,1.1111,117,66
890,340,540,190,460,650,2.4211,160,340,500,2.125,150,300,450,2,130,180,310,1.3846,110,130,240,1.1818,90,100,190,1.1111,118,67
880,350,690,200,470,670,2.35,170,330,500,1.9412,160,280,440,1.75,140,170,310,1.2143,120,130,250,1.0833,100,100,200,1,117,67
900,190,600,210,440,650,2.0952,210,270,480,1.2857,170,210,380,1.2353,130,170,300,1.3077,110,120,230,1.0909,90,110,200,1.2222,117,67
590,300,580,290,590,880,2.0345,180,590,770,3.2778,160,490,650,3.0625,130,210,340,1.6154,110,140,250,1.2727,100,110,210,1.1,116,67
1200,10,910,20,770,790,38.5,20,640,660,32,20,560,580,28,20,480,500,24,20,430,450,21.5,20,420,440,21,116,66
900,290,600,180,480,660,2.6667,150,320,470,2.1333,140,240,380,1.7143,120,160,280,1.3333,100,120,220,1.2,80,100,180,1.25,116,66
890,300,560,190,520,710,2.7368,160,320,480,2,150,220,370,1.4667,130,140,270,1.0769,110,110,220,1,100,100,200,1,116,66
890,330,690,200,400,600,2,170,270,440,1.5882,150,240,390,1.6,130,180,310,1.3846,110,130,240,1.1818,100,110,210,1.1,116,66
900,200,620,220,480,700,2.1818,220,380,600,1.7273,180,320,500,1.7778,150,200,350,1.3333,120,140,260,1.1667,110,110,220,1,115,66
890,280,480,180,450,630,2.5,160,290,450,1.8125,140,220,360,1.5714,120,150,270,1.25,110,120,230,1.0909,90,100,190,1.1111,115,66
890,410,600,210,610,820,2.9048,170,420,590,2.4706,150,330,480,2.2,130,170,300,1.3077,100,130,230,1.3,90,100,190,1.1111,114,65
890,290,600,180,460,640,2.5556,150,310,460,2.0667,150,210,360,1.4,120,150,270,1.25,100,120,220,1.2,100,90,190,0.9,114,65
900,290,580,190,450,640,2.3684,150,310,460,2.0667,150,230,380,1.5333,130,150,280,1.1538,110,110,220,1,100,100,200,1,114,65
890,320,570,190,530,720,2.7895,170,360,530,2.1176,150,270,420,1.8,130,160,290,1.2308,110,130,240,1.1818,100,100,200,1,114,65
880,320,540,190,430,620,2.2632,160,280,440,1.75,150,210,360,1.4,130,150,280,1.1538,100,130,230,1.3,90,120,210,1.3333,115,65
900,340,600,360,440,800,1.2222,320,320,640,1,170,260,430,1.5294,140,190,330,1.3571,110,150,260,1.3636,100,120,220,1.2,114,65
890,300,590,180,600,780,3.3333,160,260,420,1.625,150,190,340,1.2667,130,140,270,1.0769,110,110,220,1,90,90,180,1,113,65
880,300,570,190,570,760,3,160,360,520,2.25,150,250,400,1.6667,130,160,290,1.2308,110,110,220,1,90,90,180,1,113,65
890,310,600,190,450,640,2.3684,160,290,450,1.8125,140,210,350,1.5,130,150,280,1.1538,110,110,220,1,100,90,190,0.9,113,64
890,290,580,180,450,630,2.5,150,310,460,2.0667,150,230,380,1.5333,130,150,280,1.1538,100,120,220,1.2,100,100,200,1,113,64
890,310,530,190,540,730,2.8421,160,390,550,2.4375,150,310,460,2.0667,130,180,310,1.3846,110,130,240,1.1818,100,110,210,1.1,113,65
880,360,550,380,420,800,1.1053,180,300,480,1.6667,160,220,380,1.375,140,140,280,1,120,100,220,0.83333,110,80,190,0.72727,113,65
900,330,560,350,400,750,1.1429,280,250,530,0.89286,170,210,380,1.2353,140,160,300,1.1429,120,140,260,1.1667,100,100,200,1,113,65
880,340,610,190,620,810,3.2632,170,620,790,3.6471,150,430,580,2.8667,130,160,290,1.2308,110,120,230,1.0909,100,100,200,1,112,64
900,270,640,180,480,660,2.6667,150,320,470,2.1333,140,240,380,1.7143,120,160,280,1.3333,100,120,220,1.2,90,110,200,1.2222,112,64
890,260,620,220,580,800,2.6364,170,380,550,2.2353,160,290,450,1.8125,130,170,300,1.3077,110,130,240,1.1818,90,100,190,1.1111,112,64
890,270,570,180,480,660,2.6667,160,290,450,1.8125,140,220,360,1.5714,130,160,290,1.2308,100,120,220,1.2,90,100,190,1.1111,113,65
850,320,550,190,520,710,2.7368,160,360,520,2.25,150,280,430,1.8667,130,170,300,1.3077,110,130,240,1.1818,100,110,210,1.1,113,65
930,300,630,320,480,800,1.5,130,340,470,2.6154,120,270,390,2.25,100,200,300,2,80,160,240,2,70,140,210,2,113,65
900,300,600,320,410,730,1.2813,190,270,460,1.4211,160,220,380,1.375,130,160,290,1.2308,120,130,250,1.0833,100,100,200,1,113,65
880,300,590,180,600,780,3.3333,150,490,640,3.2667,140,420,560,3,130,170,300,1.3077,100,120,220,1.2,90,100,190,1.1111,112,65
900,290,620,180,480,660,2.6667,150,320,470,2.1333,140,230,370,1.6429,120,150,270,1.25,100,120,220,1.2,90,100,190,1.1111,112,64
900,280,620,240,500,740,2.0833,160,370,530,2.3125,150,290,440,1.9333,130,170,300,1.3077,110,130,240,1.1818,90,100,190,1.1111,112,64
900,280,510,180,520,700,2.8889,150,400,550,2.6667,150,260,410,1.7333,130,160,290,1.2308,100,120,220,1.2,100,100,200,1,113,65
890,390,680,190,460,650,2.4211,160,320,480,2,150,260,410,1.7333,130,170,300,1.3077,110,120,230,1.0909,100,100,200,1,113,65
890,210,590,230,470,700,2.0435,230,370,600,1.6087,180,330,510,1.8333,140,200,340,1.4286,120,140,260,1.1667,100,120,220,1.2,113,65
890,300,550,210,420,630,2,160,250,410,1.5625,150,200,350,1.3333,130,150,280,1.1538,100,120,220,1.2,100,90,190,0.9,112,65
890,340,620,190,630,820,3.3158,150,440,590,2.9333,150,360,510,2.4,120,180,300,1.5,110,110,220,1,90,100,190,1.1111,112,64
890,270,630,180,450,630,2.5,160,280,440,1.75,140,210,350,1.5,130,150,280,1.1538,100,110,210,1.1,90,100,190,1.1111,112,64
890,260,630,200,450,650,2.25,160,350,510,2.1875,150,260,410,1.7333,130,160,290,1.2308,100,130,230,1.3,90,110,200,1.2222,112,64
870,260,570,190,580,770,3.0526,160,390,550,2.4375,150,280,430,1.8667,130,170,300,1.3077,110,120,230,1.0909,100,110,210,1.1,112,64
900,300,700,180,440,620,2.4444,150,310,460,2.0667,140,240,380,1.7143,120,170,290,1.4167,100,130,230,1.3,90,120,210,1.3333,112,64
890,200,600,220,460,680,2.0909,190,340,530,1.7895,160,270,430,1.6875,140,190,330,1.3571,120,140,260,1.1667,100,120,220,1.2,112,64
890,290,590,180,440,620,2.4444,150,240,390,1.6,140,190,330,1.3571,120,150,270,1.25,100,110,210,1.1,90,100,190,1.1111,112,64
910,300,610,170,620,790,3.6471,150,400,550,2.6667,140,310,450,2.2143,120,180,300,1.5,100,130,230,1.3,90,110,200,1.2222,111,64
890,300,600,180,470,650,2.6111,160,320,480,2,150,230,380,1.5333,130,150,280,1.1538,110,110,220,1,90,100,190,1.1111,111,64
900,290,610,170,480,650,2.8235,150,350,500,2.3333,140,230,370,1.6429,130,160,290,1.2308,100,120,220,1.2,90,100,190,1.1111,111,64
900,290,570,180,510,690,2.8333,160,330,490,2.0625,150,230,380,1.5333,130,150,280,1.1538,110,120,230,1.0909,100,100,200,1,112,64
870,330,700,190,550,740,2.8947,160,360,520,2.25,150,280,430,1.8667,140,170,310,1.2143,110,120,230,1.0909,90,110,200,1.2222,112,64
920,170,610,190,460,650,2.4211,190,20,210,0.10526,140,20,160,0.14286,120,20,140,0.16667,90,20,110,0.22222,90,20,110,0.22222,112,64
890,310,590,200,510,710,2.55,160,360,520,2.25,150,210,360,1.4,130,150,280,1.1538,110,110,220,1,90,90,180,1,111,64
890,300,590,180,600,780,3.3333,150,450,600,3,140,360,500,2.5714,120,170,290,1.4167,100,130,230,1.3,90,100,190,1.1111,111,64
910,300,630,180,450,630,2.5,140,290,430,2.0714,140,220,360,1.5714,120,160,280,1.3333,100,120,220,1.2,90,110,200,1.2222,110,64
890,280,530,190,480,670,2.5263,160,290,450,1.8125,150,210,360,1.4,140,160,300,1.1429,110,120,230,1.0909,100,100,200,1,110,63
890,360,530,180,450,630,2.5,160,300,460,1.875,150,220,370,1.4667,130,160,290,1.2308,110,120,230,1.0909,100,100,200,1,111,64
890,360,620,380,490,870,1.2895,380,440,820,1.1579,190,400,590,2.1053,150,220,370,1.4667,120,150,270,1.25,110,120,230,1.0909,110,64
900,270,550,290,410,700,1.4138,160,240,400,1.5,140,200,340,1.4286,130,150,280,1.1538,100,120,220,1.2,90,90,180,1,110,63
900,350,610,180,490,670,2.7222,140,360,500,2.5714,140,280,420,2,120,160,280,1.3333,100,120,220,1.2,90,110,200,1.2222,109,63
890,290,610,220,620,840,2.8182,190,570,760,3,170,440,610,2.5882,140,210,350,1.5,120,130,250,1.0833,100,110,210,1.1,109,63
910,280,610,190,470,660,2.4737,150,340,490,2.2667,140,250,390,1.7857,120,160,280,1.3333,100,120,220,1.2,90,100,190,1.1111,109,63
890,300,580,190,480,670,2.5263,160,280,440,1.75,150,200,350,1.3333,130,140,270,1.0769,110,100,210,0.90909,100,80,180,0.8,109,63
910,310,540,170,500,670,2.9412,150,340,490,2.2667,140,240,380,1.7143,120,160,280,1.3333,100,120,220,1.2,90,110,200,1.2222,109,63
880,370,600,390,450,840,1.1538,390,340,730,0.87179,200,300,500,1.5,160,210,370,1.3125,130,140,270,1.0769,120,120,240,1,109,63
910,280,600,180,450,630,2.5,150,260,410,1.7333,130,210,340,1.6154,120,150,270,1.25,100,120,220,1.2,90,100,190,1.1111,108,63
910,310,540,190,480,670,2.5263,160,280,440,1.75,140,200,340,1.4286,120,140,260,1.1667,110,110,220,1,90,100,190,1.1111,108,63
880,370,580,370,590,960,1.5946,180,480,660,2.6667,160,410,570,2.5625,140,200,340,1.4286,110,130,240,1.1818,110,110,220,1,108,63
910,300,590,220,440,660,2,160,280,440,1.75,140,210,350,1.5,120,160,280,1.3333,100,120,220,1.2,90,100,190,1.1111,108,63
890,320,530,200,540,740,2.7,170,380,550,2.2353,160,290,450,1.8125,120,170,290,1.4167,110,130,240,1.1818,90,100,190,1.1111,109,63
910,360,540,180,430,610,2.3889,150,310,460,2.0667,150,240,390,1.6,120,160,280,1.3333,110,130,240,1.1818,90,110,200,1.2222,109,63
900,370,590,390,410,800,1.0513,390,270,660,0.69231,390,210,600,0.53846,170,160,330,0.94118,130,130,260,1,120,110,230,0.91667,109,63
900,310,610,190,520,710,2.7368,150,350,500,2.3333,140,240,380,1.7143,110,160,270,1.4545,110,120,230,1.0909,90,100,190,1.1111,108,63
910,290,370,180,380,560,2.1111,150,300,450,2,140,220,360,1.5714,120,160,280,1.3333,100,120,220,1.2,90,100,190,1.1111,108,63
900,540,610,520,620,1140,1.1923,160,450,610,2.8125,160,340,500,2.125,130,180,310,1.3846,120,130,250,1.0833,100,100,200,1,108,63
910,290,690,180,630,810,3.5,150,250,400,1.6667,140,200,340,1.4286,130,150,280,1.1538,100,110,210,1.1,100,90,190,0.9,109,63
900,220,570,180,440,620,2.4444,160,330,490,2.0625,150,240,390,1.6,130,160,290,1.2308,110,120,230,1.0909,100,100,200,1,109,63
860,330,650,200,480,680,2.4,160,350,510,2.1875,150,270,420,1.8,130,170,300,1.3077,110,130,240,1.1818,100,110,210,1.1,109,63
930,210,620,230,470,700,2.0435,170,270,440,1.5882,140,220,360,1.5714,110,180,290,1.6364,90,140,230,1.5556,70,120,190,1.7143,108,63
890,310,600,190,490,680,2.5789,160,360,520,2.25,140,240,380,1.7143,130,160,290,1.2308,100,120,220,1.2,100,90,190,0.9,107,62
910,290,620,170,630,800,3.7059,150,510,660,3.4,140,440,580,3.1429,110,160,270,1.4545,100,120,220,1.2,80,110,190,1.375,107,62
890,290,600,180,480,660,2.6667,150,320,470,2.1333,140,230,370,1.6429,130,160,290,1.2308,100,110,210,1.1,100,100,200,1,107,62
900,290,560,180,490,670,2.7222,160,380,540,2.375,150,260,410,1.7333,120,160,280,1.3333,110,120,230,1.0909,90,100,190,1.1111,108,62
890,340,560,180,440,620,2.4444,160,320,480,2,150,250,400,1.6667,130,170,300,1.3077,110,120,230,1.0909,100,100,200,1,108,62
890,330,620,350,470,820,1.3429,270,360,630,1.3333,170,300,470,1.7647,140,190,330,1.3571,110,150,260,1.3636,100,110,210,1.1,107,62
890,270,590,170,600,770,3.5294,160,480,640,3,140,350,490,2.5,120,190,310,1.5833,110,140,250,1.2727,90,110,200,1.2222,107,62
900,300,600,170,490,660,2.8824,140,340,480,2.4286,130,250,380,1.9231,120,160,280,1.3333,90,120,210,1.3333,80,100,180,1.25,106,62
890,300,580,180,440,620,2.4444,150,280,430,1.8667,140,200,340,1.4286,130,150,280,1.1538,110,120,230,1.0909,100,110,210,1.1,106,62
900,310,600,190,450,640,2.3684,150,300,450,2,150,220,370,1.4667,120,160,280,1.3333,110,120,230,1.0909,90,100,190,1.1111,106,62
900,300,560,180,570,750,3.1667,160,370,530,2.3125,150,320,470,2.1333,130,170,300,1.3077,110,130,240,1.1818,90,110,200,1.2222,106,62
890,340,680,190,490,680,2.5789,160,320,480,2,160,260,420,1.625,130,180,310,1.3846,110,130,240,1.1818,100,110,210,1.1,107,62
890,210,580,230,430,660,1.8696,230,300,530,1.3043,180,240,420,1.3333,150,170,320,1.1333,120,130,250,1.0833,110,100,210,0.90909,107,62
900,310,610,280,620,900,2.2143,160,480,640,3,150,370,520,2.4667,130,180,310,1.3846,100,130,230,1.3,90,110,200,1.2222,107,62
910,290,620,180,500,680,2.7778,150,310,460,2.0667,140,230,370,1.6429,120,150,270,1.25,100,120,220,1.2,90,100,190,1.1111,106,62
890,290,640,180,540,720,3,140,350,490,2.5,140,240,380,1.7143,110,160,270,1.4545,80,120,200,1.5,70,100,170,1.4286,106,62
910,250,590,170,460,630,2.7059,150,270,420,1.8,140,200,340,1.4286,120,150,270,1.25,110,120,230,1.0909,90,100,190,1.1111,106,62
900,320,220,190,220,410,1.1579,160,50,210,0.3125,150,50,200,0.33333,130,50,180,0.38462,110,50,160,0.45455,100,50,150,0.5,107,62
890,680,700,510,460,970,0.90196,510,300,810,0.58824,170,240,410,1.4118,130,160,290,1.2308,120,120,240,1,100,100,200,1,107,62
900,190,600,210,400,610,1.9048,170,250,420,1.4706,160,210,370,1.3125,130,160,290,1.2308,110,130,240,1.1818,90,100,190,1.1111,107,62
900,300,590,190,570,760,3,150,390,540,2.6,150,270,420,1.8,120,160,280,1.3333,110,110,220,1,90,100,190,1.1111,107,62
890,310,610,180,480,660,2.6667,160,300,460,1.875,140,210,350,1.5,130,150,280,1.1538,110,110,220,1,100,90,190,0.9,106,62
910,280,580,190,590,780,3.1053,150,360,510,2.4,140,260,400,1.8571,120,180,300,1.5,100,130,230,1.3,90,110,200,1.2222,106,62
890,330,580,180,520,700,2.8889,160,360,520,2.25,150,250,400,1.6667,130,160,290,1.2308,110,120,230,1.0909,90,90,180,1,106,62
890,310,560,200,390,590,1.95,160,230,390,1.4375,150,180,330,1.2,130,130,260,1,110,100,210,0.90909,100,70,170,0.7,107,62
900,330,610,350,480,830,1.3714,200,380,580,1.9,170,320,490,1.8824,140,190,330,1.3571,120,150,270,1.25,110,120,230,1.0909,107,62
900,290,590,180,510,690,2.8333,150,230,380,1.5333,140,190,330,1.3571,130,150,280,1.1538,100,110,210,1.1,90,90,180,1,106,62
900,310,590,200,560,760,2.8,160,390,550,2.4375,150,270,420,1.8,130,160,290,1.2308,110,110,220,1,100,100,200,1,106,62
910,310,560,180,440,620,2.4444,150,280,430,1.8667,140,210,350,1.5,130,160,290,1.2308,100,120,220,1.2,100,100,200,1,106,62
890,350,600,190,540,730,2.8421,160,360,520,2.25,150,260,410,1.7333,130,170,300,1.3077,110,120,230,1.0909,90,100,190,1.1111,106,62
910,290,570,170,580,750,3.4118,150,380,530,2.5333,140,280,420,2,120,170,290,1.4167,100,130,230,1.3,90,110,200,1.2222,106,62
900,340,540,200,400,600,2,170,260,430,1.5294,160,200,360,1.25,130,150,280,1.1538,120,120,240,1,90,90,180,1,107,62
900,360,600,380,430,810,1.1316,380,280,660,0.73684,180,240,420,1.3333,150,170,320,1.1333,130,130,260,1,110,110,220,1,107,62
900,300,580,190,590,780,3.1053,150,490,640,3.2667,140,380,520,2.7143,120,180,300,1.5,100,130,230,1.3,80,100,180,1.25,106,62
910,320,600,190,530,720,2.7895,150,380,530,2.5333,150,260,410,1.7333,120,170,290,1.4167,100,130,230,1.3,90,110,200,1.2222,105,61
910,310,580,200,450,650,2.25,160,330,490,2.0625,150,240,390,1.6,130,160,290,1.2308,100,120,220,1.2,90,100,190,1.1111,105,61
900,330,570,180,500,680,2.7778,160,350,510,2.1875,150,250,400,1.6667,130,170,300,1.3077,110,120,230,1.0909,90,100,190,1.1111,106,61
900,330,690,190,640,830,3.3684,160,370,530,2.3125,150,290,440,1.9333,130,180,310,1.3846,100,130,230,1.3,100,110,210,1.1,106,62
890,210,710,190,460,650,2.4211,170,320,490,1.8824,150,250,400,1.6667,130,170,300,1.3077,110,130,240,1.1818,90,100,190,1.1111,106,62
910,180,570,200,430,630,2.15,200,240,440,1.2,170,200,370,1.1765,140,160,300,1.1429,110,120,230,1.0909,90,100,190,1.1111,105,61
900,340,610,200,620,820,3.1,160,500,660,3.125,140,400,540,2.8571,130,180,310,1.3846,100,130,230,1.3,80,110,190,1.375,105,61
910,290,570,180,490,670,2.7222,150,360,510,2.4,140,240,380,1.7143,120,160,280,1.3333,100,120,220,1.2,90,100,190,1.1111,104,61
900,340,610,250,460,710,1.84,170,300,470,1.7647,160,220,380,1.375,140,160,300,1.1429,110,130,240,1.1818,100,100,200,1,104,61
900,290,550,190,560,750,2.9474,160,350,510,2.1875,150,230,380,1.5333,130,150,280,1.1538,110,120,230,1.0909,100,100,200,1,105,61
890,350,530,190,460,650,2.4211,170,330,500,1.9412,150,260,410,1.7333,140,170,310,1.2143,110,130,240,1.1818,100,100,200,1,105,61
910,360,630,380,490,870,1.2895,380,400,780,1.0526,170,350,520,2.0588,140,220,360,1.5714,110,150,260,1.3636,100,120,220,1.2,104,61
890,280,550,180,420,600,2.3333,160,230,390,1.4375,140,190,330,1.3571,130,140,270,1.0769,110,110,220,1,100,90,190,0.9,104,61
900,340,610,190,620,810,3.2632,160,440,600,2.75,140,350,490,2.5,120,180,300,1.5,110,130,240,1.1818,90,110,200,1.2222,103,61
890,290,620,180,480,660,2.6667,160,310,470,1.9375,140,220,360,1.5714,130,150,280,1.1538,110,120,230,1.0909,90,100,190,1.1111,103,60
910,270,610,170,470,640,2.7647,150,320,470,2.1333,140,240,380,1.7143,120,170,290,1.4167,90,130,220,1.4444,90,120,210,1.3333,103,60
890,300,540,190,550,740,2.8947,160,370,530,2.3125,150,280,430,1.8667,120,170,290,1.4167,110,120,230,1.0909,100,100,200,1,103,60
890,350,550,190,400,590,2.1053,160,320,480,2,150,240,390,1.6,130,170,300,1.3077,110,130,240,1.1818,100,100,200,1,104,61
900,340,600,360,440,800,1.2222,360,290,650,0.80556,180,240,420,1.3333,140,170,310,1.2143,110,140,250,1.2727,100,110,210,1.1,103,61
900,300,570,190,540,730,2.8421,160,340,500,2.125,140,230,370,1.6429,120,160,280,1.3333,100,120,220,1.2,90,100,190,1.1111,103,60
900,330,620,320,630,950,1.9688,180,470,650,2.6111,160,370,530,2.3125,140,180,320,1.2857,110,130,240,1.1818,100,110,210,1.1,102,60
890,280,600,180,490,670,2.7222,160,310,470,1.9375,150,210,360,1.4,120,150,270,1.25,110,120,230,1.0909,90,100,190,1.1111,102,60
900,290,570,180,430,610,2.3889,160,250,410,1.5625,140,210,350,1.5,120,160,280,1.3333,100,130,230,1.3,90,100,190,1.1111,102,60
890,330,540,190,550,740,2.8947,160,380,540,2.375,150,300,450,2,130,170,300,1.3077,110,130,240,1.1818,100,110,210,1.1,103,60
880,350,690,370,410,780,1.1081,170,260,430,1.5294,160,220,380,1.375,140,180,320,1.2857,120,140,260,1.1667,100,110,210,1.1,104,61
900,190,590,210,450,660,2.1429,210,260,470,1.2381,180,220,400,1.2222,140,170,310,1.2143,120,130,250,1.0833,100,100,200,1,103,61
880,310,470,190,480,670,2.5263,160,410,570,2.5625,150,280,430,1.8667,130,160,290,1.2308,110,120,230,1.0909,100,100,200,1,103,61
900,410,610,420,620,1040,1.4762,170,450,620,2.6471,150,340,490,2.2667,130,190,320,1.4615,100,130,230,1.3,90,120,210,1.3333,102,60
890,290,600,180,470,650,2.6111,160,310,470,1.9375,140,230,370,1.6429,120,160,280,1.3333,110,120,230,1.0909,90,100,190,1.1111,102,60
890,290,570,200,440,640,2.2,150,240,390,1.6,140,200,340,1.4286,120,150,270,1.25,100,120,220,1.2,90,90,180,1,103,60
890,320,530,180,460,640,2.5556,150,270,420,1.8,140,200,340,1.4286,130,160,290,1.2308,100,120,220,1.2,100,100,200,1,104,61
890,360,630,380,490,870,1.2895,200,370,570,1.85,170,290,460,1.7059,140,170,310,1.2143,120,130,250,1.0833,110,120,230,1.0909,104,61
900,260,590,280,410,690,1.4643,170,240,410,1.4118,150,200,350,1.3333,130,150,280,1.1538,110,120,230,1.0909,90,100,190,1.1111,103,61
900,310,370,190,380,570,2,150,360,510,2.4,140,250,390,1.7857,120,160,280,1.3333,100,120,220,1.2,90,100,190,1.1111,103,61
900,530,630,280,470,750,1.6786,160,300,460,1.875,150,230,380,1.5333,120,160,280,1.3333,110,120,230,1.0909,90,90,180,1,103,61
910,270,670,190,500,690,2.6316,160,320,480,2,140,240,380,1.7143,130,160,290,1.2308,100,120,220,1.2,100,100,200,1,103,61
890,240,580,190,590,780,3.1053,170,340,510,2,150,250,400,1.6667,140,160,300,1.1429,120,120,240,1,100,90,190,0.9,103,61
870,310,560,180,470,650,2.6111,160,290,450,1.8125,150,220,370,1.4667,130,160,290,1.2308,110,120,230,1.0909,100,100,200,1,104,61
930,310,650,330,470,800,1.4242,170,340,510,2,150,290,440,1.9333,120,200,320,1.6667,90,150,240,1.6667,90,130,220,1.4444,104,61
890,280,590,180,440,620,2.4444,150,250,400,1.6667,140,200,340,1.4286,130,150,280,1.1538,100,120,220,1.2,100,100,200,1,104,61
900,300,620,180,630,810,3.5,150,390,540,2.6,140,300,440,2.1429,120,160,280,1.3333,100,120,220,1.2,90,110,200,1.2222,103,61
910,280,620,180,520,700,2.8889,150,330,480,2.2,140,240,380,1.7143,120,170,290,1.4167,100,120,220,1.2,90,110,200,1.2222,103,60
890,290,610,210,480,690,2.2857,170,330,500,1.9412,170,250,420,1.4706,130,160,290,1.2308,120,120,240,1,100,100,200,1,103,60
890,280,570,180,580,760,3.2222,160,380,540,2.375,140,280,420,2,130,170,300,1.3077,110,120,230,1.0909,90,110,200,1.2222,104,61
890,320,690,180,450,630,2.5,140,300,440,2.1429,140,240,380,1.7143,120,160,280,1.3333,100,130,230,1.3,90,110,200,1.2222,104,61
890,200,620,220,430,650,1.9545,220,300,520,1.3636,190,240,430,1.2632,140,170,310,1.2143,120,130,250,1.0833,100,110,210,1.1,104,61
890,270,600,180,530,710,2.9444,160,320,480,2,140,220,360,1.5714,120,150,270,1.25,100,120,220,1.2,90,100,190,1.1111,103,60
890,290,610,180,620,800,3.4444,150,480,630,3.2,140,380,520,2.7143,120,210,330,1.75,100,140,240,1.4,90,100,190,1.1111,102,60
910,280,630,180,480,660,2.6667,150,320,470,2.1333,140,240,380,1.7143,110,160,270,1.4545,100,120,220,1.2,90,110,200,1.2222,102,60
890,280,560,200,410,610,2.05,170,330,500,1.9412,160,240,400,1.5,140,160,300,1.1429,110,120,230,1.0909,100,90,190,0.9,103,60
890,330,360,180,370,550,2.0556,160,190,350,1.1875,150,190,340,1.2667,130,160,290,1.2308,110,120,230,1.0909,100,110,210,1.1,103,60
880,530,700,550,540,1090,0.98182,380,370,750,0.97368,380,300,680,0.78947,380,180,560,0.47368,380,130,510,0.34211,380,110,490,0.28947,103,60
900,180,590,200,440,640,2.2,200,260,460,1.3,150,210,360,1.4,120,170,290,1.4167,100,130,230,1.3,90,110,200,1.2222,102,60
930,310,590,180,570,750,3.1667,140,390,530,2.7857,130,270,400,2.0769,110,160,270,1.4545,100,130,230,1.3,80,110,190,1.375,102,60
880,340,560,190,570,760,3,170,490,660,2.8824,160,390,550,2.4375,130,180,310,1.3846,110,120,230,1.0909,100,100,200,1,102,60
910,320,590,180,460,640,2.5556,150,290,440,1.9333,140,220,360,1.5714,120,150,270,1.25,100,120,220,1.2,90,120,210,1.3333,102,60
890,320,560,190,410,600,2.1579,160,250,410,1.5625,150,230,380,1.5333,130,160,290,1.2308,110,130,240,1.1818,100,90,190,0.9,103,60
900,330,570,180,450,630,2.5,150,320,470,2.1333,150,250,400,1.6667,120,160,280,1.3333,100,130,230,1.3,90,110,200,1.2222,103,61
900,330,620,350,450,800,1.2857,190,340,530,1.7895,160,250,410,1.5625,140,170,310,1.2143,120,140,260,1.1667,100,110,210,1.1,103,61
890,280,580,180,470,650,2.6111,150,260,410,1.7333,140,210,350,1.5,120,160,280,1.3333,110,120,230,1.0909,90,100,190,1.1111,102,60
900,310,620,180,550,730,3.0556,150,350,500,2.3333,140,250,390,1.7857,120,160,280,1.3333,100,130,230,1.3,90,110,200,1.2222,102,60
900,280,630,180,640,820,3.5556,170,390,560,2.2941,160,290,450,1.8125,140,170,310,1.2143,110,130,240,1.1818,100,100,200,1,102,60
890,270,620,190,470,660,2.4737,160,350,510,2.1875,160,270,430,1.6875,120,170,290,1.4167,110,130,240,1.1818,90,100,190,1.1111,103,60
900,270,580,290,420,710,1.4483,170,220,390,1.2941,150,180,330,1.2,120,140,260,1.1667,100,120,220,1.2,90,110,200,1.2222,103,60
890,320,680,180,690,870,3.8333,160,360,520,2.25,150,270,420,1.8,130,170,300,1.3077,100,130,230,1.3,100,110,210,1.1,103,60
890,210,590,230,450,680,1.9565,230,350,580,1.5217,180,270,450,1.5,150,190,340,1.2667,120,140,260,1.1667,110,110,220,1,103,60
900,300,590,170,480,650,2.8235,150,280,430,1.8667,140,220,360,1.5714,120,160,280,1.3333,100,120,220,1.2,80,100,180,1.25,102,60
890,310,600,190,510,700,2.6842,160,340,500,2.125,140,240,380,1.7143,130,150,280,1.1538,100,120,220,1.2,100,90,190,0.9,102,60
900,290,590,270,600,870,2.2222,170,470,640,2.7647,150,350,500,2.3333,130,170,300,1.3077,120,130,250,1.0833,100,100,200,1,102,60
880,310,560,190,430,620,2.2632,160,250,410,1.5625,150,200,350,1.3333,130,150,280,1.1538,110,110,220,1,90,90,180,1,103,60
910,320,570,180,440,620,2.4444,150,290,440,1.9333,130,220,350,1.6923,120,150,270,1.25,100,110,210,1.1,90,80,170,0.88889,103,60
890,340,700,180,430,610,2.3889,160,310,470,1.9375,150,250,400,1.6667,130,170,300,1.3077,110,130,240,1.1818,90,100,190,1.1111,103,60
890,190,590,210,410,620,1.9524,210,280,490,1.3333,210,250,460,1.1905,150,180,330,1.2,120,130,250,1.0833,110,110,220,1,102,60
900,300,600,180,580,760,3.2222,150,400,550,2.6667,140,280,420,2,120,160,280,1.3333,100,120,220,1.2,90,110,200,1.2222,102,60
900,300,500,180,480,660,2.6667,160,320,480,2,140,220,360,1.5714,120,150,270,1.25,110,110,220,1,90,90,180,1,102,60
890,400,580,400,590,990,1.475,190,480,670,2.5263,170,390,560,2.2941,140,190,330,1.3571,120,130,250,1.0833,100,120,220,1.2,102,60
900,310,570,190,520,710,2.7368,150,320,470,2.1333,150,220,370,1.4667,120,150,270,1.25,110,110,220,1,100,100,200,1,102,60
880,330,530,220,410,630,1.8636,180,290,470,1.6111,160,220,380,1.375,140,150,290,1.0714,110,110,220,1,100,90,190,0.9,103,60
890,350,620,370,470,840,1.2703,180,400,580,2.2222,170,340,510,2,140,200,340,1.4286,120,130,250,1.0833,100,110,210,1.1,103,61
900,270,560,220,410,630,1.8636,160,220,380,1.375,140,190,330,1.3571,120,150,270,1.25,100,110,210,1.1,90,100,190,1.1111,103,61
890,340,590,200,550,750,2.75,170,380,550,2.2353,150,260,410,1.7333,120,160,280,1.3333,110,120,230,1.0909,90,100,190,1.1111,102,60
910,300,570,180,580,760,3.2222,150,310,460,2.0667,140,230,370,1.6429,120,160,280,1.3333,100,120,220,1.2,90,100,190,1.1111,102,60
900,340,590,200,470,670,2.35,170,320,490,1.8824,150,220,370,1.4667,130,130,260,1,110,120,230,1.0909,90,100,190,1.1111,103,60
880,310,680,240,660,900,2.75,160,400,560,2.5,140,290,430,2.0714,120,170,290,1.4167,100,120,220,1.2,90,110,200,1.2222,103,60
890,200,540,160,410,570,2.5625,140,280,420,2,130,210,340,1.6154,110,160,270,1.4545,100,130,230,1.3,80,110,190,1.375,103,61
890,350,570,370,440,810,1.1892,320,320,640,1,170,270,440,1.5882,140,190,330,1.3571,120,140,260,1.1667,100,110,210,1.1,104,61
900,320,620,180,630,810,3.5,150,420,570,2.8,140,310,450,2.2143,120,180,300,1.5,100,130,230,1.3,90,110,200,1.2222,103,61
900,280,610,180,560,740,3.1111,140,400,540,2.8571,140,240,380,1.7143,120,160,280,1.3333,100,120,220,1.2,90,100,190,1.1111,103,61
900,290,610,180,500,680,2.7778,150,330,480,2.2,140,220,360,1.5714,120,160,280,1.3333,100,120,220,1.2,90,100,190,1.1111,103,60
910,290,560,180,440,620,2.4444,150,280,430,1.8667,140,210,350,1.5,120,150,270,1.25,100,120,220,1.2,90,110,200,1.2222,103,60
910,350,560,190,510,700,2.6842,160,400,560,2.5,150,320,470,2.1333,130,180,310,1.3846,110,120,230,1.0909,100,110,210,1.1,104,61
880,350,700,170,430,600,2.5294,170,290,460,1.7059,170,220,390,1.2941,140,150,290,1.0714,120,110,230,0.91667,110,90,200,0.81818,104,61
910,180,600,200,430,630,2.15,200,280,480,1.4,170,230,400,1.3529,120,170,290,1.4167,100,130,230,1.3,100,110,210,1.1,103,61
900,310,590,170,600,770,3.5294,160,490,650,3.0625,160,380,540,2.375,110,190,300,1.7273,110,130,240,1.1818,90,100,190,1.1111,103,61
910,310,610,180,490,670,2.7222,150,330,480,2.2,140,240,380,1.7143,120,170,290,1.4167,100,150,250,1.5,90,110,200,1.2222,103,60
890,300,610,210,470,680,2.2381,170,320,490,1.8824,150,240,390,1.6,120,170,290,1.4167,110,130,240,1.1818,100,110,210,1.1,103,60
910,280,570,150,560,710,3.7333,140,320,460,2.2857,130,220,350,1.6923,120,170,290,1.4167,100,130,230,1.3,90,110,200,1.2222,103,60
890,340,550,180,420,600,2.3333,160,330,490,2.0625,150,260,410,1.7333,120,170,290,1.4167,110,130,240,1.1818,100,100,200,1,104,61
890,340,610,360,500,860,1.3889,170,390,560,2.2941,150,310,460,2.0667,130,170,300,1.3077,110,130,240,1.1818,100,110,210,1.1,103,60
910,280,580,300,420,720,1.4,150,260,410,1.7333,150,210,360,1.4,120,160,280,1.3333,110,120,230,1.0909,90,110,200,1.2222,102,60
890,330,600,310,610,920,1.9677,170,470,640,2.7647,160,360,520,2.25,130,170,300,1.3077,110,120,230,1.0909,100,100,200,1,102,60
920,290,620,170,480,650,2.8235,150,280,430,1.8667,140,210,350,1.5,110,160,270,1.4545,100,120,220,1.2,90,110,200,1.2222,102,60
900,300,600,180,460,640,2.5556,140,280,420,2,140,200,340,1.4286,120,160,280,1.3333,100,120,220,1.2,90,100,190,1.1111,102,60
900,300,570,180,580,760,3.2222,160,390,550,2.4375,140,260,400,1.8571,120,170,290,1.4167,110,130,240,1.1818,90,100,190,1.1111,102,60
890,330,550,270,400,670,1.4815,170,240,410,1.4118,160,190,350,1.1875,140,170,310,1.2143,110,130,240,1.1818,100,110,210,1.1,102,60
900,340,600,360,440,800,1.2222,360,310,670,0.86111,190,270,460,1.4211,150,190,340,1.2667,120,140,260,1.1667,120,110,230,0.91667,102,60
890,300,420,190,430,620,2.2632,160,370,530,2.3125,150,270,420,1.8,130,170,300,1.3077,110,120,230,1.0909,100,100,200,1,101,60
900,470,600,250,610,860,2.44,150,360,510,2.4,140,240,380,1.7143,120,160,280,1.3333,100,120,220,1.2,90,110,200,1.2222,101,59
890,300,700,180,490,670,2.7222,160,340,500,2.125,140,250,390,1.7857,120,170,290,1.4167,110,120,230,1.0909,90,100,190,1.1111,101,59
900,190,590,180,450,630,2.5,150,290,440,1.9333,140,220,360,1.5714,120,170,290,1.4167,100,120,220,1.2,90,100,190,1.1111,101,59
890,310,550,190,560,750,2.9474,160,400,560,2.5,150,310,460,2.0667,130,180,310,1.3846,110,130,240,1.1818,100,100,200,1,102,60
880,340,540,200,410,610,2.05,170,230,400,1.3529,160,190,350,1.1875,130,140,270,1.0769,120,100,220,0.83333,100,90,190,0.9,102,60
900,340,600,360,420,780,1.1667,360,290,650,0.80556,200,230,430,1.15,140,170,310,1.2143,120,140,260,1.1667,100,110,210,1.1,102,60
890,300,550,190,560,750,2.9474,150,560,710,3.7333,140,360,500,2.5714,130,160,290,1.2308,100,120,220,1.2,100,100,200,1,101,59
890,340,560,190,480,670,2.5263,160,320,480,2,150,230,380,1.5333,120,150,270,1.25,110,110,220,1,100,100,200,1,101,59
900,330,630,320,510,830,1.5938,170,300,470,1.7647,160,220,380,1.375,130,160,290,1.2308,110,120,230,1.0909,100,100,200,1,101,60
880,270,560,190,480,670,2.5263,160,280,440,1.75,150,210,360,1.4,130,150,280,1.1538,110,120,230,1.0909,100,100,200,1,102,60
850,320,580,190,520,710,2.7368,160,340,500,2.125,140,250,390,1.7857,130,170,300,1.3077,110,130,240,1.1818,90,110,200,1.2222,103,60
920,270,660,160,490,650,3.0625,120,330,450,2.75,110,260,370,2.3636,90,140,230,1.5556,80,140,220,1.75,60,130,190,2.1667,103,60
900,260,590,280,430,710,1.5357,180,270,450,1.5,160,230,390,1.4375,130,170,300,1.3077,110,140,250,1.2727,90,110,200,1.2222,103,60
900,310,600,180,610,790,3.3889,150,450,600,3,140,330,470,2.3571,120,160,280,1.3333,100,120,220,1.2,90,100,190,1.1111,102,60
900,300,610,190,460,650,2.4211,150,290,440,1.9333,150,220,370,1.4667,130,150,280,1.1538,110,110,220,1,100,100,200,1,102,60
890,290,600,200,490,690,2.45,170,330,500,1.9412,150,250,400,1.6667,130,170,300,1.3077,110,130,240,1.1818,100,100,200,1,102,60
900,290,580,180,510,690,2.8333,150,300,450,2,140,230,370,1.6429,130,160,290,1.2308,100,120,220,1.2,100,100,200,1,103,60
890,320,570,190,460,650,2.4211,170,280,450,1.6471,160,220,380,1.375,130,150,280,1.1538,120,120,240,1,100,100,200,1,104,61
890,320,630,340,490,830,1.4412,210,360,570,1.7143,180,300,480,1.6667,150,180,330,1.2,130,130,260,1,110,110,220,1,104,61
890,260,580,180,390,570,2.1667,160,250,410,1.5625,150,200,350,1.3333,130,150,280,1.1538,110,120,230,1.0909,100,100,200,1,104,61
900,310,610,180,620,800,3.4444,150,410,560,2.7333,140,320,460,2.2857,120,180,300,1.5,100,120,220,1.2,90,110,200,1.2222,104,61
890,290,630,180,440,620,2.4444,150,280,430,1.8667,140,220,360,1.5714,130,160,290,1.2308,100,120,220,1.2,100,100,200,1,104,61
900,260,630,190,430,620,2.2632,160,310,470,1.9375,140,240,380,1.7143,130,160,290,1.2308,110,120,230,1.0909,100,110,210,1.1,104,61
890,270,550,190,530,720,2.7895,160,330,490,2.0625,160,250,410,1.5625,130,160,290,1.2308,120,120,240,1,100,100,200,1,105,61
890,340,680,190,440,630,2.3158,170,290,460,1.7059,150,230,380,1.5333,130,170,300,1.3077,110,130,240,1.1818,100,100,200,1,105,61
910,210,650,230,430,660,1.8696,180,310,490,1.7222,170,260,430,1.5294,140,180,320,1.2857,110,140,250,1.2727,100,110,210,1.1,105,61
910,260,580,180,450,630,2.5,160,280,440,1.75,150,210,360,1.4,130,150,280,1.1538,110,120,230,1.0909,100,90,190,0.9,105,61
870,330,570,210,580,790,2.7619,180,380,560,2.1111,160,290,450,1.8125,150,160,310,1.0667,120,100,220,0.83333,120,90,210,0.75,105,61
910,300,640,180,430,610,2.3889,160,290,450,1.8125,150,230,380,1.5333,120,150,270,1.25,110,120,230,1.0909,90,110,200,1.2222,105,61
900,270,550,210,400,610,1.9048,170,270,440,1.5882,160,250,410,1.5625,140,160,300,1.1429,110,120,230,1.0909,100,100,200,1,106,62
890,350,540,190,500,690,2.6316,160,330,490,2.0625,160,250,410,1.5625,130,160,290,1.2308,120,120,240,1,100,100,200,1,107,62
890,350,560,190,440,630,2.3158,170,290,460,1.7059,150,230,380,1.5333,130,170,300,1.3077,110,130,240,1.1818,100,110,210,1.1,107,63
910,330,560,350,410,760,1.1714,180,270,450,1.5,160,230,390,1.4375,140,160,300,1.1429,110,130,240,1.1818,100,110,210,1.1,107,63
880,350,610,180,500,680,2.7778,160,320,480,2,150,240,390,1.6,120,150,270,1.25,110,120,230,1.0909,100,90,190,0.9,107,63
910,270,670,170,680,850,4,140,410,550,2.9286,130,320,450,2.4615,130,180,310,1.3846,100,130,230,1.3,90,110,200,1.2222,107,63
900,240,630,180,430,610,2.3889,160,290,450,1.8125,150,220,370,1.4667,130,160,290,1.2308,100,120,220,1.2,90,100,190,1.1111,108,63
890,270,560,190,400,590,2.1053,170,250,420,1.4706,150,200,350,1.3333,130,150,280,1.1538,110,120,230,1.0909,100,100,200,1,108,63
880,330,560,190,460,650,2.4211,160,310,470,1.9375,160,250,410,1.5625,130,160,290,1.2308,110,130,240,1.1818,100,110,210,1.1,111,65
890,320,690,340,490,830,1.4412,170,400,570,2.3529,160,320,480,2,130,200,330,1.5385,110,150,260,1.3636,90,130,220,1.4444,111,65
900,200,580,190,420,610,2.2105,150,290,440,1.9333,140,230,370,1.6429,120,170,290,1.4167,90,140,230,1.5556,90,110,200,1.2222,111,65
890,320,590,180,490,670,2.7222,150,330,480,2.2,140,250,390,1.7857,120,160,280,1.3333,100,120,220,1.2,90,110,200,1.2222,111,65
900,300,590,240,600,840,2.5,160,400,560,2.5,150,320,470,2.1333,120,180,300,1.5,100,140,240,1.4,90,110,200,1.2222,111,65
900,310,590,170,440,610,2.5882,150,290,440,1.9333,140,240,380,1.7143,120,170,290,1.4167,90,120,210,1.3333,90,110,200,1.2222,112,66
900,310,560,170,390,560,2.2941,160,240,400,1.5,140,190,330,1.3571,120,140,260,1.1667,100,110,210,1.1,90,80,170,0.88889,112,66
890,340,580,180,440,620,2.4444,160,290,450,1.8125,140,240,380,1.7143,130,160,290,1.2308,100,130,230,1.3,90,110,200,1.2222,114,66
920,310,700,330,460,790,1.3939,200,330,530,1.65,170,280,450,1.6471,140,210,350,1.5,110,160,270,1.4545,100,130,230,1.3,114,67
900,220,640,170,430,600,2.5294,150,280,430,1.8667,140,220,360,1.5714,120,160,280,1.3333,100,120,220,1.2,90,110,200,1.2222,114,67
910,260,490,170,460,630,2.7059,150,310,460,2.0667,140,230,370,1.6429,120,160,280,1.3333,100,120,220,1.2,80,100,180,1.25,114,67
900,420,630,410,640,1050,1.561,170,370,540,2.1765,160,290,450,1.8125,140,170,310,1.2143,120,120,240,1,100,110,210,1.1,115,67
910,270,560,180,410,590,2.2778,160,280,440,1.75,150,220,370,1.4667,130,150,280,1.1538,110,120,230,1.0909,90,100,190,1.1111,115,67
900,350,540,180,410,590,2.2778,160,280,440,1.75,150,220,370,1.4667,130,150,280,1.1538,110,110,220,1,100,100,200,1,116,68
900,360,550,190,410,600,2.1579,170,280,450,1.6471,150,230,380,1.5333,140,160,300,1.1429,110,120,230,1.0909,100,100,200,1,117,68
910,350,630,370,410,780,1.1081,370,280,650,0.75676,180,220,400,1.2222,150,150,300,1,130,110,240,0.84615,110,100,210,0.90909,116,68
900,280,590,180,470,650,2.6111,160,310,470,1.9375,150,230,380,1.5333,120,150,270,1.25,110,110,220,1,100,100,200,1,116,68
910,310,620,180,630,810,3.5,160,510,670,3.1875,150,300,450,2,130,140,270,1.0769,110,110,220,1,100,90,190,0.9,116,68
1800,290,1500,190,1130,1320,5.9474,160,780,940,4.875,150,370,520,2.4667,130,160,290,1.2308,110,120,230,1.0909,100,100,200,1,116,68
890,300,580,180,460,640,2.5556,160,310,470,1.9375,150,250,400,1.6667,130,170,300,1.3077,110,120,230,1.0909,100,100,200,1,117,68
910,310,700,210,490,700,2.3333,170,340,510,2,150,260,410,1.7333,130,170,300,1.3077,110,130,240,1.1818,100,110,210,1.1,118,68
890,210,610,230,410,640,1.7826,160,280,440,1.75,160,220,380,1.375,130,160,290,1.2308,120,120,240,1,100,100,200,1,117,68
900,280,610,170,480,650,2.8235,140,320,460,2.2857,130,250,380,1.9231,120,160,280,1.3333,100,120,220,1.2,90,100,190,1.1111,117,68
900,290,620,180,630,810,3.5,150,390,540,2.6,150,320,470,2.1333,120,150,270,1.25,110,110,220,1,100,100,200,1,116,68
900,280,620,170,420,590,2.4706,150,280,430,1.8667,140,220,360,1.5714,130,150,280,1.1538,110,120,230,1.0909,90,100,190,1.1111,116,68
890,280,560,180,420,600,2.3333,150,300,450,2,150,230,380,1.5333,130,150,280,1.1538,110,110,220,1,100,100,200,1,117,68
900,330,580,180,440,620,2.4444,160,300,460,1.875,150,230,380,1.5333,130,160,290,1.2308,110,120,230,1.0909,100,100,200,1,117,68
910,320,660,340,450,790,1.3235,180,320,500,1.7778,170,270,440,1.5882,140,170,310,1.2143,120,130,250,1.0833,100,110,210,1.1,117,68
890,250,590,220,590,810,2.6818,170,350,520,2.0588,150,270,420,1.8,140,170,310,1.2143,120,120,240,1,100,100,200,1,116,68
930,300,560,180,460,640,2.5556,150,300,450,2,140,220,360,1.5714,130,150,280,1.1538,110,120,230,1.0909,100,90,190,0.9,116,68
860,370,580,210,400,610,1.9048,190,270,460,1.4211,180,210,390,1.1667,150,130,280,0.86667,140,90,230,0.64286,120,70,190,0.58333,116,68
890,280,570,180,420,600,2.3333,160,280,440,1.75,140,210,350,1.5,130,180,310,1.3846,110,120,230,1.0909,90,100,190,1.1111,116,67
900,320,560,180,400,580,2.2222,150,290,440,1.9333,150,240,390,1.6,130,160,290,1.2308,110,120,230,1.0909,100,110,210,1.1,117,68
900,340,580,180,420,600,2.3333,160,280,440,1.75,150,210,360,1.4,120,160,280,1.3333,110,130,240,1.1818,100,100,200,1,116,68
910,320,520,340,410,750,1.2059,180,290,470,1.6111,160,240,400,1.5,140,170,310,1.2143,110,130,240,1.1818,100,110,210,1.1,116,68
890,390,570,190,510,700,2.6842,160,340,500,2.125,150,260,410,1.7333,130,160,290,1.2308,110,120,230,1.0909,90,90,180,1,116,68
910,320,630,180,450,630,2.5,150,300,450,2,140,230,370,1.6429,120,150,270,1.25,100,120,220,1.2,100,110,210,1.1,116,67
900,280,620,170,440,610,2.5882,140,310,450,2.2143,130,250,380,1.9231,130,160,290,1.2308,100,130,230,1.3,90,100,190,1.1111,115,67
900,280,570,180,430,610,2.3889,150,290,440,1.9333,150,230,380,1.5333,120,150,270,1.25,110,120,230,1.0909,100,100,200,1,116,67
890,330,600,190,390,580,2.0526,170,250,420,1.4706,150,190,340,1.2667,130,140,270,1.0769,120,120,240,1,100,100,200,1,116,67
900,290,700,190,460,650,2.4211,160,300,460,1.875,150,230,380,1.5333,130,160,290,1.2308,110,120,230,1.0909,100,110,210,1.1,117,68
890,200,620,220,410,630,1.8636,170,300,470,1.7647,160,240,400,1.5,130,170,300,1.3077,120,130,250,1.0833,100,100,200,1,116,67
900,270,630,170,480,650,2.8235,150,320,470,2.1333,140,240,380,1.7143,120,160,280,1.3333,100,120,220,1.2,90,100,190,1.1111,116,67
900,270,620,170,450,620,2.6471,150,310,460,2.0667,140,230,370,1.6429,120,150,270,1.25,110,120,230,1.0909,90,100,190,1.1111,115,67
900,280,630,260,640,900,2.4615,170,380,550,2.2353,150,300,450,2,130,180,310,1.3846,110,130,240,1.1818,100,110,210,1.1,116,67
880,270,550,180,470,650,2.6111,150,310,460,2.0667,140,230,370,1.6429,120,150,270,1.25,110,120,230,1.0909,90,100,190,1.1111,116,67
920,330,590,180,420,600,2.3333,140,280,420,2,130,230,360,1.7692,110,170,280,1.5455,90,120,210,1.3333,80,100,180,1.25,116,67
910,330,690,350,470,820,1.3429,170,340,510,2,160,290,450,1.8125,140,190,330,1.3571,110,150,260,1.3636,110,110,220,1,116,67
880,220,560,180,470,650,2.6111,150,310,460,2.0667,140,200,340,1.4286,130,150,280,1.1538,110,120,230,1.0909,100,100,200,1,115,67
910,320,590,170,470,640,2.7647,140,320,460,2.2857,140,250,390,1.7857,120,160,280,1.3333,100,120,220,1.2,90,110,200,1.2222,115,67
890,320,610,170,450,620,2.6471,150,300,450,2,140,230,370,1.6429,130,160,290,1.2308,110,120,230,1.0909,90,90,180,1,115,66
900,280,580,170,430,600,2.5294,140,300,440,2.1429,140,230,370,1.6429,120,160,280,1.3333,100,120,220,1.2,90,110,200,1.2222,115,66
890,320,600,180,490,670,2.7222,160,330,490,2.0625,150,260,410,1.7333,130,160,290,1.2308,110,120,230,1.0909,100,100,200,1,116,67
900,290,570,190,410,600,2.1579,160,270,430,1.6875,140,210,350,1.5,130,160,290,1.2308,110,130,240,1.1818,90,100,190,1.1111,115,67
890,330,620,350,420,770,1.2,190,300,490,1.5789,160,240,400,1.5,140,170,310,1.2143,120,130,250,1.0833,110,110,220,1,115,66
890,270,600,170,610,780,3.5882,150,370,520,2.4667,140,290,430,2.0714,130,160,290,1.2308,100,110,210,1.1,90,100,190,1.1111,115,66
890,290,620,180,460,640,2.5556,160,320,480,2,150,250,400,1.6667,130,160,290,1.2308,110,120,230,1.0909,100,100,200,1,114,66
900,270,640,180,430,610,2.3889,140,320,460,2.2857,140,250,390,1.7857,120,160,280,1.3333,100,120,220,1.2,100,100,200,1,114,66
890,260,540,180,420,600,2.3333,160,300,460,1.875,150,220,370,1.4667,130,150,280,1.1538,110,120,230,1.0909,100,90,190,0.9,115,66
880,350,670,180,490,670,2.7222,160,330,490,2.0625,150,250,400,1.6667,130,170,300,1.3077,110,130,240,1.1818,90,100,190,1.1111,115,66
890,210,690,170,430,600,2.5294,150,290,440,1.9333,140,230,370,1.6429,120,160,280,1.3333,100,130,230,1.3,100,100,200,1,115,66
900,200,640,220,420,640,1.9091,170,290,460,1.7059,150,230,380,1.5333,130,160,290,1.2308,110,130,240,1.1818,100,110,210,1.1,114,66
890,260,620,180,630,810,3.5,160,400,560,2.5,140,310,450,2.2143,120,170,290,1.4167,110,120,230,1.0909,90,100,190,1.1111,114,66
900,270,620,170,450,620,2.6471,150,300,450,2,140,220,360,1.5714,120,160,280,1.3333,100,120,220,1.2,90,100,190,1.1111,114,66
900,280,660,190,430,620,2.2632,160,310,470,1.9375,150,250,400,1.6667,130,160,290,1.2308,110,120,230,1.0909,100,110,210,1.1,114,66
890,240,560,170,450,620,2.6471,160,310,470,1.9375,140,240,380,1.7143,130,160,290,1.2308,100,120,220,1.2,90,100,190,1.1111,115,66
900,330,560,180,460,640,2.5556,150,320,470,2.1333,140,250,390,1.7857,120,170,290,1.4167,100,130,230,1.3,90,110,200,1.2222,115,66
900,340,670,360,480,840,1.3333,170,350,520,2.0588,160,290,450,1.8125,130,180,310,1.3846,120,140,260,1.1667,100,110,210,1.1,115,66
890,230,560,180,410,590,2.2778,150,270,420,1.8,140,210,350,1.5,120,160,280,1.3333,110,120,230,1.0909,90,110,200,1.2222,115,66
910,330,570,170,580,750,3.4118,160,390,550,2.4375,150,310,460,2.0667,120,180,300,1.5,110,130,240,1.1818,90,110,200,1.2222,114,66
890,340,640,180,430,610,2.3889,160,300,460,1.875,140,230,370,1.6429,130,150,280,1.1538,110,120,230,1.0909,100,90,190,0.9,114,66
890,250,650,190,430,620,2.2632,160,310,470,1.9375,150,250,400,1.6667,130,170,300,1.3077,110,130,240,1.1818,100,110,210,1.1,114,66
900,240,570,170,490,660,2.8824,160,330,490,2.0625,140,250,390,1.7857,120,170,290,1.4167,100,130,230,1.3,90,110,200,1.2222,115,66
890,330,570,180,400,580,2.2222,160,300,460,1.875,150,240,390,1.6,140,160,300,1.1429,110,120,230,1.0909,100,100,200,1,115,66
890,320,680,340,440,780,1.2941,180,320,500,1.7778,160,260,420,1.625,140,190,330,1.3571,120,140,260,1.1667,100,110,210,1.1,115,66
890,210,580,170,420,590,2.4706,150,270,420,1.8,140,200,340,1.4286,120,150,270,1.25,100,120,220,1.2,90,100,190,1.1111,114,66
900,310,600,180,530,710,2.9444,150,350,500,2.3333,140,290,430,2.0714,120,170,290,1.4167,100,130,230,1.3,90,110,200,1.2222,114,66
910,300,600,170,460,630,2.7059,150,320,470,2.1333,140,260,400,1.8571,110,170,280,1.5455,100,130,230,1.3,80,100,180,1.25,114,66
880,310,570,180,410,590,2.2778,160,280,440,1.75,150,220,370,1.4667,130,150,280,1.1538,100,120,220,1.2,100,90,190,0.9,114,66
890,310,550,180,490,670,2.7222,150,310,460,2.0667,150,230,380,1.5333,130,160,290,1.2308,110,120,230,1.0909,100,100,200,1,114,66
880,340,550,200,390,590,1.95,160,270,430,1.6875,150,240,390,1.6,140,160,300,1.1429,120,120,240,1,110,110,220,1,115,66
890,330,630,350,420,770,1.2,180,290,470,1.6111,160,230,390,1.4375,140,160,300,1.1429,120,120,240,1,110,110,220,1,114,66
880,260,530,160,460,620,2.875,150,310,460,2.0667,140,220,360,1.5714,130,150,280,1.1538,110,110,220,1,90,90,180,1,114,66
890,350,640,250,650,900,2.6,160,380,540,2.375,150,300,450,2,130,170,300,1.3077,110,130,240,1.1818,90,100,190,1.1111,114,66
890,250,610,170,440,610,2.5882,150,290,440,1.9333,140,220,360,1.5714,120,160,280,1.3333,100,120,220,1.2,90,100,190,1.1111,113,66
900,280,560,180,410,590,2.2778,150,280,430,1.8667,140,220,360,1.5714,120,150,270,1.25,100,120,220,1.2,90,110,200,1.2222,113,66
890,340,670,180,470,650,2.6111,160,330,490,2.0625,150,250,400,1.6667,130,170,300,1.3077,110,130,240,1.1818,90,100,190,1.1111,114,66
910,220,680,240,450,690,1.875,170,290,460,1.7059,160,220,380,1.375,130,170,300,1.3077,110,140,250,1.2727,100,120,220,1.2,114,66
880,230,440,250,420,670,1.68,170,290,460,1.7059,160,230,390,1.4375,130,160,290,1.2308,110,120,230,1.0909,100,100,200,1,114,66
910,440,440,170,450,620,2.6471,140,330,470,2.3571,130,260,390,2,110,170,280,1.5455,90,130,220,1.4444,80,110,190,1.375,113,66
900,470,670,190,530,720,2.7895,160,350,510,2.1875,150,270,420,1.8,120,170,290,1.4167,110,120,230,1.0909,90,100,190,1.1111,113,65
910,230,700,180,450,630,2.5,160,320,480,2,140,250,390,1.7857,130,160,290,1.2308,100,130,230,1.3,90,100,190,1.1111,114,65
900,210,560,180,450,630,2.5,160,300,460,1.875,150,230,380,1.5333,130,150,280,1.1538,110,110,220,1,100,100,200,1,114,66
890,340,560,190,440,630,2.3158,160,320,480,2,150,250,400,1.6667,130,160,290,1.2308,110,120,230,1.0909,100,110,210,1.1,114,66
910,330,670,350,450,800,1.2857,180,320,500,1.7778,160,250,410,1.5625,140,170,310,1.2143,110,120,230,1.0909,100,100,200,1,114,66
900,240,550,170,420,590,2.4706,150,270,420,1.8,140,210,350,1.5,120,160,280,1.3333,100,120,220,1.2,90,100,190,1.1111,113,65
890,350,560,170,570,740,3.3529,150,390,540,2.6,140,250,390,1.7857,120,150,270,1.25,100,120,220,1.2,90,100,190,1.1111,113,65
910,330,660,170,450,620,2.6471,140,310,450,2.2143,130,250,380,1.9231,110,170,280,1.5455,90,120,210,1.3333,90,110,200,1.2222,113,65
900,250,650,180,470,650,2.6111,150,320,470,2.1333,140,250,390,1.7857,130,170,300,1.3077,100,130,230,1.3,90,100,190,1.1111,113,65
910,250,680,180,510,690,2.8333,150,340,490,2.2667,150,260,410,1.7333,130,160,290,1.2308,100,120,220,1.2,100,110,210,1.1,113,65
890,230,540,190,420,610,2.2105,170,290,460,1.7059,160,220,380,1.375,140,160,300,1.1429,120,120,240,1,100,90,190,0.9,113,65
900,350,610,370,420,790,1.1351,200,280,480,1.4,180,230,410,1.2778,140,160,300,1.1429,120,130,250,1.0833,110,110,220,1,112,65
890,290,640,170,490,660,2.8824,150,320,470,2.1333,140,250,390,1.7857,120,160,280,1.3333,100,120,220,1.2,90,100,190,1.1111,111,64
900,250,630,170,640,810,3.7647,150,400,550,2.6667,130,330,460,2.5385,120,190,310,1.5833,100,120,220,1.2,90,100,190,1.1111,111,64
900,270,650,170,440,610,2.5882,150,310,460,2.0667,140,230,370,1.6429,110,160,270,1.4545,100,120,220,1.2,90,110,200,1.2222,111,64
890,250,550,190,410,600,2.1579,160,320,480,2,150,240,390,1.6,130,160,290,1.2308,110,120,230,1.0909,100,100,200,1,112,64
900,340,560,180,480,660,2.6667,150,320,470,2.1333,150,250,400,1.6667,120,160,280,1.3333,100,130,230,1.3,100,110,210,1.1,112,64
890,340,690,210,500,710,2.381,170,330,500,1.9412,170,260,430,1.5294,140,160,300,1.1429,120,120,240,1,110,100,210,0.90909,112,64
900,200,600,220,420,640,1.9091,170,290,460,1.7059,150,230,380,1.5333,130,170,300,1.3077,100,130,230,1.3,100,110,210,1.1,111,64
910,300,610,170,480,650,2.8235,150,320,470,2.1333,140,250,390,1.7857,120,160,280,1.3333,100,120,220,1.2,90,100,190,1.1111,111,64
880,300,640,190,650,840,3.4211,170,400,570,2.3529,150,320,470,2.1333,130,170,300,1.3077,110,120,230,1.0909,100,100,200,1,111,64
900,240,660,170,440,610,2.5882,150,310,460,2.0667,140,240,380,1.7143,120,160,280,1.3333,100,120,220,1.2,90,110,200,1.2222,112,64
900,240,560,180,410,590,2.2778,160,270,430,1.6875,150,250,400,1.6667,120,170,290,1.4167,110,130,240,1.1818,90,100,190,1.1111,112,64
900,340,560,180,450,630,2.5,160,310,470,1.9375,150,250,400,1.6667,130,160,290,1.2308,110,120,230,1.0909,100,110,210,1.1,112,64
890,340,690,360,490,850,1.3611,180,370,550,2.0556,160,310,470,1.9375,140,190,330,1.3571,120,140,260,1.1667,110,110,220,1,112,64
910,200,570,170,410,580,2.4118,150,270,420,1.8,140,210,350,1.5,120,160,280,1.3333,100,130,230,1.3,90,100,190,1.1111,111,64
890,340,560,180,470,650,2.6111,160,320,480,2,150,230,380,1.5333,130,150,280,1.1538,110,110,220,1,90,100,190,1.1111,111,64
900,330,570,170,580,750,3.4118,150,380,530,2.5333,140,300,440,2.1429,120,170,290,1.4167,100,130,230,1.3,90,110,200,1.2222,111,64
900,330,620,170,430,600,2.5294,150,310,460,2.0667,140,240,380,1.7143,120,160,280,1.3333,100,120,220,1.2,90,100,190,1.1111,111,64
900,280,560,170,410,580,2.4118,150,250,400,1.6667,140,200,340,1.4286,120,140,260,1.1667,100,120,220,1.2,90,110,200,1.2222,111,64
900,340,560,190,430,620,2.2632,160,290,450,1.8125,150,230,380,1.5333,130,160,290,1.2308,110,120,230,1.0909,100,110,210,1.1,112,64
890,340,660,360,430,790,1.1944,210,360,570,1.7143,170,290,460,1.7059,150,190,340,1.2667,130,140,270,1.0769,110,120,230,1.0909,112,64
890,230,570,170,450,620,2.6471,140,320,460,2.2857,140,230,370,1.6429,120,160,280,1.3333,100,120,220,1.2,90,110,200,1.2222,112,64
900,320,580,170,470,640,2.7647,150,330,480,2.2,140,260,400,1.8571,120,160,280,1.3333,100,130,230,1.3,80,100,180,1.25,111,64
890,320,680,280,690,970,2.4643,170,420,590,2.4706,160,340,500,2.125,140,190,330,1.3571,110,130,240,1.1818,100,110,210,1.1,111,64
870,210,580,170,430,600,2.5294,150,300,450,2,140,230,370,1.6429,120,160,280,1.3333,100,120,220,1.2,90,110,200,1.2222,111,64
920,290,600,150,440,590,2.9333,130,290,420,2.2308,120,240,360,2,100,170,270,1.7,80,130,210,1.625,70,110,180,1.5714,112,64
890,320,690,180,430,610,2.3889,160,300,460,1.875,150,250,400,1.6667,130,170,300,1.3077,110,120,230,1.0909,90,110,200,1.2222,112,64
900,200,670,220,430,650,1.9545,220,300,520,1.3636,170,260,430,1.5294,140,190,330,1.3571,110,150,260,1.3636,100,120,220,1.2,112,64
890,230,600,170,470,640,2.7647,150,330,480,2.2,140,250,390,1.7857,130,160,290,1.2308,100,120,220,1.2,90,90,180,1,111,64
890,290,500,170,460,630,2.7059,150,310,460,2.0667,140,250,390,1.7857,130,160,290,1.2308,110,120,230,1.0909,100,90,190,0.9,111,64
910,390,610,390,620,1010,1.5897,160,410,570,2.5625,150,330,480,2.2,130,190,320,1.4615,100,140,240,1.4,100,120,220,1.2,112,64
890,300,590,180,450,630,2.5,160,300,460,1.875,150,240,390,1.6,130,160,290,1.2308,110,120,230,1.0909,100,90,190,0.9,112,64
890,300,580,190,410,600,2.1579,170,280,450,1.6471,160,210,370,1.3125,130,150,280,1.1538,110,120,230,1.0909,100,100,200,1,113,65
900,310,700,330,500,830,1.5152,170,370,540,2.1765,150,300,450,2,130,190,320,1.4615,110,140,250,1.2727,100,110,210,1.1,113,65
910,200,610,180,420,600,2.3333,150,270,420,1.8,140,200,340,1.4286,130,150,280,1.1538,100,120,220,1.2,100,100,200,1,112,65
890,300,540,170,470,640,2.7647,160,320,480,2,140,240,380,1.7143,120,150,270,1.25,110,110,220,1,90,100,190,1.1111,112,65
900,350,690,170,670,840,3.9412,150,310,460,2.0667,140,240,380,1.7143,120,170,290,1.4167,100,130,230,1.3,90,100,190,1.1111,112,65
900,210,600,180,420,600,2.3333,150,280,430,1.8667,150,210,360,1.4,120,150,270,1.25,110,120,230,1.0909,100,100,200,1,112,65
890,300,670,180,520,700,2.8889,160,350,510,2.1875,150,270,420,1.8,130,160,290,1.2308,110,120,230,1.0909,100,100,200,1,113,65
900,220,680,180,470,650,2.6111,160,310,470,1.9375,140,250,390,1.7857,130,170,300,1.3077,110,120,230,1.0909,100,110,210,1.1,113,65
880,220,680,240,460,700,1.9167,170,330,500,1.9412,170,280,450,1.6471,140,180,320,1.2857,120,130,250,1.0833,110,110,220,1,113,65
900,200,600,160,530,690,3.3125,140,340,480,2.4286,130,250,380,1.9231,120,160,280,1.3333,90,130,220,1.4444,80,100,180,1.25,112,65
900,300,680,180,590,770,3.2778,150,360,510,2.4,140,270,410,1.9286,120,160,280,1.3333,100,120,220,1.2,90,110,200,1.2222,112,64
890,220,620,180,480,660,2.6667,160,340,500,2.125,140,220,360,1.5714,130,150,280,1.1538,110,120,230,1.0909,90,100,190,1.1111,112,64
890,270,640,180,430,610,2.3889,160,300,460,1.875,150,240,390,1.6,130,160,290,1.2308,110,120,230,1.0909,100,100,200,1,112,64
900,250,640,180,520,700,2.8889,150,330,480,2.2,140,250,390,1.7857,130,160,290,1.2308,100,120,220,1.2,100,110,210,1.1,113,65
890,260,680,190,430,620,2.2632,160,300,460,1.875,150,240,390,1.6,130,160,290,1.2308,120,120,240,1,100,100,200,1,113,65
890,210,630,230,420,650,1.8261,180,300,480,1.6667,170,240,410,1.4118,140,170,310,1.2143,120,130,250,1.0833,100,110,210,1.1,113,65
890,260,660,170,670,840,3.9412,150,400,550,2.6667,140,320,460,2.2857,120,180,300,1.5,110,130,240,1.1818,90,110,200,1.2222,113,65
890,230,560,180,460,640,2.5556,150,320,470,2.1333,140,250,390,1.7857,120,160,280,1.3333,110,120,230,1.0909,90,100,190,1.1111,113,65
900,330,670,180,460,640,2.5556,150,340,490,2.2667,140,270,410,1.9286,120,180,300,1.5,100,140,240,1.4,80,110,190,1.375,113,65
1770,230,560,180,440,620,2.4444,150,310,460,2.0667,150,240,390,1.6,130,160,290,1.2308,100,120,220,1.2,100,100,200,1,114,65
900,1210,690,800,470,1270,0.5875,660,330,990,0.5,600,270,870,0.45,120,180,300,1.5,110,140,250,1.2727,90,110,200,1.2222,114,65
890,210,600,230,420,650,1.8261,170,290,460,1.7059,160,230,390,1.4375,130,160,290,1.2308,120,130,250,1.0833,100,100,200,1,114,65
890,290,610,190,620,810,3.2632,160,400,560,2.5,140,310,450,2.2143,130,170,300,1.3077,100,120,220,1.2,90,110,200,1.2222,114,65
900,280,620,170,470,640,2.7647,150,310,460,2.0667,140,240,380,1.7143,110,160,270,1.4545,100,120,220,1.2,90,110,200,1.2222,114,65
890,280,670,170,460,630,2.7059,150,330,480,2.2,140,270,410,1.9286,130,170,300,1.3077,100,130,230,1.3,90,120,210,1.3333,115,65
890,220,560,180,480,660,2.6667,140,310,450,2.2143,140,240,380,1.7143,130,160,290,1.2308,110,120,230,1.0909,100,100,200,1,115,66
900,330,680,190,400,590,2.1053,160,320,480,2,150,260,410,1.7333,130,170,300,1.3077,120,120,240,1,100,110,210,1.1,115,66
890,220,690,240,490,730,2.0417,180,360,540,2,170,290,460,1.7059,140,180,320,1.2857,120,130,250,1.0833,110,110,220,1,114,66
900,200,570,180,420,600,2.3333,140,290,430,2.0714,140,230,370,1.6429,120,160,280,1.3333,100,120,220,1.2,90,110,200,1.2222,114,65
900,330,630,210,640,850,3.0476,160,400,560,2.5,150,320,470,2.1333,120,180,300,1.5,110,130,240,1.1818,90,100,190,1.1111,114,65
900,270,640,180,440,620,2.4444,150,300,450,2,140,230,370,1.6429,130,160,290,1.2308,100,120,220,1.2,100,100,200,1,113,65
890,260,630,180,460,640,2.5556,160,330,490,2.0625,140,270,410,1.9286,120,170,290,1.4167,90,120,210,1.3333,90,100,190,1.1111,113,65
900,260,680,170,530,700,3.1176,150,350,500,2.3333,140,280,420,2,130,170,300,1.3077,100,130,230,1.3,90,110,200,1.2222,114,65
890,220,690,200,420,620,2.1,160,270,430,1.6875,160,220,380,1.375,130,180,310,1.3846,120,130,250,1.0833,100,110,210,1.1,114,65
900,200,650,220,430,650,1.9545,180,320,500,1.7778,160,270,430,1.6875,130,180,310,1.3846,120,140,260,1.1667,100,110,210,1.1,114,65
880,250,640,170,650,820,3.8235,140,310,450,2.2143,140,230,370,1.6429,120,160,280,1.3333,100,120,220,1.2,90,100,190,1.1111,114,65
880,240,680,170,470,640,2.7647,140,320,460,2.2857,140,250,390,1.7857,120,160,280,1.3333,100,120,220,1.2,90,100,190,1.1111,113,65
900,200,670,160,440,600,2.75,150,310,460,2.0667,140,230,370,1.6429,120,160,280,1.3333,100,120,220,1.2,90,100,190,1.1111,113,65
870,230,560,170,420,590,2.4706,160,290,450,1.8125,140,230,370,1.6429,120,150,270,1.25,110,110,220,1,90,100,190,1.1111,113,65
890,310,670,170,510,680,3,150,350,500,2.3333,150,260,410,1.7333,120,170,290,1.4167,110,130,240,1.1818,90,110,200,1.2222,113,65
890,220,690,200,420,620,2.1,160,260,420,1.625,160,200,360,1.25,130,140,270,1.0769,110,100,210,0.90909,100,100,200,1,114,65
900,200,680,220,450,670,2.0455,170,310,480,1.8235,160,250,410,1.5625,140,170,310,1.2143,110,130,240,1.1818,100,110,210,1.1,113,65
890,220,600,170,610,780,3.5882,150,440,590,2.9333,140,250,390,1.7857,120,160,280,1.3333,100,120,220,1.2,90,100,190,1.1111,112,65
890,290,600,170,470,640,2.7647,150,320,470,2.1333,140,240,380,1.7143,130,160,290,1.2308,100,120,220,1.2,80,100,180,1.25,112,65
900,290,690,170,470,640,2.7647,140,330,470,2.3571,130,240,370,1.8462,120,170,290,1.4167,100,130,230,1.3,90,110,200,1.2222,112,65
900,210,560,170,450,620,2.6471,150,310,460,2.0667,140,240,380,1.7143,120,160,280,1.3333,100,130,230,1.3,90,110,200,1.2222,113,65
860,340,670,180,470,650,2.6111,160,330,490,2.0625,150,240,390,1.6,140,170,310,1.2143,110,130,240,1.1818,90,100,190,1.1111,113,65
930,190,720,210,500,710,2.381,140,350,490,2.5,130,270,400,2.0769,110,190,300,1.7273,90,140,230,1.5556,70,130,200,1.8571,114,65
880,210,590,230,410,640,1.7826,160,300,460,1.875,160,230,390,1.4375,130,160,290,1.2308,120,120,240,1,100,100,200,1,113,65
890,290,620,160,630,790,3.9375,140,400,540,2.8571,130,320,450,2.4615,120,170,290,1.4167,100,130,230,1.3,80,100,180,1.25,113,65
940,270,640,170,450,620,2.6471,140,320,460,2.2857,140,250,390,1.7857,110,170,280,1.5455,90,130,220,1.4444,90,110,200,1.2222,113,65
870,300,550,230,500,730,2.1739,190,350,540,1.8421,180,270,450,1.5,160,150,310,0.9375,140,110,250,0.78571,130,90,220,0.69231,113,65
890,320,530,190,540,730,2.8421,160,360,520,2.25,150,270,420,1.8,140,160,300,1.1429,110,110,220,1,100,100,200,1,114,65
900,360,680,180,460,640,2.5556,150,320,470,2.1333,150,270,420,1.8,120,180,300,1.5,110,130,240,1.1818,100,110,210,1.1,114,65
900,220,690,240,470,710,1.9583,180,350,530,1.9444,170,290,460,1.7059,140,190,330,1.3571,120,140,260,1.1667,100,120,220,1.2,114,65
900,210,630,170,410,580,2.4118,150,270,420,1.8,140,200,340,1.4286,120,150,270,1.25,100,120,220,1.2,90,110,200,1.2222,114,65
900,270,630,170,500,670,2.9412,150,350,500,2.3333,140,270,410,1.9286,120,160,280,1.3333,100,120,220,1.2,90,100,190,1.1111,113,65
900,270,690,170,440,610,2.5882,150,310,460,2.0667,140,240,380,1.7143,120,160,280,1.3333,110,120,230,1.0909,90,110,200,1.2222,113,65
890,210,570,180,410,590,2.2778,150,320,470,2.1333,140,250,390,1.7857,130,170,300,1.3077,110,120,230,1.0909,100,100,200,1,113,65
890,320,680,180,500,680,2.7778,150,330,480,2.2,140,260,400,1.8571,130,160,290,1.2308,110,120,230,1.0909,100,110,210,1.1,114,65
890,210,680,180,450,630,2.5,150,300,450,2,150,230,380,1.5333,130,160,290,1.2308,110,130,240,1.1818,100,110,210,1.1,113,65
900,210,650,230,450,680,1.9565,180,320,500,1.7778,160,260,420,1.625,130,180,310,1.3846,120,130,250,1.0833,100,110,210,1.1,113,65
900,250,620,170,470,640,2.7647,150,320,470,2.1333,140,250,390,1.7857,110,160,270,1.4545,100,120,220,1.2,90,110,200,1.2222,112,65
900,280,590,180,600,780,3.3333,160,410,570,2.5625,140,320,460,2.2857,120,180,300,1.5,110,120,230,1.0909,90,100,190,1.1111,112,64
880,310,670,180,480,660,2.6667,160,330,490,2.0625,150,250,400,1.6667,140,160,300,1.1429,110,110,220,1,100,100,200,1,112,64
890,210,660,190,400,590,2.1053,160,290,450,1.8125,150,250,400,1.6667,130,160,290,1.2308,100,120,220,1.2,100,100,200,1,113,64
880,230,670,180,500,680,2.7778,150,330,480,2.2,150,260,410,1.7333,130,180,310,1.3846,110,130,240,1.1818,100,110,210,1.1,113,65
890,210,700,190,520,710,2.7368,160,360,520,2.25,150,290,440,1.9333,130,190,320,1.4615,110,140,250,1.2727,90,120,210,1.3333,113,65
900,190,690,210,440,650,2.0952,160,310,470,1.9375,140,250,390,1.7857,120,180,300,1.5,100,140,240,1.4,80,120,200,1.5,112,65
890,210,590,170,490,660,2.8824,150,340,490,2.2667,140,250,390,1.7857,120,160,280,1.3333,110,120,230,1.0909,90,100,190,1.1111,112,65
900,300,690,170,700,870,4.1176,150,420,570,2.8,140,340,480,2.4286,120,190,310,1.5833,110,130,240,1.1818,90,100,190,1.1111,112,65
890,210,670,170,450,620,2.6471,160,300,460,1.875,140,230,370,1.6429,130,160,290,1.2308,110,120,230,1.0909,100,90,190,0.9,113,65
900,220,680,190,440,630,2.3158,160,300,460,1.875,150,220,370,1.4667,130,150,280,1.1538,110,120,230,1.0909,100,110,210,1.1,113,65
900,220,570,180,490,670,2.7222,160,310,470,1.9375,150,220,370,1.4667,130,160,290,1.2308,110,130,240,1.1818,90,100,190,1.1111,113,65
900,330,700,350,470,820,1.3429,180,380,560,2.1111,160,320,480,2,140,190,330,1.3571,120,140,260,1.1667,100,120,220,1.2,113,65
890,200,600,180,420,600,2.3333,150,290,440,1.9333,140,220,360,1.5714,130,160,290,1.2308,100,130,230,1.3,90,100,190,1.1111,112,65
900,290,610,170,500,670,2.9412,150,340,490,2.2667,140,260,400,1.8571,120,160,280,1.3333,100,120,220,1.2,90,100,190,1.1111,112,65
890,290,660,190,610,800,3.2105,160,380,540,2.375,150,290,440,1.9333,130,170,300,1.3077,120,120,240,1,100,100,200,1,112,65
900,230,680,170,450,620,2.6471,150,310,460,2.0667,140,250,390,1.7857,120,170,290,1.4167,100,130,230,1.3,80,110,190,1.375,112,65
890,220,680,180,430,610,2.3889,150,270,420,1.8,150,200,350,1.3333,130,150,280,1.1538,110,100,210,0.90909,100,70,170,0.7,113,65
900,210,690,180,470,650,2.6111,160,320,480,2,150,260,410,1.7333,130,180,310,1.3846,110,130,240,1.1818,100,110,210,1.1,113,65
900,210,700,230,450,680,1.9565,210,320,530,1.5238,170,280,450,1.6471,150,200,350,1.3333,130,170,300,1.3077,110,120,230,1.0909,113,65
890,200,610,170,460,630,2.7059,150,300,450,2,140,220,360,1.5714,120,160,280,1.3333,110,120,230,1.0909,90,100,190,1.1111,112,65
900,280,530,160,470,630,2.9375,140,320,460,2.2857,130,240,370,1.8462,120,160,280,1.3333,100,120,220,1.2,80,100,180,1.25,112,65
900,370,690,370,700,1070,1.8919,160,400,560,2.5,150,320,470,2.1333,130,190,320,1.4615,100,130,230,1.3,100,120,220,1.2,112,64
900,210,680,180,450,630,2.5,160,300,460,1.875,140,220,360,1.5714,120,160,280,1.3333,110,120,230,1.0909,90,100,190,1.1111,112,64
890,220,670,190,430,620,2.2632,170,300,470,1.7647,150,230,380,1.5333,140,160,300,1.1429,110,120,230,1.0909,110,100,210,0.90909,112,64
890,220,690,190,430,620,2.2632,160,310,470,1.9375,150,250,400,1.6667,130,170,300,1.3077,120,120,240,1,100,100,200,1,113,65
900,200,700,220,420,640,1.9091,220,280,500,1.2727,170,220,390,1.2941,140,170,310,1.2143,120,140,260,1.1667,100,120,220,1.2,112,65
890,200,620,170,480,650,2.8235,140,330,470,2.3571,140,240,380,1.7143,120,160,280,1.3333,100,120,220,1.2,90,100,190,1.1111,112,64
900,270,400,170,410,580,2.4118,150,340,490,2.2667,140,270,410,1.9286,120,170,290,1.4167,100,120,220,1.2,90,100,190,1.1111,112,64
890,500,550,270,500,770,1.8519,160,370,530,2.3125,150,290,440,1.9333,130,170,300,1.3077,110,120,230,1.0909,100,100,200,1,112,64
900,340,700,190,630,820,3.3158,150,350,500,2.3333,140,270,410,1.9286,120,170,290,1.4167,100,130,230,1.3,90,110,200,1.2222,112,64
900,200,660,180,450,630,2.5,160,310,470,1.9375,140,250,390,1.7857,130,170,300,1.3077,110,130,240,1.1818,90,100,190,1.1111,112,64
900,240,700,210,480,690,2.2857,180,340,520,1.8889,160,270,430,1.6875,140,170,310,1.2143,120,120,240,1,110,110,220,1,113,65
880,200,650,220,410,630,1.8636,160,260,420,1.625,160,210,370,1.3125,130,140,270,1.0769,120,110,230,0.91667,100,90,190,0.9,112,65
880,230,670,170,520,690,3.0588,150,360,510,2.4,140,290,430,2.0714,120,170,290,1.4167,100,120,220,1.2,90,100,190,1.1111,111,64
890,210,690,160,700,860,4.375,140,430,570,3.0714,130,300,430,2.3077,110,170,280,1.5455,90,130,220,1.4444,80,110,190,1.375,111,64
890,200,680,170,450,620,2.6471,140,310,450,2.2143,130,230,360,1.7692,110,170,280,1.5455,90,120,210,1.3333,80,110,190,1.375,112,64
910,210,680,170,520,690,3.0588,140,350,490,2.5,140,280,420,2,120,170,290,1.4167,100,130,230,1.3,80,120,200,1.5,112,64
890,230,670,180,460,640,2.5556,160,330,490,2.0625,150,260,410,1.7333,130,160,290,1.2308,110,130,240,1.1818,90,100,190,1.1111,112,64
900,220,700,240,470,710,1.9583,180,360,540,2,160,300,460,1.875,150,190,340,1.2667,120,150,270,1.25,100,110,210,1.1,112,64
900,200,580,170,480,650,2.8235,150,330,480,2.2,140,250,390,1.7857,120,170,290,1.4167,110,130,240,1.1818,90,100,190,1.1111,112,64
890,320,680,170,480,650,2.8235,150,330,480,2.2,140,260,400,1.8571,120,160,280,1.3333,110,120,230,1.0909,90,100,190,1.1111,111,64
910,210,690,170,480,650,2.8235,150,350,500,2.3333,140,290,430,2.0714,120,160,280,1.3333,100,120,220,1.2,80,100,180,1.25,111,64
890,220,600,180,440,620,2.4444,150,320,470,2.1333,150,240,390,1.6,130,150,280,1.1538,100,120,220,1.2,100,100,200,1,111,64
900,290,680,170,450,620,2.6471,150,350,500,2.3333,140,280,420,2,110,180,290,1.6364,100,140,240,1.4,80,110,190,1.375,112,65
890,220,570,180,450,630,2.5,160,310,470,1.9375,150,240,390,1.6,130,160,290,1.2308,110,130,240,1.1818,90,100,190,1.1111,112,65
890,320,670,340,440,780,1.2941,180,310,490,1.7222,150,260,410,1.7333,130,180,310,1.3846,110,140,250,1.2727,100,120,220,1.2,111,64
910,220,610,180,620,800,3.4444,140,400,540,2.8571,130,300,430,2.3077,110,190,300,1.7273,90,140,230,1.5556,70,120,190,1.7143,111,64
940,300,600,170,480,650,2.8235,140,330,470,2.3571,140,250,390,1.7857,120,160,280,1.3333,100,120,220,1.2,90,100,190,1.1111,111,64
850,340,650,210,440,650,2.0952,190,310,500,1.6316,180,250,430,1.3889,160,140,300,0.875,140,100,240,0.71429,120,80,200,0.66667,111,64
910,200,580,170,470,640,2.7647,140,320,460,2.2857,130,260,390,2,110,170,280,1.5455,90,130,220,1.4444,80,110,190,1.375,111,64
890,330,670,190,410,600,2.1579,160,300,460,1.875,150,280,430,1.8667,130,180,310,1.3846,110,140,250,1.2727,100,100,200,1,112,65
890,220,700,180,480,660,2.6667,160,330,490,2.0625,150,270,420,1.8,130,170,300,1.3077,110,130,240,1.1818,100,110,210,1.1,112,64
900,190,540,210,410,620,1.9524,160,280,440,1.75,140,230,370,1.6429,120,170,290,1.4167,100,130,230,1.3,90,110,200,1.2222,111,64
900,360,610,200,620,820,3.1,160,410,570,2.5625,140,320,460,2.2857,120,170,290,1.4167,110,130,240,1.1818,90,100,190,1.1111,110,64
900,290,680,170,480,650,2.8235,150,330,480,2.2,140,260,400,1.8571,120,160,280,1.3333,110,120,230,1.0909,90,100,190,1.1111,110,64
900,220,580,170,460,630,2.7059,150,320,470,2.1333,130,240,370,1.8462,120,160,280,1.3333,110,120,230,1.0909,90,100,190,1.1111,110,64
910,320,570,180,510,690,2.8333,150,330,480,2.2,140,260,400,1.8571,120,170,290,1.4167,100,130,230,1.3,90,110,200,1.2222,111,64
890,340,660,220,410,630,1.8636,170,260,430,1.5294,160,200,360,1.25,140,150,290,1.0714,120,130,250,1.0833,100,100,200,1,111,64
910,230,700,250,500,750,2,180,380,560,2.1111,160,320,480,2,140,210,350,1.5,120,150,270,1.25,100,120,220,1.2,111,64
890,210,600,180,450,630,2.5,150,260,410,1.7333,140,210,350,1.5,130,150,280,1.1538,110,120,230,1.0909,90,90,180,1,110,64
890,290,680,170,480,650,2.8235,140,340,480,2.4286,140,270,410,1.9286,120,160,280,1.3333,110,120,230,1.0909,90,100,190,1.1111,110,64
910,210,610,160,460,620,2.875,150,310,460,2.0667,140,250,390,1.7857,110,170,280,1.5455,100,120,220,1.2,80,110,190,1.375,110,63
890,300,670,180,470,650,2.6111,160,330,490,2.0625,150,260,410,1.7333,130,160,290,1.2308,110,120,230,1.0909,100,100,200,1,110,63
890,220,680,180,600,780,3.3333,150,350,500,2.3333,150,270,420,1.8,120,170,290,1.4167,110,130,240,1.1818,100,110,210,1.1,110,64
890,210,680,190,400,590,2.1053,160,260,420,1.625,150,200,350,1.3333,130,140,270,1.0769,110,100,210,0.90909,100,70,170,0.7,111,64
890,210,670,230,440,670,1.913,180,310,490,1.7222,160,250,410,1.5625,140,170,310,1.2143,120,130,250,1.0833,100,120,220,1.2,110,64
890,220,590,180,600,780,3.3333,150,380,530,2.5333,140,230,370,1.6429,120,160,280,1.3333,100,120,220,1.2,100,100,200,1,110,64
890,300,630,180,470,650,2.6111,150,320,470,2.1333,140,250,390,1.7857,110,160,270,1.4545,110,120,230,1.0909,100,100,200,1,110,64
890,260,650,180,460,640,2.5556,160,320,480,2,150,250,400,1.6667,120,160,280,1.3333,110,120,230,1.0909,90,100,190,1.1111,110,64
890,240,560,180,440,620,2.4444,160,310,470,1.9375,150,240,390,1.6,130,160,290,1.2308,110,130,240,1.1818,100,100,200,1,110,64
890,330,680,180,540,720,3,160,350,510,2.1875,150,280,430,1.8667,130,170,300,1.3077,100,120,220,1.2,100,110,210,1.1,111,64
890,210,680,190,430,620,2.2632,160,300,460,1.875,150,240,390,1.6,140,170,310,1.2143,120,130,250,1.0833,110,110,220,1,112,64
900,210,680,230,430,660,1.8696,160,300,460,1.875,150,240,390,1.6,130,180,310,1.3846,100,140,240,1.4,90,120,210,1.3333,111,64
890,220,570,170,580,750,3.4118,140,400,540,2.8571,140,330,470,2.3571,120,160,280,1.3333,100,120,220,1.2,90,100,190,1.1111,111,64
900,320,690,160,470,630,2.9375,150,330,480,2.2,140,270,410,1.9286,110,170,280,1.5455,100,130,230,1.3,80,110,190,1.375,111,64
890,210,680,180,460,640,2.5556,160,340,500,2.125,140,270,410,1.9286,130,170,300,1.3077,100,130,230,1.3,90,110,200,1.2222,111,64
900,210,650,170,480,650,2.8235,140,320,460,2.2857,140,250,390,1.7857,120,170,290,1.4167,100,130,230,1.3,90,110,200,1.2222,112,65
900,250,680,180,540,720,3,160,350,510,2.1875,150,280,430,1.8667,120,180,300,1.5,110,130,240,1.1818,90,110,200,1.2222,112,65
890,220,690,240,490,730,2.0417,180,350,530,1.9444,160,290,450,1.8125,140,190,330,1.3571,110,130,240,1.1818,100,110,210,1.1,113,65
900,200,590,220,430,650,1.9545,160,300,460,1.875,150,240,390,1.6,130,170,300,1.3077,110,130,240,1.1818,90,110,200,1.2222,112,65
900,310,600,180,610,790,3.3889,150,430,580,2.8667,140,350,490,2.5,120,190,310,1.5833,100,130,230,1.3,90,110,200,1.2222,112,65
890,300,600,180,470,650,2.6111,150,330,480,2.2,150,250,400,1.6667,130,160,290,1.2308,110,110,220,1,90,100,190,1.1111,112,65
900,290,680,190,450,640,2.3684,160,330,490,2.0625,150,250,400,1.6667,120,170,290,1.4167,110,120,230,1.0909,90,100,190,1.1111,112,65
900,220,680,180,500,680,2.7778,160,340,500,2.125,140,260,400,1.8571,130,160,290,1.2308,110,120,230,1.0909,100,100,200,1,113,65
890,220,610,180,470,650,2.6111,160,330,490,2.0625,150,260,410,1.7333,130,170,300,1.3077,120,130,250,1.0833,100,100,200,1,113,65
900,280,690,300,470,770,1.5667,170,340,510,2,160,280,440,1.75,140,180,320,1.2857,120,140,260,1.1667,100,120,220,1.2,113,65
890,210,690,170,430,600,2.5294,160,290,450,1.8125,150,220,370,1.4667,110,150,260,1.3636,110,110,220,1,100,100,200,1,112,65
890,200,670,170,680,850,4,150,380,530,2.5333,150,300,450,2,130,170,300,1.3077,110,120,230,1.0909,90,100,190,1.1111,112,65
880,220,560,180,450,630,2.5,160,290,450,1.8125,160,220,380,1.375,130,150,280,1.1538,110,140,250,1.2727,100,100,200,1,112,64
910,320,590,190,480,670,2.5263,150,330,480,2.2,140,270,410,1.9286,120,170,290,1.4167,100,130,230,1.3,90,110,200,1.2222,112,65
840,320,680,200,660,860,3.3,170,370,540,2.1765,160,290,450,1.8125,130,190,320,1.4615,120,130,250,1.0833,100,100,200,1,113,65
930,160,620,130,500,630,3.8462,130,360,490,2.7692,100,290,390,2.9,80,220,300,2.75,60,180,240,3,50,150,200,3,113,65
880,310,610,330,430,760,1.303,180,320,500,1.7778,160,260,420,1.625,130,170,300,1.3077,110,130,240,1.1818,100,110,210,1.1,112,65
1800,270,490,170,500,670,2.9412,140,340,480,2.4286,130,250,380,1.9231,120,160,280,1.3333,90,130,220,1.4444,90,110,200,1.2222,111,64
960,1310,640,710,550,1260,0.77465,410,380,790,0.92683,350,310,660,0.88571,200,190,390,0.95,110,130,240,1.1818,90,110,200,1.2222,111,64
910,320,570,190,400,590,2.1053,170,250,420,1.4706,150,200,350,1.3333,130,130,260,1,110,100,210,0.90909,90,70,160,0.77778,112,64
930,340,700,180,710,890,3.9444,160,370,530,2.3125,140,300,440,2.1429,120,180,300,1.5,100,140,240,1.4,90,110,200,1.2222,113,65
890,230,690,250,510,760,2.04,200,370,570,1.85,170,310,480,1.8235,150,210,360,1.4,130,130,260,1,110,110,220,1,112,65
910,200,640,200,430,630,2.15,150,290,440,1.9333,140,230,370,1.6429,120,160,280,1.3333,100,130,230,1.3,90,110,200,1.2222,111,65
900,270,460,200,470,670,2.35,150,330,480,2.2,140,260,400,1.8571,120,160,280,1.3333,100,120,220,1.2,100,100,200,1,111,64
900,440,600,190,530,720,2.7895,150,360,510,2.4,150,280,430,1.8667,130,170,300,1.3077,110,120,230,1.0909,100,110,210,1.1,111,64
900,300,680,180,440,620,2.4444,160,310,470,1.9375,140,250,390,1.7857,130,170,300,1.3077,110,120,230,1.0909,90,100,190,1.1111,111,64
900,220,570,170,430,600,2.5294,150,290,440,1.9333,140,220,360,1.5714,120,150,270,1.25,110,110,220,1,100,100,200,1,111,64
890,330,620,180,450,630,2.5,160,320,480,2,150,250,400,1.6667,130,160,290,1.2308,110,130,240,1.1818,90,100,190,1.1111,110,64
910,270,700,290,460,750,1.5862,200,320,520,1.6,170,260,430,1.5294,150,170,320,1.1333,120,120,240,1,100,100,200,1,110,64
890,210,620,170,420,590,2.4706,150,290,440,1.9333,130,210,340,1.6154,130,150,280,1.1538,110,110,220,1,100,90,190,0.9,109,63
900,270,630,180,640,820,3.5556,150,480,630,3.2,140,290,430,2.0714,130,150,280,1.1538,100,110,210,1.1,100,90,190,0.9,109,63
890,270,570,180,430,610,2.3889,160,320,480,2,150,260,410,1.7333,130,160,290,1.2308,120,110,230,0.91667,100,100,200,1,109,63
900,320,680,180,490,670,2.7222,160,330,490,2.0625,140,270,410,1.9286,130,170,300,1.3077,110,130,240,1.1818,90,110,200,1.2222,109,63
900,220,680,180,560,740,3.1111,160,360,520,2.25,150,280,430,1.8667,120,180,300,1.5,110,130,240,1.1818,90,110,200,1.2222,110,63
890,220,580,180,440,620,2.4444,160,310,470,1.9375,140,240,380,1.7143,130,170,300,1.3077,110,120,230,1.0909,90,110,200,1.2222,110,64
900,310,630,330,430,760,1.303,210,310,520,1.4762,180,250,430,1.3889,140,180,320,1.2857,120,130,250,1.0833,110,120,230,1.0909,110,64
900,270,620,170,480,650,2.8235,150,320,470,2.1333,140,240,380,1.7143,120,160,280,1.3333,100,120,220,1.2,90,100,190,1.1111,109,63
900,280,680,180,690,870,3.8333,150,440,590,2.9333,140,360,500,2.5714,130,150,280,1.1538,100,110,210,1.1,100,100,200,1,109,63
900,220,630,180,460,640,2.5556,160,310,470,1.9375,150,250,400,1.6667,120,160,280,1.3333,110,120,230,1.0909,100,100,200,1,109,63
900,270,530,180,440,620,2.4444,160,300,460,1.875,150,210,360,1.4,130,150,280,1.1538,110,120,230,1.0909,100,100,200,1,109,63
890,370,570,190,500,690,2.6316,170,310,480,1.8235,160,230,390,1.4375,130,160,290,1.2308,120,120,240,1,100,90,190,0.9,110,63
910,320,720,340,550,890,1.6176,170,410,580,2.4118,160,330,490,2.0625,130,200,330,1.5385,110,140,250,1.2727,100,130,230,1.3,111,64
890,190,630,210,420,630,2,170,280,450,1.6471,150,220,370,1.4667,130,160,290,1.2308,110,120,230,1.0909,100,100,200,1,110,64
960,260,640,170,520,690,3.0588,140,360,500,2.5714,130,280,410,2.1538,120,170,290,1.4167,100,120,220,1.2,90,100,190,1.1111,110,64
840,320,580,230,590,820,2.5652,210,410,620,1.9524,200,330,530,1.65,180,170,350,0.94444,160,100,260,0.625,150,80,230,0.53333,110,63
900,260,640,170,430,600,2.5294,150,300,450,2,140,230,370,1.6429,130,160,290,1.2308,100,120,220,1.2,100,100,200,1,110,64
890,260,540,180,400,580,2.2222,160,310,470,1.9375,150,280,430,1.8667,120,170,290,1.4167,110,120,230,1.0909,100,110,210,1.1,111,64
900,350,690,180,460,640,2.5556,160,330,490,2.0625,140,270,410,1.9286,130,170,300,1.3077,110,130,240,1.1818,90,110,200,1.2222,111,64
900,210,690,230,470,700,2.0435,180,350,530,1.9444,160,290,450,1.8125,140,190,330,1.3571,110,140,250,1.2727,100,120,220,1.2,111,64
890,210,630,180,430,610,2.3889,160,260,420,1.625,150,200,350,1.3333,120,140,260,1.1667,110,110,220,1,80,100,180,1.25,111,64
890,260,690,180,690,870,3.8333,150,370,520,2.4667,140,270,410,1.9286,130,160,290,1.2308,100,120,220,1.2,90,90,180,1,110,64
910,200,630,160,470,630,2.9375,140,310,450,2.2143,130,220,350,1.6923,100,160,260,1.6,90,120,210,1.3333,80,100,180,1.25,110,64
880,280,550,180,450,630,2.5,160,310,470,1.9375,150,240,390,1.6,140,160,300,1.1429,110,120,230,1.0909,100,90,190,0.9,110,64
900,330,560,170,410,580,2.4118,150,250,400,1.6667,140,210,350,1.5,120,170,290,1.4167,100,130,230,1.3,90,120,210,1.3333,111,64
880,340,610,190,450,640,2.3684,160,310,470,1.9375,150,240,390,1.6,130,160,290,1.2308,110,130,240,1.1818,100,110,210,1.1,111,64
900,270,670,290,450,740,1.5517,190,330,520,1.7368,170,270,440,1.5882,140,180,320,1.2857,110,140,250,1.2727,100,110,210,1.1,110,64
880,230,570,180,460,640,2.5556,150,320,470,2.1333,140,250,390,1.7857,120,170,290,1.4167,100,130,230,1.3,90,100,190,1.1111,110,64
900,310,590,170,470,640,2.7647,150,320,470,2.1333,130,250,380,1.9231,120,170,290,1.4167,100,120,220,1.2,90,100,190,1.1111,110,64
520,310,500,190,510,700,2.6842,160,370,530,2.3125,150,290,440,1.9333,130,180,310,1.3846,110,130,240,1.1818,90,110,200,1.2222,110,64
1260,20,940,20,800,820,40,20,660,680,33,20,590,610,29.5,20,530,550,26.5,20,40,60,2,20,40,60,2,110,64
900,320,690,180,410,590,2.2778,160,260,420,1.625,140,200,340,1.4286,130,140,270,1.0769,110,100,210,0.90909,90,90,180,1,111,65
890,210,690,170,430,600,2.5294,150,290,440,1.9333,150,230,380,1.5333,120,160,280,1.3333,110,130,240,1.1818,90,110,200,1.2222,111,65
900,200,580,220,420,640,1.9091,220,350,570,1.5909,180,300,480,1.6667,140,190,330,1.3571,120,100,220,0.83333,110,100,210,0.90909,111,65
880,320,680,180,510,690,2.8333,150,340,490,2.2667,150,260,410,1.7333,130,160,290,1.2308,110,120,230,1.0909,100,100,200,1,111,65
910,200,600,170,480,650,2.8235,140,320,460,2.2857,140,250,390,1.7857,110,160,270,1.4545,100,120,220,1.2,90,110,200,1.2222,111,64
890,310,670,310,680,990,2.1935,180,470,650,2.6111,170,370,540,2.1765,140,200,340,1.4286,120,130,250,1.0833,100,110,210,1.1,111,64
850,220,560,180,480,660,2.6667,150,320,470,2.1333,140,250,390,1.7857,120,160,280,1.3333,100,120,220,1.2,90,100,190,1.1111,112,65
950,290,620,140,470,610,3.3571,110,340,450,3.0909,110,260,370,2.3636,80,200,280,2.5,70,160,230,2.2857,60,150,210,2.5,112,65
890,330,690,290,480,770,1.6552,170,360,530,2.1176,160,290,450,1.8125,140,190,330,1.3571,120,140,260,1.1667,100,110,210,1.1,112,65
900,200,610,220,410,630,1.8636,160,280,440,1.75,150,230,380,1.5333,120,160,280,1.3333,110,120,230,1.0909,100,100,200,1,112,65
890,290,610,170,480,650,2.8235,150,320,470,2.1333,140,250,390,1.7857,130,170,300,1.3077,100,120,220,1.2,90,90,180,1,111,65
910,280,470,170,460,630,2.7059,140,310,450,2.2143,140,240,380,1.7143,110,160,270,1.4545,100,120,220,1.2,90,110,200,1.2222,111,64
880,440,680,190,460,650,2.4211,160,320,480,2,150,250,400,1.6667,130,160,290,1.2308,110,120,230,1.0909,100,90,190,0.9,112,64
910,200,550,170,490,660,2.8824,150,330,480,2.2,130,260,390,2,120,160,280,1.3333,100,120,220,1.2,90,110,200,1.2222,112,65
890,360,570,190,420,610,2.2105,160,290,450,1.8125,150,230,380,1.5333,130,160,290,1.2308,110,120,230,1.0909,100,100,200,1,112,65
890,320,690,340,470,810,1.3824,180,340,520,1.8889,170,290,460,1.7059,140,200,340,1.4286,120,140,260,1.1667,100,120,220,1.2,111,65
900,200,600,170,540,710,3.1765,140,350,490,2.5,140,250,390,1.7857,120,150,270,1.25,100,120,220,1.2,90,100,190,1.1111,111,64
900,300,540,180,450,630,2.5,160,320,480,2,150,230,380,1.5333,120,150,270,1.25,110,110,220,1,100,100,200,1,111,64
1680,360,1040,180,820,1000,4.5556,160,550,710,3.4375,150,340,490,2.2667,130,160,290,1.2308,110,120,230,1.0909,100,100,200,1,111,64
1000,640,770,230,730,960,3.1739,160,430,590,2.6875,150,350,500,2.3333,130,200,330,1.5385,100,150,250,1.5,100,120,220,1.2,112,64
930,230,570,180,440,620,2.4444,160,320,480,2,150,250,400,1.6667,130,170,300,1.3077,110,130,240,1.1818,100,110,210,1.1,112,65
920,360,630,380,430,810,1.1316,200,310,510,1.55,170,250,420,1.4706,140,170,310,1.2143,120,130,250,1.0833,110,110,220,1,112,65
910,290,590,170,600,770,3.5294,150,380,530,2.5333,140,290,430,2.0714,110,170,280,1.5455,100,120,220,1.2,90,110,200,1.2222,112,65
910,320,680,180,480,660,2.6667,150,330,480,2.2,150,250,400,1.6667,120,160,280,1.3333,100,120,220,1.2,90,100,190,1.1111,111,64
910,230,650,180,460,640,2.5556,150,350,500,2.3333,140,290,430,2.0714,130,190,320,1.4615,100,130,230,1.3,90,110,200,1.2222,111,63
910,260,560,180,490,670,2.7222,160,320,480,2,150,240,390,1.6,120,160,280,1.3333,100,130,230,1.3,90,100,190,1.1111,111,63
900,350,560,190,430,620,2.2632,160,330,490,2.0625,150,260,410,1.7333,130,160,290,1.2308,120,120,240,1,100,100,200,1,111,63
890,340,690,360,490,850,1.3611,180,370,550,2.0556,170,310,480,1.8235,140,190,330,1.3571,120,130,250,1.0833,100,110,210,1.1,111,63
900,200,570,190,430,620,2.2632,160,300,460,1.875,140,230,370,1.6429,120,160,280,1.3333,100,120,220,1.2,90,110,200,1.2222,111,63
900,330,560,230,570,800,2.4783,160,410,570,2.5625,160,330,490,2.0625,130,180,310,1.3846,110,140,250,1.2727,100,100,200,1,110,63
920,340,570,180,460,640,2.5556,150,320,470,2.1333,140,240,380,1.7143,120,160,280,1.3333,110,120,230,1.0909,90,110,200,1.2222,109,63
900,350,640,180,440,620,2.4444,150,300,450,2,140,240,380,1.7143,120,160,280,1.3333,100,120,220,1.2,80,100,180,1.25,109,63
900,260,540,180,540,720,3,160,340,500,2.125,150,270,420,1.8,130,170,300,1.3077,110,120,230,1.0909,100,100,200,1,110,63
910,360,590,200,400,600,2,160,240,400,1.5,150,210,360,1.4,130,170,300,1.3077,110,130,240,1.1818,100,120,220,1.2,110,64
900,320,700,340,440,780,1.2941,180,330,510,1.8333,170,270,440,1.5882,140,180,320,1.2857,120,130,250,1.0833,110,110,220,1,110,64
910,200,660,170,670,840,3.9412,150,300,450,2,140,230,370,1.6429,120,160,280,1.3333,100,120,220,1.2,90,110,200,1.2222,110,63
900,250,690,180,540,720,3,150,350,500,2.3333,140,280,420,2,120,170,290,1.4167,100,120,220,1.2,90,110,200,1.2222,109,63
910,210,690,160,460,620,2.875,150,290,440,1.9333,130,210,340,1.6154,120,150,270,1.25,100,120,220,1.2,90,100,190,1.1111,110,63
910,220,580,170,450,620,2.6471,150,300,450,2,140,230,370,1.6429,120,160,280,1.3333,110,120,230,1.0909,90,110,200,1.2222,110,63
900,330,560,180,570,750,3.1667,150,390,540,2.6,150,320,470,2.1333,130,180,310,1.3846,110,140,250,1.2727,90,110,200,1.2222,110,64
890,340,700,180,410,590,2.2778,160,260,420,1.625,140,200,340,1.4286,120,150,270,1.25,100,110,210,1.1,90,90,180,1,111,64
910,190,600,210,440,650,2.0952,210,300,510,1.4286,160,250,410,1.5625,130,170,300,1.3077,110,140,250,1.2727,90,120,210,1.3333,110,64
