RelativeTimeMilliseconds,ECG,ART,ART (Sys),ART (Dia),PPG
1628940,-0.07000,75.0000,125,60,0.61148
1628950,-0.09500,74.3125,125,60,0.63028
1628960,-0.11000,73.5625,125,60,0.64762
1628970,-0.11500,72.8125,125,60,0.66325
1628980,-0.12000,71.3750,125,60,0.69011
1628990,-0.12500,70.7500,125,60,0.70110
1629000,-0.12500,70.1250,123,60,0.71062
1629010,-0.12000,69.5625,123,60,0.71893
1629020,-0.11000,68.5625,123,60,0.72796
1629030,-0.12000,68.1250,123,60,0.73138
1629040,-0.09000,67.6250,123,60,0.73431
1629050,0.19500,67.1875,123,60,0.73602
1629060,0.78000,66.3125,123,60,0.73553
1629070,1.05500,65.8750,123,60,0.73260
1629080,0.53500,65.4375,123,60,0.72821
1629090,-0.17000,64.9375,123,60,0.72210
1629100,-0.46000,63.8125,123,60,0.70549
1629110,-0.41000,63.2500,123,60,0.69621
1629120,-0.26000,62.7500,123,60,0.68645
1629130,-0.19000,62.1875,123,60,0.67546
1629140,-0.18000,61.1250,123,60,0.65201
1629150,-0.17500,60.6250,123,60,0.64029
1629160,-0.17000,60.1250,123,60,0.62882
1629170,-0.16000,59.6250,123,60,0.61758
1629180,-0.15500,58.6875,123,60,0.59536
1629190,-0.14000,58.2500,123,60,0.58462
1629200,-0.12500,57.8125,123,60,0.57387
1629210,-0.11000,57.5625,123,60,0.56313
1629220,-0.09500,57.8125,123,60,0.54481
1629230,-0.07500,59.0000,123,60,0.53529
1629240,-0.05000,61.6250,123,60,0.52527
1629250,-0.02500,66.1875,123,60,0.51526
1629260,0.00000,80.1250,123,60,0.49524
1629270,0.03000,88.0000,123,60,0.48547
1629280,0.06000,95.3750,123,60,0.47570
1629290,0.09000,101.8750,123,60,0.46593
1629300,0.10000,111.5000,123,60,0.44664
1629310,0.11500,114.6250,123,60,0.43858
1629320,0.12000,116.6875,123,60,0.43126
1629330,0.12500,117.8750,123,60,0.42295
1629340,0.13000,118.5625,123,60,0.40513
1629350,0.13000,118.4375,123,60,0.39585
1629360,0.13000,118.0625,123,60,0.38657
1629370,0.13500,117.5000,123,60,0.37753
1629380,0.12500,116.0000,123,60,0.35995
1629390,0.10000,115.1250,123,60,0.35140
1629400,0.06000,114.1875,123,60,0.34286
1629410,0.02000,113.1875,123,60,0.33455
1629420,-0.01500,111.0625,123,60,0.32234
1629430,-0.04500,110.0000,123,60,0.31551
1629440,-0.06000,108.8750,123,60,0.30818
1629450,-0.07000,107.6875,123,60,0.30061
1629460,-0.07500,105.0625,123,60,0.28498
1629470,-0.08000,103.4375,123,60,0.27741
1629480,-0.07000,101.4375,123,60,0.26984
1629490,-0.05000,99.0000,123,60,0.26276
1629500,-0.04000,92.8125,123,60,0.25201
1629510,-0.03500,89.4375,123,60,0.25055
1629520,-0.02500,86.2500,123,60,0.25201
1629530,-0.01500,83.5625,123,60,0.25617
1629540,0.01000,79.8750,123,60,0.27643
1629550,0.04000,78.8125,123,60,0.29280
1629560,0.06000,78.1250,123,60,0.31282
1629570,0.09500,77.6250,123,60,0.33602
1629580,0.13500,76.8750,123,60,0.38877
1629590,0.14500,76.5000,123,60,0.41661
1629600,0.12500,76.0625,123,60,0.44444
1629610,0.06500,75.5625,123,60,0.47155
1629620,0.00000,74.5000,123,60,0.51477
1629630,-0.05000,73.8750,123,60,0.53602
1629640,-0.07500,73.1875,123,60,0.55727
1629650,-0.08500,72.5000,123,60,0.57729
1629660,-0.09500,71.1250,123,60,0.61245
1629670,-0.10000,70.4375,123,60,0.62662
1629680,-0.11000,69.8125,123,60,0.63980
1629690,-0.11500,69.2500,123,60,0.65177
1629700,-0.11000,68.2500,123,60,0.67131
1629710,-0.11000,67.8125,123,60,0.67766
1629720,-0.12500,67.3750,123,60,0.68181
1629730,-0.11000,66.9375,123,60,0.68596
1629740,0.16500,66.0625,123,60,0.69133
1629750,0.73000,65.6250,123,60,0.69206
1629760,0.98000,65.1875,123,60,0.69133
1629770,0.51500,64.6875,123,60,0.68889
1629780,-0.15000,63.6250,123,60,0.67888
1629790,-0.46000,63.0625,123,60,0.67179
1629800,-0.43500,62.4375,123,60,0.66374
1629810,-0.29000,61.8750,123,60,0.65470
1629820,-0.20000,60.8125,123,60,0.63687
1629830,-0.19500,60.2500,123,60,0.62711
1629840,-0.19000,59.7500,123,60,0.61709
1629850,-0.17500,59.2500,123,60,0.60708
1629860,-0.16000,58.2500,123,60,0.58730
1629870,-0.15000,57.8125,123,60,0.57753
1629880,-0.13500,57.3750,123,60,0.56777
1629890,-0.12500,56.9375,123,60,0.55775
1629900,-0.11500,56.3750,123,60,0.53822
1629910,-0.10500,56.5000,123,60,0.52967
1629920,-0.09000,57.3125,123,60,0.52186
1629930,-0.07000,59.3750,123,60,0.51331
1629940,-0.04500,68.9375,123,60,0.49524
1629950,-0.01500,75.9375,123,60,0.48596
1629960,0.00500,83.5000,123,60,0.47668
1629970,0.03500,90.8750,123,60,0.46740
1629980,0.05500,103.1250,123,60,0.44908
1629990,0.07000,107.6875,123,60,0.44005
1630000,0.08000,111.1250,123,60,0.43126
1630010,0.09500,113.5625,123,60,0.42271
1630020,0.10000,115.9375,123,60,0.40952
1630030,0.10500,116.2500,123,60,0.40220
1630040,0.11000,116.1875,123,60,0.39463
1630050,0.11500,115.8750,123,60,0.38657
1630060,0.12000,114.5625,123,60,0.37070
1630070,0.11000,113.7500,123,60,0.36288
1630080,0.08000,112.8125,123,60,0.35531
1630090,0.04000,111.7500,123,60,0.34750
1630100,-0.00500,109.6250,123,60,0.33187
1630110,-0.04500,108.5000,123,60,0.32552
1630120,-0.07500,107.4375,123,60,0.32015
1630130,-0.09000,106.3125,123,60,0.31380
1630140,-0.10500,103.8750,123,60,0.29963
1630150,-0.10500,102.5000,123,60,0.29231
1630160,-0.10500,100.9375,123,60,0.28498
1630170,-0.09500,99.0000,123,60,0.27766
1630180,-0.07500,93.8750,123,60,0.26422
1630190,-0.06500,90.7500,123,60,0.25885
1630200,-0.06000,87.4375,123,60,0.25543
1630210,-0.05500,84.3750,123,60,0.25495
1630220,-0.05500,79.9375,123,60,0.26374
1630230,-0.04500,78.6250,123,60,0.27326
1630240,-0.03500,77.6875,123,60,0.28694
1630250,-0.00500,77.1250,123,60,0.30452
1630260,0.01500,76.3750,123,60,0.34896
1630270,0.04500,76.0625,123,60,0.37460
1630280,0.08500,75.6875,123,60,0.40122
1630290,0.11500,75.2500,123,60,0.42808
1630300,0.10500,74.1875,123,60,0.48107
1630310,0.06000,73.5625,123,60,0.50305
1630320,0.00000,72.8750,123,60,0.52234
1630330,-0.05500,72.1875,123,60,0.54261
1630340,-0.10000,70.8125,123,60,0.58095
1630350,-0.12500,70.1250,123,60,0.59780
1630360,-0.13500,69.5000,123,60,0.61319
1630370,-0.13500,68.9375,123,60,0.62686
1630380,-0.14000,67.8125,123,60,0.64982
1630390,-0.14000,67.3125,123,60,0.65910
1630400,-0.13500,66.8125,123,60,0.66691
1630410,-0.13500,66.3750,123,60,0.67326
1630420,-0.14000,65.6250,123,60,0.67937
1630430,-0.15000,65.2500,123,60,0.68107
1630440,0.01500,64.8750,123,60,0.68181
1630450,0.48500,64.5000,123,60,0.68132
1630460,0.94000,63.6875,123,60,0.67570
1630470,0.75000,63.2500,123,60,0.67057
1630480,0.06000,62.7500,123,60,0.66398
1630490,-0.40000,62.2500,123,60,0.65617
1630500,-0.47500,61.2500,123,60,0.63761
1630510,-0.35500,60.6875,123,60,0.62857
1630520,-0.24500,60.1250,123,60,0.61978
1630530,-0.22000,59.6250,123,60,0.61026
1630540,-0.21000,58.6250,123,60,0.59121
1630550,-0.19500,58.1250,123,60,0.58144
1630560,-0.18000,57.6875,123,60,0.57192
1630570,-0.17000,57.1875,123,60,0.56264
1630580,-0.17000,56.3125,123,60,0.54408
1630590,-0.16000,56.0000,123,60,0.53504
1630600,-0.15500,55.7500,123,60,0.52576
1630610,-0.15000,55.6250,123,60,0.51673
1630620,-0.14000,57.1250,123,60,0.50134
1630630,-0.12000,59.6875,123,60,0.49304
1630640,-0.09000,64.1875,123,60,0.48425
1630650,-0.06000,70.4375,123,60,0.47521
1630660,-0.03500,85.5625,123,60,0.45763
1630670,0.00000,92.8750,123,60,0.44908
1630680,0.03000,99.3750,123,60,0.44054
1630690,0.05000,104.8750,123,60,0.43248
1630700,0.07000,112.5625,123,60,0.41612
1630710,0.09000,114.8750,123,60,0.40952
1630720,0.09500,116.3125,123,60,0.40391
1630730,0.09500,117.1250,123,60,0.39731
1630740,0.09500,117.4375,123,60,0.38291
1630750,0.09500,117.1875,123,60,0.37558
1630760,0.09500,116.6875,123,60,0.36825
1630770,0.09000,116.0625,123,60,0.36068
1630780,0.08000,114.4375,123,60,0.34554
1630790,0.05000,113.4375,123,60,0.33797
1630800,0.02000,112.4375,123,60,0.33065
1630810,-0.01500,111.3750,123,60,0.32479
1630820,-0.05500,109.1875,123,60,0.31404
1630830,-0.07500,108.1250,123,60,0.30769
1630840,-0.09500,106.9375,123,60,0.30110
1630850,-0.11000,105.7500,123,60,0.29451
1630860,-0.11500,103.0000,123,60,0.28132
1630870,-0.11000,101.1875,123,60,0.27497
1630880,-0.09500,99.0625,123,60,0.26886
1630890,-0.08000,96.4375,123,60,0.26325
1630900,-0.07000,89.9375,123,60,0.25714
1630910,-0.06000,86.5000,123,60,0.25812
1630920,-0.05000,83.3750,123,60,0.26203
1630930,-0.04000,80.8750,123,60,0.26935
1630940,-0.03000,77.8125,123,60,0.29646
1630950,-0.01000,77.0000,123,60,0.31600
1630960,0.01500,76.5000,123,60,0.33895
1630970,0.04000,76.1250,123,60,0.36435
1630980,0.07000,75.4375,123,60,0.41954
1630990,0.11500,75.0000,123,60,0.44786
1631000,0.12500,74.5000,122,59,0.47570
1631010,0.10500,74.0000,122,59,0.49939
1631020,0.05000,72.8125,122,59,0.54310
1631030,-0.02000,72.1250,122,59,0.56508
1631040,-0.07500,71.4375,122,59,0.58584
1631050,-0.11000,70.7500,122,59,0.60513
1631060,-0.12500,69.3750,122,59,0.63907
1631070,-0.12500,68.7500,122,59,0.65348
1631080,-0.13500,68.1875,122,59,0.66618
1631090,-0.13500,67.6250,122,59,0.67741
1631100,-0.13500,66.6250,122,59,0.69524
1631110,-0.13500,66.2500,122,59,0.70061
1631120,-0.13500,65.8125,122,59,0.70427
1631130,-0.14500,65.4375,122,59,0.70769
1631140,-0.13000,64.7500,122,59,0.71184
1631150,0.11000,64.3750,122,59,0.71209
1631160,0.65500,64.0000,122,59,0.71062
1631170,0.99000,63.5625,122,59,0.70745
1631180,0.56500,62.6250,122,59,0.69597
1631190,-0.12000,62.1250,122,59,0.68816
1631200,-0.45500,61.6250,122,59,0.67912
1631210,-0.46500,61.0625,122,59,0.67009
1631220,-0.32500,60.0000,122,59,0.65104
1631230,-0.23500,59.5000,122,59,0.64078
1631240,-0.22000,59.0000,122,59,0.63028
1631250,-0.21000,58.5000,122,59,0.62002
1631260,-0.19500,57.5625,122,59,0.59951
1631270,-0.18000,57.0625,122,59,0.58926
1631280,-0.17000,56.6250,122,59,0.57924
1631290,-0.16500,56.1875,122,59,0.56923
1631300,-0.16000,55.5000,122,59,0.54969
1631310,-0.15000,55.3125,122,59,0.54090
1631320,-0.14000,55.4375,122,59,0.53284
1631330,-0.12500,56.3125,122,59,0.52381
1631340,-0.10500,62.3750,122,59,0.50452
1631350,-0.07500,68.2500,122,59,0.49475
1631360,-0.04500,75.3750,122,59,0.48498
1631370,-0.01500,83.0625,122,59,0.47546
1631380,0.01500,97.3125,122,59,0.45690
1631390,0.04000,103.1250,122,59,0.44786
1631400,0.06000,107.8750,122,59,0.43883
1631410,0.07500,111.6250,122,59,0.43150
1631420,0.08000,116.1250,122,59,0.41758
1631430,0.08500,117.3125,122,59,0.40977
1631440,0.08000,117.9375,122,59,0.40195
1631450,0.08000,118.1875,122,59,0.39414
1631460,0.08000,117.7500,122,59,0.37875
1631470,0.08000,117.1875,122,59,0.37094
1631480,0.07000,116.5000,122,59,0.36337
1631490,0.05000,115.6875,122,59,0.35580
1631500,0.02000,113.8750,122,59,0.34042
1631510,-0.02000,112.8750,122,59,0.33407
1631520,-0.05500,111.8125,122,59,0.32869
1631530,-0.08500,110.8125,122,59,0.32234
1631540,-0.10000,108.5625,122,59,0.30867
1631550,-0.11000,107.3750,122,59,0.30159
1631560,-0.11500,106.1875,122,59,0.29451
1631570,-0.11500,104.8125,122,59,0.28767
1631580,-0.11000,101.4375,122,59,0.27399
1631590,-0.09500,99.1875,122,59,0.26789
1631600,-0.08500,96.5000,122,59,0.26300
1631610,-0.07500,93.3750,122,59,0.26081
1631620,-0.06500,86.9375,122,59,0.26398
1631630,-0.05500,84.1250,122,59,0.27009
1631640,-0.04500,81.8125,122,59,0.28034
1631650,-0.03500,80.1250,122,59,0.29475
1631660,-0.00500,78.0625,122,59,0.33553
1631670,0.01500,77.3750,122,59,0.36068
1631680,0.04500,76.8750,122,59,0.38779
1631690,0.09000,76.3750,122,59,0.41612
1631700,0.12000,75.3750,122,59,0.47326
1631710,0.12000,74.8125,122,59,0.50281
1631720,0.09000,74.2500,122,59,0.53309
1631730,0.02500,73.6250,122,59,0.56166
1631740,-0.03500,72.3125,122,59,0.61294
1631750,-0.08500,71.6875,122,59,0.63590
1631760,-0.11500,71.0000,122,59,0.65665
1631770,-0.12500,70.3125,122,59,0.67546
1631780,-0.13000,69.0625,122,59,0.70696
1631790,-0.13500,68.5000,122,59,0.72015
1631800,-0.14000,68.0000,122,59,0.73162
1631810,-0.14500,67.0000,122,59,0.73968
1631820,-0.15000,66.5625,122,59,0.75140
1631830,-0.14500,66.1250,122,59,0.75653
1631840,-0.16000,65.7500,122,59,0.76044
1631850,-0.10500,65.3750,122,59,0.76313
1631860,0.21500,64.5000,122,59,0.76410
1631870,0.79000,64.0625,122,59,0.76215
1631880,0.97500,63.6250,122,59,0.75849
1631890,0.41000,63.1250,122,59,0.75311
1631900,-0.24000,62.1875,122,59,0.73748
1631910,-0.49000,61.6250,122,59,0.72821
1631920,-0.44000,61.0625,122,59,0.71868
1631930,-0.30500,60.5625,122,59,0.70794
1631940,-0.24000,59.5000,122,59,0.68547
1631950,-0.23000,59.0000,122,59,0.67399
1631960,-0.21500,58.5000,122,59,0.66252
1631970,-0.20500,58.0000,122,59,0.65128
1631980,-0.19000,57.1250,122,59,0.62857
1631990,-0.18000,56.6250,122,59,0.61709
1632000,-0.17000,56.2500,122,59,0.60586
1632010,-0.16500,55.8750,122,59,0.59585
1632020,-0.15500,55.6875,122,59,0.57607
1632030,-0.14500,56.3750,122,59,0.56557
1632040,-0.12500,58.1875,122,59,0.55482
1632050,-0.10500,61.9375,122,59,0.54383
1632060,-0.07500,74.9375,122,59,0.52210
1632070,-0.04500,82.8125,122,59,0.51136
1632080,-0.01500,90.5000,122,59,0.50061
1632090,0.01000,97.5625,122,59,0.48987
1632100,0.03000,108.5625,122,59,0.46911
1632110,0.05000,112.3125,122,59,0.46056
1632120,0.06500,115.0625,122,59,0.45324
1632130,0.07000,116.9375,122,59,0.44493
1632140,0.07500,118.8125,122,59,0.42735
1632150,0.07500,119.0625,122,59,0.41856
1632160,0.07000,119.0625,122,59,0.40977
1632170,0.07000,118.8125,122,59,0.40122
1632180,0.07500,117.7500,122,59,0.38413
1632190,0.06500,117.0625,122,59,0.37534
1632200,0.04000,116.2500,122,59,0.36654
1632210,0.00000,115.3750,122,59,0.35971
1632220,-0.03500,113.4375,122,59,0.34603
1632230,-0.07500,112.3750,122,59,0.33822
1632240,-0.09500,111.2500,122,59,0.33016
1632250,-0.11500,110.1250,122,59,0.32210
1632260,-0.12500,107.6875,122,59,0.30598
1632270,-0.13500,106.3125,122,59,0.29817
1632280,-0.13500,104.7500,122,59,0.29035
1632290,-0.12500,103.0000,122,59,0.28278
1632300,-0.11500,98.3125,122,59,0.27057
1632310,-0.10500,95.3125,122,59,0.26789
1632320,-0.09500,92.0000,122,59,0.26789
1632330,-0.09500,88.5625,122,59,0.27009
1632340,-0.08500,82.8125,122,59,0.28571
1632350,-0.07500,80.8125,122,59,0.30061
1632360,-0.06000,79.3750,122,59,0.32015
1632370,-0.03500,78.3750,122,59,0.34383
1632380,-0.00500,77.2500,122,59,0.40024
1632390,0.02000,76.8750,122,59,0.43101
1632400,0.04000,76.5000,122,59,0.46203
1632410,0.07000,76.0625,122,59,0.48913
1632420,0.09000,75.0625,122,59,0.54042
1632430,0.08000,74.5000,122,59,0.56703
1632440,0.04000,73.9375,122,59,0.59292
1632450,-0.01500,73.3125,122,59,0.61734
1632460,-0.08500,71.9375,122,59,0.66129
1632470,-0.13000,71.2500,122,59,0.68034
1632480,-0.14500,70.6250,122,59,0.69768
1632490,-0.15000,69.9375,122,59,0.71306
1632500,-0.15500,68.6875,122,59,0.73846
1632510,-0.16000,68.1250,122,59,0.74652
1632520,-0.16000,67.6250,122,59,0.75238
1632530,-0.16000,67.1250,122,59,0.75849
1632540,-0.16000,66.1875,122,59,0.76825
1632550,-0.16000,65.7500,122,59,0.77118
1632560,-0.18500,65.3750,122,59,0.77265
1632570,-0.11500,64.9375,122,59,0.77265
1632580,0.23500,64.2500,122,59,0.76606
1632590,0.84500,63.8750,122,59,0.76215
1632600,1.01000,63.5000,122,59,0.75604
1632610,0.36000,63.0000,122,59,0.74872
1632620,-0.33500,62.0625,122,59,0.73016
1632630,-0.56000,61.5625,122,59,0.71917
1632640,-0.45500,61.0625,122,59,0.70769
1632650,-0.31000,60.5000,122,59,0.69573
1632660,-0.26000,59.5000,122,59,0.67131
1632670,-0.26000,59.0000,122,59,0.65910
1632680,-0.25000,58.5625,122,59,0.64713
1632690,-0.24000,58.1250,122,59,0.63541
1632700,-0.22000,57.1875,122,59,0.61416
1632710,-0.20000,56.7500,122,59,0.60488
1632720,-0.19000,56.3750,122,59,0.59463
1632730,-0.18000,56.0625,122,59,0.58413
1632740,-0.17000,56.0000,122,59,0.56264
1632750,-0.16000,57.0000,122,59,0.55189
1632760,-0.14500,59.4375,122,59,0.54115
1632770,-0.12000,63.8750,122,59,0.53040
1632780,-0.09000,77.9375,122,59,0.50940
1632790,-0.06000,86.0000,122,59,0.49890
1632800,-0.02500,93.7500,122,59,0.48840
1632810,0.00500,100.6875,122,59,0.47937
1632820,0.04000,111.3750,122,59,0.46252
1632830,0.06000,115.0000,122,59,0.45299
1632840,0.07000,117.5625,122,59,0.44347
1632850,0.07500,119.2500,122,59,0.43394
1632860,0.08000,120.8750,122,59,0.41538
1632870,0.08000,121.1250,122,59,0.40659
1632880,0.08000,121.0625,122,59,0.39780
1632890,0.08000,120.8750,122,59,0.38926
1632900,0.07500,120.0000,122,59,0.37411
1632910,0.06000,119.3125,122,59,0.36825
1632920,0.03500,118.5625,122,59,0.36117
1632930,0.00000,117.6875,122,59,0.35360
1632940,-0.03500,115.7500,122,59,0.33724
1632950,-0.07500,114.6875,122,59,0.32894
1632960,-0.10000,113.5625,122,59,0.32088
1632970,-0.11500,112.4375,122,59,0.31306
1632980,-0.12500,110.0000,122,59,0.29768
1632990,-0.13000,108.6875,122,59,0.29011
1633000,-0.12500,107.1250,122,59,0.28278
1633010,-0.12500,105.3750,122,59,0.27766
1633020,-0.11500,100.8750,122,59,0.26984
1633030,-0.10500,97.9375,122,59,0.26691
1633040,-0.10000,94.6250,122,59,0.26642
1633050,-0.09500,91.1875,122,59,0.26960
1633060,-0.09000,85.1250,122,59,0.28913
1633070,-0.08500,82.8125,122,59,0.30623
1633080,-0.06500,81.1250,122,59,0.32772
1633090,-0.02500,79.9375,122,59,0.35336
1633100,0.00000,78.5625,122,59,0.40879
1633110,0.02500,78.0625,122,59,0.43492
1633120,0.06000,77.6250,122,59,0.46447
1633130,0.07000,77.2500,122,59,0.49524
1633140,0.05000,76.3125,122,59,0.55604
1633150,0.00500,75.8125,122,59,0.58462
1633160,-0.05500,75.2500,122,59,0.61172
1633170,-0.11500,74.6250,122,59,0.63712
1633180,-0.15000,73.3750,122,59,0.68156
1633190,-0.16500,72.6875,122,59,0.70085
1633200,-0.17000,72.0625,122,59,0.71819
1633210,-0.17000,71.3750,122,59,0.73089
1633220,-0.17500,70.1250,122,59,0.75116
1633230,-0.18000,69.5625,122,59,0.76093
1633240,-0.17000,69.0000,122,59,0.76996
1633250,-0.16000,68.5000,122,59,0.77753
1633260,-0.16000,67.5625,122,59,0.78877
1633270,-0.19000,67.0625,122,59,0.79219
1633280,-0.09000,66.6250,122,59,0.79414
1633290,0.36500,66.1875,122,59,0.79463
1633300,1.00000,65.3125,122,59,0.79048
1633310,0.97000,64.8750,122,59,0.78535
1633320,0.19500,64.4375,122,59,0.77900
1633330,-0.43500,63.9375,122,59,0.77118
1633340,-0.57000,62.8750,122,59,0.75189
1633350,-0.41500,62.3125,122,59,0.74066
1633360,-0.28000,61.7500,122,59,0.72894
1633370,-0.25000,61.1875,122,59,0.71673
1633380,-0.24000,60.0625,122,59,0.69182
1633390,-0.23500,59.5625,122,59,0.67937
1633400,-0.22500,59.0625,122,59,0.66740
1633410,-0.21000,58.5625,122,59,0.65641
1633420,-0.19000,57.6250,122,59,0.63516
1633430,-0.18000,57.1875,122,59,0.62418
1633440,-0.18000,57.1875,122,59,0.62418
1633450,-0.18000,57.1875,122,59,0.62418
1633460,-0.12500,61.8750,122,59,0.56825
1633470,-0.12500,61.8750,122,59,0.56825
1633480,-0.09500,67.0625,122,59,0.55727
1633490,-0.07000,73.8750,122,59,0.54603
1633500,-0.04000,89.7500,122,59,0.52552
1633510,-0.00500,97.1875,122,59,0.51673
1633520,0.03000,103.6875,122,59,0.50696
1633530,0.06500,109.0625,122,59,0.49695
1633540,0.09000,116.3750,122,59,0.47643
1633550,0.11000,118.4375,122,59,0.46618
1633560,0.12000,119.6875,122,59,0.45617
1633570,0.12000,120.3750,122,59,0.44640
1633580,0.12500,120.6250,122,59,0.42711
1633590,0.12500,120.4375,122,59,0.41783
1633600,0.12000,120.0000,122,59,0.40806
1633610,0.11500,119.5000,122,59,0.40024
1633620,0.10000,118.1250,122,59,0.38657
1633630,0.07000,117.2500,122,59,0.37827
1633640,0.03500,116.3125,122,59,0.36972
1633650,-0.00500,115.3125,122,59,0.36142
1633660,-0.03500,113.2500,122,59,0.34457
1633670,-0.05500,112.1250,122,59,0.33626
1633680,-0.07500,110.9375,122,59,0.32796
1633690,-0.08500,109.6875,122,59,0.31966
1633700,-0.08500,106.8125,122,59,0.30452
1633710,-0.08500,105.0625,122,59,0.29890
1633720,-0.07500,103.0000,122,59,0.29206
1633730,-0.06500,100.6250,122,59,0.28523
1633740,-0.05000,94.5000,122,59,0.27643
1633750,-0.03500,91.1875,122,59,0.27643
1633760,-0.02500,87.9375,122,59,0.27643
1633770,-0.01500,85.0625,122,59,0.27912
1633780,0.00000,81.0000,122,59,0.30501
1633790,0.03500,79.6875,122,59,0.32576
1633800,0.06500,78.7500,122,59,0.34994
1633810,0.08500,78.1250,122,59,0.37338
1633820,0.12000,77.1250,122,59,0.42320
1633830,0.14000,76.6875,122,59,0.45104
1633840,0.12500,76.2500,122,59,0.47888
1633850,0.08500,75.8125,122,59,0.50623
1633860,0.03000,74.7500,122,59,0.55751
1633870,-0.02500,74.1250,122,59,0.58095
1633880,-0.06500,73.5000,122,59,0.60244
1633890,-0.08500,72.8125,122,59,0.62222
1633900,-0.09500,71.5000,122,59,0.65421
1633910,-0.10000,70.8125,122,59,0.66545
1633920,-0.10000,70.1250,122,59,0.67717
1633930,-0.10000,69.5000,122,59,0.68816
1633940,-0.09500,68.3750,122,59,0.70672
1633950,-0.09500,67.8750,122,59,0.71404
1633960,-0.09000,67.3750,122,59,0.72015
1633970,-0.11500,66.9375,122,59,0.72479
1633980,-0.03500,66.0000,122,59,0.72943
1633990,0.36000,65.5625,122,59,0.72967
1634000,0.95000,65.1250,121,59,0.72845
1634010,0.97500,64.6875,121,59,0.72527
1634020,0.30000,63.7500,121,59,0.71502
1634030,-0.30500,63.2500,121,59,0.70818
1634040,-0.48000,62.6875,121,59,0.70012
1634050,-0.35500,62.0625,121,59,0.69109
1634060,-0.21000,60.9375,121,59,0.67033
1634070,-0.16500,60.3750,121,59,0.65885
1634080,-0.15500,59.8125,121,59,0.64737
1634090,-0.15500,59.3125,121,59,0.63590
1634100,-0.14000,58.2500,121,59,0.61343
1634110,-0.12500,57.7500,121,59,0.60342
1634120,-0.10500,57.2500,121,59,0.59292
1634130,-0.09000,56.8125,121,59,0.58217
1634140,-0.08000,56.1875,121,59,0.56068
1634150,-0.07500,56.0625,121,59,0.54994
1634160,-0.06000,56.5000,121,59,0.53944
1634170,-0.04500,57.8125,121,59,0.52894
1634180,-0.02500,65.5625,121,59,0.50794
1634190,0.00000,72.1250,121,59,0.49744
1634200,0.02500,79.5625,121,59,0.48718
1634210,0.05000,87.1875,121,59,0.47839
1634220,0.08000,100.5000,121,59,0.46129
1634230,0.10000,105.6250,121,59,0.45201
1634240,0.12000,109.6250,121,59,0.44249
1634250,0.13500,112.5625,121,59,0.43297
1634260,0.14500,115.6250,121,59,0.41392
1634270,0.15500,116.1875,121,59,0.40440
1634280,0.15500,116.3125,121,59,0.39512
1634290,0.15000,116.1250,121,59,0.38608
1634300,0.15500,115.1250,121,59,0.37021
1634310,0.15500,114.3750,121,59,0.36386
1634320,0.14500,113.5000,121,59,0.35629
1634330,0.11500,112.5625,121,59,0.34847
1634340,0.07500,110.4375,121,59,0.33236
1634350,0.03000,109.3125,121,59,0.32430
1634360,0.00000,108.1875,121,59,0.31624
1634370,-0.02500,107.0000,121,59,0.30818
1634380,-0.04000,104.4375,121,59,0.29255
1634390,-0.05000,103.1250,121,59,0.28474
1634400,-0.05000,101.6250,121,59,0.27888
1634410,-0.04500,99.8750,121,59,0.27399
1634420,-0.03500,95.5000,121,59,0.26081
1634430,-0.02500,92.6250,121,59,0.25470
1634440,-0.01500,89.5000,121,59,0.24957
1634450,-0.01000,83.3750,121,59,0.24640
1634460,-0.00500,80.9375,121,59,0.24933
1634470,0.00500,79.0625,121,59,0.25665
1634480,0.03000,77.6875,121,59,0.26862
1634490,0.05500,76.7500,121,59,0.28474
1634500,0.08500,75.5000,121,59,0.32503
1634510,0.13000,75.1250,121,59,0.34603
1634520,0.15000,74.7500,121,59,0.37045
1634530,0.14000,74.3750,121,59,0.39707
1634540,0.09500,73.4375,121,59,0.45153
1634550,0.03000,72.9375,121,59,0.47790
1634560,-0.02500,72.3750,121,59,0.50305
1634570,-0.06500,71.7500,121,59,0.52674
1634580,-0.08500,70.4375,121,59,0.56899
1634590,-0.09500,69.8125,121,59,0.58755
1634600,-0.10500,69.1250,121,59,0.60195
1634610,-0.11000,68.5625,121,59,0.61392
1634620,-0.11000,67.5000,121,59,0.63932
1634630,-0.11000,67.0000,121,59,0.65055
1634640,-0.10500,66.5625,121,59,0.65788
1634650,-0.11500,66.1250,121,59,0.66447
1634660,-0.12000,65.3125,121,59,0.67497
1634670,0.09500,64.9375,121,59,0.67814
1634680,0.61000,64.5000,121,59,0.67985
1634690,0.99000,63.6875,121,59,0.68010
1634700,0.66000,63.1875,121,59,0.67643
1634710,-0.04500,62.6875,121,59,0.67228
1634720,-0.43500,62.1250,121,59,0.66667
1634730,-0.45000,61.5625,121,59,0.66007
1634740,-0.31500,60.4375,121,59,0.64347
1634750,-0.22000,59.9375,121,59,0.63394
1634760,-0.19500,59.3750,121,59,0.62393
1634770,-0.19000,58.8750,121,59,0.61368
1634780,-0.17500,57.8125,121,59,0.59292
1634790,-0.16000,57.3125,121,59,0.58266
1634800,-0.15000,56.8125,121,59,0.57338
1634810,-0.13500,56.3750,121,59,0.56459
1634820,-0.12500,55.6250,121,59,0.54579
1634830,-0.11500,55.3750,121,59,0.53626
1634840,-0.10500,55.3750,121,59,0.52674
1634850,-0.09000,55.9375,121,59,0.51722
1634860,-0.07500,60.7500,121,59,0.49817
1634870,-0.05000,65.8125,121,59,0.48889
1634880,-0.02500,72.5000,121,59,0.47961
1634890,-0.00500,79.8750,121,59,0.47009
1634900,0.02500,94.0000,121,59,0.45250
1634910,0.05000,99.8125,121,59,0.44493
1634920,0.07000,104.5625,121,59,0.43663
1634930,0.09000,108.1875,121,59,0.42808
1634940,0.10000,112.5000,121,59,0.41099
1634950,0.11000,113.4375,121,59,0.40269
1634960,0.12000,113.8125,121,59,0.39438
1634970,0.12000,113.8125,121,59,0.38608
1634980,0.12000,113.0000,121,59,0.36972
1634990,0.12000,112.3125,121,59,0.36166
1635000,0.12000,111.4375,121,59,0.35531
1635010,0.10000,110.5000,121,59,0.34969
1635020,0.07000,108.4375,121,59,0.33553
1635030,0.03000,107.3125,121,59,0.32796
1635040,-0.00500,106.1250,121,59,0.32039
1635050,-0.03000,104.9375,121,59,0.31282
1635060,-0.05000,102.5000,121,59,0.29768
1635070,-0.06500,101.2500,121,59,0.29011
1635080,-0.07500,99.8125,121,59,0.28278
1635090,-0.06500,98.1875,121,59,0.27546
1635100,-0.05500,94.0000,121,59,0.26276
1635110,-0.05000,91.3125,121,59,0.25861
1635120,-0.04000,88.2500,121,59,0.25372
1635130,-0.03500,85.0625,121,59,0.24933
1635140,-0.03500,79.5625,121,59,0.24713
1635150,-0.02500,77.6250,121,59,0.25104
1635160,-0.01500,76.2500,121,59,0.25910
1635170,0.00000,75.3750,121,59,0.27131
1635180,0.02500,74.3125,121,59,0.30818
1635190,0.04500,74.0000,121,59,0.33138
1635200,0.07500,73.6250,121,59,0.35360
1635210,0.11500,73.3125,121,59,0.37558
1635220,0.13000,72.4375,121,59,0.42662
1635230,0.11000,71.9375,121,59,0.45275
1635240,0.06500,71.3750,121,59,0.47814
1635250,0.00000,70.8125,121,59,0.50256
1635260,-0.06000,69.5625,121,59,0.54701
1635270,-0.09500,68.9375,121,59,0.56679
1635280,-0.11000,68.3125,121,59,0.58462
1635290,-0.11500,67.0625,121,59,0.60073
1635300,-0.11500,66.5000,121,59,0.62613
1635310,-0.12000,65.9375,121,59,0.63468
1635320,-0.12500,65.3750,121,59,0.64322
1635330,-0.13500,64.8750,121,59,0.65104
1635340,-0.13500,64.1250,121,59,0.66276
1635350,-0.13000,63.9375,121,59,0.66667
1635360,-0.09000,63.7500,121,59,0.66911
1635370,0.18500,63.4375,121,59,0.67009
1635380,0.73500,62.5000,121,59,0.66764
1635390,0.99500,62.1250,121,59,0.66398
1635400,0.53500,61.7500,121,59,0.65910
1635410,-0.13500,61.3750,121,59,0.65299
1635420,-0.45000,60.3125,121,59,0.63736
1635430,-0.44500,59.6250,121,59,0.62833
1635440,-0.31000,59.0000,121,59,0.61856
1635450,-0.23500,58.4375,121,59,0.60855
1635460,-0.22000,57.4375,121,59,0.58828
1635470,-0.20500,57.0625,121,59,0.57827
1635480,-0.19000,56.6250,121,59,0.56850
1635490,-0.17000,56.1250,121,59,0.55873
1635500,-0.15000,55.2500,121,59,0.54066
1635510,-0.13000,54.8750,121,59,0.53260
1635520,-0.11000,54.5625,121,59,0.52381
1635530,-0.09500,54.3125,121,59,0.51477
1635540,-0.08500,55.0000,121,59,0.49646
1635550,-0.08500,56.6875,121,59,0.48742
1635560,-0.07000,60.1250,121,59,0.47839
1635570,-0.05500,65.4375,121,59,0.46935
1635580,-0.03500,79.7500,121,59,0.45128
1635590,-0.01000,87.1250,121,59,0.44225
1635600,0.01500,93.9375,121,59,0.43443
1635610,0.03500,99.8125,121,59,0.42759
1635620,0.06000,108.3750,121,59,0.41123
1635630,0.08000,111.1250,121,59,0.40269
1635640,0.09500,112.9375,121,59,0.39438
1635650,0.10000,114.1250,121,59,0.38462
1635660,0.11000,114.9375,121,59,0.36996
1635670,0.11000,114.8750,121,59,0.36313
1635680,0.12000,114.5000,121,59,0.35629
1635690,0.11500,113.2500,121,59,0.34945
1635700,0.11000,112.3125,121,59,0.33724
1635710,0.09000,111.3750,121,59,0.33236
1635720,0.05000,110.3125,121,59,0.32650
1635730,0.01000,109.1875,121,59,0.31990
1635740,-0.02000,106.8750,121,59,0.30549
1635750,-0.05000,105.6875,121,59,0.29817
1635760,-0.07000,104.5000,121,59,0.29109
1635770,-0.08000,103.2500,121,59,0.28400
1635780,-0.08500,100.4375,121,59,0.26960
1635790,-0.08500,98.7500,121,59,0.26252
1635800,-0.07500,96.7500,121,59,0.25763
1635810,-0.06000,94.4375,121,59,0.25568
1635820,-0.04500,88.6875,121,59,0.25128
1635830,-0.04000,85.6250,121,59,0.24982
1635840,-0.03000,82.9375,121,59,0.25104
1635850,-0.02500,80.7500,121,59,0.25568
1635860,-0.02000,77.8125,121,59,0.27766
1635870,0.00000,76.8750,121,59,0.29524
1635880,0.02500,76.2500,121,59,0.31673
1635890,0.04000,75.6875,121,59,0.34139
1635900,0.07000,74.7500,121,59,0.39390
1635910,0.11000,74.2500,121,59,0.41807
1635920,0.13000,73.6875,121,59,0.44493
1635930,0.11000,73.1250,121,59,0.47253
1635940,0.06000,71.8750,121,59,0.52625
1635950,-0.01000,71.1875,121,59,0.55140
1635960,-0.06500,70.5000,121,59,0.57509
1635970,-0.10500,69.8125,121,59,0.59707
1635980,-0.12000,68.5625,121,59,0.63541
1635990,-0.12500,67.9375,121,59,0.65153
1636000,-0.12500,67.3750,120,58,0.66374
1636010,-0.12500,66.8125,120,58,0.67350
1636020,-0.12500,65.8750,120,58,0.69231
1636030,-0.11500,65.4375,120,58,0.70037
1636040,-0.11500,65.0625,120,58,0.70720
1636050,-0.13000,64.6875,120,58,0.71258
1636060,-0.09000,64.0000,120,58,0.71893
1636070,0.13500,63.6250,120,58,0.71966
1636080,0.68000,63.1875,120,58,0.71893
1636090,1.01000,62.7500,120,58,0.71648
1636100,0.58000,61.8750,120,58,0.70672
1636110,-0.10500,61.4375,120,58,0.69988
1636120,-0.43500,60.9375,120,58,0.69182
1636130,-0.45000,60.4375,120,58,0.68254
1636140,-0.31500,59.3750,120,58,0.66276
1636150,-0.22000,58.8750,120,58,0.65250
1636160,-0.21000,58.4375,120,58,0.64225
1636170,-0.19500,57.9375,120,58,0.63199
1636180,-0.18500,57.0000,120,58,0.61172
1636190,-0.17500,56.5000,120,58,0.60195
1636200,-0.16500,56.0625,120,58,0.59292
1636210,-0.15500,55.6250,120,58,0.58437
1636220,-0.15000,55.0000,120,58,0.56557
1636230,-0.14000,54.9375,120,58,0.55580
1636240,-0.13000,55.4375,120,58,0.54579
1636250,-0.11000,56.8750,120,58,0.53553
1636260,-0.08500,64.6875,120,58,0.51551
1636270,-0.05500,71.1875,120,58,0.50549
1636280,-0.03000,78.5625,120,58,0.49548
1636290,0.00000,86.0625,120,58,0.48571
1636300,0.03000,99.2500,120,58,0.46960
1636310,0.05500,104.3750,120,58,0.46105
1636320,0.07000,108.5625,120,58,0.45226
1636330,0.08500,111.7500,120,58,0.44347
1636340,0.09000,115.3750,120,58,0.42637
1636350,0.09500,116.1875,120,58,0.41783
1636360,0.09500,116.6250,120,58,0.40952
1636370,0.09500,116.6875,120,58,0.40147
1636380,0.09000,116.0000,120,58,0.38510
1636390,0.10000,115.3125,120,58,0.37680
1636400,0.09500,114.5000,120,58,0.37021
1636410,0.08000,113.6250,120,58,0.36435
1636420,0.05000,111.5625,120,58,0.35018
1636430,0.01500,110.5000,120,58,0.34286
1636440,-0.02500,109.3750,120,58,0.33529
1636450,-0.06000,107.0625,120,58,0.32039
1636460,-0.07500,105.9375,120,58,0.31306
1636470,-0.09000,104.7500,120,58,0.30574
1636480,-0.09500,103.5000,120,58,0.29841
1636490,-0.09500,102.0000,120,58,0.29109
1636500,-0.09500,98.1875,120,58,0.28132
1636510,-0.08000,95.6250,120,58,0.27619
1636520,-0.07500,92.7500,120,58,0.27131
1636530,-0.06500,89.5625,120,58,0.26813
1636540,-0.05500,83.6250,120,58,0.27033
1636550,-0.04500,81.3125,120,58,0.27766
1636560,-0.03000,79.5625,120,58,0.28938
1636570,-0.01000,78.3125,120,58,0.30549
1636580,0.01000,76.6875,120,58,0.34994
1636590,0.03500,76.1250,120,58,0.37656
1636600,0.07000,75.6250,120,58,0.40147
1636610,0.11000,75.0625,120,58,0.42564
1636620,0.11500,74.0000,120,58,0.48083
1636630,0.08500,73.4375,120,58,0.50891
1636640,0.02500,72.8125,120,58,0.53626
1636650,-0.03500,72.1250,120,58,0.56215
1636660,-0.08500,70.8125,120,58,0.60904
1636670,-0.11500,70.1875,120,58,0.63370
1636680,-0.12500,69.5625,120,58,0.65446
1636690,-0.12500,68.9375,120,58,0.66813
1636700,-0.13000,67.8125,120,58,0.68864
1636710,-0.13000,67.3125,120,58,0.69866
1636720,-0.13500,66.8750,120,58,0.70818
1636730,-0.12500,66.4375,120,58,0.71673
1636740,-0.12500,65.6875,120,58,0.73016
1636750,-0.14000,65.2500,120,58,0.73504
1636760,-0.06500,64.8125,120,58,0.73822
1636770,0.29000,64.4375,120,58,0.73993
1636780,0.85000,63.6250,120,58,0.73846
1636790,0.93000,63.1875,120,58,0.73529
1636800,0.30500,62.7500,120,58,0.73065
1636810,-0.30000,62.2500,120,58,0.72454
1636820,-0.50500,61.2500,120,58,0.70867
1636830,-0.42500,60.6875,120,58,0.69939
1636840,-0.29000,60.1875,120,58,0.68938
1636850,-0.23000,59.6875,120,58,0.67863
1636860,-0.22500,58.6875,120,58,0.65665
1636870,-0.21500,58.1875,120,58,0.64542
1636880,-0.21000,57.7500,120,58,0.63419
1636890,-0.19500,57.2500,120,58,0.62344
1636900,-0.19000,56.3750,120,58,0.60440
1636910,-0.18000,55.9375,120,58,0.59438
1636920,-0.17000,55.6875,120,58,0.58413
1636930,-0.15500,55.6875,120,58,0.57387
1636940,-0.14500,57.5625,120,58,0.55336
1636950,-0.12500,60.6250,120,58,0.54310
1636960,-0.10500,65.6250,120,58,0.53284
1636970,-0.08000,79.9375,120,58,0.52283
1636980,-0.05500,87.6250,120,58,0.50305
1636990,-0.02500,94.8125,120,58,0.49328
1637000,0.00500,101.1250,120,58,0.48498
1637010,0.03000,106.3750,120,58,0.47741
1637020,0.05000,113.6250,120,58,0.45983
1637030,0.07000,115.8125,120,58,0.45104
1637040,0.07000,117.2500,120,58,0.44249
1637050,0.07500,118.0625,120,58,0.43370
1637060,0.07500,118.5625,120,58,0.41612
1637070,0.07000,118.3750,120,58,0.40733
1637080,0.07000,118.0000,120,58,0.39878
1637090,0.07000,117.3750,120,58,0.39048
1637100,0.06000,115.7500,120,58,0.37778
1637110,0.03000,114.7500,120,58,0.37070
1637120,-0.00500,113.6875,120,58,0.36288
1637130,-0.04500,112.6250,120,58,0.35482
1637140,-0.07500,110.3750,120,58,0.33871
1637150,-0.09500,109.2500,120,58,0.33089
1637160,-0.11000,108.0625,120,58,0.32332
1637170,-0.12000,106.8750,120,58,0.31575
1637180,-0.12500,104.1250,120,58,0.30061
1637190,-0.12500,102.4375,120,58,0.29328
1637200,-0.12000,100.4375,120,58,0.28791
1637210,-0.10500,98.0000,120,58,0.28376
1637220,-0.09500,92.0625,120,58,0.27643
1637230,-0.08500,88.8125,120,58,0.27619
1637240,-0.08500,85.8125,120,58,0.27961
1637250,-0.07500,83.1875,120,58,0.28718
1637260,-0.06000,79.7500,120,58,0.31551
1637270,-0.03500,78.6875,120,58,0.33578
1637280,-0.00500,77.9375,120,58,0.35946
1637290,0.02000,77.3750,120,58,0.38584
1637300,0.04500,76.5000,120,58,0.43492
1637310,0.07500,76.0000,120,58,0.46203
1637320,0.09000,75.5000,120,58,0.49035
1637330,0.08000,75.0000,120,58,0.51844
1637340,0.04000,73.8750,120,58,0.57192
1637350,-0.01000,73.2500,120,58,0.59634
1637360,-0.07500,72.6250,120,58,0.61905
1637370,-0.11500,71.9375,120,58,0.63980
1637380,-0.13500,70.6875,120,58,0.67570
1637390,-0.14500,70.0000,120,58,0.69109
1637400,-0.15000,69.4375,120,58,0.70232
1637410,-0.15000,68.8750,120,58,0.71087
1637420,-0.15500,67.8125,120,58,0.72772
1637430,-0.15500,67.3750,120,58,0.73480
1637440,-0.15000,66.9375,120,58,0.74090
1637450,-0.15000,66.5000,120,58,0.74579
1637460,-0.17000,65.6875,120,58,0.75214
1637470,-0.03500,65.2500,120,58,0.75287
1637480,0.30500,64.8750,120,58,0.75189
1637490,0.91000,64.4375,120,58,0.74896
1637500,0.97000,63.6250,120,58,0.73846
1637510,0.29000,63.1250,120,58,0.73114
1637520,-0.35000,62.6250,120,58,0.72259
1637530,-0.54000,62.1250,120,58,0.71306
1637540,-0.42500,61.0625,120,58,0.69182
1637550,-0.29000,60.5625,120,58,0.68059
1637560,-0.25000,60.0625,120,58,0.66935
1637570,-0.24000,59.5625,120,58,0.65812
1637580,-0.23000,58.6250,120,58,0.63614
1637590,-0.22000,58.1250,120,58,0.62515
1637600,-0.20500,57.6875,120,58,0.61538
1637610,-0.19000,57.2500,120,58,0.60611
1637620,-0.17500,56.5000,120,58,0.58608
1637630,-0.17000,56.3125,120,58,0.57558
1637640,-0.16500,56.3750,120,58,0.56508
1637650,-0.14500,57.1250,120,58,0.55458
1637660,-0.12500,63.3750,120,58,0.53382
1637670,-0.09500,69.5000,120,58,0.52381
1637680,-0.06500,77.0000,120,58,0.51380
1637690,-0.03500,85.0625,120,58,0.50379
1637700,-0.00500,99.8125,120,58,0.48376
1637710,0.02500,105.8750,120,58,0.47668
1637720,0.05000,110.7500,120,58,0.46838
1637730,0.07500,114.5625,120,58,0.45958
1637740,0.09000,119.0000,120,58,0.44151
1637750,0.10000,120.1250,120,58,0.43272
1637760,0.10000,120.7500,120,58,0.42393
1637770,0.10000,120.9375,120,58,0.41538
1637780,0.09500,120.6250,120,58,0.39829
1637790,0.10000,120.1875,120,58,0.38999
1637800,0.10000,119.5625,120,58,0.38339
1637810,0.09000,118.8125,120,58,0.37753
1637820,0.06000,117.0000,120,58,0.36288
1637830,0.02500,115.9375,120,58,0.35507
1637840,-0.01500,114.9375,120,58,0.34701
1637850,-0.05500,112.6875,120,58,0.33187
1637860,-0.07500,111.5625,120,58,0.32503
1637870,-0.09000,110.3750,120,58,0.31795
1637880,-0.10500,109.1250,120,58,0.31087
1637890,-0.11500,107.7500,120,58,0.30379
1637900,-0.11500,104.5000,120,58,0.29377
1637910,-0.11000,102.4375,120,58,0.28840
1637920,-0.10500,99.9375,120,58,0.28327
1637930,-0.09500,93.7500,120,58,0.27888
1637940,-0.09000,90.3750,120,58,0.27766
1637950,-0.08500,87.3125,120,58,0.28278
1637960,-0.07000,84.6250,120,58,0.29231
1637970,-0.03500,82.5625,120,58,0.30647
1637980,-0.00500,79.8750,120,58,0.34799
1637990,0.02000,79.1250,120,58,0.37387
1638000,0.04000,78.5625,120,58,0.39829
1638010,0.06500,78.1250,120,58,0.42222
1638020,0.07500,77.2500,120,58,0.47814
1638030,0.06000,76.8125,120,58,0.50720
1638040,0.01000,76.3125,120,58,0.53553
1638050,-0.04500,75.7500,120,58,0.56264
1638060,-0.10500,74.5625,120,58,0.61221
1638070,-0.13500,73.9375,120,58,0.63394
1638080,-0.15500,73.2500,120,58,0.65397
1638090,-0.15500,72.0000,120,58,0.67228
1638100,-0.16000,71.3750,120,58,0.69744
1638110,-0.16000,70.7500,120,58,0.70916
1638120,-0.17000,70.1875,120,58,0.72039
1638130,-0.17000,69.6875,120,58,0.73040
1638140,-0.17000,68.6875,120,58,0.74676
1638150,-0.17500,68.1875,120,58,0.75263
1638160,-0.19000,67.7500,120,58,0.75702
1638170,-0.01500,67.3125,120,58,0.75995
1638180,0.52500,66.4375,120,58,0.76142
1638190,1.07500,66.0000,120,58,0.75946
1638200,0.82000,65.5625,120,58,0.75604
1638210,-0.01000,65.1250,120,58,0.75165
1638220,-0.52000,64.1250,120,58,0.73846
1638230,-0.54000,63.6250,120,58,0.72991
1638240,-0.37500,63.0625,120,58,0.72039
1638250,-0.27000,62.5000,120,58,0.71013
1638260,-0.25000,61.3750,120,58,0.68816
1638270,-0.23500,60.8750,120,58,0.67692
1638280,-0.22500,60.3750,120,58,0.66569
1638290,-0.21000,59.9375,120,58,0.65421
1638300,-0.20000,59.0000,120,58,0.63394
1638310,-0.19000,58.5625,120,58,0.62344
1638320,-0.19000,58.1250,120,58,0.61270
1638330,-0.18000,57.8750,120,58,0.60195
1638340,-0.17000,58.6875,120,58,0.58071
1638350,-0.16000,60.8125,120,58,0.57045
1638360,-0.14000,64.8125,120,58,0.56020
1638370,-0.11500,70.6875,120,58,0.54994
1638380,-0.08500,86.0000,120,58,0.52967
1638390,-0.05000,93.7500,120,58,0.52088
1638400,-0.01500,100.8125,120,58,0.51282
1638410,0.02000,106.8750,120,58,0.50379
1638420,0.05000,115.5625,120,58,0.48498
1638430,0.08000,118.2500,120,58,0.47546
1638440,0.09000,120.0625,120,58,0.46593
1638450,0.10000,121.0625,120,58,0.45641
1638460,0.10000,121.6875,120,58,0.43785
1638470,0.09500,121.5625,120,58,0.42882
1638480,0.09500,121.2500,120,58,0.42002
1638490,0.09500,120.6875,120,58,0.41123
1638500,0.09000,119.2500,120,58,0.39756
1638510,0.07000,118.3750,120,58,0.39048
1638520,0.03500,117.3750,120,58,0.38266
1638530,0.00000,116.3750,120,58,0.37460
1638540,-0.03500,114.1875,120,58,0.35824
1638550,-0.06500,113.0625,120,58,0.35018
1638560,-0.08000,111.8750,120,58,0.34212
1638570,-0.08500,110.6875,120,58,0.33431
1638580,-0.09500,108.0000,120,58,0.31844
1638590,-0.09000,106.4375,120,58,0.31233
1638600,-0.08500,104.6250,120,58,0.30745
1638610,-0.07500,102.4375,120,58,0.30134
1638620,-0.07000,96.7500,120,58,0.29084
1638630,-0.05500,93.3750,120,58,0.28816
1638640,-0.04500,89.8750,120,58,0.28864
1638650,-0.03500,86.6875,120,58,0.29280
1638660,-0.00500,81.8750,120,58,0.31429
1638670,0.02500,80.3125,120,58,0.33187
1638680,0.05000,79.2500,120,58,0.35336
1638690,0.07000,78.5625,120,58,0.37802
1638700,0.10500,77.6875,120,58,0.42515
1638710,0.12000,77.3750,120,58,0.45177
1638720,0.10000,77.0000,120,58,0.48669
1638730,0.05500,76.6250,120,58,0.51819
1638740,0.00000,75.6875,120,58,0.56435
1638750,-0.05500,75.1250,120,58,0.58803
1638760,-0.09000,74.5000,120,58,0.61050
1638770,-0.10500,73.8750,120,58,0.63150
1638780,-0.11500,72.5625,120,58,0.66789
1638790,-0.12000,71.9375,120,58,0.68132
1638800,-0.12500,71.2500,120,58,0.69182
1638810,-0.13000,70.6250,120,58,0.70256
1638820,-0.13000,69.5000,120,58,0.72234
1638830,-0.12500,69.0000,120,58,0.73040
1638840,-0.13500,68.5000,120,58,0.73724
1638850,-0.15500,68.0000,120,58,0.74261
1638860,-0.00500,67.0625,120,58,0.74969
1638870,0.46000,66.6250,120,58,0.75092
1638880,0.99000,66.1250,120,58,0.75092
1638890,0.85500,65.6250,120,58,0.74896
1638900,0.09000,64.6250,120,58,0.74017
1638910,-0.43500,64.0625,120,58,0.73382
1638920,-0.49000,63.5000,120,58,0.72625
1638930,-0.33500,62.8750,120,58,0.71746
1638940,-0.22500,61.6875,120,58,0.69670
1638950,-0.20000,61.1250,120,58,0.68523
1638960,-0.19000,60.6250,120,58,0.67350
1638970,-0.17500,60.0625,120,58,0.66154
1638980,-0.16000,59.0625,120,58,0.63785
1638990,-0.15000,58.5625,120,58,0.62735
1639000,-0.13500,58.0625,119,58,0.61734
1639010,-0.12500,57.6250,119,58,0.60659
1639020,-0.12500,57.1250,119,58,0.58510
1639030,-0.11500,57.3125,119,58,0.57460
1639040,-0.10000,58.3750,119,58,0.56386
1639050,-0.08000,60.8125,119,58,0.55336
1639060,-0.05500,71.3750,119,58,0.53260
1639070,-0.03000,78.8125,119,58,0.52234
1639080,-0.00500,86.5625,119,58,0.51233
1639090,0.02000,94.0000,119,58,0.50256
1639100,0.05000,106.1250,119,58,0.48596
1639110,0.08000,110.5625,119,58,0.47692
1639120,0.09500,113.8125,119,58,0.46740
1639130,0.11000,116.0625,119,58,0.45788
1639140,0.12000,118.1875,119,58,0.43883
1639150,0.12000,118.3750,119,58,0.42930
1639160,0.13000,118.2500,119,58,0.42027
1639170,0.14000,117.8750,119,58,0.41123
1639180,0.14000,116.6250,119,58,0.39365
1639190,0.14000,115.7500,119,58,0.38632
1639200,0.12500,114.7500,119,58,0.38022
1639210,0.09000,113.7500,119,58,0.37314
1639220,0.05000,111.5625,119,58,0.35726
1639230,0.01000,110.3750,119,58,0.34896
1639240,-0.02000,109.1875,119,58,0.34090
1639250,-0.04000,108.0000,119,58,0.33284
1639260,-0.05500,105.5000,119,58,0.31673
1639270,-0.06500,104.0625,119,58,0.30867
1639280,-0.06500,102.5000,119,58,0.30061
1639290,-0.06000,100.6250,119,58,0.29304
1639300,-0.05500,95.6250,119,58,0.28278
1639310,-0.04500,92.5625,119,58,0.27766
1639320,-0.04500,89.3125,119,58,0.27350
1639330,-0.03500,86.2500,119,58,0.27131
1639340,-0.01500,81.5625,119,58,0.27692
1639350,0.01500,80.0000,119,58,0.28571
1639360,0.04000,78.8125,119,58,0.29890
1639370,0.07000,77.9375,119,58,0.31648
1639380,0.11000,76.7500,119,58,0.36190
1639390,0.13000,76.3125,119,58,0.38510
1639400,0.11000,75.9375,119,58,0.40781
1639410,0.06500,75.5000,119,58,0.43370
1639420,0.00500,74.5625,119,58,0.48742
1639430,-0.05000,74.0000,119,58,0.51331
1639440,-0.09000,73.3750,119,58,0.53797
1639450,-0.10500,72.7500,119,58,0.56117
1639460,-0.10500,71.5000,119,58,0.60220
1639470,-0.10500,70.8750,119,58,0.61978
1639480,-0.10500,70.2500,119,58,0.63541
1639490,-0.10500,69.6875,119,58,0.64957
1639500,-0.10500,68.6250,119,58,0.66838
1639510,-0.09500,68.1875,119,58,0.67692
1639520,-0.11500,67.7500,119,58,0.68474
1639530,-0.10500,67.3125,119,58,0.69182
1639540,0.16500,66.4375,119,58,0.70183
1639550,0.72000,66.0000,119,58,0.70452
1639560,0.99500,65.5625,119,58,0.70574
1639570,0.53500,65.0625,119,58,0.70525
1639580,-0.14500,64.0000,119,58,0.69915
1639590,-0.46500,63.3750,119,58,0.69402
1639600,-0.42500,62.8125,119,58,0.68791
1639610,-0.28000,62.2500,119,58,0.68059
1639620,-0.20000,61.1250,119,58,0.66325
1639630,-0.18000,60.5625,119,58,0.65348
1639640,-0.18000,60.0625,119,58,0.64322
1639650,-0.17000,59.5000,119,58,0.63272
1639660,-0.16000,58.4375,119,58,0.61123
1639670,-0.15500,58.0000,119,58,0.60073
1639680,-0.14000,57.5000,119,58,0.59023
1639690,-0.13000,57.0625,119,58,0.57998
1639700,-0.12500,56.6875,119,58,0.56215
1639710,-0.12000,57.0000,119,58,0.55287
1639720,-0.10500,58.1875,119,58,0.54335
1639730,-0.09000,60.8750,119,58,0.53382
1639740,-0.06500,71.8125,119,58,0.51233
1639750,-0.03500,79.0625,119,58,0.50159
1639760,-0.01000,86.5000,119,58,0.49377
1639770,0.02000,93.5000,119,58,0.48523
1639780,0.04000,104.6875,119,58,0.46716
1639790,0.06000,108.6875,119,58,0.45934
1639800,0.07000,111.6250,119,58,0.45226
1639810,0.08000,113.5625,119,58,0.44420
1639820,0.08500,115.1250,119,58,0.42735
1639830,0.09000,115.1875,119,58,0.41880
1639840,0.09500,114.8750,119,58,0.41001
1639850,0.10000,113.4375,119,58,0.39292
1639860,0.10000,112.5000,119,58,0.38437
1639870,0.10500,111.5000,119,58,0.37607
1639880,0.09000,110.4375,119,58,0.36777
1639890,0.05500,109.3125,119,58,0.36142
1639900,0.01000,107.0000,119,58,0.34481
1639910,-0.02500,105.7500,119,58,0.33089
1639920,-0.06000,104.5000,119,58,0.31990
1639930,-0.07500,103.1875,119,58,0.31038
1639940,-0.08500,100.3750,119,58,0.29377
1639950,-0.08500,98.6875,119,58,0.28571
1639960,-0.07500,96.8125,119,58,0.27790
1639970,-0.06500,94.5625,119,58,0.27009
1639980,-0.05500,88.9375,119,58,0.25568
1639990,-0.04000,85.8750,119,58,0.25153
1640000,-0.03500,83.0000,118,57,0.24933
1640010,-0.03000,80.5625,118,57,0.24835
1640020,-0.02000,77.3125,118,57,0.25470
1640030,0.00000,76.4375,118,57,0.26374
1640040,0.02500,75.8125,118,57,0.27717
1640050,0.05000,75.3125,118,57,0.29475
1640060,0.08000,74.5625,118,57,0.34017
1640070,0.12000,74.1875,118,57,0.36630
1640080,0.13000,73.7500,118,57,0.39341
1640090,0.11000,73.3125,118,57,0.41758
1640100,0.05500,72.2500,118,57,0.46422
1640110,-0.00500,71.6875,118,57,0.48840
1640120,-0.06000,71.0625,118,57,0.51160
1640130,-0.09000,70.4375,118,57,0.53358
1640140,-0.10500,69.1875,118,57,0.57216
1640150,-0.10500,68.5625,118,57,0.58901
1640160,-0.11500,68.0000,118,57,0.60391
1640170,-0.11500,67.4375,118,57,0.61685
1640180,-0.12000,66.5000,118,57,0.63785
1640190,-0.12000,66.1250,118,57,0.64469
1640200,-0.12500,65.6875,118,57,0.64957
1640210,-0.14000,65.3125,118,57,0.65446
1640220,-0.08500,64.5625,118,57,0.66154
1640230,0.24500,64.1875,118,57,0.66300
1640240,0.80000,63.7500,118,57,0.66300
1640250,0.93500,63.3750,118,57,0.66129
1640260,0.36000,62.4375,118,57,0.65299
1640270,-0.24500,61.9375,118,57,0.64640
1640280,-0.47000,61.4375,118,57,0.63883
1640290,-0.41500,60.8750,118,57,0.63077
1640300,-0.27500,59.7500,118,57,0.61368
1640310,-0.21500,59.2500,118,57,0.60391
1640320,-0.21000,58.7500,118,57,0.59389
1640330,-0.20000,58.3125,118,57,0.58364
1640340,-0.18500,57.3125,118,57,0.56361
1640350,-0.17000,56.8125,118,57,0.55360
1640360,-0.16000,56.3750,118,57,0.54383
1640370,-0.14500,55.9375,118,57,0.53431
1640380,-0.13500,55.3750,118,57,0.51526
1640390,-0.12500,55.3750,118,57,0.50696
1640400,-0.12000,56.0000,118,57,0.49939
1640410,-0.10500,57.7500,118,57,0.49109
1640420,-0.08500,66.6875,118,57,0.47375
1640430,-0.05500,73.5625,118,57,0.46496
1640440,-0.03500,81.1875,118,57,0.45617
1640450,-0.00500,88.6250,118,57,0.44737
1640460,0.02000,101.3750,118,57,0.42955
1640470,0.05000,106.2500,118,57,0.42076
1640480,0.06000,110.1250,118,57,0.41197
1640490,0.07500,112.9375,118,57,0.40464
1640500,0.08500,116.0000,118,57,0.39048
1640510,0.09000,116.5625,118,57,0.38266
1640520,0.09000,116.6875,118,57,0.37460
1640530,0.09500,116.5000,118,57,0.36654
1640540,0.10000,115.3125,118,57,0.35092
1640550,0.10500,114.5000,118,57,0.34335
1640560,0.10000,113.5625,118,57,0.33578
1640570,0.07500,112.5000,118,57,0.32821
1640580,0.04000,110.1875,118,57,0.31306
1640590,0.00000,108.9375,118,57,0.30720
1640600,-0.03500,107.7500,118,57,0.30232
1640610,-0.06000,106.5000,118,57,0.29621
1640620,-0.07500,103.9375,118,57,0.28278
1640630,-0.08500,102.5625,118,57,0.27595
1640640,-0.09500,101.0625,118,57,0.26886
1640650,-0.08500,99.3125,118,57,0.26178
1640660,-0.08000,94.7500,118,57,0.24835
1640670,-0.07000,91.9375,118,57,0.24249
1640680,-0.06000,88.8125,118,57,0.23810
1640690,-0.05000,85.8125,118,57,0.23687
1640700,-0.04500,81.0000,118,57,0.24225
1640710,-0.04500,79.3750,118,57,0.24957
1640720,-0.03000,78.1250,118,57,0.26129
1640730,-0.00500,77.2500,118,57,0.27717
1640740,0.02000,76.0625,118,57,0.32015
1640750,0.04500,75.5625,118,57,0.34603
1640760,0.09000,75.1250,118,57,0.37387
1640770,0.11000,74.6250,118,57,0.41001
1640780,0.09500,73.5000,118,57,0.46642
1640790,0.05000,72.9375,118,57,0.48840
1640800,-0.00500,72.3750,118,57,0.50891
1640810,-0.06000,71.7500,118,57,0.53114
1640820,-0.09500,70.4375,118,57,0.57485
1640830,-0.11500,69.7500,118,57,0.59463
1640840,-0.12000,69.1250,118,57,0.61270
1640850,-0.12500,68.5625,118,57,0.62906
1640860,-0.13000,67.5000,118,57,0.65592
1640870,-0.13000,67.0625,118,57,0.66642
1640880,-0.12000,66.6250,118,57,0.67546
1640890,-0.11500,66.2500,118,57,0.68156
1640900,-0.12500,65.4375,118,57,0.68962
1640910,-0.10500,65.0000,118,57,0.69304
1640920,0.14500,64.6250,118,57,0.69524
1640930,0.70000,64.1875,118,57,0.69621
1640940,1.01000,63.3125,118,57,0.69353
1640950,0.54500,62.8125,118,57,0.68962
1640960,-0.13500,62.3125,118,57,0.68400
1640970,-0.45500,61.8125,118,57,0.67692
1640980,-0.45000,60.7500,118,57,0.65934
1640990,-0.31500,60.1875,118,57,0.65031
1641000,-0.22000,59.6875,118,57,0.64103
1641010,-0.21000,59.1875,118,57,0.63101
1641020,-0.20000,58.1875,118,57,0.61026
1641030,-0.19000,57.6875,118,57,0.59976
1641040,-0.17500,57.1875,118,57,0.58926
1641050,-0.17000,56.6875,118,57,0.57875
1641060,-0.15500,55.8125,118,57,0.55849
1641070,-0.15000,55.5625,118,57,0.54847
1641080,-0.14000,55.5625,118,57,0.53871
1641090,-0.13000,56.0625,118,57,0.52991
1641100,-0.11500,60.8750,118,57,0.51306
1641110,-0.09500,66.0000,118,57,0.50379
1641120,-0.07000,72.7500,118,57,0.49451
1641130,-0.04500,80.2500,118,57,0.48498
1641140,-0.01500,94.8125,118,57,0.46569
1641150,0.01000,100.9375,118,57,0.45617
1641160,0.03500,106.1250,118,57,0.44664
1641170,0.05500,110.1875,118,57,0.43736
1641180,0.07000,115.3750,118,57,0.41978
1641190,0.08000,116.7500,118,57,0.41270
1641200,0.09000,117.5625,118,57,0.40610
1641210,0.09000,117.8750,118,57,0.39878
1641220,0.08000,117.5000,118,57,0.38291
1641230,0.08000,116.9375,118,57,0.37485
1641240,0.08500,116.1875,118,57,0.36679
1641250,0.08000,114.2500,118,57,0.35873
1641260,0.07000,113.1875,118,57,0.34286
1641270,0.03000,112.0625,118,57,0.33504
1641280,-0.01000,110.8750,118,57,0.32723
1641290,-0.04500,109.7500,118,57,0.32088
1641300,-0.07000,107.3750,118,57,0.30916
1641310,-0.09000,106.1250,118,57,0.30232
1641320,-0.09500,104.8125,118,57,0.29499
1641330,-0.09500,103.4375,118,57,0.28767
1641340,-0.09500,99.9375,118,57,0.27302
1641350,-0.08500,97.6875,118,57,0.26618
1641360,-0.07500,95.0625,118,57,0.26007
1641370,-0.06500,92.0000,118,57,0.25519
1641380,-0.05500,85.6250,118,57,0.25397
1641390,-0.04500,82.8750,118,57,0.25617
1641400,-0.03500,80.6875,118,57,0.26252
1641410,-0.01500,79.0625,118,57,0.27302
1641420,0.01000,77.0625,118,57,0.30696
1641430,0.03000,76.3750,118,57,0.32943
1641440,0.06000,75.8750,118,57,0.35458
1641450,0.10000,75.3750,118,57,0.38193
1641460,0.12000,74.4375,118,57,0.43956
1641470,0.09000,73.9375,118,57,0.46838
1641480,0.04000,73.3750,118,57,0.49646
1641490,-0.02500,72.8125,118,57,0.52015
1641500,-0.07500,71.5000,118,57,0.56313
1641510,-0.10500,70.8125,118,57,0.58486
1641520,-0.11500,70.1875,118,57,0.60513
1641530,-0.11500,69.5625,118,57,0.62369
1641540,-0.11500,68.4375,118,57,0.65568
1641550,-0.12500,67.9375,118,57,0.66886
1641560,-0.13000,67.4375,118,57,0.68034
1641570,-0.13000,67.0625,118,57,0.69011
1641580,-0.13500,66.3125,118,57,0.70476
1641590,-0.15000,65.9375,118,57,0.70867
1641600,-0.12500,65.5000,118,57,0.71062
1641610,0.16000,65.0625,118,57,0.71233
1641620,0.71500,64.2500,118,57,0.71306
1641630,0.94000,63.8125,118,57,0.71136
1641640,0.46500,63.3125,118,57,0.70818
1641650,-0.18500,62.7500,118,57,0.70330
1641660,-0.48000,61.5625,118,57,0.68938
1641670,-0.45000,61.0625,118,57,0.68059
1641680,-0.31500,60.5000,118,57,0.67106
1641690,-0.24000,60.0000,118,57,0.66154
1641700,-0.22500,58.9375,118,57,0.64151
1641710,-0.21500,58.5000,118,57,0.63053
1641720,-0.20000,58.0000,118,57,0.61661
1641730,-0.18500,57.5000,118,57,0.60391
1641740,-0.17000,56.5000,118,57,0.58510
1641750,-0.16500,56.1250,118,57,0.57265
1641760,-0.16000,55.8750,118,57,0.56117
1641770,-0.16000,55.8125,118,57,0.55287
1641780,-0.15500,57.8750,118,57,0.53236
1641790,-0.14500,61.0625,118,57,0.51990
1641800,-0.12000,66.1875,118,57,0.51111
1641810,-0.09500,72.9375,118,57,0.50403
1641820,-0.05500,88.1875,118,57,0.48230
1641830,-0.02500,95.2500,118,57,0.47204
1641840,0.00500,101.5000,118,57,0.45958
1641850,0.03000,106.7500,118,57,0.44884
1641860,0.05000,114.0625,118,57,0.43272
1641870,0.06500,116.2500,118,57,0.42173
1641880,0.07000,117.7500,118,57,0.41319
1641890,0.07000,118.5625,118,57,0.40610
1641900,0.06500,118.8750,118,57,0.39023
1641910,0.06000,118.5625,118,57,0.38217
1641920,0.06500,118.0625,118,57,0.37411
1641930,0.07000,117.3750,118,57,0.36606
1641940,0.06000,115.6250,118,57,0.35556
1641950,0.04000,114.5625,118,57,0.35556
1641960,0.01500,113.4375,118,57,0.35140
1641970,-0.02000,112.3125,118,57,0.34725
1641980,-0.05000,110.0000,118,57,0.33602
1641990,-0.07500,108.8125,118,57,0.32845
1642000,-0.09000,107.6250,119,57,0.32063
1642010,-0.10000,106.3750,119,57,0.31282
1642020,-0.10500,103.5000,119,57,0.29670
1642030,-0.10000,101.6875,119,57,0.28889
1642040,-0.09500,99.5625,119,57,0.28181
1642050,-0.08500,97.0000,119,57,0.27595
1642060,-0.07500,90.8125,119,57,0.27155
1642070,-0.07500,87.5000,119,57,0.27473
1642080,-0.07500,84.4375,119,57,0.28107
1642090,-0.07500,81.8750,119,57,0.29084
1642100,-0.06500,78.4375,119,57,0.32479
1642110,-0.04000,77.4375,119,57,0.34774
1642120,-0.00500,76.7500,119,57,0.37387
1642130,0.01500,76.1875,119,57,0.40244
1642140,0.04500,75.3125,119,57,0.46300
1642150,0.08000,74.8750,119,57,0.49328
1642160,0.09000,74.4375,119,57,0.52283
1642170,0.07000,74.0000,119,57,0.55140
1642180,0.03500,72.9375,119,57,0.59560
1642190,-0.02000,72.3125,119,57,0.61709
1642200,-0.07500,71.6875,119,57,0.63785
1642210,-0.11500,71.0625,119,57,0.65739
1642220,-0.13500,69.8125,119,57,0.69109
1642230,-0.14500,69.2500,119,57,0.70525
1642240,-0.15500,68.7500,119,57,0.71746
1642250,-0.16000,68.2500,119,57,0.72796
1642260,-0.17000,67.2500,119,57,0.74432
1642270,-0.17000,66.7500,119,57,0.75018
1642280,-0.17000,66.3125,119,57,0.75336
1642290,-0.18000,65.8750,119,57,0.75482
1642300,-0.18500,64.9375,119,57,0.75604
1642310,0.02000,64.5000,119,57,0.75482
1642320,0.56500,64.0625,119,57,0.75214
1642330,1.01000,63.6250,119,57,0.74774
1642340,0.72000,62.6250,119,57,0.73407
1642350,-0.04500,62.1250,119,57,0.72527
1642360,-0.49000,61.6250,119,57,0.71526
1642370,-0.52000,61.0625,119,57,0.70452
1642380,-0.38000,60.0625,119,57,0.68352
1642390,-0.29000,59.5625,119,57,0.67204
1642400,-0.27000,59.0625,119,57,0.66056
1642410,-0.26000,58.5625,119,57,0.64884
1642420,-0.24500,57.6250,119,57,0.62540
1642430,-0.23500,57.1875,119,57,0.61392
1642440,-0.22000,56.7500,119,57,0.60244
1642450,-0.21000,56.3750,119,57,0.59121
1642460,-0.19500,55.8125,119,57,0.56899
1642470,-0.18000,55.8750,119,57,0.55824
1642480,-0.17000,56.5625,119,57,0.54896
1642490,-0.15500,58.5625,119,57,0.54042
1642500,-0.13500,68.3750,119,57,0.52137
1642510,-0.10500,75.8125,119,57,0.51160
1642520,-0.06500,83.8750,119,57,0.50159
1642530,-0.03500,91.7500,119,57,0.49158
1642540,-0.00500,105.0000,119,57,0.47179
1642550,0.02500,110.0000,119,57,0.46178
1642560,0.05000,113.8750,119,57,0.45177
1642570,0.07000,116.6875,119,57,0.44200
1642580,0.08000,119.7500,119,57,0.42711
1642590,0.08500,120.3750,119,57,0.41905
1642600,0.08500,120.5625,119,57,0.41050
1642610,0.08500,120.5000,119,57,0.40171
1642620,0.09000,119.6875,119,57,0.38462
1642630,0.08000,119.0625,119,57,0.37607
1642640,0.07500,118.2500,119,57,0.36777
1642650,0.05500,117.3750,119,57,0.35946
1642660,0.03000,115.4375,119,57,0.34310
1642670,0.00000,114.3125,119,57,0.33504
1642680,-0.03000,113.1875,119,57,0.32894
1642690,-0.05500,112.0000,119,57,0.32357
1642700,-0.07500,109.6250,119,57,0.30989
1642710,-0.09500,108.3750,119,57,0.30232
1642720,-0.10500,107.0000,119,57,0.29451
1642730,-0.11000,105.4375,119,57,0.28694
1642740,-0.10500,101.5625,119,57,0.27326
1642750,-0.09500,99.0000,119,57,0.26838
1642760,-0.08000,96.0625,119,57,0.26569
1642770,-0.07500,92.8125,119,57,0.26642
1642780,-0.06500,86.5000,119,57,0.27863
1642790,-0.05000,83.9375,119,57,0.29060
1642800,-0.02500,81.8750,119,57,0.30745
1642810,0.01000,80.3125,119,57,0.32869
1642820,0.05000,78.3125,119,57,0.38193
1642830,0.06000,77.7500,119,57,0.41221
1642840,0.09000,77.2500,119,57,0.44371
1642850,0.09000,76.7500,119,57,0.47546
1642860,0.06000,75.8750,119,57,0.53724
1642870,0.00500,75.3750,119,57,0.56630
1642880,-0.05500,74.8750,119,57,0.58999
1642890,-0.11000,74.3125,119,57,0.61050
1642900,-0.14500,73.1250,119,57,0.65250
1642910,-0.16000,72.5000,119,57,0.67204
1642920,-0.16500,71.8125,119,57,0.68962
1642930,-0.16000,71.1875,119,57,0.70549
1642940,-0.15500,70.0000,119,57,0.73211
1642950,-0.15500,69.5000,119,57,0.74310
1642960,-0.15000,68.9375,119,57,0.75238
1642970,-0.14500,68.4375,119,57,0.76020
1642980,-0.15500,67.4375,119,57,0.76801
1642990,-0.16000,66.9375,119,57,0.77070
1643000,0.03000,66.5000,119,57,0.77265
1643010,0.58000,66.0625,119,57,0.77338
1643020,1.08500,65.2500,119,57,0.76996
1643030,0.77500,64.7500,119,57,0.76557
1643040,-0.03500,64.2500,119,57,0.75922
1643050,-0.49500,63.7500,119,57,0.75140
1643060,-0.51000,62.6875,119,57,0.73187
1643070,-0.35500,62.1250,119,57,0.72088
1643080,-0.25000,61.6250,119,57,0.70989
1643090,-0.23000,61.0625,119,57,0.69915
1643100,-0.22000,59.9375,119,57,0.67643
1643110,-0.21500,59.4375,119,57,0.66496
1643120,-0.20500,58.9375,119,57,0.65372
1643130,-0.20000,58.4375,119,57,0.64249
1643140,-0.19000,57.6250,119,57,0.61978
1643150,-0.18000,57.3125,119,57,0.60855
1643160,-0.16500,57.3125,119,57,0.59707
1643170,-0.15500,57.7500,119,57,0.58584
1643180,-0.13000,62.5625,119,57,0.56606
1643190,-0.11000,67.8750,119,57,0.55580
1643200,-0.08500,74.8125,119,57,0.54530
1643210,-0.06500,82.6875,119,57,0.53480
1643220,-0.04000,97.9375,119,57,0.51380
1643230,-0.00500,104.3750,119,57,0.50330
1643240,0.03000,109.6875,119,57,0.49304
1643250,0.05500,113.8750,119,57,0.48278
1643260,0.08000,119.0625,119,57,0.46227
1643270,0.08500,120.3125,119,57,0.45226
1643280,0.09000,121.0000,119,57,0.44396
1643290,0.09000,121.1875,119,57,0.43663
1643300,0.09000,120.7500,119,57,0.41954
1643310,0.08500,120.2500,119,57,0.41050
1643320,0.09000,119.5625,119,57,0.40147
1643330,0.09000,118.7500,119,57,0.39267
1643340,0.07500,116.8125,119,57,0.37534
1643350,0.04000,115.6875,119,57,0.36679
1643360,-0.00500,114.5625,119,57,0.35824
1643370,-0.05000,113.4375,119,57,0.34969
1643380,-0.08000,111.0000,119,57,0.33748
1643390,-0.10000,109.7500,119,57,0.33065
1643400,-0.11500,108.3750,119,57,0.32308
1643410,-0.11500,107.0000,119,57,0.31526
1643420,-0.11500,103.6250,119,57,0.29939
1643430,-0.10500,101.5000,119,57,0.29206
1643440,-0.09500,98.9375,119,57,0.28596
1643450,-0.09000,95.9375,119,57,0.28181
1643460,-0.08000,89.3750,119,57,0.28352
1643470,-0.07500,86.3125,119,57,0.29084
1643480,-0.06000,83.6875,119,57,0.30110
1643490,-0.02500,81.6250,119,57,0.31453
1643500,0.01500,78.9375,119,57,0.35604
1643510,0.03500,78.1250,119,57,0.38242
1643520,0.06500,77.5625,119,57,0.41123
1643530,0.09000,77.0625,119,57,0.44151
1643540,0.10000,76.1875,119,57,0.50281
1643550,0.07000,75.7500,119,57,0.53260
1643560,0.02000,75.2500,119,57,0.56093
1643570,-0.04500,74.7500,119,57,0.58755
1643580,-0.09500,73.6250,119,57,0.62759
1643590,-0.12500,73.0000,119,57,0.64689
1643600,-0.13500,72.3125,119,57,0.66545
1643610,-0.13500,71.6875,119,57,0.68278
1643620,-0.13500,70.3750,119,57,0.71233
1643630,-0.13500,69.7500,119,57,0.72454
1643640,-0.12500,69.1875,119,57,0.73553
1643650,-0.12000,68.6250,119,57,0.74481
1643660,-0.11500,67.6250,119,57,0.75849
1643670,-0.13500,67.1250,119,57,0.76190
1643680,-0.10000,66.6250,119,57,0.76313
1643690,0.22500,66.1250,119,57,0.76410
1643700,0.83500,65.1875,119,57,0.76313
1643710,1.05500,64.7500,119,57,0.76020
1643720,0.48000,64.3125,119,57,0.75556
1643730,-0.24500,63.8125,119,57,0.74921
1643740,-0.52500,62.7500,119,57,0.73211
1643750,-0.42500,62.1875,119,57,0.72186
1643760,-0.26000,61.6250,119,57,0.71062
1643770,-0.21000,61.0625,119,57,0.69890
1643780,-0.20500,59.8750,119,57,0.67692
1643790,-0.20000,59.3125,119,57,0.66545
1643800,-0.18500,58.7500,119,57,0.65348
1643810,-0.17000,58.2500,119,57,0.64127
1643820,-0.15500,57.3750,119,57,0.61709
1643830,-0.14500,56.9375,119,57,0.60562
1643840,-0.13500,56.6250,119,57,0.59414
1643850,-0.13000,56.5625,119,57,0.58266
1643860,-0.11500,58.5000,119,57,0.56020
1643870,-0.10000,61.7500,119,57,0.55018
1643880,-0.07000,67.0000,119,57,0.54090
1643890,-0.04500,73.8750,119,57,0.53089
1643900,-0.02000,89.4375,119,57,0.51013
1643910,0.01000,96.6875,119,57,0.49963
1643920,0.04000,103.0000,119,57,0.48938
1643930,0.07000,108.1875,119,57,0.47912
1643940,0.09000,115.1875,119,57,0.45885
1643950,0.11000,117.1250,119,57,0.44908
1643960,0.12000,118.3125,119,57,0.43932
1643970,0.12000,118.9375,119,57,0.42955
1643980,0.12000,118.9375,119,57,0.41465
1643990,0.12000,118.5000,119,57,0.40244
1644000,0.12500,117.8750,118,57,0.38779
1644010,0.13000,117.1250,118,57,0.37607
1644020,0.12000,115.2500,118,57,0.35678
1644030,0.10000,114.1875,118,57,0.34799
1644040,0.06000,113.0625,118,57,0.33944
1644050,0.02000,111.9375,118,57,0.33114
1644060,-0.01500,109.5625,118,57,0.31429
1644070,-0.04000,108.3125,118,57,0.30794
1644080,-0.05500,107.0000,118,57,0.30232
1644090,-0.06500,105.6875,118,57,0.29524
1644100,-0.06500,102.5000,118,57,0.27985
1644110,-0.06500,100.5000,118,57,0.27204
1644120,-0.05500,98.1250,118,57,0.26496
1644130,-0.04500,95.3125,118,57,0.25885
1644140,-0.04000,89.0000,118,57,0.25324
1644150,-0.03500,85.9375,118,57,0.25543
1644160,-0.01500,83.3125,118,57,0.26178
1644170,0.01500,81.1875,118,57,0.27253
1644180,0.05500,78.3750,118,57,0.30159
1644190,0.08000,77.5000,118,57,0.32210
1644200,0.11000,76.8125,118,57,0.34652
1644210,0.14000,76.3125,118,57,0.37338
1644220,0.14000,75.3750,118,57,0.43126
1644230,0.12000,74.9375,118,57,0.46032
1644240,0.07000,74.5000,118,57,0.48864
1644250,0.01500,74.0000,118,57,0.51600
1644260,-0.03500,72.8750,118,57,0.56606
1644270,-0.06500,72.2500,118,57,0.58559
1644280,-0.08500,71.6250,118,57,0.60195
1644290,-0.09500,71.0000,118,57,0.61856
1644300,-0.10000,69.7500,118,57,0.64933
1644310,-0.11000,69.1875,118,57,0.66252
1644320,-0.11500,68.6250,118,57,0.67399
1644330,-0.12000,68.1250,118,57,0.68376
1644340,-0.12000,67.2500,118,57,0.69890
1644350,-0.13500,66.8125,118,57,0.70452
1644360,-0.10500,66.3125,118,57,0.70867
1644370,0.18500,65.8750,118,57,0.71111
1644380,0.76500,65.0000,118,57,0.71038
1644390,0.99000,64.5000,118,57,0.70818
1644400,0.47500,64.0625,118,57,0.70476
1644410,-0.19500,63.5000,118,57,0.69988
1644420,-0.48000,62.3750,118,57,0.68596
1644430,-0.41000,61.7500,118,57,0.67717
1644440,-0.26000,61.1875,118,57,0.66740
1644450,-0.19500,60.6250,118,57,0.65665
1644460,-0.18000,59.5625,118,57,0.63394
1644470,-0.17500,59.0000,118,57,0.62344
1644480,-0.16500,58.5000,118,57,0.61343
1644490,-0.15500,58.0000,118,57,0.60269
1644500,-0.14000,57.0000,118,57,0.58071
1644510,-0.13000,56.5625,118,57,0.56996
1644520,-0.11500,56.1875,118,57,0.55946
1644530,-0.10500,56.0000,118,57,0.54921
1644540,-0.09500,57.1250,118,57,0.52869
1644550,-0.08500,59.4375,118,57,0.51868
1644560,-0.06500,63.5625,118,57,0.50867
1644570,-0.04500,69.5000,118,57,0.49866
1644580,-0.02500,84.1875,118,57,0.48205
1644590,0.00000,91.3750,118,57,0.47302
1644600,0.02500,97.8125,118,57,0.46349
1644610,0.04500,103.1875,118,57,0.45397
1644620,0.07000,110.6875,118,57,0.43468
1644630,0.08500,112.8750,118,57,0.42515
1644640,0.10000,114.2500,118,57,0.41563
1644650,0.10500,114.9375,118,57,0.40659
1644660,0.11000,114.9375,118,57,0.38901
1644670,0.11000,114.3750,118,57,0.38217
1644680,0.12000,113.6250,118,57,0.37607
1644690,0.13000,112.7500,118,57,0.36899
1644700,0.13500,110.6250,118,57,0.35360
1644710,0.11000,109.4375,118,57,0.34554
1644720,0.07500,108.1875,118,57,0.33724
1644730,0.03000,106.8750,118,57,0.32894
1644740,-0.01000,104.3125,118,57,0.31233
1644750,-0.04000,103.0625,118,57,0.30403
1644760,-0.06000,101.6875,118,57,0.29597
1644770,-0.07500,100.3125,118,57,0.28791
1644780,-0.07000,96.8750,118,57,0.27692
1644790,-0.06500,94.6875,118,57,0.27082
1644800,-0.04500,92.0625,118,57,0.26422
1644810,-0.03500,89.0625,118,57,0.25788
1644820,-0.02000,82.8750,118,57,0.24957
1644830,-0.00500,80.3125,118,57,0.24957
1644840,0.02000,78.2500,118,57,0.25324
1644850,0.04500,76.7500,118,57,0.26129
1644860,0.07000,75.0625,118,57,0.29060
1644870,0.10000,74.5625,118,57,0.30842
1644880,0.14000,74.1875,118,57,0.32796
1644890,0.15000,73.8125,118,57,0.35140
1644900,0.13500,73.0000,118,57,0.40464
1644910,0.08500,72.5000,118,57,0.43248
1644920,0.02000,72.0625,118,57,0.45983
1644930,-0.03500,71.5000,118,57,0.48620
1644940,-0.07500,70.3750,118,57,0.53504
1644950,-0.09000,69.7500,118,57,0.55678
1644960,-0.09500,69.1250,118,57,0.57680
1644970,-0.09500,68.0000,118,57,0.59463
1644980,-0.10000,67.5000,118,57,0.61978
1644990,-0.10000,67.0000,118,57,0.63126
1645000,-0.10000,66.6250,118,57,0.64200
1645010,-0.10000,66.1875,118,57,0.65128
1645020,-0.11500,65.7708,118,57,0.65910
1645030,-0.09500,65.3750,118,57,0.66545
1645040,0.15500,65.0000,118,57,0.67033
1645050,0.70000,64.6250,118,57,0.67375
1645060,0.97000,63.7500,118,57,0.67595
1645070,0.53500,63.3125,118,57,0.67424
1645080,-0.12500,62.7500,118,57,0.67106
1645090,-0.45000,62.2500,118,57,0.66642
1645100,-0.42500,61.1875,118,57,0.65299
1645110,-0.28500,60.6875,118,57,0.64444
1645120,-0.20000,60.1250,118,57,0.63516
1645130,-0.18500,59.0625,118,57,0.62515
1645140,-0.18000,58.5625,118,57,0.60440
1645150,-0.17000,58.1250,118,57,0.59389
1645160,-0.16000,57.6250,118,57,0.58339
1645170,-0.15000,57.1250,118,57,0.57289
1645180,-0.14000,56.1875,118,57,0.55360
1645190,-0.13500,55.7500,118,57,0.54505
1645200,-0.12500,55.5000,118,57,0.53602
1645210,-0.11500,55.9375,118,57,0.52674
1645220,-0.09500,57.4375,118,57,0.50769
1645230,-0.08000,60.5625,118,57,0.49817
1645240,-0.05500,65.5625,118,57,0.48889
1645250,-0.02500,72.1875,118,57,0.47937
1645260,-0.00500,86.9375,118,57,0.46081
1645270,0.02000,93.8125,118,57,0.45153
1645280,0.04000,99.7500,118,57,0.44371
1645290,0.06000,104.6250,118,57,0.43663
1645300,0.07000,111.3750,118,57,0.42076
1645310,0.08000,113.3125,118,57,0.41270
1645320,0.08000,114.5000,118,57,0.40464
1645330,0.08000,115.0000,118,57,0.39658
1645340,0.09000,114.7500,118,57,0.38046
1645350,0.09500,114.1875,118,57,0.37216
1645360,0.10000,113.4375,118,57,0.36361
1645370,0.10000,112.5000,118,57,0.35531
1645380,0.08500,110.3125,118,57,0.34310
1645390,0.05500,109.1250,118,57,0.33651
1645400,0.01500,107.8750,118,57,0.32943
1645410,-0.02500,106.6250,118,57,0.32234
1645420,-0.05500,104.0000,118,57,0.30769
1645430,-0.07000,102.6875,118,57,0.30061
1645440,-0.08000,101.2500,118,57,0.29328
1645450,-0.07500,99.7500,118,57,0.28571
1645460,-0.07500,96.1875,118,57,0.27009
1645470,-0.06000,93.9375,118,57,0.26276
1645480,-0.05000,91.3750,118,57,0.25739
1645490,-0.03500,88.4375,118,57,0.25397
1645500,-0.02500,82.5625,118,57,0.24933
1645510,-0.02000,80.2500,118,57,0.25079
1645520,-0.00500,78.4375,118,57,0.25641
1645530,0.02000,77.0625,118,57,0.26642
1645540,0.05000,75.4375,118,57,0.29915
1645550,0.07000,74.9375,118,57,0.32137
1645560,0.10500,74.5000,118,57,0.34652
1645570,0.14000,74.0625,118,57,0.37387
1645580,0.13000,73.1250,118,57,0.42271
1645590,0.09000,72.6250,118,57,0.44884
1645600,0.03000,72.0625,118,57,0.47546
1645610,-0.03000,71.5000,118,57,0.50159
1645620,-0.07500,70.2500,118,57,0.55018
1645630,-0.10000,69.6250,118,57,0.57192
1645640,-0.11000,69.0000,118,57,0.59170
1645650,-0.11500,68.3750,118,57,0.60952
1645660,-0.12000,67.3125,118,57,0.63980
1645670,-0.12500,66.8125,118,57,0.65201
1645680,-0.12500,66.3125,118,57,0.66081
1645690,-0.12500,65.8125,118,57,0.66740
1645700,-0.13500,65.0625,118,57,0.68010
1645710,-0.13500,64.7500,118,57,0.68498
1645720,0.05000,64.3750,118,57,0.68840
1645730,0.54500,64.0000,118,57,0.69011
1645740,0.96000,63.1875,118,57,0.68913
1645750,0.69000,62.7500,118,57,0.68596
1645760,-0.01500,62.2500,118,57,0.68107
1645770,-0.43500,61.7500,118,57,0.67473
1645780,-0.49000,60.7500,118,57,0.65983
1645790,-0.36500,60.1875,118,57,0.65104
1645800,-0.26500,59.6875,118,57,0.64127
1645810,-0.24000,59.1250,118,57,0.63101
1645820,-0.23000,58.1250,118,57,0.61001
1645830,-0.22000,57.6250,118,57,0.59951
1645840,-0.20500,57.1875,118,57,0.58901
1645850,-0.19000,56.6875,118,57,0.57851
1645860,-0.18000,55.7500,118,57,0.55824
1645870,-0.17000,55.3750,118,57,0.54823
1645880,-0.16500,55.1250,118,57,0.53944
1645890,-0.15500,55.1250,118,57,0.53138
1645900,-0.13500,57.3750,118,57,0.51331
1645910,-0.11000,60.7500,118,57,0.50354
1645920,-0.09000,66.0625,118,57,0.49377
1645930,-0.06500,72.9375,118,57,0.48400
1645940,-0.04500,88.0000,118,57,0.46447
1645950,-0.01500,95.0000,118,57,0.45495
1645960,0.01000,101.0625,118,57,0.44542
1645970,0.03500,110.1875,118,57,0.43639
1645980,0.05500,113.1875,118,57,0.42198
1645990,0.07000,115.3125,118,57,0.41441
1646000,0.07500,116.6250,118,57,0.40659
1646010,0.07500,117.3125,118,57,0.39853
1646020,0.07000,117.5000,118,57,0.38193
1646030,0.07500,117.1875,118,57,0.37363
1646040,0.08000,116.5625,118,57,0.36557
1646050,0.08500,115.7500,118,57,0.36044
1646060,0.07000,113.8125,118,57,0.35043
1646070,0.04000,112.6250,118,57,0.34335
1646080,0.00000,111.4375,118,57,0.33773
1646090,-0.03500,110.1875,118,57,0.33260
1646100,-0.05500,107.6875,118,57,0.31868
1646110,-0.07000,106.4375,118,57,0.31111
1646120,-0.08000,105.1250,118,57,0.30354
1646130,-0.08000,103.8125,118,57,0.29573
1646140,-0.08500,100.6875,118,57,0.28010
1646150,-0.07500,98.6875,118,57,0.27228
1646160,-0.07000,96.3125,118,57,0.26520
1646170,-0.06500,93.5625,118,57,0.25958
1646180,-0.06000,87.2500,118,57,0.25714
1646190,-0.05000,84.2500,118,57,0.25958
1646200,-0.03500,81.6875,118,57,0.26593
1646210,0.00000,79.6875,118,57,0.27692
1646220,0.03000,77.1875,118,57,0.31380
1646230,0.05000,76.3750,118,57,0.33871
1646240,0.09000,75.8125,118,57,0.36679
1646250,0.12000,75.2500,118,57,0.39731
1646260,0.12000,74.3125,118,57,0.46129
1646270,0.09000,73.8125,118,57,0.49304
1646280,0.03500,73.2500,118,57,0.52039
1646290,-0.02500,72.6875,118,57,0.54481
1646300,-0.07500,71.5000,118,57,0.59609
1646310,-0.10500,70.8125,118,57,0.62051
1646320,-0.11500,70.1875,118,57,0.64322
1646330,-0.12500,69.5625,118,57,0.66374
1646340,-0.13000,68.3750,118,57,0.69866
1646350,-0.13500,67.8750,118,57,0.71306
1646360,-0.14500,67.3750,118,57,0.72576
1646370,-0.14500,66.9375,118,57,0.73651
1646380,-0.14500,66.0625,118,57,0.74847
1646390,-0.16000,65.6875,118,57,0.75336
1646400,-0.04000,65.3125,118,57,0.75751
1646410,0.36000,64.8750,118,57,0.76068
1646420,0.89000,64.0000,118,57,0.76264
1646430,0.86000,63.5625,118,57,0.76117
1646440,0.20000,63.0625,118,57,0.75775
1646450,-0.33500,62.5625,118,57,0.75263
1646460,-0.48500,61.5000,118,57,0.73724
1646470,-0.39000,61.0000,118,57,0.72747
1646480,-0.27000,60.4375,118,57,0.71746
1646490,-0.22000,59.9375,118,57,0.70696
1646500,-0.21000,58.8125,118,57,0.68376
1646510,-0.20000,58.3125,118,57,0.67179
1646520,-0.18500,57.8125,118,57,0.65958
1646530,-0.17000,57.2500,118,57,0.64762
1646540,-0.16000,56.2500,118,57,0.62369
1646550,-0.15500,55.8750,118,57,0.61197
1646560,-0.15000,55.5000,118,57,0.60049
1646570,-0.14000,55.4375,118,57,0.58901
1646580,-0.12500,57.0625,118,57,0.56923
1646590,-0.10500,59.8750,118,57,0.55849
1646600,-0.08000,64.6250,118,57,0.54750
1646610,-0.05500,71.0625,118,57,0.53651
1646620,-0.03000,86.1250,118,57,0.51477
1646630,-0.00500,93.3125,118,57,0.50403
1646640,0.02000,99.7500,118,57,0.49328
1646650,0.04000,105.2500,118,57,0.48254
1646660,0.06000,113.0000,118,57,0.46154
1646670,0.07000,115.4375,118,57,0.45153
1646680,0.07500,117.0625,118,57,0.44322
1646690,0.08000,118.0625,118,57,0.43590
1646700,0.08500,118.4375,118,57,0.41880
1646710,0.09000,118.1250,118,57,0.41001
1646720,0.09000,117.5625,118,57,0.40122
1646730,0.09000,116.8125,118,57,0.39243
1646740,0.08000,114.8750,118,57,0.37436
1646750,0.05000,113.7500,118,57,0.36557
1646760,0.01000,112.5625,118,57,0.35702
1646770,-0.03500,111.3750,118,57,0.34847
1646780,-0.06500,109.0000,118,57,0.33602
1646790,-0.09000,107.7500,118,57,0.32894
1646800,-0.11000,106.5625,118,57,0.32088
1646810,-0.11500,105.3125,118,57,0.31258
1646820,-0.11500,102.5000,118,57,0.29548
1646830,-0.10500,100.6875,118,57,0.28718
1646840,-0.08500,98.5000,118,57,0.27937
1646850,-0.07500,95.9375,118,57,0.27253
1646860,-0.07000,89.9375,118,57,0.26593
1646870,-0.07500,86.7500,118,57,0.26764
1646880,-0.06500,83.9375,118,57,0.27277
1646890,-0.03500,81.5625,118,57,0.28156
1646900,-0.00500,78.4375,118,57,0.31282
1646910,0.02000,77.4375,118,57,0.33504
1646920,0.05000,76.6250,118,57,0.36068
1646930,0.09000,76.0000,118,57,0.38926
1646940,0.10000,74.8750,118,57,0.45128
1646950,0.07000,74.3125,118,57,0.48303
1646960,0.01000,73.8125,118,57,0.51429
1646970,-0.04500,73.1875,118,57,0.54457
1646980,-0.10500,71.9375,118,57,0.59194
1646990,-0.12500,71.2500,118,57,0.61514
1647000,-0.14000,70.6250,119,57,0.63761
1647010,-0.14500,70.0625,119,57,0.65861
1647020,-0.15500,68.9375,119,57,0.69524
1647030,-0.16000,68.4375,119,57,0.71062
1647040,-0.16000,67.9375,119,57,0.72405
1647050,-0.15500,67.5000,119,57,0.73553
1647060,-0.15500,66.6875,119,57,0.75360
1647070,-0.16500,66.3125,119,57,0.75873
1647080,-0.09500,65.8750,119,57,0.76190
1647090,0.25500,65.5000,119,57,0.76459
1647100,0.83500,64.6250,119,57,0.76703
1647110,0.97000,64.1250,119,57,0.76606
1647120,0.35000,63.6250,119,57,0.76337
1647130,-0.29000,63.1250,119,57,0.75897
1647140,-0.50000,62.0625,119,57,0.74505
1647150,-0.42500,61.5000,119,57,0.73602
1647160,-0.29000,61.0000,119,57,0.72576
1647170,-0.24500,60.4375,119,57,0.71453
1647180,-0.24500,59.3750,119,57,0.69304
1647190,-0.23000,58.8750,119,57,0.68132
1647200,-0.21000,58.3750,119,57,0.66935
1647210,-0.19000,57.8750,119,57,0.65739
1647220,-0.17000,56.8750,119,57,0.63297
1647230,-0.16500,56.4375,119,57,0.62100
1647240,-0.16000,56.1250,119,57,0.60904
1647250,-0.16000,55.9375,119,57,0.59731
1647260,-0.15000,57.1250,119,57,0.57387
1647270,-0.13000,59.6250,119,57,0.56361
1647280,-0.10500,64.1875,119,57,0.55409
1647290,-0.08500,70.6250,119,57,0.54383
1647300,-0.06500,86.3750,119,57,0.52234
1647310,-0.03500,94.0000,119,57,0.51160
1647320,-0.01500,100.8125,119,57,0.50061
1647330,0.01000,106.5000,119,57,0.48987
1647340,0.03000,114.5625,119,57,0.46911
1647350,0.05000,117.0625,119,57,0.45885
1647360,0.06500,118.6875,119,57,0.44884
1647370,0.07000,119.6875,119,57,0.43907
1647380,0.07500,120.2500,119,57,0.42344
1647390,0.08000,120.0625,119,57,0.41490
1647400,0.08500,119.5625,119,57,0.40610
1647410,0.09000,118.9375,119,57,0.39707
1647420,0.08500,117.1875,119,57,0.37924
1647430,0.06000,116.1250,119,57,0.37045
1647440,0.01500,115.0000,119,57,0.36166
1647450,-0.02500,113.8125,119,57,0.35311
1647460,-0.06500,111.5000,119,57,0.33602
1647470,-0.09500,110.3125,119,57,0.32918
1647480,-0.12000,109.0625,119,57,0.32332
1647490,-0.13500,107.7500,119,57,0.31624
1647500,-0.14000,104.8125,119,57,0.30012
1647510,-0.14000,103.1250,119,57,0.29182
1647520,-0.14000,101.0625,119,57,0.28352
1647530,-0.12500,98.6250,119,57,0.27619
1647540,-0.12000,92.6250,119,57,0.26691
1647550,-0.11000,89.3750,119,57,0.26716
1647560,-0.10000,86.2500,119,57,0.27204
1647570,-0.08000,83.5625,119,57,0.28205
1647580,-0.05000,79.8125,119,57,0.31136
1647590,-0.01000,78.6250,119,57,0.33284
1647600,0.02000,77.7500,119,57,0.35849
1647610,0.05000,77.1250,119,57,0.38755
1647620,0.08000,76.0625,119,57,0.45104
1647630,0.09000,75.6250,119,57,0.48327
1647640,0.06500,75.1250,119,57,0.51502
1647650,0.02000,74.6250,119,57,0.54579
1647660,-0.04000,73.5625,119,57,0.61343
1647670,-0.09500,73.0000,119,57,0.63394
1647680,-0.13000,72.4375,119,57,0.66300
1647690,-0.14500,71.8125,119,57,0.68205
1647700,-0.15500,70.5000,119,57,0.71600
1647710,-0.15500,69.9375,119,57,0.73040
1647720,-0.16000,69.3750,119,57,0.74286
1647730,-0.16000,68.8125,119,57,0.75360
1647740,-0.16000,67.7500,119,57,0.76996
1647750,-0.16000,67.2500,119,57,0.77582
1647760,-0.17000,66.8125,119,57,0.77998
1647770,-0.18000,66.3750,119,57,0.78144
1647780,0.01000,65.5000,119,57,0.77973
1647790,0.55000,65.0625,119,57,0.77753
1647800,1.02000,64.6875,119,57,0.77387
1647810,0.74500,64.2500,119,57,0.76850
1647820,-0.19000,63.3750,119,57,0.75311
1647830,-0.52000,62.8750,119,57,0.74359
1647840,-0.52000,62.3125,119,57,0.73284
1647850,-0.36500,61.8125,119,57,0.72112
1647860,-0.27000,60.7500,119,57,0.69719
1647870,-0.25000,60.1875,119,57,0.68596
1647880,-0.24000,59.6875,119,57,0.67375
1647890,-0.23000,59.1875,119,57,0.66129
1647900,-0.21500,58.1875,119,57,0.63639
1647910,-0.20000,57.6875,119,57,0.62393
1647920,-0.19000,57.2500,119,57,0.61197
1647930,-0.19000,56.8125,119,57,0.60024
1647940,-0.19000,56.4375,119,57,0.57680
1647950,-0.17500,56.8125,119,57,0.56532
1647960,-0.15500,58.1875,119,57,0.55385
1647970,-0.13500,61.3125,119,57,0.54383
1647980,-0.11000,73.4375,119,57,0.52454
1647990,-0.08000,81.3750,119,57,0.51404
1648000,-0.05500,89.4375,118,57,0.50354
1648010,-0.02000,97.0000,118,57,0.49304
1648020,0.00500,109.1875,118,57,0.47179
1648030,0.03000,113.6250,118,57,0.46129
1648040,0.05000,116.9375,118,57,0.45079
1648050,0.06500,119.1875,118,57,0.44078
1648060,0.06500,121.4375,118,57,0.42271
1648070,0.06500,121.7500,118,57,0.41538
1648080,0.06500,121.7500,118,57,0.40708
1648090,0.07000,121.4375,118,57,0.39560
1648100,0.08000,120.3125,118,57,0.37241
1648110,0.08000,119.5000,118,57,0.36288
1648120,0.06000,118.6250,118,57,0.35409
1648130,0.03500,117.5625,118,57,0.34579
1648140,-0.00500,115.3125,118,57,0.32991
1648150,-0.03500,114.1250,118,57,0.32210
1648160,-0.06500,112.9375,118,57,0.31429
1648170,-0.08500,111.6875,118,57,0.30842
1648180,-0.09500,109.0625,118,57,0.29670
1648190,-0.10000,107.6875,118,57,0.28938
1648200,-0.10500,106.0625,118,57,0.28181
1648210,-0.10000,104.2500,118,57,0.27448
1648220,-0.09500,99.6875,118,57,0.26325
1648230,-0.08500,96.8125,118,57,0.26105
1648240,-0.08500,93.5625,118,57,0.26227
1648250,-0.07000,90.1875,118,57,0.26789
1648260,-0.04500,84.1875,118,57,0.29939
1648270,-0.00500,82.0000,118,57,0.31795
1648280,0.02000,80.3750,118,57,0.35385
1648290,0.04000,79.1875,118,57,0.38193
1648300,0.06500,77.6875,118,57,0.44298
1648310,0.08000,77.1875,118,57,0.47399
1648320,0.06500,76.8125,118,57,0.50452
1648330,0.03000,76.3750,118,57,0.53382
1648340,-0.03500,75.5625,118,57,0.58779
1648350,-0.10000,75.0625,118,57,0.61197
1648360,-0.15000,74.5000,118,57,0.63101
1648370,-0.17000,73.8750,118,57,0.64689
1648380,-0.18500,72.5625,118,57,0.67937
1648390,-0.18500,71.8750,118,57,0.69402
1648400,-0.19000,71.1875,118,57,0.70696
1648410,-0.19000,70.5625,118,57,0.71844
1648420,-0.19000,69.3750,118,57,0.73700
1648430,-0.19000,68.8125,118,57,0.74383
1648440,-0.18500,68.2500,118,57,0.74896
1648450,-0.21000,67.7500,118,57,0.75263
1648460,-0.11500,66.8125,118,57,0.75360
1648470,0.31500,66.3750,118,57,0.75238
1648480,0.93500,65.8750,118,57,0.75018
1648490,0.95000,65.4375,118,57,0.74652
1648500,0.17500,64.5000,118,57,0.73455
1648510,-0.46500,64.0000,118,57,0.72625
1648520,-0.56000,63.4375,118,57,0.71648
1648530,-0.42500,62.8750,118,57,0.70598
1648540,-0.29000,61.7500,118,57,0.68278
1648550,-0.25500,61.1875,118,57,0.67057
1648560,-0.24500,60.5625,118,57,0.65934
1648570,-0.23500,60.0000,118,57,0.64835
1648580,-0.22000,58.8750,118,57,0.62515
1648590,-0.21000,58.3750,118,57,0.61343
1648600,-0.19000,57.8750,118,57,0.60171
1648610,-0.17500,57.4375,118,57,0.59023
1648620,-0.16000,56.7500,118,57,0.56801
1648630,-0.14500,56.7500,118,57,0.55702
1648640,-0.13000,57.5000,118,57,0.54579
1648650,-0.11000,59.5625,118,57,0.53480
1648660,-0.08500,69.3750,118,57,0.51575
1648670,-0.05500,76.7500,118,57,0.50574
1648680,-0.02500,84.6875,118,57,0.49548
1648690,0.01000,92.5000,118,57,0.48523
1648700,0.03500,105.6875,118,57,0.46496
1648710,0.06000,110.6875,118,57,0.45495
1648720,0.08500,114.5625,118,57,0.44518
1648730,0.10500,117.3125,118,57,0.43565
1648740,0.11000,120.1875,118,57,0.41636
1648750,0.12000,120.6875,118,57,0.40684
1648760,0.12000,120.7500,118,57,0.39902
1648770,0.12000,120.5625,118,57,0.39219
1648780,0.12000,119.3750,118,57,0.37558
1648790,0.12000,118.5625,118,57,0.36679
1648800,0.11000,117.6250,118,57,0.35800
1648810,0.08000,116.5625,118,57,0.34921
1648820,0.02000,114.3125,118,57,0.33236
1648830,-0.00500,113.1250,118,57,0.32430
1648840,-0.04000,111.8750,118,57,0.31600
1648850,-0.06500,110.6250,118,57,0.30769
1648860,-0.08500,108.0625,118,57,0.29573
1648870,-0.09500,106.6875,118,57,0.28864
1648880,-0.10500,105.1250,118,57,0.28107
1648890,-0.10000,103.3750,118,57,0.27375
1648900,-0.09500,98.8125,118,57,0.26325
1648910,-0.08500,95.9375,118,57,0.26154
1648920,-0.08000,92.7500,118,57,0.26349
1648930,-0.07000,89.4375,118,57,0.26960
1648940,-0.04000,83.7500,118,57,0.29597
1648950,0.00000,81.6250,118,57,0.31331
1648960,0.03000,79.9375,118,57,0.33284
1648970,0.06500,78.6875,118,57,0.35702
1648980,0.10000,77.1250,118,57,0.41343
1648990,0.11500,76.5625,118,57,0.44347
1649000,0.09500,76.0625,118,57,0.47350
1649010,0.06000,75.6875,118,57,0.50281
1649020,0.01000,74.8125,118,57,0.55702
1649030,-0.04000,74.3125,118,57,0.58144
1649040,-0.07500,73.7500,118,57,0.60415
1649050,-0.09500,73.1875,118,57,0.62491
1649060,-0.10500,71.9375,118,57,0.65421
1649070,-0.10500,71.3125,118,57,0.66764
1649080,-0.10500,70.6875,118,57,0.68034
1649090,-0.10500,70.0625,118,57,0.69206
1649100,-0.10000,68.9375,118,57,0.71111
1649110,-0.09500,68.4375,118,57,0.71819
1649120,-0.10500,67.9375,118,57,0.72381
1649130,-0.11500,67.4375,118,57,0.72772
1649140,0.10000,66.4375,118,57,0.73138
1649150,0.63500,66.0000,118,57,0.73065
1649160,1.03000,65.5000,118,57,0.72821
1649170,0.68500,65.0625,118,57,0.72479
1649180,-0.06000,64.0000,118,57,0.71355
1649190,-0.45500,63.3750,118,57,0.70574
1649200,-0.45000,62.8125,118,57,0.69670
1649210,-0.30000,62.2500,118,57,0.68645
1649220,-0.21000,61.0625,118,57,0.66398
1649230,-0.19000,60.5000,118,57,0.65201
1649240,-0.18000,59.9375,118,57,0.64005
1649250,-0.17000,59.3750,118,57,0.62808
1649260,-0.16000,58.3125,118,57,0.60684
1649270,-0.14500,57.8125,118,57,0.59072
1649280,-0.13000,57.3125,118,57,0.57998
1649290,-0.12000,56.8750,118,57,0.56899
1649300,-0.11500,56.2500,118,57,0.54212
1649310,-0.10500,56.3125,118,57,0.53138
1649320,-0.10000,57.0625,118,57,0.52039
1649330,-0.08500,59.1250,118,57,0.50940
1649340,-0.06500,68.8125,118,57,0.48938
1649350,-0.03500,75.9375,118,57,0.48107
1649360,-0.00500,83.5000,118,57,0.47179
1649370,0.02000,90.8750,118,57,0.46203
1649380,0.05000,103.2500,118,57,0.44274
1649390,0.07000,107.8125,118,57,0.43321
1649400,0.09000,111.3125,118,57,0.42418
1649410,0.10000,113.7500,118,57,0.41490
1649420,0.11000,116.0000,118,57,0.39658
1649430,0.12000,116.1875,118,57,0.38755
1649440,0.13000,116.0000,118,57,0.37851
1649450,0.13000,115.5000,118,57,0.37118
1649460,0.13500,113.8750,118,57,0.35702
1649470,0.14000,112.7500,118,57,0.34896
1649480,0.13000,111.5625,118,57,0.34066
1649490,0.10000,110.3125,118,57,0.33236
1649500,0.06000,107.7500,118,57,0.31600
1649510,0.02000,106.4375,118,57,0.30794
1649520,-0.01500,105.1250,118,57,0.29988
1649530,-0.03000,103.8125,118,57,0.29158
1649540,-0.04000,101.0000,118,57,0.27692
1649550,-0.04500,99.3750,118,57,0.27155
1649560,-0.04000,97.5000,118,57,0.26520
1649570,-0.02500,95.3125,118,57,0.25934
1649580,-0.02000,89.8750,118,57,0.25348
1649590,-0.01000,86.7500,118,57,0.25519
1649600,0.00000,83.6875,118,57,0.26105
1649610,0.02500,81.0625,118,57,0.27131
1649620,0.05000,77.3750,118,57,0.30476
1649630,0.08000,76.2500,118,57,0.32723
1649640,0.11000,75.4375,118,57,0.35263
1649650,0.14500,74.8125,118,57,0.37656
1649660,0.16000,73.9375,118,57,0.42589
1649670,0.13500,73.5625,118,57,0.45299
1649680,0.08500,73.1875,118,57,0.49280
1649690,0.02000,72.3125,118,57,0.51795
1649700,-0.03500,71.8125,118,57,0.57387
1649710,-0.07500,71.2500,118,57,0.59292
1649720,-0.09500,70.6875,118,57,0.61026
1649730,-0.10500,70.0625,118,57,0.62540
1649740,-0.11000,68.8750,118,57,0.64567
1649750,-0.10500,68.3125,118,57,0.65446
1649760,-0.10500,67.8125,118,57,0.66227
1649770,-0.10500,67.3125,118,57,0.66911
1649780,-0.10000,66.3750,118,57,0.67839
1649790,-0.12000,65.9375,118,57,0.68083
1649800,-0.07500,65.5625,118,57,0.68181
1649810,0.25000,65.1250,118,57,0.68107
1649820,0.89500,64.2500,118,57,0.67448
1649830,0.95500,63.8125,118,57,0.66886
1649840,0.39000,63.3125,118,57,0.66203
1649850,-0.22500,62.8125,118,57,0.65446
1649860,-0.46500,61.7500,118,57,0.63590
1649870,-0.39500,61.1875,118,57,0.62540
1649880,-0.25500,60.6250,118,57,0.61441
1649890,-0.19500,60.0625,118,57,0.60317
1649900,-0.19000,59.0000,118,57,0.58095
1649910,-0.18000,58.5000,118,57,0.57021
1649920,-0.17000,57.9375,118,57,0.55946
1649930,-0.16000,57.4375,118,57,0.54872
1649940,-0.14500,56.4375,118,57,0.53089
1649950,-0.13500,56.0000,118,57,0.52161
1649960,-0.11500,55.6250,118,57,0.51209
1649970,-0.10500,55.3750,118,57,0.50256
1649980,-0.09500,56.0625,118,57,0.48400
1649990,-0.07500,58.0000,118,57,0.47473
1650000,-0.05000,61.7500,118,57,0.46545
1650010,-0.03500,67.3125,118,57,0.45592
1650020,-0.01000,81.7500,118,57,0.43736
1650030,0.01000,89.0625,118,57,0.42833
1650040,0.03000,95.6875,118,57,0.42076
1650050,0.04500,101.3750,118,57,0.41392
1650060,0.06000,109.5625,118,57,0.39780
1650070,0.07000,112.0625,118,57,0.38926
1650080,0.08500,113.6875,118,57,0.38071
1650090,0.09000,114.5625,118,57,0.37241
1650100,0.09500,114.6875,118,57,0.35580
1650110,0.09500,114.1875,118,57,0.34750
1650120,0.10500,113.4375,118,57,0.33919
1650130,0.11500,112.5625,118,57,0.33114
1650140,0.11500,110.3750,118,57,0.31990
1650150,0.09500,109.1875,118,57,0.31355
1650160,0.06000,107.8750,118,57,0.30672
1650170,0.02000,106.5625,118,57,0.29963
1650180,-0.01500,103.8750,118,57,0.28474
1650190,-0.04500,102.5000,118,57,0.27717
1650200,-0.06000,101.0625,118,57,0.26935
1650210,-0.07000,99.6250,118,57,0.26178
1650220,-0.06000,96.1875,118,57,0.24884
1650230,-0.05000,93.9375,118,57,0.24518
1650240,-0.04000,91.3750,118,57,0.24469
1650250,-0.03000,88.4375,118,57,0.24737
1650260,-0.02000,82.2500,118,57,0.26276
1650270,-0.01500,79.6250,118,57,0.27668
1650280,0.00000,77.6250,118,57,0.29475
1650290,0.01500,76.0625,118,57,0.31648
1650300,0.04000,74.2500,118,57,0.36777
1650310,0.06000,73.7500,118,57,0.39560
1650320,0.10000,73.3750,118,57,0.42393
1650330,0.13000,73.0625,118,57,0.45201
1650340,0.13500,72.3750,118,57,0.49768
1650350,0.10000,71.9375,118,57,0.52039
1650360,0.04500,71.5000,118,57,0.54261
1650370,-0.01500,70.9375,118,57,0.56361
1650380,-0.06500,69.8750,118,57,0.60073
1650390,-0.09500,69.2500,118,57,0.61636
1650400,-0.11000,68.6250,118,57,0.63004
1650410,-0.11500,68.0000,118,57,0.64225
1650420,-0.12000,66.9375,118,57,0.66105
1650430,-0.12500,66.3750,118,57,0.66789
1650440,-0.12500,65.9375,118,57,0.67204
1650450,-0.12000,65.5000,118,57,0.67424
1650460,-0.11500,64.6875,118,57,0.67643
1650470,-0.13500,64.3125,118,57,0.67570
1650480,-0.04500,63.9375,118,57,0.67350
1650490,0.35000,63.5625,118,57,0.66960
1650500,0.89000,62.7500,118,57,0.65763
1650510,0.76000,62.3125,118,57,0.64933
1650520,0.19000,61.8750,118,57,0.64005
1650530,-0.33500,61.3750,118,57,0.63028
1650540,-0.50000,60.3125,118,57,0.61123
1650550,-0.39500,59.7500,118,57,0.60122
1650560,-0.27000,59.2500,118,57,0.59072
1650570,-0.22000,58.6875,118,57,0.58022
1650580,-0.21000,57.7500,118,57,0.55946
1650590,-0.19500,57.2500,118,57,0.54945
1650600,-0.18000,56.6875,118,57,0.53968
1650610,-0.17000,56.1875,118,57,0.52991
1650620,-0.15500,55.3125,118,57,0.51062
1650630,-0.14500,54.9375,118,57,0.50110
1650640,-0.13500,54.6250,118,57,0.49280
1650650,-0.11500,54.5625,118,57,0.48498
1650660,-0.09500,56.5000,118,57,0.46740
1650670,-0.08000,59.5000,118,57,0.45836
1650680,-0.06500,64.5000,118,57,0.44957
1650690,-0.04000,71.1250,118,57,0.44078
1650700,-0.01000,86.1875,118,57,0.42344
1650710,0.01000,93.3125,118,57,0.41490
1650720,0.03000,99.5625,118,57,0.40635
1650730,0.04500,104.8750,118,57,0.39805
1650740,0.06000,112.2500,118,57,0.38535
1650750,0.06000,114.4375,118,57,0.37827
1650760,0.06500,115.8125,118,57,0.37070
1650770,0.07000,116.5625,118,57,0.36313
1650780,0.07500,116.5625,118,57,0.34750
1650790,0.08000,116.1250,118,57,0.33993
1650800,0.08000,115.4375,118,57,0.33236
1650810,0.09000,114.5625,118,57,0.32479
1650820,0.08000,112.3750,118,57,0.30989
1650830,0.06500,111.2500,118,57,0.30427
1650840,0.03000,110.0000,118,57,0.29963
1650850,-0.00500,108.6875,118,57,0.29353
1650860,-0.02500,106.0625,118,57,0.28010
1650870,-0.05000,104.7500,118,57,0.27302
1650880,-0.06500,103.4375,118,57,0.26593
1650890,-0.07500,102.0000,118,57,0.25910
1650900,-0.07500,98.7500,118,57,0.24884
1650910,-0.07500,96.6875,118,57,0.24689
1650920,-0.06500,94.1875,118,57,0.24811
1650930,-0.05500,91.3750,118,57,0.25299
1650940,-0.04500,85.2500,118,57,0.27277
1650950,-0.04500,82.5000,118,57,0.28913
1650960,-0.03500,80.2500,118,57,0.30965
1650970,-0.00500,78.4375,118,57,0.33382
1650980,0.03000,76.2500,118,57,0.38974
1650990,0.05000,75.5625,118,57,0.41978
1651000,0.08500,75.0000,118,57,0.44982
1651010,0.12000,74.5000,118,57,0.47912
1651020,0.11500,73.5000,118,57,0.53480
1651030,0.08000,73.0625,118,57,0.55702
1651040,0.03000,72.5000,118,57,0.57607
1651050,-0.03000,71.9375,118,57,0.59585
1651060,-0.08000,70.6875,118,57,0.63297
1651070,-0.11500,70.0000,118,57,0.64908
1651080,-0.12500,69.4375,118,57,0.66325
1651090,-0.13000,68.8125,118,57,0.67570
1651100,-0.13000,67.6250,118,57,0.69475
1651110,-0.13500,67.1250,118,57,0.70183
1651120,-0.13500,66.6875,118,57,0.70745
1651130,-0.13500,66.2500,118,57,0.71136
1651140,-0.13000,65.4375,118,57,0.71306
1651150,-0.14500,65.0625,118,57,0.71258
1651160,-0.03500,64.6250,118,57,0.71087
1651170,0.39500,64.2500,118,57,0.70769
1651180,0.92500,63.3750,118,57,0.69646
1651190,0.83500,62.8750,118,57,0.68889
1651200,0.16500,62.4375,118,57,0.67985
1651210,-0.34500,61.8750,118,57,0.67009
1651220,-0.49000,60.8125,118,57,0.64884
1651230,-0.39500,60.2500,118,57,0.63858
1651240,-0.27000,59.7500,118,57,0.62882
1651250,-0.24000,59.2500,118,57,0.61832
1651260,-0.23000,58.2500,118,57,0.59683
1651270,-0.22000,57.7500,118,57,0.58608
1651280,-0.20000,57.2500,118,57,0.57558
1651290,-0.18000,56.6875,118,57,0.56508
1651300,-0.17000,55.7500,118,57,0.54408
1651310,-0.16000,55.3750,118,57,0.53382
1651320,-0.15000,55.1250,118,57,0.52357
1651330,-0.14000,55.1875,118,57,0.51331
1651340,-0.12000,57.5000,118,57,0.49573
1651350,-0.09500,61.0000,118,57,0.48669
1651360,-0.07500,66.4375,118,57,0.47717
1651370,-0.05500,73.3125,118,57,0.46740
1651380,-0.03000,88.5000,118,57,0.44860
1651390,-0.01000,95.5000,118,57,0.43956
1651400,0.01000,101.6250,118,57,0.43077
1651410,0.03000,106.8125,118,57,0.42198
1651420,0.04000,113.8750,118,57,0.40464
1651430,0.05500,115.9375,118,57,0.39756
1651440,0.07000,117.2500,118,57,0.39121
1651450,0.07500,118.0000,118,57,0.38388
1651460,0.08000,118.1875,118,57,0.36825
1651470,0.08000,117.8125,118,57,0.36044
1651480,0.09000,117.1875,118,57,0.35238
1651490,0.09000,116.3750,118,57,0.34432
1651500,0.09000,114.4375,118,57,0.32869
1651510,0.07500,113.3125,118,57,0.32088
1651520,0.04500,112.1250,118,57,0.31306
1651530,-0.00500,110.8750,118,57,0.30525
1651540,-0.04500,108.3125,118,57,0.29426
1651550,-0.07000,107.0625,118,57,0.28791
1651560,-0.09000,105.7500,118,57,0.28083
1651570,-0.10000,104.3750,118,57,0.27375
1651580,-0.10000,101.1875,118,57,0.26325
1651590,-0.10000,99.1250,118,57,0.26129
1651600,-0.09000,96.7500,118,57,0.26276
1651610,-0.08500,93.8750,118,57,0.26813
1651620,-0.08500,87.3125,118,57,0.29280
1651630,-0.08000,84.0625,118,57,0.30916
1651640,-0.06000,81.2500,118,57,0.32796
1651650,-0.02500,79.0625,118,57,0.35116
1651660,0.00500,76.3750,118,57,0.40635
1651670,0.03000,75.5625,118,57,0.43614
1651680,0.07000,75.0000,118,57,0.46593
1651690,0.09500,74.5000,118,57,0.49524
1651700,0.09000,73.6250,118,57,0.55067
1651710,0.05500,73.2500,118,57,0.57582
1651720,0.00000,72.7500,118,57,0.59902
1651730,-0.05500,72.2500,118,57,0.62027
1651740,-0.10000,71.0625,118,57,0.65055
1651750,-0.12500,70.4375,118,57,0.66447
1651760,-0.13000,69.8125,118,57,0.67766
1651770,-0.12500,69.1875,118,57,0.68962
1651780,-0.12500,68.0625,118,57,0.70867
1651790,-0.12500,67.5625,118,57,0.71600
1651800,-0.12500,67.0625,118,57,0.72186
1651810,-0.12000,66.6875,118,57,0.72625
1651820,-0.13000,65.8750,118,57,0.73065
1651830,-0.13500,65.4375,118,57,0.73016
1651840,0.02000,65.0000,118,57,0.72772
1651850,0.50500,64.6250,118,57,0.72454
1651860,0.99500,63.6875,118,57,0.71404
1651870,0.77500,63.1875,118,57,0.70647
1651880,0.06500,62.6875,118,57,0.69744
1651890,-0.39500,62.1250,118,57,0.68718
1651900,-0.48500,61.0625,118,57,0.66447
1651910,-0.36500,60.5000,118,57,0.65250
1651920,-0.25000,60.0000,118,57,0.64054
1651930,-0.23000,59.4375,118,57,0.62857
1651940,-0.22000,58.3750,118,57,0.60781
1651950,-0.20500,57.8750,118,57,0.59707
1651960,-0.19000,57.3750,118,57,0.58608
1651970,-0.18000,56.8750,118,57,0.57485
1651980,-0.16500,56.0000,118,57,0.55263
1651990,-0.16000,55.6250,118,57,0.54188
1652000,-0.16000,55.3750,119,57,0.53138
1652010,-0.15500,56.2500,119,57,0.52112
1652020,-0.14000,58.3750,119,57,0.50085
1652030,-0.12000,62.4375,119,57,0.49206
1652040,-0.09500,68.5000,119,57,0.48400
1652050,-0.07000,75.8750,119,57,0.47497
1652060,-0.04500,91.3750,119,57,0.45592
1652070,-0.02000,98.3125,119,57,0.44615
1652080,0.01000,104.2500,119,57,0.43663
1652090,0.03000,113.0000,119,57,0.42735
1652100,0.04500,115.7500,119,57,0.40928
1652110,0.05500,117.6250,119,57,0.40049
1652120,0.06000,118.7500,119,57,0.39170
1652130,0.06000,119.3125,119,57,0.38291
1652140,0.06000,119.2500,119,57,0.36972
1652150,0.06500,118.8750,119,57,0.36264
1652160,0.07000,118.2500,119,57,0.35775
1652170,0.07000,117.5000,119,57,0.35385
1652180,0.06000,115.5000,119,57,0.34115
1652190,0.03000,114.3750,119,57,0.33358
1652200,-0.00500,113.1875,119,57,0.32576
1652210,-0.04500,111.9375,119,57,0.31770
1652220,-0.08000,109.3750,119,57,0.30110
1652230,-0.10500,108.1250,119,57,0.29475
1652240,-0.11500,106.7500,119,57,0.28962
1652250,-0.12000,105.3750,119,57,0.28352
1652260,-0.12000,102.0625,119,57,0.27350
1652270,-0.11500,100.0000,119,57,0.27179
1652280,-0.10500,97.5625,119,57,0.27375
1652290,-0.09500,94.7500,119,57,0.27985
1652300,-0.08500,88.3125,119,57,0.30598
1652310,-0.07500,85.1875,119,57,0.32601
1652320,-0.06000,82.5625,119,57,0.34994
1652330,-0.03500,80.4375,119,57,0.37705
1652340,0.00000,77.6875,119,57,0.42759
1652350,0.03000,76.8125,119,57,0.45592
1652360,0.05500,76.1250,119,57,0.48547
1652370,0.08500,75.5625,119,57,0.51477
1652380,0.10000,74.5625,119,57,0.57070
1652390,0.08000,74.0625,119,57,0.59634
1652400,0.04000,73.5625,119,57,0.62002
1652410,-0.02000,73.0625,119,57,0.64176
1652420,-0.09000,71.9375,119,57,0.67937
1652430,-0.13500,71.3750,119,57,0.69280
1652440,-0.15500,70.7500,119,57,0.70330
1652450,-0.16500,70.1875,119,57,0.71404
1652460,-0.17000,69.0000,119,57,0.73236
1652470,-0.17500,68.5000,119,57,0.73968
1652480,-0.17000,67.9375,119,57,0.74530
1652490,-0.17000,67.4375,119,57,0.74945
1652500,-0.16000,66.6250,119,57,0.75336
1652510,-0.16500,66.2500,119,57,0.75311
1652520,-0.19000,65.8125,119,57,0.75140
1652530,-0.03500,65.3750,119,57,0.74823
1652540,0.59500,64.5625,119,57,0.73675
1652550,1.00000,64.1250,119,57,0.72894
1652560,0.84500,63.6875,119,57,0.71990
1652570,0.06000,62.7500,119,57,0.70989
1652580,-0.47000,62.1875,119,57,0.68718
1652590,-0.54000,61.6875,119,57,0.67521
1652600,-0.39500,61.1875,119,57,0.66325
1652610,-0.28500,60.6250,119,57,0.65104
1652620,-0.25500,59.6250,119,57,0.62735
1652630,-0.24500,59.0625,119,57,0.61685
1652640,-0.23500,58.5625,119,57,0.60684
1652650,-0.22500,58.0625,119,57,0.59609
1652660,-0.21000,57.1250,119,57,0.57411
1652670,-0.19500,56.6875,119,57,0.56337
1652680,-0.18500,56.3125,119,57,0.55287
1652690,-0.18000,56.0000,119,57,0.54212
1652700,-0.17000,56.6875,119,57,0.52088
1652710,-0.16000,58.6250,119,57,0.51062
1652720,-0.14000,62.5000,119,57,0.50037
1652730,-0.11500,75.7500,119,57,0.49158
1652740,-0.08500,83.8125,119,57,0.47448
1652750,-0.06000,91.7500,119,57,0.46471
1652760,-0.02500,99.0000,119,57,0.45495
1652770,0.00500,105.3125,119,57,0.44518
1652780,0.03000,114.6250,119,57,0.42662
1652790,0.05000,117.5625,119,57,0.41758
1652800,0.06500,119.6250,119,57,0.40855
1652810,0.07000,120.8750,119,57,0.39976
1652820,0.07000,121.6250,119,57,0.38266
1652830,0.07000,121.5000,119,57,0.37582
1652840,0.07000,121.1250,119,57,0.36996
1652850,0.07000,120.5625,119,57,0.36288
1652860,0.07500,119.0000,119,57,0.34750
1652870,0.06500,118.0000,119,57,0.33968
1652880,0.04000,116.8750,119,57,0.33187
1652890,0.00000,115.7500,119,57,0.32381
1652900,-0.03500,113.4375,119,57,0.30818
1652910,-0.07500,112.1875,119,57,0.30037
1652920,-0.09500,110.9375,119,57,0.29255
1652930,-0.11000,109.6250,119,57,0.28669
1652940,-0.12000,106.6875,119,57,0.27692
1652950,-0.12000,105.0625,119,57,0.27277
1652960,-0.11500,103.1250,119,57,0.27082
1652970,-0.10500,100.8125,119,57,0.27204
1652980,-0.10000,95.0000,119,57,0.28742
1652990,-0.09500,91.6250,119,57,0.30232
1653000,-0.07500,88.3750,118,57,0.32186
1653010,-0.05500,85.3750,118,57,0.34554
1653020,-0.01500,81.1250,118,57,0.40244
1653030,0.01000,79.6875,118,57,0.42979
1653040,0.04000,78.6875,118,57,0.45568
1653050,0.07000,77.9375,118,57,0.48449
1653060,0.08500,76.8125,118,57,0.54335
1653070,0.07000,76.3750,118,57,0.57167
1653080,0.03000,76.0000,118,57,0.59829
1653090,-0.03500,75.5000,118,57,0.62320
1653100,-0.09500,74.5000,118,57,0.66691
1653110,-0.14000,73.8750,118,57,0.68547
1653120,-0.15500,73.2500,118,57,0.70183
1653130,-0.16000,72.6250,118,57,0.71404
1653140,-0.16500,71.3750,118,57,0.73309
1653150,-0.17000,70.7500,118,57,0.74237
1653160,-0.17000,70.1875,118,57,0.75043
1653170,-0.17000,69.0625,118,57,0.75751
1653180,-0.16500,68.5625,118,57,0.76679
1653190,-0.17000,68.1250,118,57,0.76923
1653200,-0.20000,67.6875,118,57,0.77021
1653210,-0.06500,67.1875,118,57,0.76948
1653220,0.42000,66.3750,118,57,0.76264
1653230,1.00000,65.9375,118,57,0.75653
1653240,0.90000,65.5000,118,57,0.74921
1653250,0.09000,65.0625,118,57,0.74042
1653260,-0.49500,64.0625,118,57,0.71941
1653270,-0.57000,63.5000,118,57,0.70794
1653280,-0.40500,62.9375,118,57,0.69621
1653290,-0.29000,62.3750,118,57,0.68425
1653300,-0.26000,61.2500,118,57,0.65983
1653310,-0.25000,60.7500,118,57,0.64786
1653320,-0.24000,60.1875,118,57,0.63590
1653330,-0.23000,59.6875,118,57,0.62515
1653340,-0.22000,58.6250,118,57,0.60440
1653350,-0.21500,58.1250,118,57,0.59316
1653360,-0.21000,57.7500,118,57,0.58193
1653370,-0.20500,57.3125,118,57,0.57070
1653380,-0.19000,57.8750,118,57,0.54799
1653390,-0.17000,59.7500,118,57,0.53675
1653400,-0.15000,63.4375,118,57,0.52576
1653410,-0.12000,69.1250,118,57,0.51502
1653420,-0.08500,84.4375,118,57,0.49426
1653430,-0.05500,92.4375,118,57,0.48547
1653440,-0.02500,99.7500,118,57,0.47766
1653450,0.00000,106.1250,118,57,0.46886
1653460,0.02500,115.4375,118,57,0.45031
1653470,0.04500,118.3750,118,57,0.44078
1653480,0.06000,120.3125,118,57,0.43150
1653490,0.07000,121.5000,118,57,0.42222
1653500,0.07500,122.1250,118,57,0.40415
1653510,0.08000,121.9375,118,57,0.39536
1653520,0.08500,121.5000,118,57,0.38657
1653530,0.09000,120.8750,118,57,0.37949
1653540,0.09000,119.3125,118,57,0.36581
1653550,0.08000,118.3125,118,57,0.35775
1653560,0.04000,117.2500,118,57,0.34945
1653570,0.01000,116.1250,118,57,0.34139
1653580,-0.02500,113.6250,118,57,0.32479
1653590,-0.05500,112.3750,118,57,0.31648
1653600,-0.07000,111.0625,118,57,0.30818
1653610,-0.08500,109.6875,118,57,0.30012
1653620,-0.09000,106.7500,118,57,0.28620
1653630,-0.09000,105.0625,118,57,0.28254
1653640,-0.07500,103.0000,118,57,0.28132
1653650,-0.06500,100.5625,118,57,0.28205
1653660,-0.05500,94.5625,118,57,0.29499
1653670,-0.05000,91.1250,118,57,0.30842
1653680,-0.03000,87.8750,118,57,0.32650
1653690,0.00500,84.9375,118,57,0.34872
1653700,0.04000,80.6875,118,57,0.40244
1653710,0.06500,79.2500,118,57,0.43248
1653720,0.09000,78.1875,118,57,0.46325
1653730,0.12000,77.5000,118,57,0.49011
1653740,0.13000,76.4375,118,57,0.54090
1653750,0.10500,76.0625,118,57,0.56752
1653760,0.06000,75.6250,118,57,0.59316
1653770,-0.00500,75.1875,118,57,0.61709
1653780,-0.06500,74.1875,118,57,0.65910
1653790,-0.09500,73.6250,118,57,0.67717
1653800,-0.11000,73.0625,118,57,0.69304
1653810,-0.11500,72.4375,118,57,0.70696
1653820,-0.11500,71.1875,118,57,0.72991
1653830,-0.11500,70.5000,118,57,0.73724
1653840,-0.11500,69.9375,118,57,0.74237
1653850,-0.11000,69.4375,118,57,0.74750
1653860,-0.10500,68.4375,118,57,0.75531
1653870,-0.12500,67.9375,118,57,0.75726
1653880,-0.11000,67.5000,118,57,0.75775
1653890,0.17500,67.0000,118,57,0.75653
1653900,0.77000,66.0625,118,57,0.74945
1653910,1.04000,65.6250,118,57,0.74335
1653920,0.53500,65.1250,118,57,0.73529
1653930,-0.20000,64.5625,118,57,0.72650
1653940,-0.51000,63.4375,118,57,0.70623
1653950,-0.43500,62.8750,118,57,0.69475
1653960,-0.27500,62.2500,118,57,0.68254
1653970,-0.21000,61.6250,118,57,0.66984
1653980,-0.20000,60.4375,118,57,0.64469
1653990,-0.19000,59.8750,118,57,0.63223
1654000,-0.18000,59.2500,118,57,0.62002
1654010,-0.17000,58.6875,118,57,0.60830
1654020,-0.15500,57.6875,118,57,0.58559
1654030,-0.13500,57.1875,118,57,0.57558
1654040,-0.12500,56.8125,118,57,0.56606
1654050,-0.11500,56.5000,118,57,0.55556
1654060,-0.10500,57.3125,118,57,0.53382
1654070,-0.09500,59.3750,118,57,0.52283
1654080,-0.07500,63.3125,118,57,0.51184
1654090,-0.05500,69.1875,118,57,0.50110
1654100,-0.02500,84.3125,118,57,0.47961
1654110,-0.00500,91.9375,118,57,0.46911
1654120,0.02000,98.8125,118,57,0.45910
1654130,0.05000,104.7500,118,57,0.45055
1654140,0.07000,113.1875,118,57,0.43394
1654150,0.08500,115.7500,118,57,0.42466
1654160,0.09500,117.3125,118,57,0.41538
1654170,0.10000,118.1875,118,57,0.40610
1654180,0.11000,118.3125,118,57,0.38803
1654190,0.11000,117.8750,118,57,0.37924
1654200,0.11500,117.1875,118,57,0.37045
1654210,0.12000,116.2500,118,57,0.35702
1654220,0.12500,114.1250,118,57,0.32918
1654230,0.11000,112.9375,118,57,0.32039
1654240,0.08000,111.6250,118,57,0.31355
1654250,0.04000,110.3125,118,57,0.30574
1654260,0.00500,107.6875,118,57,0.28913
1654270,-0.02500,106.3750,118,57,0.28059
1654280,-0.04500,105.0000,118,57,0.27228
1654290,-0.05500,103.5625,118,57,0.26422
1654300,-0.06000,100.1875,118,57,0.25055
1654310,-0.05500,98.0625,118,57,0.24591
1654320,-0.05000,95.5625,118,57,0.24420
1654330,-0.04500,92.7500,118,57,0.24567
1654340,-0.03500,86.5625,118,57,0.25958
1654350,-0.01500,83.7500,118,57,0.27253
1654360,0.02000,81.3750,118,57,0.29011
1654370,0.05000,79.5000,118,57,0.31136
1654380,0.07500,77.0625,118,57,0.36313
1654390,0.12000,76.3125,118,57,0.39170
1654400,0.15000,75.6875,118,57,0.42076
1654410,0.14500,75.1875,118,57,0.44957
1654420,0.11000,74.3750,118,57,0.50085
1654430,0.05000,73.9375,118,57,0.52161
1654440,-0.01500,73.4375,118,57,0.54335
1654450,-0.06500,72.3750,118,57,0.56459
1654460,-0.09000,71.8125,118,57,0.60269
1654470,-0.09500,71.1875,118,57,0.61929
1654480,-0.09500,70.6250,118,57,0.63394
1654490,-0.09500,70.0000,118,57,0.64664
1654500,-0.09500,68.8750,118,57,0.66642
1654510,-0.09500,68.3750,118,57,0.67399
1654520,-0.09500,67.8750,118,57,0.67985
1654530,-0.10500,67.4375,118,57,0.68303
1654540,-0.11500,66.5000,118,57,0.68571
1654550,0.07000,66.0625,118,57,0.68571
1654560,0.58500,65.5625,118,57,0.68425
1654570,1.02000,65.1250,118,57,0.68156
1654580,0.69500,64.1875,118,57,0.67155
1654590,-0.02500,63.6875,118,57,0.66422
1654600,-0.41500,63.1875,118,57,0.65543
1654610,-0.44000,62.0000,118,57,0.64591
1654620,-0.30000,61.3750,118,57,0.62515
1654630,-0.20000,60.7500,118,57,0.61514
1654640,-0.18000,60.1875,118,57,0.60440
1654650,-0.17000,59.6875,118,57,0.59316
1654660,-0.16000,58.6250,118,57,0.57045
1654670,-0.15000,58.1250,118,57,0.55922
1654680,-0.13500,57.6250,118,57,0.54823
1654690,-0.12000,57.1250,118,57,0.53748
1654700,-0.11500,56.3125,118,57,0.51624
1654710,-0.10500,56.0625,118,57,0.50598
1654720,-0.10000,56.2500,118,57,0.49597
1654730,-0.08500,57.1250,118,57,0.48718
1654740,-0.06500,63.4375,118,57,0.47057
1654750,-0.04500,69.3750,118,57,0.46154
1654760,-0.03000,76.5625,118,57,0.45226
1654770,-0.00500,84.1250,118,57,0.44298
1654780,0.01500,97.7500,118,57,0.42418
1654790,0.04000,103.2500,118,57,0.41490
1654800,0.05500,107.6875,118,57,0.40562
1654810,0.07000,111.0000,118,57,0.39658
1654820,0.07500,114.5625,118,57,0.38022
1654830,0.08000,115.1875,118,57,0.37387
1654840,0.08500,115.2500,118,57,0.36630
1654850,0.09000,114.9375,118,57,0.35824
1654860,0.10000,113.5000,118,57,0.34212
1654870,0.11000,112.5625,118,57,0.33382
1654880,0.12000,111.4375,118,57,0.32552
1654890,0.11500,110.2500,118,57,0.31746
1654900,0.08500,107.6875,118,57,0.30183
1654910,0.04500,106.3125,118,57,0.29402
1654920,0.00500,104.8750,118,57,0.28620
1654930,-0.02500,102.0625,118,57,0.28010
1654940,-0.04500,100.6250,118,57,0.26838
1654950,-0.05000,99.0000,118,57,0.26129
1654960,-0.04500,97.2500,118,57,0.25446
1654970,-0.03500,95.1250,118,57,0.24835
1654980,-0.03000,89.9375,118,57,0.24176
1654990,-0.02000,86.9375,118,57,0.24322
1655000,-0.01500,83.8750,118,57,0.24884
1655010,-0.00500,81.0625,118,57,0.25885
1655020,0.01000,77.1250,118,57,0.28987
1655030,0.04000,75.8750,118,57,0.30842
1655040,0.06500,75.0000,118,57,0.33138
1655050,0.09000,74.4375,118,57,0.35702
1655060,0.12000,73.5625,118,57,0.41270
1655070,0.15500,73.1875,118,57,0.44078
1655080,0.15500,72.8125,118,57,0.46789
1655090,0.12500,72.3750,118,57,0.49377
1655100,0.07000,71.4375,118,57,0.54090
1655110,0.01000,70.9375,118,57,0.56166
1655120,-0.04500,70.3125,118,57,0.58046
1655130,-0.07500,69.7500,118,57,0.59512
1655140,-0.09500,68.5625,118,57,0.61856
1655150,-0.10000,68.0000,118,57,0.62930
1655160,-0.11000,67.4375,118,57,0.63883
1655170,-0.11500,66.8750,118,57,0.64689
1655180,-0.12000,66.0000,118,57,0.65861
1655190,-0.11000,65.5625,118,57,0.66227
1655200,-0.11000,65.1875,118,57,0.66447
1655210,-0.12500,64.8125,118,57,0.66520
1655220,0.00500,64.0000,118,57,0.66105
1655230,0.43500,63.6250,118,57,0.65690
1655240,0.93500,63.2500,118,57,0.65128
1655250,0.82500,62.8125,118,57,0.64420
1655260,0.13500,61.8750,118,57,0.62662
1655270,-0.36500,61.4375,118,57,0.61636
1655280,-0.47000,60.8750,118,57,0.60586
1655290,-0.36000,60.3750,118,57,0.59512
1655300,-0.25000,59.3125,118,57,0.57338
1655310,-0.22000,58.7500,118,57,0.56264
1655320,-0.23000,58.2500,118,57,0.55214
1655330,-0.23500,57.6875,118,57,0.54286
1655340,-0.23000,56.7500,118,57,0.52503
1655350,-0.22000,56.2500,118,57,0.51526
1655360,-0.21000,55.8125,118,57,0.50549
1655370,-0.20500,55.3750,118,57,0.49573
1655380,-0.20000,55.0000,118,57,0.47668
1655390,-0.19000,55.3125,118,57,0.46716
1655400,-0.17000,56.6250,118,57,0.45763
1655410,-0.14500,59.5625,118,57,0.44835
1655420,-0.12500,70.9375,118,57,0.43126
1655430,-0.09000,78.5000,118,57,0.42393
1655440,-0.06500,86.1250,118,57,0.41563
1655450,-0.03500,93.2500,118,57,0.40708
1655460,-0.01500,105.0625,118,57,0.39023
1655470,0.01000,109.3750,118,57,0.38217
1655480,0.03000,112.6250,118,57,0.37411
1655490,0.05000,114.8750,118,57,0.36606
1655500,0.05500,117.0000,118,57,0.35018
1655510,0.06500,117.1875,118,57,0.34261
1655520,0.07000,117.0000,118,57,0.33504
1655530,0.07500,116.5000,118,57,0.32894
1655540,0.08000,114.8125,118,57,0.31746
1655550,0.09000,113.7500,118,57,0.31038
1655560,0.09000,112.6250,118,57,0.30305
1655570,0.06500,111.3750,118,57,0.29573
1655580,0.03000,108.6875,118,57,0.28107
1655590,-0.00500,107.3750,118,57,0.27375
1655600,-0.04000,106.0625,118,57,0.26642
1655610,-0.05500,104.7500,118,57,0.25910
1655620,-0.06500,102.0000,118,57,0.24640
1655630,-0.06500,100.4375,118,57,0.24249
1655640,-0.06000,98.5625,118,57,0.23810
1655650,-0.04500,96.3750,118,57,0.23492
1655660,-0.02500,90.7500,118,57,0.23761
1655670,-0.01500,87.4375,118,57,0.24493
1655680,-0.01000,84.0625,118,57,0.25690
1655690,0.00000,81.0625,118,57,0.27350
1655700,0.02500,76.9375,118,57,0.31819
1655710,0.06000,75.7500,118,57,0.34530
1655720,0.08500,74.9375,118,57,0.37436
1655730,0.10500,74.3750,118,57,0.40098
1655740,0.14000,73.7500,118,57,0.45372
1655750,0.15500,73.4375,118,57,0.48205
1655760,0.13500,73.1250,118,57,0.50965
1655770,0.09000,72.7500,118,57,0.53602
1655780,0.03500,71.8125,118,57,0.58339
1655790,-0.01500,71.2500,118,57,0.60391
1655800,-0.05500,70.6875,118,57,0.62247
1655810,-0.07500,70.0625,118,57,0.63883
1655820,-0.08500,68.8750,118,57,0.66374
1655830,-0.08500,68.3125,118,57,0.67179
1655840,-0.09000,67.7500,118,57,0.67961
1655850,-0.09500,67.2500,118,57,0.68669
1655860,-0.09500,66.4375,118,57,0.69719
1655870,-0.08500,66.0625,118,57,0.70037
1655880,-0.10500,65.6875,118,57,0.70183
1655890,-0.07500,65.2500,118,57,0.70183
1655900,0.19500,64.4375,118,57,0.69695
1655910,0.74500,64.0000,118,57,0.69182
1655920,0.98000,63.5625,118,57,0.68498
1655930,0.50000,62.6250,118,57,0.67692
1655940,-0.16000,62.0625,118,57,0.65812
1655950,-0.46500,61.5625,118,57,0.64713
1655960,-0.43500,61.0000,118,57,0.63565
1655970,-0.29000,60.4375,118,57,0.62393
1655980,-0.21500,59.3750,118,57,0.60000
1655990,-0.20000,58.8125,118,57,0.58828
1656000,-0.19000,58.2500,118,57,0.57705
1656010,-0.17000,57.7500,118,57,0.56630
1656020,-0.16000,56.7500,118,57,0.54652
1656030,-0.14500,56.3125,118,57,0.53797
1656040,-0.13000,55.8750,118,57,0.52869
1656050,-0.11500,55.5000,118,57,0.51893
1656060,-0.11500,55.5000,118,57,0.49939
1656070,-0.11000,56.5625,118,57,0.48962
1656080,-0.09500,59.0625,118,57,0.47985
1656090,-0.07000,69.7500,118,57,0.46032
1656100,-0.04500,77.1875,118,57,0.45055
1656110,-0.02000,84.8750,118,57,0.44078
1656120,0.00000,92.3125,118,57,0.43126
1656130,0.03000,98.9375,118,57,0.42320
1656140,0.05000,109.3750,118,57,0.40806
1656150,0.07000,113.0000,118,57,0.40000
1656160,0.08000,115.6250,118,57,0.39194
1656170,0.09000,117.3750,118,57,0.38388
1656180,0.09500,118.8125,118,57,0.36801
1656190,0.09500,118.8125,118,57,0.36020
1656200,0.09000,118.5000,118,57,0.35214
1656210,0.09000,117.9375,118,57,0.34408
1656220,0.09500,116.1875,118,57,0.33016
1656230,0.10000,115.1875,118,57,0.32479
1656240,0.08000,114.0000,118,57,0.31819
1656250,0.05000,112.8125,118,57,0.31111
1656260,0.01000,110.3125,118,57,0.30940
1656270,-0.02500,109.0625,118,57,0.30525
1656280,-0.05500,107.8125,118,57,0.29915
1656290,-0.07500,106.5000,118,57,0.29206
1656300,-0.08000,103.6250,118,57,0.27741
1656310,-0.07500,101.9375,118,57,0.27155
1656320,-0.06500,100.0625,118,57,0.26862
1656330,-0.05500,97.7500,118,57,0.26886
1656340,-0.05500,92.0000,118,57,0.27741
1656350,-0.04500,88.8125,118,57,0.28791
1656360,-0.03500,85.7500,118,57,0.30330
1656370,-0.01500,83.1250,118,57,0.32332
1656380,0.01500,79.3125,118,57,0.37509
1656390,0.04000,78.1250,118,57,0.40537
1656400,0.06500,77.2500,118,57,0.43712
1656410,0.10000,76.5625,118,57,0.46960
1656420,0.12000,75.5000,118,57,0.52943
1656430,0.10500,75.0000,118,57,0.55409
1656440,0.06000,74.5000,118,57,0.58022
1656450,0.01000,73.9375,118,57,0.60586
1656460,-0.04000,72.8125,118,57,0.65299
1656470,-0.08500,72.1875,118,57,0.67375
1656480,-0.11000,71.5625,118,57,0.69255
1656490,-0.11500,70.9375,118,57,0.70916
1656500,-0.12500,69.6875,118,57,0.73602
1656510,-0.12500,69.1250,118,57,0.74676
1656520,-0.12500,68.6250,118,57,0.75385
1656530,-0.12500,68.1250,118,57,0.75849
1656540,-0.12500,67.3750,118,57,0.76703
1656550,-0.13000,66.9375,118,57,0.76972
1656560,-0.13500,66.5000,118,57,0.77070
1656570,0.04500,66.0625,118,57,0.77021
1656580,0.54000,65.1875,118,57,0.76361
1656590,0.97500,64.6875,118,57,0.75775
1656600,0.69000,64.1875,118,57,0.75018
1656610,-0.01500,63.6250,118,57,0.74139
1656620,-0.43500,62.5625,118,57,0.72112
1656630,-0.49000,62.0000,118,57,0.71062
1656640,-0.36500,61.4375,118,57,0.69915
1656650,-0.26000,60.8750,118,57,0.68718
1656660,-0.24500,59.8125,118,57,0.66252
1656670,-0.23500,59.3125,118,57,0.65031
1656680,-0.22000,58.8125,118,57,0.63785
1656690,-0.20500,58.3125,118,57,0.62564
1656700,-0.19000,57.2500,118,57,0.60195
1656710,-0.17000,56.8125,118,57,0.59023
1656720,-0.16500,56.4375,118,57,0.57998
1656730,-0.15500,56.2500,118,57,0.57045
1656740,-0.15000,57.4375,118,57,0.54969
1656750,-0.13500,59.8750,118,57,0.53919
1656760,-0.12000,64.1875,118,57,0.52894
1656770,-0.09500,70.5000,118,57,0.51868
1656780,-0.07500,85.9375,118,57,0.49768
1656790,-0.04500,93.5000,118,57,0.48718
1656800,-0.02000,100.3125,118,57,0.47692
1656810,0.00000,106.1250,118,57,0.46691
1656820,0.03000,114.6250,118,57,0.44835
1656830,0.04000,117.2500,118,57,0.44103
1656840,0.05000,119.0000,118,57,0.43248
1656850,0.05500,120.0000,118,57,0.42344
1656860,0.06000,120.5625,118,57,0.40488
1656870,0.06000,120.3125,118,57,0.39585
1656880,0.06500,119.8125,118,57,0.38706
1656890,0.06500,119.1250,118,57,0.37827
1656900,0.06500,117.3125,118,57,0.36117
1656910,0.05500,116.2500,118,57,0.35263
1656920,0.03000,115.1250,118,57,0.34579
1656930,-0.01000,112.7500,118,57,0.33993
1656940,-0.04500,111.5000,118,57,0.32552
1656950,-0.07500,110.2500,118,57,0.31746
1656960,-0.09500,109.0000,118,57,0.30916
1656970,-0.10500,107.6250,118,57,0.30085
1656980,-0.11500,104.6250,118,57,0.28596
1656990,-0.11500,102.7500,118,57,0.28083
1657000,-0.10000,100.5625,119,57,0.27888
1657010,-0.08500,97.9375,119,57,0.28059
1657020,-0.07500,91.6250,119,57,0.29670
1657030,-0.06500,88.3750,119,57,0.31013
1657040,-0.05500,85.4375,119,57,0.32869
1657050,-0.02500,83.0000,119,57,0.35214
1657060,0.01000,79.6250,119,57,0.40904
1657070,0.04500,78.5625,119,57,0.44054
1657080,0.07000,77.7500,119,57,0.47277
1657090,0.09000,77.1875,119,57,0.50501
1657100,0.09000,76.1875,119,57,0.56679
1657110,0.08000,75.6875,119,57,0.59560
1657120,0.05000,75.2500,119,57,0.61880
1657130,-0.00500,74.6875,119,57,0.63858
1657140,-0.06500,73.5000,119,57,0.67888
1657150,-0.11000,72.8750,119,57,0.69719
1657160,-0.13500,72.2500,119,57,0.71380
1657170,-0.14500,71.6250,119,57,0.72845
1657180,-0.15000,70.4375,119,57,0.75263
1657190,-0.15500,69.8750,119,57,0.76215
1657200,-0.15500,69.3750,119,57,0.76996
1657210,-0.15500,68.4375,119,57,0.77607
1657220,-0.15000,68.0625,119,57,0.78217
1657230,-0.15500,67.6250,119,57,0.78193
1657240,-0.17000,67.1875,119,57,0.78095
1657250,-0.00500,66.7500,119,57,0.77875
1657260,0.50000,65.7500,119,57,0.76948
1657270,1.01000,65.3125,119,57,0.76239
1657280,0.76500,64.8125,119,57,0.75409
1657290,0.00000,64.3125,119,57,0.74457
1657300,-0.46500,63.2500,119,57,0.72234
1657310,-0.52000,62.7500,119,57,0.71038
1657320,-0.37500,62.1875,119,57,0.69915
1657330,-0.27000,61.6250,119,57,0.68791
1657340,-0.25000,60.5625,119,57,0.66374
1657350,-0.23500,60.0000,119,57,0.65128
1657360,-0.22000,59.5000,119,57,0.63883
1657370,-0.21000,59.0000,119,57,0.62637
1657380,-0.19500,58.0000,119,57,0.60220
1657390,-0.18500,57.5625,119,57,0.59048
1657400,-0.18000,57.1875,119,57,0.57875
1657410,-0.18000,57.0000,119,57,0.56728
1657420,-0.17000,58.3125,119,57,0.54579
1657430,-0.15500,61.0000,119,57,0.53651
1657440,-0.13500,65.7500,119,57,0.52650
1657450,-0.11500,72.3750,119,57,0.51648
1657460,-0.08500,88.3750,119,57,0.49621
1657470,-0.05500,96.1250,119,57,0.48620
1657480,-0.02500,103.0625,119,57,0.47619
1657490,0.01000,109.0000,119,57,0.46618
1657500,0.03000,117.5625,119,57,0.44591
1657510,0.05500,120.1875,119,57,0.43639
1657520,0.07000,121.8750,119,57,0.42833
1657530,0.07500,122.8125,119,57,0.42100
1657540,0.08000,123.3125,119,57,0.40391
1657550,0.08000,123.0625,119,57,0.39512
1657560,0.07500,122.5625,119,57,0.38608
1657570,0.08000,121.9375,119,57,0.37705
1657580,0.08000,120.2500,119,57,0.35971
1657590,0.06500,119.2500,119,57,0.35092
1657600,0.03500,118.1250,119,57,0.34237
1657610,0.00000,116.9375,119,57,0.33407
1657620,-0.04000,114.5000,119,57,0.31941
1657630,-0.06500,113.3125,119,57,0.31380
1657640,-0.08500,112.0625,119,57,0.30647
1657650,-0.10000,110.8125,119,57,0.29890
1657660,-0.11000,107.8750,119,57,0.28523
1657670,-0.10500,106.1250,119,57,0.28059
1657680,-0.10500,104.0000,119,57,0.27888
1657690,-0.09500,101.4375,119,57,0.28107
1657700,-0.09000,95.1875,119,57,0.29939
1657710,-0.07500,91.7500,119,57,0.31624
1657720,-0.05500,88.5625,119,57,0.33480
1657730,-0.02000,85.8750,119,57,0.35580
1657740,0.01500,82.0000,119,57,0.41172
1657750,0.04500,80.7500,119,57,0.44371
1657760,0.06000,79.8750,119,57,0.47643
1657770,0.06500,79.1875,119,57,0.50940
1657780,0.06000,78.1250,119,57,0.57265
1657790,0.04500,77.6875,119,57,0.60195
1657800,0.00000,77.1875,119,57,0.62930
1657810,-0.06500,76.6875,119,57,0.65470
1657820,-0.11500,75.5625,119,57,0.69597
1657830,-0.14500,75.0000,119,57,0.71062
1657840,-0.16000,74.3125,119,57,0.72576
1657850,-0.17000,73.6875,119,57,0.74017
1657860,-0.17000,72.5000,119,57,0.76532
1657870,-0.16500,71.9375,119,57,0.77534
1657880,-0.16500,71.3750,119,57,0.78364
1657890,-0.16000,70.8750,119,57,0.79048
1657900,-0.16000,69.8750,119,57,0.79927
1657910,-0.19000,69.3750,119,57,0.80147
1657920,-0.11500,68.8750,119,57,0.80098
1657930,0.28500,68.3750,119,57,0.79878
1657940,0.91000,67.4375,119,57,0.79121
1657950,0.99000,66.9375,119,57,0.78510
1657960,0.25000,66.4375,119,57,0.77729
1657970,-0.41500,65.9375,119,57,0.76801
1657980,-0.56500,64.8125,119,57,0.74554
1657990,-0.43500,64.3125,119,57,0.73309
1658000,-0.30500,63.7500,118,57,0.72015
1658010,-0.26500,63.1250,118,57,0.70696
1658020,-0.26000,62.0000,118,57,0.68205
1658030,-0.24500,61.4375,118,57,0.67057
1658040,-0.23500,60.9375,118,57,0.65861
1658050,-0.22000,60.3750,118,57,0.64664
1658060,-0.21000,59.4375,118,57,0.62320
1658070,-0.20000,59.0625,118,57,0.61148
1658080,-0.19500,58.7500,118,57,0.59976
1658090,-0.18500,58.8750,118,57,0.58803
1658100,-0.17000,62.2500,118,57,0.56459
1658110,-0.15000,66.6250,118,57,0.55287
1658120,-0.13000,73.0625,118,57,0.54261
1658130,-0.11000,80.8125,118,57,0.53333
1658140,-0.08000,97.0000,118,57,0.51331
1658150,-0.04000,104.1875,118,57,0.50305
1658160,-0.01000,110.3125,118,57,0.49255
1658170,0.01500,115.3125,118,57,0.48205
1658180,0.04000,121.7500,118,57,0.46129
1658190,0.05500,123.5000,118,57,0.45128
1658200,0.06000,124.4375,118,57,0.44151
1658210,0.07000,124.8125,118,57,0.43199
1658220,0.07000,124.5625,118,57,0.41734
1658230,0.07000,124.0625,118,57,0.40928
1658240,0.07000,123.3750,118,57,0.40049
1658250,0.07500,122.5625,118,57,0.39145
1658260,0.07000,120.5625,118,57,0.37314
1658270,0.04500,119.5000,118,57,0.36386
1658280,0.01000,118.3750,118,57,0.35482
1658290,-0.02500,117.2500,118,57,0.34628
1658300,-0.06000,114.8750,118,57,0.32454
1658310,-0.08500,113.6250,118,57,0.30940
1658320,-0.10500,112.2500,118,57,0.29988
1658330,-0.11500,110.8125,118,57,0.29328
1658340,-0.11500,107.2500,118,57,0.28181
1658350,-0.10500,105.0000,118,57,0.27888
1658360,-0.10000,102.2500,118,57,0.27888
1658370,-0.09500,99.1250,118,57,0.28303
1658380,-0.08500,92.1250,118,57,0.30501
1658390,-0.07500,88.8125,118,57,0.32308
1658400,-0.05000,86.0000,118,57,0.34554
1658410,-0.01000,83.7500,118,57,0.37118
1658420,0.02500,80.8125,118,57,0.41954
1658430,0.04500,80.0000,118,57,0.44713
1658440,0.06000,79.3750,118,57,0.47595
1658450,0.06000,78.8750,118,57,0.50476
1658460,0.05500,78.1250,118,57,0.55922
1658470,0.02000,77.7500,118,57,0.58437
1658480,-0.02500,77.3125,118,57,0.60757
1658490,-0.08000,76.8125,118,57,0.62882
1658500,-0.11500,75.6875,118,57,0.66520
1658510,-0.13000,75.0625,118,57,0.68083
1658520,-0.13500,74.3750,118,57,0.69231
1658530,-0.14000,73.6875,118,57,0.70110
1658540,-0.14500,72.4375,118,57,0.71844
1658550,-0.14500,71.8125,118,57,0.72576
1658560,-0.13500,71.3125,118,57,0.73162
1658570,-0.13500,70.7500,118,57,0.73578
1658580,-0.15500,69.6875,118,57,0.74042
1658590,-0.13500,69.1250,118,57,0.74066
1658600,0.14000,68.5625,118,57,0.73919
1658610,0.75500,68.0625,118,57,0.73602
1658620,1.09500,67.0625,118,57,0.72503
1658630,0.55500,66.5625,118,57,0.71746
1658640,-0.22000,66.0625,118,57,0.70867
1658650,-0.52000,65.5000,118,57,0.69866
1658660,-0.43500,64.2500,118,57,0.67595
1658670,-0.27000,63.6250,118,57,0.66374
1658680,-0.21000,63.0000,118,57,0.65128
1658690,-0.20000,62.4375,118,57,0.63858
1658700,-0.18500,61.2500,118,57,0.61392
1658710,-0.17000,60.6875,118,57,0.60195
1658720,-0.15500,60.1250,118,57,0.59145
1658730,-0.14500,59.6250,118,57,0.58144
1658740,-0.13000,58.7500,118,57,0.55995
1658750,-0.12500,58.4375,118,57,0.54896
1658760,-0.12500,58.5000,118,57,0.53797
1658770,-0.11500,59.2500,118,57,0.52698
1658780,-0.10000,65.6250,118,57,0.50574
1658790,-0.08500,71.8125,118,57,0.49548
1658800,-0.06000,79.5000,118,57,0.48523
1658810,-0.03500,87.6875,118,57,0.47497
1658820,0.00000,102.7500,118,57,0.45812
1658830,0.03000,108.9375,118,57,0.44908
1658840,0.06000,113.9375,118,57,0.43956
1658850,0.08500,117.8125,118,57,0.43028
1658860,0.10000,122.1875,118,57,0.41172
1658870,0.11000,123.1250,118,57,0.40244
1658880,0.11500,123.4375,118,57,0.39341
1658890,0.11500,123.3750,118,57,0.38437
1658900,0.11500,122.4375,118,57,0.36679
1658910,0.12000,121.6250,118,57,0.35800
1658920,0.12500,120.6875,118,57,0.35092
1658930,0.12500,119.6250,118,57,0.34481
1658940,0.11500,117.3750,118,57,0.32943
1658950,0.08000,116.1250,118,57,0.32112
1658960,0.04500,114.8750,118,57,0.31306
1658970,0.01000,113.5625,118,57,0.30501
