RelativeTimeMilliseconds,ECG,ART,ART (Sys),ART (Dia),PPG
1512750,0.16500,151.6875,137,67,0.50794
1512760,0.17500,154.1250,137,67,0.50549
1512770,0.18500,155.6250,137,67,0.50305
1512780,0.19000,157.0000,137,67,0.49792
1512790,0.19500,157.2500,137,67,0.49499
1512800,0.19000,157.1875,137,67,0.49182
1512810,0.17500,156.9375,137,67,0.48864
1512820,0.14000,156.1250,137,67,0.48230
1512830,0.09000,155.6875,137,67,0.47912
1512840,0.03500,155.1875,137,67,0.47521
1512850,-0.01000,154.6250,137,67,0.47179
1512860,-0.04500,153.4375,137,67,0.46642
1512870,-0.06500,152.6875,137,67,0.46398
1512880,-0.07500,151.8750,137,67,0.46178
1512890,-0.08500,150.9375,137,67,0.45910
1512900,-0.09500,148.4375,137,67,0.45324
1512910,-0.10000,146.6875,137,67,0.45055
1512920,-0.10500,144.4375,137,67,0.44786
1512930,-0.10000,141.6250,137,67,0.40879
1512940,-0.09000,133.6250,137,67,0.32259
1512950,-0.07500,128.6250,137,67,0.30916
1512960,-0.05500,123.5000,137,67,0.30598
1512970,-0.02000,118.8125,137,67,0.31282
1512980,0.00500,111.8125,137,67,0.33211
1512990,0.03000,109.1875,137,67,0.34750
1513000,0.06000,107.2500,137,67,0.36728
1513010,0.08000,106.0000,137,67,0.39023
1513020,0.07000,105.0000,137,67,0.44176
1513030,0.05000,104.5000,137,67,0.46838
1513040,-0.00500,103.7500,137,67,0.49499
1513050,-0.07000,102.8750,137,67,0.52088
1513060,-0.12000,101.3750,137,67,0.57753
1513070,-0.13500,100.6875,137,67,0.59292
1513080,-0.14500,100.0000,137,67,0.60757
1513090,-0.15000,99.1875,137,67,0.62442
1513100,-0.15500,97.3750,137,67,0.65861
1513110,-0.15500,96.5000,137,67,0.67814
1513120,-0.15500,95.6250,137,67,0.69499
1513130,-0.14500,94.8125,137,67,0.70647
1513140,-0.14000,93.2500,137,67,0.73211
1513150,-0.16000,92.4375,137,67,0.74188
1513160,-0.01500,91.6875,137,67,0.75018
1513170,0.46000,90.9375,137,67,0.75531
1513180,1.05000,89.5000,137,67,0.76264
1513190,0.97500,88.7500,137,67,0.76557
1513200,0.17000,88.0000,137,67,0.76679
1513210,-0.42000,87.1875,137,67,0.76557
1513220,-0.50000,85.5625,137,67,0.75580
1513230,-0.35500,84.7500,137,67,0.74799
1513240,-0.25000,84.0000,137,67,0.73895
1513250,-0.22000,83.1875,137,67,0.72869
1513260,-0.21000,81.6875,137,67,0.70696
1513270,-0.19500,81.0000,137,67,0.69646
1513280,-0.19000,80.2500,137,67,0.68571
1513290,-0.18000,79.5000,137,67,0.67473
1513300,-0.17000,78.2500,137,67,0.65324
1513310,-0.15500,77.8125,137,67,0.64274
1513320,-0.14500,77.6250,137,67,0.63223
1513330,-0.13000,77.8125,137,67,0.62198
1513340,-0.11000,82.0000,137,67,0.60122
1513350,-0.08500,87.2500,137,67,0.59096
1513360,-0.06000,95.0000,137,67,0.58169
1513370,-0.02500,104.5000,137,67,0.57289
1513380,0.02000,124.7500,137,67,0.55409
1513390,0.07000,133.8125,137,67,0.54432
1513400,0.11000,141.4375,137,67,0.53431
1513410,0.15000,147.5625,137,67,0.52430
1513420,0.18500,155.5000,137,67,0.50403
1513430,0.20500,157.7500,137,67,0.49451
1513440,0.21500,159.2500,137,67,0.48498
1513450,0.21500,160.1250,137,67,0.47521
1513460,0.21500,160.3750,137,67,0.45665
1513470,0.20500,160.0625,137,67,0.44884
1513480,0.17500,159.5625,137,67,0.43980
1513490,0.13000,159.0000,137,67,0.43028
1513500,0.06500,157.8750,137,67,0.41099
1513510,0.01000,157.2500,137,67,0.40171
1513520,-0.03500,156.5625,137,67,0.39267
1513530,-0.06500,155.8750,137,67,0.38364
1513540,-0.09000,154.6875,137,67,0.36581
1513550,-0.10000,153.9375,137,67,0.35678
1513560,-0.10500,153.0000,137,67,0.34945
1513570,-0.10500,151.7500,137,67,0.34310
1513580,-0.11000,148.0000,137,67,0.32772
1513590,-0.11000,145.1250,137,67,0.32039
1513600,-0.10500,141.6250,137,67,0.31453
1513610,-0.09500,137.5625,137,67,0.31087
1513620,-0.07500,127.5000,137,67,0.31331
1513630,-0.04000,122.1875,137,67,0.32063
1513640,0.00000,117.4375,137,67,0.33236
1513650,0.03000,113.6250,137,67,0.34799
1513660,0.06000,108.8750,137,67,0.38608
1513670,0.08500,107.5000,137,67,0.40562
1513680,0.08000,106.5000,137,67,0.42882
1513690,0.05500,105.6875,137,67,0.45372
1513700,0.01000,104.4375,137,67,0.50501
1513710,-0.04500,103.8125,137,67,0.52967
1513720,-0.10000,103.2500,137,67,0.55336
1513730,-0.12500,102.6250,137,67,0.57582
1513740,-0.13500,101.2500,137,67,0.61636
1513750,-0.13500,100.5000,137,67,0.63468
1513760,-0.13500,99.7500,137,67,0.64908
1513770,-0.13000,98.9375,137,67,0.66129
1513780,-0.12500,97.2500,137,67,0.68816
1513790,-0.12000,96.5000,137,67,0.70085
1513800,-0.11500,95.7500,137,67,0.71258
1513810,-0.13000,94.8750,137,67,0.72332
1513820,-0.08000,92.7500,137,67,0.74139
1513830,0.24500,91.8125,137,67,0.74847
1513840,0.86000,90.9375,137,67,0.75409
1513850,1.06500,90.0625,137,67,0.75800
1513860,0.43500,88.5625,137,67,0.75971
1513870,-0.26000,87.8750,137,67,0.75726
1513880,-0.49000,87.0625,137,67,0.75385
1513890,-0.40500,86.1875,137,67,0.74896
1513900,-0.26500,84.5625,137,67,0.73358
1513910,-0.21000,83.8750,137,67,0.72357
1513920,-0.20000,83.1250,137,67,0.71258
1513930,-0.18500,82.4375,137,67,0.70110
1513940,-0.17000,80.9375,137,67,0.67717
1513950,-0.16000,80.1875,137,67,0.66545
1513960,-0.14500,79.4375,137,67,0.65470
1513970,-0.13500,78.8125,137,67,0.64469
1513980,-0.12500,78.1250,137,67,0.62418
1513990,-0.10500,78.2500,137,67,0.61368
1514000,-0.08500,79.0625,136,67,0.60342
1514010,-0.06000,81.2500,136,67,0.59292
1514020,-0.03500,92.3125,136,67,0.57192
1514030,-0.00500,101.1875,136,67,0.56190
1514040,0.03000,111.1250,136,67,0.55214
1514050,0.07500,121.0000,136,67,0.54237
1514060,0.11500,138.0000,136,67,0.52479
1514070,0.14500,144.6250,136,67,0.51697
1514080,0.17500,149.9375,136,67,0.50842
1514090,0.20000,153.8750,136,67,0.49939
1514100,0.21000,158.3125,136,67,0.48083
1514110,0.21500,159.2500,136,67,0.47155
1514120,0.22000,159.6250,136,67,0.46203
1514130,0.21500,159.5000,136,67,0.45250
1514140,0.19500,158.4375,136,67,0.43346
1514150,0.15500,157.6250,136,67,0.42393
1514160,0.11000,156.7500,136,67,0.41587
1514170,0.06000,155.8750,136,67,0.40879
1514180,0.01500,154.2500,136,67,0.39219
1514190,-0.01500,153.5000,136,67,0.38364
1514200,-0.04000,152.8125,136,67,0.37485
1514210,-0.05500,152.0000,136,67,0.36606
1514220,-0.06500,149.9375,136,67,0.34872
1514230,-0.07500,148.5000,136,67,0.33993
1514240,-0.08000,146.7500,136,67,0.33138
1514250,-0.08000,144.4375,136,67,0.32357
1514260,-0.07500,137.8125,136,67,0.31404
1514270,-0.06500,133.1875,136,67,0.31062
1514280,-0.05000,127.9375,136,67,0.30916
1514290,-0.01500,122.4375,136,67,0.31062
1514300,0.02000,112.9375,136,67,0.32503
1514310,0.06000,109.6875,136,67,0.33773
1514320,0.09500,107.5000,136,67,0.35409
1514330,0.12000,106.1250,136,67,0.37363
1514340,0.12000,104.7500,136,67,0.41905
1514350,0.10500,104.3750,136,67,0.44371
1514360,0.06000,104.0000,136,67,0.46569
1514370,0.00000,103.5625,136,67,0.48596
1514380,-0.06000,102.4375,136,67,0.52991
1514390,-0.09500,101.9375,136,67,0.55140
1514400,-0.11500,101.3750,136,67,0.57167
1514410,-0.11500,100.8125,136,67,0.59096
1514420,-0.11500,99.1875,136,67,0.62515
1514430,-0.11500,98.3125,136,67,0.64029
1514440,-0.12500,97.5000,136,67,0.65421
1514450,-0.13500,96.7500,136,67,0.66691
1514460,-0.13500,95.0625,136,67,0.68400
1514470,-0.15000,94.1250,136,67,0.69206
1514480,-0.12500,93.2500,136,67,0.70012
1514490,0.14500,92.3750,136,67,0.70720
1514500,0.83000,90.6875,136,67,0.71844
1514510,1.00000,89.8125,136,67,0.72186
1514520,0.50500,89.0000,136,67,0.72357
1514530,-0.18000,88.1250,136,67,0.72332
1514540,-0.47000,86.6875,136,67,0.71648
1514550,-0.43500,85.8750,136,67,0.70989
1514560,-0.28500,85.0625,136,67,0.70208
1514570,-0.21000,84.3750,136,67,0.69328
1514580,-0.20000,83.0625,136,67,0.67253
1514590,-0.19000,82.2500,136,67,0.66129
1514600,-0.18000,81.3750,136,67,0.64982
1514610,-0.16500,80.6250,136,67,0.63810
1514620,-0.16000,79.5000,136,67,0.61563
1514630,-0.15000,79.0625,136,67,0.60513
1514640,-0.13500,78.7500,136,67,0.59512
1514650,-0.11500,78.6875,136,67,0.58584
1514660,-0.09500,80.1875,136,67,0.56972
1514670,-0.08000,82.9375,136,67,0.56166
1514680,-0.05500,87.8750,136,67,0.55336
1514690,-0.02000,95.1250,136,67,0.54457
1514700,0.02500,113.9375,136,67,0.52650
1514710,0.07500,123.9375,136,67,0.51722
1514720,0.12000,133.1875,136,67,0.50794
1514730,0.15500,140.8125,136,67,0.49866
1514740,0.17500,151.6250,136,67,0.48034
1514750,0.19000,155.1875,136,67,0.47155
1514760,0.19500,157.7500,136,67,0.46398
1514770,0.20000,160.3750,136,67,0.45739
1514780,0.19500,160.6250,136,67,0.44176
1514790,0.19000,160.4375,136,67,0.43346
1514800,0.17000,160.0000,136,67,0.42515
1514810,0.14000,159.3750,136,67,0.41685
1514820,0.08000,157.7500,136,67,0.39976
1514830,0.02500,156.9375,136,67,0.39121
1514840,-0.02500,156.1250,136,67,0.38266
1514850,-0.05500,155.1875,136,67,0.37411
1514860,-0.08500,153.2500,136,67,0.36093
1514870,-0.10500,152.3125,136,67,0.35336
1514880,-0.11500,151.2500,136,67,0.34530
1514890,-0.11500,150.0000,136,67,0.33700
1514900,-0.11500,146.8125,136,67,0.32137
1514910,-0.11000,144.3125,136,67,0.31429
1514920,-0.09500,140.9375,136,67,0.30842
1514930,-0.08000,136.8125,136,67,0.30403
1514940,-0.04500,126.7500,136,67,0.30256
1514950,-0.00500,121.4375,136,67,0.30647
1514960,0.03000,116.8125,136,67,0.31306
1514970,0.06500,113.1875,136,67,0.31233
1514980,0.11000,108.8750,136,67,0.32063
1514990,0.13000,107.8125,136,67,0.33773
1515000,0.12000,107.0625,137,68,0.35922
1515010,0.07000,106.4375,137,68,0.38315
1515020,-0.00500,105.3750,137,68,0.43492
1515030,-0.06500,104.8125,137,68,0.46056
1515040,-0.11500,104.2500,137,68,0.48547
1515050,-0.14000,103.6875,137,68,0.50940
1515060,-0.15000,102.3750,137,68,0.54603
1515070,-0.15000,101.6250,137,68,0.56386
1515080,-0.14500,100.7500,137,68,0.58144
1515090,-0.14000,99.9375,137,68,0.59805
1515100,-0.13500,98.2500,137,68,0.62662
1515110,-0.12500,97.4375,137,68,0.63932
1515120,-0.13500,96.6250,137,68,0.65079
1515130,-0.12500,95.8125,137,68,0.66105
1515140,0.12000,94.1875,137,68,0.67912
1515150,0.66000,93.4375,137,68,0.68645
1515160,0.97500,92.7500,137,68,0.69133
1515170,0.57500,91.1250,137,68,0.69426
1515180,-0.12500,90.1250,137,68,0.69866
1515190,-0.47500,89.3750,137,68,0.69817
1515200,-0.47000,88.7500,137,68,0.69573
1515210,-0.33000,88.0625,137,68,0.69109
1515220,-0.25000,86.4375,137,68,0.67692
1515230,-0.23500,85.8125,137,68,0.66740
1515240,-0.22500,85.2500,137,68,0.65690
1515250,-0.21000,84.5625,137,68,0.64591
1515260,-0.19500,82.9375,137,68,0.62491
1515270,-0.18000,82.0625,137,68,0.61392
1515280,-0.16500,81.2500,137,68,0.60293
1515290,-0.14500,80.6250,137,68,0.59219
1515300,-0.13000,80.3125,137,68,0.57094
1515310,-0.11000,81.0000,137,68,0.56044
1515320,-0.08500,82.9375,137,68,0.55018
1515330,-0.04500,92.8750,137,68,0.54017
1515340,-0.00500,101.0625,137,68,0.52088
1515350,0.03500,110.5625,137,68,0.51160
1515360,0.06000,120.3750,137,68,0.50354
1515370,0.09000,129.6875,137,68,0.49621
1515380,0.11000,145.3750,137,68,0.47961
1515390,0.13000,151.3125,137,68,0.47131
1515400,0.14000,155.8750,137,68,0.46276
1515410,0.14500,159.1875,137,68,0.45397
1515420,0.15000,162.5000,137,68,0.43614
1515430,0.14500,163.0625,137,68,0.42662
1515440,0.14000,163.0000,137,68,0.41709
1515450,0.12500,162.5625,137,68,0.40733
1515460,0.09000,161.0625,137,68,0.39170
1515470,0.04500,160.1250,137,68,0.38315
1515480,0.00500,159.1250,137,68,0.37411
1515490,-0.02500,158.1250,137,68,0.36459
1515500,-0.05500,156.3125,137,68,0.34603
1515510,-0.08000,155.3750,137,68,0.33724
1515520,-0.09500,154.4375,137,68,0.32845
1515530,-0.11000,153.4375,137,68,0.31941
1515540,-0.12500,151.0625,137,68,0.30183
1515550,-0.13000,149.4375,137,68,0.29328
1515560,-0.13000,147.1875,137,68,0.28669
1515570,-0.12500,144.2500,137,68,0.28156
1515580,-0.11500,135.9375,137,68,0.27277
1515590,-0.10500,130.8750,137,68,0.27131
1515600,-0.08500,125.6250,137,68,0.27277
1515610,-0.04000,120.6250,137,68,0.27790
1515620,0.00000,113.1875,137,68,0.30061
1515630,0.04000,110.9375,137,68,0.31746
1515640,0.08500,109.5000,137,68,0.33748
1515650,0.12000,108.5625,137,68,0.36020
1515660,0.11000,107.3125,137,68,0.40220
1515670,0.08000,106.7500,137,68,0.42564
1515680,0.02000,106.1250,137,68,0.45006
1515690,-0.03500,105.5000,137,68,0.47448
1515700,-0.08500,104.0000,137,68,0.52112
1515710,-0.11000,103.1875,137,68,0.54286
1515720,-0.12500,102.3750,137,68,0.56313
1515730,-0.12500,101.5625,137,68,0.58193
1515740,-0.13000,99.9375,137,68,0.61465
1515750,-0.12500,99.1875,137,68,0.62906
1515760,-0.12500,98.3750,137,68,0.64005
1515770,-0.11500,97.5625,137,68,0.64884
1515780,-0.11500,96.0000,137,68,0.66764
1515790,-0.11500,95.1875,137,68,0.67643
1515800,0.08000,94.3750,137,68,0.68400
1515810,0.58000,92.6875,137,68,0.69035
1515820,1.00500,91.8750,137,68,0.69841
1515830,0.73000,91.0000,137,68,0.69963
1515840,0.00500,90.1875,137,68,0.69866
1515850,-0.41500,89.3750,137,68,0.69573
1515860,-0.45000,87.8125,137,68,0.68400
1515870,-0.31500,87.0000,137,68,0.67546
1515880,-0.22000,86.2500,137,68,0.66545
1515890,-0.20000,85.5000,137,68,0.65446
1515900,-0.19500,83.9375,137,68,0.63077
1515910,-0.18500,83.1875,137,68,0.61880
1515920,-0.18000,82.5000,137,68,0.60708
1515930,-0.17000,81.8125,137,68,0.59585
1515940,-0.15500,80.8750,137,68,0.57436
1515950,-0.14500,80.6250,137,68,0.56386
1515960,-0.13500,80.6250,137,68,0.55433
1515970,-0.13000,81.1875,137,68,0.54554
1515980,-0.11500,86.1250,137,68,0.52650
1515990,-0.09500,91.8750,137,68,0.51673
1516000,-0.06500,99.8750,139,68,0.50672
1516010,-0.03000,109.4375,139,68,0.49670
1516020,0.01500,129.3125,139,68,0.47692
1516030,0.05500,138.2500,139,68,0.46716
1516040,0.09500,145.9375,139,68,0.45739
1516050,0.12500,152.3750,139,68,0.44786
1516060,0.14500,161.0625,139,68,0.43199
1516070,0.15500,163.6250,139,68,0.42344
1516080,0.16500,165.3125,139,68,0.41441
1516090,0.17500,166.1875,139,68,0.40537
1516100,0.16500,166.3750,139,68,0.38730
1516110,0.14500,165.9375,139,68,0.37827
1516120,0.11500,165.3125,139,68,0.36923
1516130,0.06000,164.5625,139,68,0.36044
1516140,0.01000,162.9375,139,68,0.34261
1516150,-0.04500,162.0625,139,68,0.33529
1516160,-0.08000,161.3125,139,68,0.32869
1516170,-0.10500,160.5000,139,68,0.32088
1516180,-0.12000,158.9375,139,68,0.30427
1516190,-0.13500,158.0625,139,68,0.29573
1516200,-0.13500,157.0000,139,68,0.28718
1516210,-0.13500,155.6875,139,68,0.27863
1516220,-0.13500,151.7500,139,68,0.26252
1516230,-0.13000,148.8750,139,68,0.25592
1516240,-0.12500,145.1875,139,68,0.25128
1516250,-0.11000,140.5625,139,68,0.24908
1516260,-0.08500,129.5625,139,68,0.25470
1516270,-0.05000,124.0625,139,68,0.26252
1516280,-0.01500,119.3125,139,68,0.27448
1516290,0.01000,115.6250,139,68,0.29035
1516300,0.05000,111.1875,139,68,0.33187
1516310,0.07500,109.9375,139,68,0.35629
1516320,0.07000,109.0625,139,68,0.38217
1516330,0.04500,108.3125,139,68,0.40855
1516340,0.00500,107.1875,139,68,0.46105
1516350,-0.04000,106.5625,139,68,0.48327
1516360,-0.08500,106.0000,139,68,0.50330
1516370,-0.12000,105.3125,139,68,0.52479
1516380,-0.13500,103.8125,139,68,0.56703
1516390,-0.14500,103.0625,139,68,0.58706
1516400,-0.14500,102.2500,139,68,0.60586
1516410,-0.14500,101.5000,139,68,0.62320
1516420,-0.13500,99.8750,139,68,0.65372
1516430,-0.13000,99.0000,139,68,0.66691
1516440,-0.13000,98.1250,139,68,0.67888
1516450,-0.14000,97.2500,139,68,0.68938
1516460,0.00500,95.4375,139,68,0.70208
1516470,0.47500,94.5625,139,68,0.70745
1516480,0.99000,93.6875,139,68,0.71184
1516490,0.82500,92.7500,139,68,0.71477
1516500,0.12000,90.9375,139,68,0.71526
1516510,-0.36500,90.0625,139,68,0.71233
1516520,-0.47500,89.1875,139,68,0.70720
1516530,-0.36000,88.3750,139,68,0.69988
1516540,-0.24500,86.8125,139,68,0.68010
1516550,-0.22500,86.0000,139,68,0.66911
1516560,-0.22000,85.1875,139,68,0.65788
1516570,-0.21000,84.3750,139,68,0.64567
1516580,-0.20000,82.8125,139,68,0.62027
1516590,-0.19000,82.1875,139,68,0.60757
1516600,-0.17500,81.6250,139,68,0.59512
1516610,-0.16500,81.2500,139,68,0.58291
1516620,-0.15500,81.2500,139,68,0.55922
1516630,-0.14000,82.1875,139,68,0.54799
1516640,-0.12500,84.6875,139,68,0.53724
1516650,-0.10000,89.3750,139,68,0.52650
1516660,-0.06500,105.9375,139,68,0.50769
1516670,-0.03000,116.2500,139,68,0.49817
1516680,0.01500,126.5000,139,68,0.48840
1516690,0.06000,136.0000,139,68,0.47863
1516700,0.10000,151.4375,139,68,0.45934
1516710,0.12000,157.0625,139,68,0.44957
1516720,0.14000,161.3125,139,68,0.43980
1516730,0.15000,164.3125,139,68,0.43004
1516740,0.16000,167.3125,139,68,0.41001
1516750,0.16000,167.7500,139,68,0.40147
1516760,0.16000,167.6875,139,68,0.39390
1516770,0.14500,167.2500,139,68,0.38559
1516780,0.11500,165.8750,139,68,0.36777
1516790,0.06000,165.0000,139,68,0.35873
1516800,0.00500,164.1875,139,68,0.34945
1516810,-0.04500,163.3125,139,68,0.34042
1516820,-0.09000,161.8125,139,68,0.32283
1516830,-0.11500,161.0625,139,68,0.31404
1516840,-0.13500,160.3125,139,68,0.30525
1516850,-0.14500,159.4375,139,68,0.29646
1516860,-0.14500,157.2500,139,68,0.28327
1516870,-0.15500,155.6875,139,68,0.27619
1516880,-0.15500,153.6875,139,68,0.26886
1516890,-0.15500,151.1250,139,68,0.26203
1516900,-0.14500,143.5625,139,68,0.25250
1516910,-0.13000,138.6250,139,68,0.25177
1516920,-0.11000,133.0625,139,68,0.25470
1516930,-0.08500,127.4375,139,68,0.26154
1516940,-0.04500,118.0000,139,68,0.28767
1516950,-0.00500,114.7500,139,68,0.30403
1516960,0.03000,112.4375,139,68,0.32186
1516970,0.06500,110.8125,139,68,0.34359
1516980,0.07000,108.8750,139,68,0.39390
1516990,0.06000,108.1875,139,68,0.42076
1517000,0.01500,107.5625,143,71,0.44786
1517010,-0.03500,107.0000,143,71,0.47448
1517020,-0.09500,105.7500,143,71,0.53895
1517030,-0.13500,105.0625,143,71,0.56752
1517040,-0.15500,104.3125,143,71,0.59267
1517050,-0.17000,103.5625,143,71,0.61563
1517060,-0.17000,101.8750,143,71,0.64835
1517070,-0.17500,101.0625,143,71,0.66422
1517080,-0.17000,100.2500,143,71,0.67985
1517090,-0.17000,99.3750,143,71,0.69426
1517100,-0.16000,97.6875,143,71,0.71893
1517110,-0.17000,96.8125,143,71,0.72894
1517120,-0.13500,95.9375,143,71,0.73724
1517130,0.18000,95.0000,143,71,0.74408
1517140,0.78500,93.1875,143,71,0.75287
1517150,1.03000,92.3125,143,71,0.75311
1517160,0.50000,91.4375,143,71,0.75116
1517170,-0.21500,89.8125,143,71,0.74799
1517180,-0.51000,89.0000,143,71,0.73602
1517190,-0.45000,88.1875,143,71,0.72698
1517200,-0.30500,87.3750,143,71,0.71648
1517210,-0.25500,86.5625,143,71,0.70476
1517220,-0.25000,85.0000,143,71,0.67912
1517230,-0.23000,84.2500,143,71,0.66569
1517240,-0.21500,83.5000,143,71,0.65201
1517250,-0.20500,82.7500,143,71,0.63834
1517260,-0.19500,81.5625,143,71,0.61514
1517270,-0.19000,81.1250,143,71,0.60342
1517280,-0.17500,80.9375,143,71,0.59170
1517290,-0.16500,81.1875,143,71,0.57973
1517300,-0.15000,85.1875,143,71,0.55678
1517310,-0.13000,90.5000,143,71,0.54505
1517320,-0.10500,98.3750,143,71,0.53358
1517330,-0.07000,108.1875,143,71,0.52234
1517340,-0.02500,129.3750,143,71,0.50061
1517350,0.02000,139.0000,143,71,0.49109
1517360,0.06500,147.4375,143,71,0.48230
1517370,0.10000,154.4375,143,71,0.47277
1517380,0.13000,164.0000,143,71,0.45348
1517390,0.14500,166.8125,143,71,0.44371
1517400,0.15500,168.5625,143,71,0.43370
1517410,0.15500,169.4375,143,71,0.42393
1517420,0.15500,169.5625,143,71,0.40440
1517430,0.14500,169.1250,143,71,0.39438
1517440,0.13000,168.5000,143,71,0.38462
1517450,0.08500,167.7500,143,71,0.37485
1517460,0.01000,166.1875,143,71,0.35971
1517470,-0.03000,165.5000,143,71,0.35140
1517480,-0.07500,164.8125,143,71,0.34261
1517490,-0.11500,164.1875,143,71,0.33358
1517500,-0.13500,162.8750,143,71,0.31551
1517510,-0.15000,162.1875,143,71,0.30647
1517520,-0.15500,161.3125,143,71,0.29768
1517530,-0.15500,158.6875,143,71,0.28889
1517540,-0.16000,156.7500,143,71,0.27277
1517550,-0.16000,154.1875,143,71,0.26764
1517560,-0.15500,150.9375,143,71,0.26422
1517570,-0.15000,146.8750,143,71,0.26178
1517580,-0.13000,136.2500,143,71,0.26545
1517590,-0.10000,130.3125,143,71,0.27302
1517600,-0.06000,124.6250,143,71,0.28498
1517610,-0.02500,119.6875,143,71,0.30110
1517620,0.02000,113.1250,143,71,0.34505
1517630,0.04500,111.2500,143,71,0.37143
1517640,0.05000,110.0625,143,71,0.39976
1517650,0.04500,109.3125,143,71,0.42930
1517660,0.01500,108.1875,143,71,0.48034
1517670,-0.04000,107.7500,143,71,0.50769
1517680,-0.09500,107.2500,143,71,0.53602
1517690,-0.13000,106.7500,143,71,0.56410
1517700,-0.15000,105.3750,143,71,0.61709
1517710,-0.15500,104.5625,143,71,0.64127
1517720,-0.16000,103.7500,143,71,0.66349
1517730,-0.16000,102.8125,143,71,0.68376
1517740,-0.16500,101.0000,143,71,0.71868
1517750,-0.16000,100.1250,143,71,0.73114
1517760,-0.16000,99.1875,143,71,0.74090
1517770,-0.18000,98.2500,143,71,0.75116
1517780,-0.14000,96.4375,143,71,0.77021
1517790,0.18500,95.5625,143,71,0.77778
1517800,0.82000,94.6875,143,71,0.78364
1517810,1.08000,93.8125,143,71,0.78755
1517820,0.51500,92.0000,143,71,0.78926
1517830,-0.23500,91.1250,143,71,0.78657
1517840,-0.54000,90.2500,143,71,0.78120
1517850,-0.46000,89.3750,143,71,0.77363
1517860,-0.32500,87.7500,143,71,0.75385
1517870,-0.28000,86.9375,143,71,0.74139
1517880,-0.27000,86.1250,143,71,0.72772
1517890,-0.26000,85.3750,143,71,0.71331
1517900,-0.24500,83.8750,143,71,0.68327
1517910,-0.23000,83.1875,143,71,0.66886
1517920,-0.21500,82.5625,143,71,0.65495
1517930,-0.20000,81.6875,143,71,0.64151
1517940,-0.19000,81.6250,143,71,0.61612
1517950,-0.18000,82.3125,143,71,0.60488
1517960,-0.17000,84.3125,143,71,0.59414
1517970,-0.14500,88.5000,143,71,0.58291
1517980,-0.11500,104.3750,143,71,0.55995
1517990,-0.08000,114.8750,143,71,0.54847
1518000,-0.04000,125.6250,145,72,0.53700
1518010,0.00000,135.8125,145,72,0.52576
1518020,0.04500,152.5000,145,72,0.50330
1518030,0.08000,158.5625,145,72,0.49206
1518040,0.11000,163.1875,145,72,0.48107
1518050,0.13000,166.3125,145,72,0.47179
1518060,0.14000,169.3125,145,72,0.45348
1518070,0.15000,169.6875,145,72,0.44347
1518080,0.16000,169.5000,145,72,0.43346
1518090,0.15500,169.0000,145,72,0.42344
1518100,0.14000,167.5000,145,72,0.40391
1518110,0.09500,166.7500,145,72,0.39390
1518120,0.04000,165.9375,145,72,0.38388
1518130,-0.01500,165.1875,145,72,0.37387
1518140,-0.06000,163.8750,145,72,0.35409
1518150,-0.09500,163.2500,145,72,0.34628
1518160,-0.11500,162.6250,145,72,0.33968
1518170,-0.12500,161.9375,145,72,0.33187
1518180,-0.13500,159.8750,145,72,0.31453
1518190,-0.14000,158.4375,145,72,0.30549
1518200,-0.14000,156.5000,145,72,0.29670
1518210,-0.14500,154.0000,145,72,0.28864
1518220,-0.14500,146.9375,145,72,0.27643
1518230,-0.13500,142.1250,145,72,0.27448
1518240,-0.11000,136.5000,145,72,0.27619
1518250,-0.07500,130.3750,145,72,0.28132
1518260,-0.04500,118.9375,145,72,0.30281
1518270,-0.01500,114.5625,145,72,0.32015
1518280,0.01500,111.3750,145,72,0.34115
1518290,0.04000,109.2500,145,72,0.36532
1518300,0.06000,107.3125,145,72,0.42076
1518310,0.04500,106.8750,145,72,0.45031
1518320,0.01000,106.5625,145,72,0.48034
1518330,-0.04500,106.1875,145,72,0.51038
1518340,-0.10000,105.3125,145,72,0.56825
1518350,-0.13000,104.7500,145,72,0.59170
1518360,-0.14500,104.1250,145,72,0.61221
1518370,-0.15500,103.3750,145,72,0.63394
1518380,-0.15500,101.6875,145,72,0.67546
1518390,-0.15500,100.8125,145,72,0.69426
1518400,-0.15000,99.8750,145,72,0.71136
1518410,-0.14500,98.9375,145,72,0.72674
1518420,-0.13500,97.0625,145,72,0.75287
1518430,-0.15500,96.1250,145,72,0.76337
1518440,-0.10500,95.1875,145,72,0.77216
1518450,0.25500,94.3125,145,72,0.77729
1518460,0.97500,92.5000,145,72,0.78193
1518470,1.05500,91.5625,145,72,0.78291
1518480,0.43000,90.6875,145,72,0.78217
1518490,-0.27500,89.7500,145,72,0.77973
1518500,-0.51500,87.9375,145,72,0.76801
1518510,-0.40500,87.1250,145,72,0.75873
1518520,-0.25500,86.3125,145,72,0.74774
1518530,-0.21000,85.4375,145,72,0.73504
1518540,-0.20000,83.8750,145,72,0.70623
1518550,-0.19000,83.1250,145,72,0.69231
1518560,-0.18000,82.3750,145,72,0.67888
1518570,-0.17000,81.6875,145,72,0.66520
1518580,-0.15500,80.4375,145,72,0.63687
1518590,-0.13500,80.0000,145,72,0.62320
1518600,-0.11500,79.7500,145,72,0.61001
1518610,-0.10500,79.9375,145,72,0.59707
1518620,-0.09000,84.1875,145,72,0.57216
1518630,-0.07500,89.6875,145,72,0.55995
1518640,-0.05000,97.8125,145,72,0.54799
1518650,-0.01500,107.8125,145,72,0.53724
1518660,0.03000,129.0625,145,72,0.51624
1518670,0.07000,138.6250,145,72,0.50501
1518680,0.12000,146.8125,145,72,0.49402
1518690,0.16000,153.5000,145,72,0.48303
1518700,0.18500,162.1875,145,72,0.46203
1518710,0.20500,164.5000,145,72,0.45153
1518720,0.21500,165.8125,145,72,0.44078
1518730,0.22000,166.3125,145,72,0.42979
1518740,0.22000,165.8750,145,72,0.40830
1518750,0.21500,165.2500,145,72,0.39902
1518760,0.18500,164.4375,145,72,0.39072
1518770,0.14500,163.5625,145,72,0.38144
1518780,0.09000,161.9375,145,72,0.36215
1518790,0.03000,161.1875,145,72,0.35238
1518800,-0.01500,160.5625,145,72,0.34261
1518810,-0.04500,159.8750,145,72,0.33284
1518820,-0.06500,158.5000,145,72,0.31404
1518830,-0.07500,157.6250,145,72,0.30452
1518840,-0.08500,156.6250,145,72,0.29499
1518850,-0.08500,155.2500,145,72,0.28767
1518860,-0.09500,151.1875,145,72,0.27375
1518870,-0.10500,148.1250,145,72,0.26618
1518880,-0.10500,144.3125,145,72,0.25983
1518890,-0.09000,139.6250,145,72,0.25568
1518900,-0.05500,128.5625,145,72,0.25714
1518910,-0.02000,123.0000,145,72,0.26422
1518920,0.01500,118.0625,145,72,0.27570
1518930,0.05000,114.1250,145,72,0.29158
1518940,0.08000,109.0625,145,72,0.33431
1518950,0.09000,107.5625,145,72,0.35678
1518960,0.08000,106.5625,145,72,0.37949
1518970,0.05000,105.8125,145,72,0.40586
1518980,0.00500,104.7500,145,72,0.46349
1518990,-0.04500,104.1875,145,72,0.49280
1519000,-0.08500,103.6250,149,74,0.52137
1519010,-0.10500,103.0000,149,74,0.54872
1519020,-0.11500,101.6250,149,74,0.59878
1519030,-0.12500,100.8750,149,74,0.62100
1519040,-0.12500,100.0625,149,74,0.64103
1519050,-0.12500,99.1875,149,74,0.65665
1519060,-0.11500,97.5000,149,74,0.67424
1519070,-0.11500,96.5625,149,74,0.67399
1519080,-0.11000,95.6875,149,74,0.67863
1519090,-0.11500,94.6875,149,74,0.68523
1519100,0.05000,92.8125,149,74,0.69866
1519110,0.54000,91.8750,149,74,0.70379
1519120,1.04500,90.9375,149,74,0.70745
1519130,0.82500,89.1250,149,74,0.70940
1519140,0.08500,88.2500,149,74,0.70720
1519150,-0.38000,87.3125,149,74,0.70281
1519160,-0.44500,86.4375,149,74,0.69670
1519170,-0.31000,85.6250,149,74,0.68913
1519180,-0.20000,84.0000,149,74,0.66935
1519190,-0.18500,83.1875,149,74,0.65788
1519200,-0.18000,82.4375,149,74,0.64567
1519210,-0.16000,81.6250,149,74,0.63297
1519220,-0.15000,80.1250,149,74,0.60733
1519230,-0.14000,79.4375,149,74,0.59463
1519240,-0.12500,78.8750,149,74,0.58217
1519250,-0.11500,78.4375,149,74,0.57118
1519260,-0.10000,78.4375,149,74,0.55043
1519270,-0.08500,79.4375,149,74,0.53919
1519280,-0.06500,81.9375,149,74,0.52821
1519290,-0.04000,86.7500,149,74,0.51746
1519300,-0.01000,103.2500,149,74,0.49573
1519310,0.02000,113.4375,149,74,0.48498
1519320,0.06000,123.6250,149,74,0.47448
1519330,0.10000,133.0625,149,74,0.46422
1519340,0.14000,148.0000,149,74,0.44396
1519350,0.16500,153.1875,149,74,0.43541
1519360,0.18000,156.8750,149,74,0.42735
1519370,0.18500,159.2500,149,74,0.41856
1519380,0.19500,161.0625,149,74,0.39927
1519390,0.20000,160.9375,149,74,0.38926
1519400,0.19500,160.4375,149,74,0.37949
1519410,0.18000,159.6250,149,74,0.37021
1519420,0.15500,157.6250,149,74,0.35165
1519430,0.11000,156.5000,149,74,0.34237
1519440,0.06000,155.4375,149,74,0.33309
1519450,0.01000,154.5000,149,74,0.32552
1519460,-0.02500,152.6875,149,74,0.31062
1519470,-0.05500,151.8125,149,74,0.30183
1519480,-0.07500,150.8750,149,74,0.29255
1519490,-0.09000,149.8750,149,74,0.28327
1519500,-0.10500,147.1250,149,74,0.26496
1519510,-0.11500,145.1875,149,74,0.25641
1519520,-0.11500,142.6250,149,74,0.24835
1519530,-0.10500,139.2500,149,74,0.24103
1519540,-0.08500,129.8125,149,74,0.23150
1519550,-0.05500,124.1250,149,74,0.23077
1519560,-0.01500,118.3750,149,74,0.23297
1519570,0.02500,113.2500,149,74,0.23785
1519580,0.07000,106.3750,149,74,0.25910
1519590,0.10500,104.5625,149,74,0.27521
1519600,0.13000,103.4375,149,74,0.29451
1519610,0.12500,102.7500,149,74,0.31624
1519620,0.10500,101.9375,149,74,0.36508
1519630,0.06000,101.5625,149,74,0.39048
1519640,0.00500,101.1250,149,74,0.41538
1519650,-0.05500,100.5625,149,74,0.43687
1519660,-0.09000,99.2500,149,74,0.47692
1519670,-0.11000,98.4375,149,74,0.49768
1519680,-0.12500,97.6250,149,74,0.51746
1519690,-0.12500,96.7500,149,74,0.53602
1519700,-0.12500,95.1250,149,74,0.56801
1519710,-0.12500,94.3125,149,74,0.58169
1519720,-0.12500,93.5000,149,74,0.59389
1519730,-0.11500,92.6250,149,74,0.60464
1519740,-0.12000,90.8750,149,74,0.62076
1519750,-0.09500,90.0000,149,74,0.62564
1519760,0.16500,89.1875,149,74,0.63053
1519770,0.72500,88.3125,149,74,0.63492
1519780,1.03500,86.5625,149,74,0.64029
1519790,0.56500,85.6875,149,74,0.64029
1519800,-0.13500,84.8125,149,74,0.63834
1519810,-0.45000,84.0000,149,74,0.63443
1519820,-0.43000,82.3750,149,74,0.62027
1519830,-0.28500,81.5625,149,74,0.61074
1519840,-0.20500,80.8125,149,74,0.60024
1519850,-0.19500,80.0625,149,74,0.58974
1519860,-0.18500,78.6250,149,74,0.56777
1519870,-0.17000,77.8750,149,74,0.55629
1519880,-0.16000,77.2500,149,74,0.54481
1519890,-0.15000,76.6875,149,74,0.53333
1519900,-0.14000,75.8125,149,74,0.51111
1519910,-0.13000,75.6250,149,74,0.50061
1519920,-0.11500,75.8125,149,74,0.49011
1519930,-0.10000,76.8125,149,74,0.48010
1519940,-0.07500,83.7500,149,74,0.46129
1519950,-0.04500,90.6875,149,74,0.45348
1519960,-0.01500,99.6875,149,74,0.44493
1519970,0.02500,119.6875,149,74,0.43614
1519980,0.06500,129.0625,149,74,0.41807
1519990,0.10000,137.2500,149,74,0.40904
1520000,0.13000,144.0625,151,75,0.40000
1520010,0.14500,149.3750,151,75,0.39072
1520020,0.16500,155.8125,151,75,0.37241
1520030,0.17000,157.3125,151,75,0.36288
1520040,0.17500,157.9375,151,75,0.35336
1520050,0.17500,157.9375,151,75,0.34530
1520060,0.17500,156.7500,151,75,0.33016
1520070,0.16000,155.8125,151,75,0.32186
1520080,0.13000,154.7500,151,75,0.31331
1520090,0.08500,153.6250,151,75,0.30476
1520100,0.03000,151.5625,151,75,0.28767
1520110,-0.01500,150.5625,151,75,0.27912
1520120,-0.05000,149.5625,151,75,0.27033
1520130,-0.07500,148.6250,151,75,0.26154
1520140,-0.09000,146.5625,151,75,0.24640
1520150,-0.10500,145.3125,151,75,0.24054
1520160,-0.11000,143.7500,151,75,0.23321
1520170,-0.11500,141.8125,151,75,0.22540
1520180,-0.11000,136.0000,151,75,0.21074
1520190,-0.10500,131.8125,151,75,0.20464
1520200,-0.08500,126.9375,151,75,0.20049
1520210,-0.05000,121.6875,151,75,0.19902
1520220,-0.01000,112.0000,151,75,0.20684
1520230,0.02000,108.3750,151,75,0.21685
1520240,0.06500,105.7500,151,75,0.23077
1520250,0.11000,103.9375,151,75,0.24615
1520260,0.12500,101.8750,151,75,0.28474
1520270,0.10000,101.2500,151,75,0.30867
1520280,0.06000,100.6875,151,75,0.33407
1520290,0.00500,100.1250,151,75,0.36020
1520300,-0.03500,99.5000,151,75,0.38608
1520310,-0.08500,98.8125,151,75,0.41099
1520320,-0.11500,98.0625,151,75,0.43492
1520330,-0.12500,97.1875,151,75,0.45763
1520340,-0.13000,95.4375,151,75,0.49890
1520350,-0.13000,94.6250,151,75,0.51502
1520360,-0.13500,93.8125,151,75,0.52869
1520370,-0.12500,93.0625,151,75,0.54310
1520380,-0.12500,91.5000,151,75,0.56947
1520390,-0.12500,90.7500,151,75,0.58095
1520400,-0.12500,89.9375,151,75,0.59145
1520410,0.06000,89.1250,151,75,0.60073
1520420,0.56000,87.5000,151,75,0.61612
1520430,1.01000,86.6875,151,75,0.62173
1520440,0.72500,85.8125,151,75,0.62540
1520450,0.01000,85.0000,151,75,0.62735
1520460,-0.40000,83.3750,151,75,0.62540
1520470,-0.45500,82.5000,151,75,0.62198
1520480,-0.32500,81.6875,151,75,0.61661
1520490,-0.23000,80.9375,151,75,0.60977
1520500,-0.21000,79.4375,151,75,0.59145
1520510,-0.20500,78.6875,151,75,0.58071
1520520,-0.19000,77.9375,151,75,0.56972
1520530,-0.18000,77.1875,151,75,0.55873
1520540,-0.17000,75.8125,151,75,0.53675
1520550,-0.15500,75.2500,151,75,0.52723
1520560,-0.14500,74.8125,151,75,0.51844
1520570,-0.13500,74.5625,151,75,0.50891
1520580,-0.12500,75.2500,151,75,0.48962
1520590,-0.11000,77.0625,151,75,0.47985
1520600,-0.08500,80.8750,151,75,0.47033
1520610,-0.05500,87.0625,151,75,0.46081
1520620,-0.01500,105.3750,151,75,0.44200
1520630,0.02500,115.5000,151,75,0.43248
1520640,0.06000,125.1875,151,75,0.42295
1520650,0.09000,133.7500,151,75,0.41343
1520660,0.11500,146.6250,151,75,0.39780
1520670,0.13500,150.8125,151,75,0.38950
1520680,0.14000,153.6250,151,75,0.38071
1520690,0.15000,155.3125,151,75,0.37192
1520700,0.15500,156.1875,151,75,0.35385
1520710,0.15500,155.8750,151,75,0.34481
1520720,0.14000,155.1250,151,75,0.33626
1520730,0.11000,154.1875,151,75,0.32772
1520740,0.06500,152.0000,151,75,0.31062
1520750,0.01500,150.9375,151,75,0.30354
1520760,-0.03500,149.8750,151,75,0.29719
1520770,-0.07000,148.9375,151,75,0.28962
1520780,-0.09500,147.0000,151,75,0.27253
1520790,-0.11000,146.0625,151,75,0.26374
1520800,-0.12500,145.0000,151,75,0.25519
1520810,-0.13500,143.8750,151,75,0.24664
1520820,-0.14000,140.6875,151,75,0.23028
1520830,-0.14000,138.3750,151,75,0.22222
1520840,-0.13500,135.3750,151,75,0.21490
1520850,-0.12000,131.6250,151,75,0.20879
1520860,-0.10500,121.6875,151,75,0.20440
1520870,-0.07500,116.1875,151,75,0.20537
1520880,-0.03500,111.0625,151,75,0.20928
1520890,0.00000,106.7500,151,75,0.21685
1520900,0.03000,101.4375,151,75,0.24469
1520910,0.07500,100.1250,151,75,0.26398
1520920,0.10000,99.2500,151,75,0.28620
1520930,0.08500,98.7500,151,75,0.31062
1520940,0.05000,97.9375,151,75,0.36239
1520950,0.00000,97.5000,151,75,0.38559
1520960,-0.05000,96.9375,151,75,0.40659
1520970,-0.09000,96.2500,151,75,0.42906
1520980,-0.12500,94.7500,151,75,0.47277
1520990,-0.13500,93.9375,151,75,0.49304
1521000,-0.14500,93.0625,155,76,0.51184
1521010,-0.14500,92.1875,155,76,0.52943
1521020,-0.14500,90.5625,155,76,0.55995
1521030,-0.13500,89.8125,155,76,0.57314
1521040,-0.12500,89.0625,155,76,0.58486
1521050,-0.12000,88.3125,155,76,0.59536
1521060,-0.13000,86.8125,155,76,0.60928
1521070,-0.01000,86.0000,155,76,0.61538
1521080,0.42000,85.1875,155,76,0.62076
1521090,0.96000,84.4375,155,76,0.62515
1521100,0.87000,82.8125,155,76,0.62930
1521110,0.19500,82.0000,155,76,0.62882
1521120,-0.32500,81.1875,155,76,0.63663
1521130,-0.47000,80.4375,155,76,0.64762
1521140,-0.36500,78.8750,155,76,0.64493
1521150,-0.24000,78.1875,155,76,0.63858
1521160,-0.21000,77.4375,155,76,0.63053
1521170,-0.20000,76.7500,155,76,0.62100
1521180,-0.19500,75.3750,155,76,0.59927
1521190,-0.18000,74.7500,155,76,0.58803
1521200,-0.17500,74.0625,155,76,0.57705
1521210,-0.16500,73.4375,155,76,0.56630
1521220,-0.16000,72.5625,155,76,0.54554
1521230,-0.14500,72.3750,155,76,0.53578
1521240,-0.13500,72.5625,155,76,0.52601
1521250,-0.11500,73.6250,155,76,0.51648
1521260,-0.09500,81.1875,155,76,0.50061
1521270,-0.06500,88.5625,155,76,0.49231
1521280,-0.02500,97.9375,155,76,0.48352
1521290,0.01500,108.1875,155,76,0.47448
1521300,0.05000,127.6250,155,76,0.45641
1521310,0.09000,135.6875,155,76,0.44737
1521320,0.12000,142.2500,155,76,0.43834
1521330,0.14000,147.2500,155,76,0.42955
1521340,0.15500,153.1875,155,76,0.41172
1521350,0.16000,154.5000,155,76,0.40440
1521360,0.16500,155.1250,155,76,0.39805
1521370,0.15500,155.1250,155,76,0.39023
1521380,0.14500,154.1875,155,76,0.37338
1521390,0.11500,153.3750,155,76,0.36484
1521400,0.07000,152.4375,155,76,0.35629
1521410,0.02000,151.5000,155,76,0.34750
1521420,-0.03000,149.6250,155,76,0.33040
1521430,-0.07500,148.6875,155,76,0.32210
1521440,-0.10500,147.8125,155,76,0.31380
1521450,-0.11500,146.9375,155,76,0.30549
1521460,-0.13000,145.0000,155,76,0.29353
1521470,-0.13500,143.8125,155,76,0.28669
1521480,-0.14500,142.4375,155,76,0.27912
1521490,-0.14500,138.4375,155,76,0.26374
1521500,-0.14500,135.5000,155,76,0.25690
1521510,-0.13000,131.8125,155,76,0.25128
1521520,-0.11500,127.3750,155,76,0.24737
1521530,-0.09500,122.1875,155,76,0.24615
1521540,-0.06500,111.4375,155,76,0.25495
1521550,-0.02500,106.8750,155,76,0.26398
1521560,0.01000,103.3750,155,76,0.27619
1521570,0.05500,100.9375,155,76,0.29255
1521580,0.09500,98.3750,155,76,0.33553
1521590,0.10000,97.6875,155,76,0.36020
1521600,0.07000,97.1875,155,76,0.38608
1521610,0.02500,96.7500,155,76,0.41221
1521620,-0.02000,95.6875,155,76,0.46349
1521630,-0.07000,95.0625,155,76,0.48767
1521640,-0.11000,94.3125,155,76,0.51062
1521650,-0.12500,93.5625,155,76,0.52967
1521660,-0.13500,91.8750,155,76,0.56288
1521670,-0.14000,91.0625,155,76,0.57924
1521680,-0.14500,90.2500,155,76,0.59463
1521690,-0.14500,89.4375,155,76,0.60904
1521700,-0.14500,88.0000,155,76,0.63419
1521710,-0.13500,87.2500,155,76,0.64542
1521720,-0.14500,86.5000,155,76,0.65543
1521730,-0.11000,85.7500,155,76,0.66447
1521740,0.18000,84.1875,155,76,0.67839
1521750,0.74500,83.3750,155,76,0.68205
1521760,0.98000,82.5625,155,76,0.68400
1521770,0.49500,81.8125,155,76,0.68523
1521780,-0.18500,80.1875,155,76,0.68278
1521790,-0.49000,79.3750,155,76,0.67839
1521800,-0.45000,78.6250,155,76,0.67228
1521810,-0.31000,77.8750,155,76,0.66471
1521820,-0.24500,76.4375,155,76,0.64567
1521830,-0.23000,75.7500,155,76,0.63492
1521840,-0.21500,75.0625,155,76,0.62369
1521850,-0.20000,74.3750,155,76,0.61343
1521860,-0.19000,73.0625,155,76,0.59341
1521870,-0.18000,72.4375,155,76,0.58266
1521880,-0.17000,71.9375,155,76,0.57192
1521890,-0.16000,71.5625,155,76,0.56142
1521900,-0.15500,71.5625,155,76,0.54115
1521910,-0.14000,72.6875,155,76,0.53138
1521920,-0.12500,75.3750,155,76,0.52161
1521930,-0.09500,80.3750,155,76,0.51184
1521940,-0.05500,97.3125,155,76,0.49280
1521950,-0.00500,107.6250,155,76,0.48474
1521960,0.02500,117.7500,155,76,0.47717
1521970,0.06000,127.0625,155,76,0.46838
1521980,0.09000,141.5000,155,76,0.44982
1521990,0.10500,146.3750,155,76,0.44054
1522000,0.11500,149.7500,157,77,0.43150
1522010,0.12000,151.9375,157,77,0.42271
1522020,0.12000,153.6875,157,77,0.40513
1522030,0.12500,153.6875,157,77,0.39634
1522040,0.12000,153.3125,157,77,0.38755
1522050,0.11000,152.7500,157,77,0.38022
1522060,0.08000,151.1250,157,77,0.36557
1522070,0.03000,150.2500,157,77,0.35726
1522080,-0.02000,149.3125,157,77,0.34872
1522090,-0.06500,148.3750,157,77,0.33993
1522100,-0.10000,146.5625,157,77,0.32234
1522110,-0.12500,145.6875,157,77,0.31404
1522120,-0.14500,144.8125,157,77,0.30574
1522130,-0.15500,143.8125,157,77,0.29768
1522140,-0.17000,141.2500,157,77,0.28107
1522150,-0.17000,139.5000,157,77,0.27473
1522160,-0.17500,137.3125,157,77,0.26960
1522170,-0.17000,134.5000,157,77,0.26374
1522180,-0.16000,126.5625,157,77,0.25397
1522190,-0.15000,121.5000,157,77,0.25226
1522200,-0.13500,116.1250,157,77,0.25397
1522210,-0.10500,110.9375,157,77,0.25983
1522220,-0.07000,102.8750,157,77,0.28425
1522230,-0.03000,100.3750,157,77,0.30232
1522240,0.00500,98.6875,157,77,0.32357
1522250,0.04500,97.6875,157,77,0.34432
1522260,0.06500,96.5000,157,77,0.38950
1522270,0.06000,96.0625,157,77,0.41490
1522280,0.02500,95.6250,157,77,0.44054
1522290,-0.02500,95.1250,157,77,0.46569
1522300,-0.08500,93.8750,157,77,0.51331
1522310,-0.13500,93.1250,157,77,0.53504
1522320,-0.16000,92.3125,157,77,0.55531
1522330,-0.17500,91.3750,157,77,0.57436
1522340,-0.18000,89.5625,157,77,0.60757
1522350,-0.18000,88.7500,157,77,0.62002
1522360,-0.18000,87.9375,157,77,0.63028
1522370,-0.18000,87.1250,157,77,0.64103
1522380,-0.17500,85.6250,157,77,0.66105
1522390,-0.17000,84.9375,157,77,0.66984
1522400,-0.18000,84.1875,157,77,0.67766
1522410,-0.13500,83.5000,157,77,0.68449
1522420,0.19500,82.1250,157,77,0.69304
1522430,0.81000,81.4375,157,77,0.69475
1522440,1.02000,80.6875,157,77,0.69475
1522450,0.44000,80.0000,157,77,0.69255
1522460,-0.27000,78.5625,157,77,0.68327
1522470,-0.53500,77.8125,157,77,0.67643
1522480,-0.42000,77.0625,157,77,0.66789
1522490,-0.30500,76.3750,157,77,0.65836
1522500,-0.25000,75.0625,157,77,0.63663
1522510,-0.24000,74.3750,157,77,0.62515
1522520,-0.23000,73.6875,157,77,0.61392
1522530,-0.22000,73.0625,157,77,0.60293
1522540,-0.20500,71.8125,157,77,0.58120
1522550,-0.18500,71.2500,157,77,0.57167
1522560,-0.17500,70.7500,157,77,0.56288
1522570,-0.17000,70.4375,157,77,0.55336
1522580,-0.16000,70.6250,157,77,0.53407
1522590,-0.14500,72.0625,157,77,0.52430
1522600,-0.13000,75.3125,157,77,0.51453
1522610,-0.10000,81.1250,157,77,0.50501
1522620,-0.07000,99.5000,157,77,0.48571
1522630,-0.02500,110.1875,157,77,0.47619
1522640,0.02000,120.4375,157,77,0.46667
1522650,0.06500,129.5625,157,77,0.45861
1522660,0.10000,143.2500,157,77,0.44274
1522670,0.12500,147.7500,157,77,0.43394
1522680,0.14000,150.7500,157,77,0.42491
1522690,0.14500,152.6250,157,77,0.41587
1522700,0.14000,153.8750,157,77,0.39805
1522710,0.14000,153.7500,157,77,0.38901
1522720,0.13500,153.3750,157,77,0.37998
1522730,0.12000,152.7500,157,77,0.37118
1522740,0.09000,151.1250,157,77,0.35385
1522750,0.04000,150.2500,157,77,0.34701
1522760,-0.01500,149.3750,157,77,0.34115
1522770,-0.05500,148.5625,157,77,0.33407
1522780,-0.09000,146.9375,157,77,0.31795
1522790,-0.11000,146.1250,157,77,0.30965
1522800,-0.12500,145.2500,157,77,0.30134
1522810,-0.13000,144.2500,157,77,0.29280
1522820,-0.14000,141.6875,157,77,0.27595
1522830,-0.14500,139.8750,157,77,0.26764
1522840,-0.14500,137.6250,157,77,0.26007
1522850,-0.14000,134.7500,157,77,0.25495
1522860,-0.13500,126.8125,157,77,0.24933
1522870,-0.12500,121.8750,157,77,0.24884
1522880,-0.10000,116.6875,157,77,0.25153
1522890,-0.06000,111.6875,157,77,0.25812
1522900,-0.02500,103.8125,157,77,0.28449
1522910,0.00000,101.2500,157,77,0.30379
1522920,0.04000,99.5000,157,77,0.32650
1522930,0.06500,98.3125,157,77,0.35165
1522940,0.06500,96.9375,157,77,0.40586
1522950,0.03500,96.4375,157,77,0.43004
1522960,-0.01500,95.9375,157,77,0.45201
1522970,-0.07500,95.4375,157,77,0.47546
1522980,-0.13500,94.1250,157,77,0.52186
1522990,-0.16000,93.3750,157,77,0.54383
1523000,-0.18000,92.5625,158,78,0.56459
1523010,-0.18500,91.7500,158,78,0.58437
1523020,-0.19000,90.0000,158,78,0.61954
1523030,-0.19500,89.0625,158,78,0.63492
1523040,-0.19000,88.2500,158,78,0.64908
1523050,-0.18500,87.4375,158,78,0.65983
1523060,-0.18000,85.8125,158,78,0.67717
1523070,-0.19000,85.0625,158,78,0.68571
1523080,-0.15000,84.3125,158,78,0.69328
1523090,0.15500,83.5625,158,78,0.69988
1523100,0.78500,82.1250,158,78,0.70867
1523110,1.10000,81.4375,158,78,0.71087
1523120,0.52000,80.7500,158,78,0.71111
1523130,-0.26000,80.0000,158,78,0.70965
1523140,-0.55500,78.5000,158,78,0.70061
1523150,-0.46500,77.7500,158,78,0.69377
1523160,-0.30500,77.0000,158,78,0.68596
1523170,-0.25000,76.3125,158,78,0.68547
1523180,-0.24000,74.8750,158,78,0.68278
1523190,-0.22500,74.1250,158,78,0.67424
1523200,-0.21500,73.4375,158,78,0.66374
1523210,-0.20000,72.7500,158,78,0.65226
1523220,-0.18000,71.5625,158,78,0.62906
1523230,-0.17000,71.0625,158,78,0.61783
1523240,-0.15500,70.6250,158,78,0.60708
1523250,-0.14500,70.4375,158,78,0.59731
1523260,-0.13500,72.1250,158,78,0.57778
1523270,-0.11500,75.3750,158,78,0.56703
1523280,-0.08500,81.1875,158,78,0.55629
1523290,-0.04500,89.5000,158,78,0.54554
1523300,-0.00500,110.1875,158,78,0.52430
1523310,0.03000,120.3750,158,78,0.51404
1523320,0.07000,129.3750,158,78,0.50379
1523330,0.10000,136.8125,158,78,0.49377
1523340,0.12500,146.7500,158,78,0.47521
1523350,0.14500,149.4375,158,78,0.46716
1523360,0.15500,151.0625,158,78,0.45788
1523370,0.15500,151.8125,158,78,0.44786
1523380,0.15500,151.6250,158,78,0.42735
1523390,0.15500,151.0625,158,78,0.41709
1523400,0.14000,150.2500,158,78,0.40708
1523410,0.11500,149.4375,158,78,0.39731
1523420,0.07000,147.6875,158,78,0.37778
1523430,0.02000,146.8125,158,78,0.36801
1523440,-0.02500,146.0000,158,78,0.35849
1523450,-0.05500,145.1250,158,78,0.35067
1523460,-0.08500,143.3750,158,78,0.33602
1523470,-0.10000,142.4375,158,78,0.32747
1523480,-0.10500,141.3750,158,78,0.31868
1523490,-0.11000,140.0625,158,78,0.30965
1523500,-0.11500,136.5000,158,78,0.29133
1523510,-0.11500,134.0000,158,78,0.28254
1523520,-0.11500,130.8125,158,78,0.27497
1523530,-0.10500,126.8750,158,78,0.26862
1523540,-0.09500,117.0000,158,78,0.26422
1523550,-0.07000,111.6250,158,78,0.26716
1523560,-0.03500,106.6250,158,78,0.27350
1523570,0.00500,102.4375,158,78,0.28400
1523580,0.03500,97.1250,158,78,0.31795
1523590,0.08000,95.7500,158,78,0.34066
1523600,0.10500,94.9375,158,78,0.36606
1523610,0.10000,94.4375,158,78,0.39341
1523620,0.07000,93.8125,158,78,0.44982
1523630,0.02000,93.5000,158,78,0.47741
1523640,-0.03500,93.1250,158,78,0.50403
1523650,-0.08500,92.5625,158,78,0.52674
1523660,-0.11000,91.2500,158,78,0.56728
1523670,-0.12500,90.5000,158,78,0.58779
1523680,-0.13000,89.6875,158,78,0.60733
1523690,-0.13500,88.8125,158,78,0.62564
1523700,-0.14000,87.1250,158,78,0.65861
1523710,-0.13500,86.3125,158,78,0.67277
1523720,-0.13000,85.5000,158,78,0.68571
1523730,-0.12500,84.6875,158,78,0.69719
1523740,-0.14000,83.1250,158,78,0.71429
1523750,-0.07500,82.3750,158,78,0.71941
1523760,0.28000,81.6250,158,78,0.72454
1523770,0.89000,80.1250,158,78,0.72894
1523780,1.00500,79.3750,158,78,0.73382
1523790,0.37000,78.6250,158,78,0.73333
1523800,-0.28500,77.8125,158,78,0.73089
1523810,-0.50500,77.0000,158,78,0.72650
1523820,-0.39500,75.4375,158,78,0.71184
1523830,-0.25000,74.6875,158,78,0.70208
1523840,-0.20500,74.0000,158,78,0.69133
1523850,-0.19000,73.3125,158,78,0.68059
1523860,-0.18000,71.9375,158,78,0.65836
1523870,-0.16000,71.3125,158,78,0.64664
1523880,-0.15500,70.6875,158,78,0.63468
1523890,-0.14000,70.0625,158,78,0.62271
1523900,-0.12500,69.0625,158,78,0.59902
1523910,-0.11500,68.7500,158,78,0.58779
1523920,-0.10000,68.6250,158,78,0.57680
1523930,-0.08500,69.1875,158,78,0.56606
1523940,-0.07500,74.4375,158,78,0.54579
1523950,-0.05000,80.4375,158,78,0.53700
1523960,-0.02000,88.7500,158,78,0.52747
1523970,0.02000,98.5000,158,78,0.51746
1523980,0.06000,118.2500,158,78,0.49621
1523990,0.10500,126.6875,158,78,0.48571
1524000,0.14000,133.6875,158,77,0.47546
1524010,0.15500,139.0625,158,77,0.46520
1524020,0.16500,145.2500,158,77,0.44469
1524030,0.17500,146.6250,158,77,0.43443
1524040,0.17500,147.2500,158,77,0.42442
1524050,0.17500,147.3125,158,77,0.41612
1524060,0.16500,146.2500,158,77,0.40024
1524070,0.15500,145.3125,158,77,0.39096
1524080,0.12500,144.3125,158,77,0.38120
1524090,0.08000,143.1875,158,77,0.37143
1524100,0.03500,141.0625,158,77,0.35140
1524110,-0.00500,140.0000,158,77,0.34139
1524120,-0.04500,139.0000,158,77,0.33138
1524130,-0.07000,138.0000,158,77,0.32186
1524140,-0.09500,135.8750,158,77,0.30574
1524150,-0.10500,134.6250,158,77,0.29988
1524160,-0.11500,133.1250,158,77,0.29231
1524170,-0.11500,131.2500,158,77,0.28400
1524180,-0.11000,125.8125,158,77,0.26691
1524190,-0.09500,122.0000,158,77,0.25910
1524200,-0.09000,117.4375,158,77,0.25250
1524210,-0.07500,112.3750,158,77,0.24835
1524220,-0.04500,102.6875,158,77,0.25006
1524230,-0.00500,98.9375,158,77,0.25714
1524240,0.03500,96.2500,158,77,0.26886
1524250,0.07000,94.5000,158,77,0.28303
1524260,0.09500,92.8750,158,77,0.32137
1524270,0.11000,92.5000,158,77,0.34579
1524280,0.09000,92.1875,158,77,0.37216
1524290,0.05500,91.8750,158,77,0.39976
1524300,0.01000,91.0625,158,77,0.45495
1524310,-0.04500,90.4375,158,77,0.48107
1524320,-0.08500,89.7500,158,77,0.50623
1524330,-0.11500,88.9375,158,77,0.53016
1524340,-0.13000,87.2500,158,77,0.57070
1524350,-0.13500,86.4375,158,77,0.58632
1524360,-0.13500,85.6250,158,77,0.60244
1524370,-0.13500,84.8125,158,77,0.61832
1524380,-0.13500,83.3125,158,77,0.64640
1524390,-0.13000,82.5625,158,77,0.65836
1524400,-0.12500,81.8750,158,77,0.66886
1524410,-0.14000,81.1875,158,77,0.67839
1524420,-0.07500,79.8125,158,77,0.69353
1524430,0.27000,79.1250,158,77,0.69890
1524440,0.84500,78.4375,158,77,0.70256
1524450,0.96500,77.6875,158,77,0.70379
1524460,0.35000,76.3125,158,77,0.70085
1524470,-0.27000,75.5625,158,77,0.69695
1524480,-0.48000,74.8750,158,77,0.69084
1524490,-0.39500,74.1250,158,77,0.68303
1524500,-0.25500,72.7500,158,77,0.66325
1524510,-0.19500,72.0625,158,77,0.65201
1524520,-0.19000,71.3750,158,77,0.64029
1524530,-0.18000,70.7500,158,77,0.62857
1524540,-0.17000,69.5000,158,77,0.60684
1524550,-0.16000,68.8750,158,77,0.59707
1524560,-0.15000,68.3750,158,77,0.58681
1524570,-0.13500,67.8750,158,77,0.57631
1524580,-0.12500,67.1250,158,77,0.55580
1524590,-0.11500,67.1250,158,77,0.54579
1524600,-0.10000,67.7500,158,77,0.53602
1524610,-0.08000,69.5000,158,77,0.52625
1524620,-0.05500,79.1250,158,77,0.50672
1524630,-0.02500,87.2500,158,77,0.49695
1524640,0.01000,96.7500,158,77,0.48718
1524650,0.05000,106.5625,158,77,0.47863
1524660,0.07500,123.8125,158,77,0.46178
1524670,0.10000,130.4375,158,77,0.45226
1524680,0.12000,135.5625,158,77,0.44249
1524690,0.13000,139.1250,158,77,0.43272
1524700,0.14000,142.6250,158,77,0.41294
1524710,0.14000,143.1250,158,77,0.40317
1524720,0.14500,143.0625,158,77,0.39341
1524730,0.14000,142.5625,158,77,0.38413
1524740,0.13000,140.8125,158,77,0.36679
1524750,0.11000,139.7500,158,77,0.35995
1524760,0.08500,138.5625,158,77,0.35189
1524770,0.04000,137.4375,158,77,0.34286
1524780,0.00000,135.1250,158,77,0.32479
1524790,-0.03500,134.0000,158,77,0.31575
1524800,-0.06500,132.9375,158,77,0.30647
1524810,-0.09000,131.8125,158,77,0.29744
1524820,-0.10000,129.1875,158,77,0.27937
1524830,-0.10500,127.5000,158,77,0.27033
1524840,-0.10000,125.3750,158,77,0.26129
1524850,-0.09000,122.6250,158,77,0.25470
1524860,-0.07500,114.9375,158,77,0.24347
1524870,-0.05500,110.1875,158,77,0.23810
1524880,-0.03500,105.3750,158,77,0.23443
1524890,-0.00500,101.0000,158,77,0.23370
1524900,0.03000,94.8750,158,77,0.24371
1524910,0.06000,93.1250,158,77,0.25543
1524920,0.10500,92.1250,158,77,0.27155
1524930,0.14000,91.4375,158,77,0.29206
1524940,0.13500,90.6875,158,77,0.33871
1524950,0.09500,90.2500,158,77,0.36166
1524960,0.02500,89.8125,158,77,0.38779
1524970,-0.01500,89.2500,158,77,0.41514
1524980,-0.06500,87.8125,158,77,0.46862
1524990,-0.09500,87.0000,158,77,0.49353
1525000,-0.11500,86.1875,157,77,0.51673
1525010,-0.12500,85.3750,157,77,0.53846
1525020,-0.12500,83.8125,157,77,0.57680
1525030,-0.13000,83.1250,157,77,0.59365
1525040,-0.12500,82.4375,157,77,0.60904
1525050,-0.11500,81.7500,157,77,0.62125
1525060,-0.10500,80.5000,157,77,0.64151
1525070,-0.12000,79.8125,157,77,0.65153
1525080,-0.08500,79.1875,157,77,0.66081
1525090,0.19500,78.5000,157,77,0.66886
1525100,0.75500,77.1250,157,77,0.68010
1525110,0.99000,76.4375,157,77,0.68303
1525120,0.50500,75.6875,157,77,0.68376
1525130,-0.16500,75.0000,157,77,0.68230
1525140,-0.46000,73.5000,157,77,0.67399
1525150,-0.42000,72.8125,157,77,0.66813
1525160,-0.27500,72.1250,157,77,0.66056
1525170,-0.20500,71.4375,157,77,0.65153
1525180,-0.19000,70.1875,157,77,0.63175
1525190,-0.18500,69.5625,157,77,0.62125
1525200,-0.17000,69.0000,157,77,0.61050
1525210,-0.16500,68.3750,157,77,0.60000
1525220,-0.15500,67.3125,157,77,0.58901
1525230,-0.14500,66.8125,157,77,0.58193
1525240,-0.13500,66.5000,157,77,0.57460
1525250,-0.13000,66.3125,157,77,0.56703
1525260,-0.12000,67.6250,157,77,0.54969
1525270,-0.10500,70.1250,157,77,0.54042
1525280,-0.08000,74.8750,157,77,0.53114
1525290,-0.04500,81.9375,157,77,0.52161
1525300,-0.00500,100.6250,157,77,0.50256
1525310,0.02500,110.1250,157,77,0.49328
1525320,0.06000,118.6875,157,77,0.48376
1525330,0.08000,125.9375,157,77,0.47448
1525340,0.09500,136.0000,157,77,0.45739
1525350,0.11000,138.8750,157,77,0.45031
1525360,0.12000,140.6250,157,77,0.44200
1525370,0.12000,141.5625,157,77,0.43321
1525380,0.12000,141.5625,157,77,0.41465
1525390,0.11500,141.0000,157,77,0.40537
1525400,0.11000,140.1250,157,77,0.39609
1525410,0.09000,139.1250,157,77,0.38681
1525420,0.05500,136.8750,157,77,0.36850
1525430,0.01000,135.6875,157,77,0.35971
1525440,-0.02500,134.5000,157,77,0.35287
1525450,-0.06500,133.3750,157,77,0.34676
1525460,-0.08500,131.0625,157,77,0.33114
1525470,-0.10500,129.8750,157,77,0.32283
1525480,-0.12000,128.6250,157,77,0.31429
1525490,-0.12000,127.1875,157,77,0.30549
1525500,-0.11500,123.0625,157,77,0.28791
1525510,-0.11000,120.0625,157,77,0.27937
1525520,-0.09500,116.3750,157,77,0.27155
1525530,-0.07500,112.0625,157,77,0.26520
1525540,-0.05500,102.6875,157,77,0.25958
1525550,-0.04500,98.6250,157,77,0.26178
1525560,-0.02500,95.4375,157,77,0.26667
1525570,0.01000,93.1875,157,77,0.27521
1525580,0.04000,90.9375,157,77,0.30549
1525590,0.06500,90.4375,157,77,0.32650
1525600,0.11000,90.1250,157,77,0.35092
1525610,0.13000,89.8125,157,77,0.37729
1525620,0.11000,88.8750,157,77,0.43272
1525630,0.06000,88.3125,157,77,0.46056
1525640,0.00500,87.6250,157,77,0.48449
1525650,-0.04500,86.8125,157,77,0.50598
1525660,-0.09000,85.1875,157,77,0.55043
1525670,-0.11500,84.3750,157,77,0.57167
1525680,-0.12000,83.5000,157,77,0.59121
1525690,-0.12500,82.6875,157,77,0.60928
1525700,-0.12500,81.1875,157,77,0.64054
1525710,-0.12500,80.5000,157,77,0.65421
1525720,-0.12500,79.9375,157,77,0.66642
1525730,-0.11500,79.3125,157,77,0.67741
1525740,-0.11500,78.1250,157,77,0.69426
1525750,-0.12500,77.5625,157,77,0.69963
1525760,0.00000,77.0000,157,77,0.70476
1525770,0.43000,76.3750,157,77,0.70891
1525780,0.94500,75.0625,157,77,0.71282
1525790,0.81500,74.4375,157,77,0.71184
1525800,0.13000,73.7500,157,77,0.70842
1525810,-0.36500,73.0625,157,77,0.70281
1525820,-0.48000,71.6250,157,77,0.68669
1525830,-0.36500,71.0000,157,77,0.67692
1525840,-0.24500,70.3750,157,77,0.66740
1525850,-0.21000,69.7500,157,77,0.65812
1525860,-0.20000,68.5000,157,77,0.63761
1525870,-0.19000,67.8750,157,77,0.62711
1525880,-0.17500,67.2500,157,77,0.61685
1525890,-0.17000,66.1875,157,77,0.60684
1525900,-0.16000,65.7500,157,77,0.58730
1525910,-0.15500,65.3750,157,77,0.57753
1525920,-0.15000,65.1875,157,77,0.56777
1525930,-0.14500,65.3125,157,77,0.55824
1525940,-0.13500,68.5000,157,77,0.53993
1525950,-0.11000,72.8750,157,77,0.53187
1525960,-0.07000,79.6875,157,77,0.52283
1525970,-0.04500,88.4375,157,77,0.51331
1525980,-0.00500,107.8750,157,77,0.49328
1525990,0.03500,116.7500,157,77,0.48352
1526000,0.06000,124.3750,156,76,0.47375
1526010,0.08500,130.5625,156,76,0.46447
1526020,0.10500,138.4375,156,76,0.44591
1526030,0.11500,140.5000,156,76,0.43663
1526040,0.12500,141.6875,156,76,0.42906
1526050,0.13000,142.1250,156,76,0.42222
1526060,0.12500,141.7500,156,76,0.40562
1526070,0.11500,141.1250,156,76,0.39658
1526080,0.10500,140.3125,156,76,0.38755
1526090,0.07500,139.3750,156,76,0.37827
1526100,0.03500,137.3750,156,76,0.36020
1526110,-0.01000,136.3125,156,76,0.35116
1526120,-0.05500,135.2500,156,76,0.34212
1526130,-0.08500,134.1875,156,76,0.33333
1526140,-0.11000,132.0000,156,76,0.31795
1526150,-0.12500,130.8750,156,76,0.31233
1526160,-0.13000,129.6250,156,76,0.30501
1526170,-0.13000,128.1250,156,76,0.29719
1526180,-0.12000,123.9375,156,76,0.28083
1526190,-0.10500,120.9375,156,76,0.27302
1526200,-0.09500,117.1875,156,76,0.26593
1526210,-0.08000,112.8125,156,76,0.26056
1526220,-0.06500,103.0000,156,76,0.25861
1526230,-0.05500,98.6875,156,76,0.26349
1526240,-0.02500,95.3750,156,76,0.27179
1526250,0.01000,93.0000,156,76,0.28352
1526260,0.04500,90.6250,156,76,0.32015
1526270,0.07500,90.1250,156,76,0.34457
1526280,0.12000,89.7500,156,76,0.37143
1526290,0.13000,89.4375,156,76,0.40000
1526300,0.11000,88.5625,156,76,0.45861
1526310,0.05500,87.9375,156,76,0.48718
1526320,0.00000,87.2500,156,76,0.51453
1526330,-0.04500,86.5000,156,76,0.54042
1526340,-0.08500,84.8750,156,76,0.58486
1526350,-0.11000,84.0000,156,76,0.60195
1526360,-0.11500,83.1875,156,76,0.61978
1526370,-0.12500,82.3750,156,76,0.63712
1526380,-0.12500,80.8125,156,76,0.66862
1526390,-0.12500,80.1250,156,76,0.68230
1526400,-0.12500,79.5625,156,76,0.69475
1526410,-0.12000,79.0000,156,76,0.70623
1526420,-0.12500,77.8750,156,76,0.72503
1526430,-0.12500,77.2500,156,76,0.73236
1526440,0.03500,76.6250,156,76,0.73700
1526450,0.51500,76.0000,156,76,0.73944
1526460,0.98500,74.6875,156,76,0.74164
1526470,0.73500,74.0625,156,76,0.74017
1526480,-0.08500,73.3750,156,76,0.73675
1526490,-0.40000,72.0000,156,76,0.73138
1526500,-0.47000,71.3125,156,76,0.71551
1526510,-0.35000,70.6875,156,76,0.70574
1526520,-0.24000,70.0625,156,76,0.69499
1526530,-0.21500,69.4375,156,76,0.68376
1526540,-0.20500,68.2500,156,76,0.66178
1526550,-0.19500,67.6250,156,76,0.65177
1526560,-0.18000,67.0625,156,76,0.64127
1526570,-0.17500,66.4375,156,76,0.63077
1526580,-0.16500,65.4375,156,76,0.60952
1526590,-0.16000,65.0625,156,76,0.59927
1526600,-0.15500,64.9375,156,76,0.58926
1526610,-0.14500,65.2500,156,76,0.57900
1526620,-0.13000,69.1875,156,76,0.55897
1526630,-0.10500,74.0625,156,76,0.54872
1526640,-0.07500,81.3125,156,76,0.53993
1526650,-0.04000,90.3125,156,76,0.53162
1526660,0.00000,109.6250,156,76,0.51282
1526670,0.03500,118.2500,156,76,0.50281
1526680,0.07000,125.5625,156,76,0.49280
1526690,0.09500,131.4375,156,76,0.48303
1526700,0.11500,138.6875,156,76,0.46300
1526710,0.12500,140.5000,156,76,0.45324
1526720,0.12500,141.5000,156,76,0.44347
1526730,0.12000,141.8750,156,76,0.43370
1526740,0.12000,141.5000,156,76,0.41563
1526750,0.11500,140.8750,156,76,0.40855
1526760,0.10000,140.1250,156,76,0.40024
1526770,0.06500,139.2500,156,76,0.39121
1526780,0.02000,137.3125,156,76,0.37289
1526790,-0.02500,136.3125,156,76,0.36410
1526800,-0.06500,135.2500,156,76,0.35531
1526810,-0.09500,134.2500,156,76,0.34652
1526820,-0.11500,132.1875,156,76,0.32894
1526830,-0.12500,131.0625,156,76,0.32015
1526840,-0.13500,129.8125,156,76,0.31331
1526850,-0.14500,128.3125,156,76,0.30720
1526860,-0.14500,124.1875,156,76,0.29158
1526870,-0.13500,121.3125,156,76,0.28352
1526880,-0.12000,117.6875,156,76,0.27643
1526890,-0.10500,113.4375,156,76,0.27131
1526900,-0.09500,103.9375,156,76,0.26960
1526910,-0.08500,99.6250,156,76,0.27473
1526920,-0.07500,96.1250,156,76,0.28449
1526930,-0.04500,93.5625,156,76,0.29890
1526940,-0.01000,90.8125,156,76,0.33724
1526950,0.02000,90.2500,156,76,0.35849
1526960,0.05000,89.8125,156,76,0.38364
1526970,0.06500,89.5000,156,76,0.41148
1526980,0.06000,88.6250,156,76,0.46960
1526990,0.04000,88.1250,156,76,0.49792
1527000,0.00000,87.5000,156,75,0.52527
1527010,-0.04500,86.8125,156,75,0.55140
1527020,-0.09500,85.1875,156,75,0.59878
1527030,-0.14000,84.3750,156,75,0.62002
1527040,-0.15500,83.5000,156,75,0.63712
1527050,-0.16500,82.6875,156,75,0.65153
1527060,-0.17000,81.0625,156,75,0.68083
1527070,-0.17000,80.3750,156,75,0.69451
1527080,-0.17000,79.6875,156,75,0.70720
1527090,-0.17000,79.0625,156,75,0.71868
1527100,-0.17000,77.8750,156,75,0.73773
1527110,-0.16500,77.2500,156,75,0.74505
1527120,-0.18000,76.6250,156,75,0.75092
1527130,-0.09000,76.0625,156,75,0.75531
1527140,0.29500,74.8125,156,75,0.75629
1527150,0.88000,74.2500,156,75,0.75458
1527160,0.96000,73.5625,156,75,0.75140
1527170,0.26500,72.9375,156,75,0.74628
1527180,-0.37000,71.6875,156,75,0.73089
1527190,-0.54000,71.0625,156,75,0.72112
1527200,-0.42500,70.4375,156,75,0.71038
1527210,-0.29500,69.8125,156,75,0.69939
1527220,-0.25000,68.6250,156,75,0.67692
1527230,-0.24500,68.0625,156,75,0.66545
1527240,-0.23500,67.5000,156,75,0.65519
1527250,-0.23000,66.3750,156,75,0.64542
1527260,-0.22000,65.8750,156,75,0.62247
1527270,-0.21000,65.3750,156,75,0.60879
1527280,-0.19500,65.0000,156,75,0.59683
1527290,-0.19000,64.6875,156,75,0.58559
1527300,-0.18000,65.2500,156,75,0.56435
1527310,-0.16000,67.0625,156,75,0.55409
1527320,-0.14000,70.8125,156,75,0.54383
1527330,-0.11000,77.1250,156,75,0.53382
1527340,-0.07500,95.5625,156,75,0.51697
1527350,-0.03500,105.6875,156,75,0.50794
1527360,0.01000,115.1250,156,75,0.49817
1527370,0.05000,123.3125,156,75,0.48816
1527380,0.08000,135.0625,156,75,0.46838
1527390,0.10000,138.6250,156,75,0.45836
1527400,0.11500,140.9375,156,75,0.44835
1527410,0.12000,142.3125,156,75,0.43834
1527420,0.12000,143.1875,156,75,0.41856
1527430,0.11500,143.0625,156,75,0.40904
1527440,0.11000,142.6250,156,75,0.40147
1527450,0.10000,142.0625,156,75,0.39463
1527460,0.08000,140.6250,156,75,0.37778
1527470,0.03500,139.7500,156,75,0.36899
1527480,-0.00500,138.9375,156,75,0.35995
1527490,-0.05000,138.0625,156,75,0.35092
1527500,-0.08500,136.1875,156,75,0.33284
1527510,-0.11500,135.1875,156,75,0.32430
1527520,-0.13500,134.1250,156,75,0.31600
1527530,-0.14500,133.0000,156,75,0.30745
1527540,-0.15500,130.1875,156,75,0.29548
1527550,-0.15500,128.3125,156,75,0.28816
1527560,-0.15500,125.9375,156,75,0.28034
1527570,-0.15000,123.0625,156,75,0.27277
1527580,-0.14000,115.1875,156,75,0.26252
1527590,-0.13500,110.4375,156,75,0.26154
1527600,-0.12000,105.5625,156,75,0.26471
1527610,-0.10000,101.1250,156,75,0.27228
1527620,-0.06500,94.6875,156,75,0.30134
1527630,-0.02500,92.8750,156,75,0.32259
1527640,0.00000,91.7500,156,75,0.34432
1527650,0.03500,91.1250,156,75,0.36703
1527660,0.07000,90.4375,156,75,0.42222
1527670,0.07000,90.1250,156,75,0.45201
1527680,0.04000,89.7500,156,75,0.48156
1527690,-0.01500,89.3125,156,75,0.51038
1527700,-0.07500,88.1250,156,75,0.56484
1527710,-0.12500,87.3750,156,75,0.58950
1527720,-0.16000,86.6250,156,75,0.61270
1527730,-0.18000,85.8125,156,75,0.63394
1527740,-0.19000,84.0625,156,75,0.66520
1527750,-0.19000,83.1875,156,75,0.68034
1527760,-0.19500,82.3750,156,75,0.69499
1527770,-0.19500,81.6250,156,75,0.70891
1527780,-0.19000,80.2500,156,75,0.73309
1527790,-0.18000,79.5625,156,75,0.74335
1527800,-0.19000,78.9375,156,75,0.75238
1527810,-0.20000,78.2500,156,75,0.76020
1527820,-0.00500,77.0000,156,75,0.77167
1527830,0.54500,76.4375,156,75,0.77436
1527840,1.04500,75.8750,156,75,0.77436
1527850,0.74500,75.2500,156,75,0.77216
1527860,-0.05500,74.0000,156,75,0.76313
1527870,-0.50500,73.3750,156,75,0.75629
1527880,-0.52000,72.6875,156,75,0.74799
1527890,-0.36000,72.0000,156,75,0.73822
1527900,-0.27000,70.6875,156,75,0.71624
1527910,-0.25500,70.0625,156,75,0.70476
1527920,-0.25000,69.5000,156,75,0.69328
1527930,-0.24000,68.8750,156,75,0.68156
1527940,-0.23000,67.6875,156,75,0.66081
1527950,-0.21000,67.1875,156,75,0.65055
1527960,-0.19500,66.6875,156,75,0.64005
1527970,-0.18500,66.3125,156,75,0.62930
1527980,-0.18000,66.0000,156,75,0.60806
1527990,-0.17000,66.6875,156,75,0.59731
1528000,-0.16000,68.8125,153,74,0.58657
1528010,-0.13500,73.1250,153,74,0.57582
1528020,-0.10000,88.8750,153,74,0.55458
1528030,-0.06500,98.8750,153,74,0.54383
1528040,-0.02500,109.0000,153,74,0.53455
1528050,0.01000,118.2500,153,74,0.52601
1528060,0.05000,132.3750,153,74,0.50672
1528070,0.07000,137.0000,153,74,0.49670
1528080,0.09000,140.0625,153,74,0.48645
1528090,0.10000,142.0000,153,74,0.47595
1528100,0.11000,143.3750,153,74,0.45543
1528110,0.11000,143.3125,153,74,0.44518
1528120,0.11500,142.9375,153,74,0.43492
1528130,0.11000,142.4375,153,74,0.42491
1528140,0.10000,141.0000,153,74,0.40952
1528150,0.06500,140.2500,153,74,0.40098
1528160,0.02000,139.4375,153,74,0.39170
1528170,-0.02500,138.6250,153,74,0.38242
1528180,-0.05500,136.9375,153,74,0.36337
1528190,-0.08500,136.0000,153,74,0.35409
1528200,-0.10500,135.0000,153,74,0.34481
1528210,-0.12500,134.0000,153,74,0.33578
1528220,-0.13500,131.4375,153,74,0.31746
1528230,-0.13500,129.8125,153,74,0.30842
1528240,-0.13500,127.7500,153,74,0.30159
1528250,-0.13500,125.1875,153,74,0.29597
1528260,-0.12500,118.1875,153,74,0.28400
1528270,-0.12000,113.7500,153,74,0.28034
1528280,-0.11000,109.0625,153,74,0.27985
1528290,-0.09500,104.5000,153,74,0.28327
1528300,-0.07500,97.2500,153,74,0.30379
1528310,-0.03500,94.9375,153,74,0.32088
1528320,0.00000,93.3125,153,74,0.34188
1528330,0.02500,92.2500,153,74,0.36630
1528340,0.06000,91.0625,153,74,0.41368
1528350,0.09000,90.6250,153,74,0.44078
1528360,0.08000,90.2500,153,74,0.46911
1528370,0.05000,89.8125,153,74,0.49768
1528380,0.01000,88.6250,153,74,0.55238
1528390,-0.05000,87.8750,153,74,0.57778
1528400,-0.10000,87.1250,153,74,0.60147
1528410,-0.13000,86.3125,153,74,0.62369
1528420,-0.14000,84.5625,153,74,0.66276
1528430,-0.14500,83.7500,153,74,0.68010
1528440,-0.14500,82.8750,153,74,0.69353
1528450,-0.14500,82.0000,153,74,0.70452
1528460,-0.14000,80.4375,153,74,0.72723
1528470,-0.13500,79.7500,153,74,0.73797
1528480,-0.12500,79.0625,153,74,0.74774
1528490,-0.14500,78.3750,153,74,0.75629
1528500,-0.06500,77.1250,153,74,0.76850
1528510,0.22000,76.5000,153,74,0.77241
1528520,0.84500,75.9375,153,74,0.77436
1528530,1.04000,75.3750,153,74,0.77411
1528540,0.43500,74.1875,153,74,0.76752
1528550,-0.28000,73.5625,153,74,0.76166
1528560,-0.52500,72.8750,153,74,0.75409
1528570,-0.41500,72.1875,153,74,0.74554
1528580,-0.25500,70.7500,153,74,0.72454
1528590,-0.20500,70.0625,153,74,0.71258
1528600,-0.20000,69.4375,153,74,0.70037
1528610,-0.19000,68.7500,153,74,0.68840
1528620,-0.17500,67.5625,153,74,0.66520
1528630,-0.16000,67.0000,153,74,0.65397
1528640,-0.14000,66.4375,153,74,0.64396
1528650,-0.13000,66.0000,153,74,0.63419
1528660,-0.11500,65.2500,153,74,0.61319
1528670,-0.10500,65.3125,153,74,0.60244
1528680,-0.09000,66.1250,153,74,0.59145
1528690,-0.07500,68.3125,153,74,0.58046
1528700,-0.05500,79.3125,153,74,0.55775
1528710,-0.02500,88.0000,153,74,0.54603
1528720,0.01000,97.8125,153,74,0.53455
1528730,0.05000,107.6250,153,74,0.52332
1528740,0.09500,124.2500,153,74,0.50501
1528750,0.13000,130.3125,153,74,0.49524
1528760,0.15500,134.6875,153,74,0.48498
1528770,0.16500,137.6250,153,74,0.47448
1528780,0.17500,140.2500,153,74,0.45299
1528790,0.18000,140.5000,153,74,0.44249
1528800,0.18500,140.3125,153,74,0.43199
1528810,0.18000,139.8750,153,74,0.42173
1528820,0.17000,138.5625,153,74,0.40147
1528830,0.14500,137.7500,153,74,0.39316
1528840,0.11000,136.9375,153,74,0.38608
1528850,0.06000,136.0625,153,74,0.37753
1528860,0.01500,134.3125,153,74,0.35849
1528870,-0.02000,133.4375,153,74,0.34872
1528880,-0.04500,132.5000,153,74,0.33895
1528890,-0.06500,131.5000,153,74,0.32918
1528900,-0.07500,129.2500,153,74,0.31038
1528910,-0.08500,127.8125,153,74,0.30110
1528920,-0.08000,126.0625,153,74,0.29182
1528930,-0.08000,123.8125,153,74,0.28303
1528940,-0.07500,117.4375,153,74,0.27204
1528950,-0.06500,113.3125,153,74,0.26716
1528960,-0.05000,108.6875,153,74,0.26374
1528970,-0.03500,104.1875,153,74,0.26276
1528980,-0.01500,96.7500,153,74,0.27204
1528990,0.02000,94.1875,153,74,0.28352
1529000,0.05500,92.4375,152,73,0.29963
1529010,0.08000,91.2500,152,73,0.31990
1529020,0.11000,90.0000,152,73,0.36996
1529030,0.14000,89.5625,152,73,0.39487
1529040,0.14000,89.1875,152,73,0.41905
1529050,0.11000,88.7500,152,73,0.44615
1529060,0.06000,87.6875,152,73,0.50134
1529070,0.01500,87.0000,152,73,0.52772
1529080,-0.03000,86.2500,152,73,0.55263
1529090,-0.07000,85.5000,152,73,0.57607
1529100,-0.09000,83.7500,152,73,0.61783
1529110,-0.09500,82.8750,152,73,0.63639
1529120,-0.09500,82.0000,152,73,0.65324
1529130,-0.10500,81.1875,152,73,0.66862
1529140,-0.10500,79.6875,152,73,0.69011
1529150,-0.10500,79.0000,152,73,0.70037
1529160,-0.09500,78.3750,152,73,0.71013
1529170,-0.10000,77.8125,152,73,0.71917
1529180,-0.10500,76.6250,152,73,0.73407
1529190,0.07500,76.0000,152,73,0.73919
1529200,0.57000,75.4375,152,73,0.74261
1529210,1.01000,74.8125,152,73,0.74383
1529220,0.76500,73.5625,152,73,0.74042
1529230,0.03500,72.8750,152,73,0.73578
1529240,-0.40500,72.2500,152,73,0.72967
1529250,-0.44000,71.5625,152,73,0.72210
1529260,-0.29000,70.2500,152,73,0.70330
1529270,-0.19500,69.5625,152,73,0.69280
1529280,-0.17000,68.9375,152,73,0.68156
1529290,-0.16000,68.2500,152,73,0.67033
1529300,-0.15000,67.0625,152,73,0.64811
1529310,-0.14000,66.5000,152,73,0.63199
1529320,-0.12500,65.9375,152,73,0.61319
1529330,-0.11500,65.4375,152,73,0.59853
1529340,-0.10500,64.6250,152,73,0.57753
1529350,-0.09000,64.4375,152,73,0.56777
1529360,-0.08000,64.6250,152,73,0.55775
1529370,-0.07000,65.5000,152,73,0.54774
1529380,-0.05500,72.1875,152,73,0.52747
1529390,-0.02500,78.8125,152,73,0.51746
1529400,0.01000,87.3125,152,73,0.50720
1529410,0.04500,96.7500,152,73,0.49695
1529420,0.08000,114.3750,152,73,0.47643
1529430,0.11000,121.4375,152,73,0.46764
1529440,0.13000,127.0625,152,73,0.45958
1529450,0.14500,131.0625,152,73,0.45055
1529460,0.15000,135.2500,152,73,0.43150
1529470,0.15000,135.9375,152,73,0.42173
1529480,0.15000,136.0000,152,73,0.41197
1529490,0.15000,135.6250,152,73,0.40244
1529500,0.15000,134.1875,152,73,0.38388
1529510,0.14500,133.2500,152,73,0.37460
1529520,0.13000,132.2500,152,73,0.36532
1529530,0.09500,131.1875,152,73,0.35604
1529540,0.05000,129.1250,152,73,0.34188
1529550,0.01000,128.1250,152,73,0.33382
1529560,-0.02500,127.1250,152,73,0.32527
1529570,-0.05000,126.0625,152,73,0.31648
1529580,-0.07000,123.6875,152,73,0.29890
1529590,-0.08000,122.2500,152,73,0.29011
1529600,-0.08000,120.4375,152,73,0.28107
1529610,-0.07000,118.1875,152,73,0.27228
1529620,-0.06500,111.8125,152,73,0.25543
1529630,-0.05000,107.6250,152,73,0.24982
1529640,-0.04000,103.1250,152,73,0.24640
1529650,-0.02500,98.8125,152,73,0.24347
1529660,-0.01000,92.1875,152,73,0.24567
1529670,0.02000,90.1875,152,73,0.25226
1529680,0.05000,88.9375,152,73,0.26325
1529690,0.07500,88.2500,152,73,0.27863
1529700,0.12000,87.6250,152,73,0.32039
1529710,0.15000,87.3750,152,73,0.34505
1529720,0.14000,87.0000,152,73,0.37118
1529730,0.09500,86.5625,152,73,0.39780
1529740,0.03500,85.4375,152,73,0.44298
1529750,-0.01500,84.6875,152,73,0.46642
1529760,-0.06000,83.8750,152,73,0.49011
1529770,-0.08500,83.0625,152,73,0.51306
1529780,-0.09500,81.4375,152,73,0.55507
1529790,-0.10000,80.5625,152,73,0.57387
1529800,-0.10500,79.8125,152,73,0.59096
1529810,-0.11000,79.0625,152,73,0.60635
1529820,-0.11500,77.8125,152,73,0.63248
1529830,-0.10500,77.2500,152,73,0.64176
1529840,-0.10500,76.6875,152,73,0.64908
1529850,-0.11500,76.1250,152,73,0.65665
1529860,-0.04500,75.0000,152,73,0.66935
1529870,0.30000,74.3750,152,73,0.67399
1529880,0.85500,73.8125,152,73,0.67717
1529890,0.94000,72.5625,152,73,0.67766
1529900,0.32000,71.8750,152,73,0.67497
1529910,-0.27000,71.1875,152,73,0.67033
1529920,-0.47000,70.5000,152,73,0.66422
1529930,-0.39500,69.8125,152,73,0.65690
1529940,-0.25500,68.5625,152,73,0.64176
1529950,-0.19500,68.0000,152,73,0.63297
1529960,-0.18500,67.4375,152,73,0.62369
1529970,-0.17000,66.8750,152,73,0.61416
1529980,-0.16000,65.6875,152,73,0.59463
1529990,-0.15500,65.1250,152,73,0.58462
1530000,-0.14500,64.6250,149,71,0.57460
1530010,-0.13000,64.1875,149,71,0.56459
1530020,-0.11500,63.6875,149,71,0.54530
1530030,-0.10500,63.8125,149,71,0.53700
1530040,-0.09500,64.6875,149,71,0.52918
1530050,-0.08000,66.8750,149,71,0.52039
1530060,-0.06000,77.6250,149,71,0.50232
1530070,-0.03000,86.0000,149,71,0.49328
1530080,0.00000,95.3125,149,71,0.48400
1530090,0.04000,104.5000,149,71,0.47473
1530100,0.07000,120.0000,149,71,0.45592
1530110,0.09000,125.6250,149,71,0.44640
1530120,0.11000,129.6875,149,71,0.43687
1530130,0.12000,132.4375,149,71,0.42759
1530140,0.12000,134.7500,149,71,0.41294
1530150,0.13000,134.9375,149,71,0.40513
1530160,0.13000,134.6875,149,71,0.39658
1530170,0.12500,134.1875,149,71,0.38779
1530180,0.11500,132.6250,149,71,0.36972
1530190,0.10000,131.6875,149,71,0.36093
1530200,0.06500,130.6875,149,71,0.35214
1530210,0.02500,129.6875,149,71,0.34310
1530220,-0.01500,127.6250,149,71,0.32527
1530230,-0.05000,126.5625,149,71,0.31868
1530240,-0.07500,125.5625,149,71,0.31282
1530250,-0.09500,124.4375,149,71,0.30549
1530260,-0.10500,121.8750,149,71,0.28938
1530270,-0.10500,120.1875,149,71,0.28107
1530280,-0.09500,118.0625,149,71,0.27277
1530290,-0.08000,115.3750,149,71,0.26471
1530300,-0.06500,108.0625,149,71,0.25055
1530310,-0.05500,103.6875,149,71,0.24518
1530320,-0.04000,99.3750,149,71,0.24176
1530330,-0.03000,95.5000,149,71,0.24151
1530340,-0.02500,90.3750,149,71,0.25177
1530350,-0.00500,89.0000,149,71,0.26252
1530360,0.02000,88.1875,149,71,0.27741
1530370,0.04500,87.6875,149,71,0.29621
1530380,0.07000,87.0625,149,71,0.34335
1530390,0.11500,86.7500,149,71,0.36996
1530400,0.13500,86.2500,149,71,0.39707
1530410,0.11500,85.6875,149,71,0.42418
1530420,0.06000,84.3125,149,71,0.47717
1530430,0.00000,83.5000,149,71,0.49915
1530440,-0.05000,82.6250,149,71,0.51844
1530450,-0.09000,81.7500,149,71,0.53846
1530460,-0.11500,80.0625,149,71,0.57705
1530470,-0.12000,79.3125,149,71,0.59463
1530480,-0.12500,78.5625,149,71,0.61074
1530490,-0.12500,77.2500,149,71,0.62564
1530500,-0.12500,76.6875,149,71,0.65079
1530510,-0.12500,76.1250,149,71,0.66154
1530520,-0.12000,75.6250,149,71,0.67082
1530530,-0.12000,75.1250,149,71,0.67839
1530540,-0.13500,74.1875,149,71,0.68669
1530550,-0.02500,73.6250,149,71,0.68938
1530560,0.40000,73.0625,149,71,0.69084
1530570,0.94000,71.9375,149,71,0.69060
1530580,0.85500,71.3125,149,71,0.68498
1530590,0.18000,70.6875,149,71,0.67961
1530600,-0.33000,70.0625,149,71,0.67277
1530610,-0.47500,69.4375,149,71,0.66471
1530620,-0.37000,68.1875,149,71,0.64591
1530630,-0.24000,67.5625,149,71,0.63639
1530640,-0.20000,67.0000,149,71,0.62735
1530650,-0.19000,66.4375,149,71,0.61783
1530660,-0.18000,65.3125,149,71,0.59902
1530670,-0.17000,64.7500,149,71,0.58999
1530680,-0.16000,64.2500,149,71,0.58095
1530690,-0.15000,63.6875,149,71,0.57167
1530700,-0.14500,62.9375,149,71,0.55287
1530710,-0.13500,62.8125,149,71,0.54335
1530720,-0.12500,63.0625,149,71,0.53382
1530730,-0.11500,64.1875,149,71,0.52527
1530740,-0.09500,71.6250,149,71,0.50842
1530750,-0.07000,78.6250,149,71,0.49915
1530760,-0.04000,87.3750,149,71,0.48938
1530770,-0.00500,96.8125,149,71,0.47961
1530780,0.03000,114.1875,149,71,0.45958
1530790,0.06000,121.1250,149,71,0.44982
1530800,0.08000,126.5000,149,71,0.44005
1530810,0.10000,130.5000,149,71,0.43053
1530820,0.11000,134.7500,149,71,0.41221
1530830,0.11500,135.5625,149,71,0.40488
1530840,0.11500,135.8125,149,71,0.39878
1530850,0.11000,135.6250,149,71,0.39145
1530860,0.10500,134.6875,149,71,0.37509
1530870,0.10000,133.9375,149,71,0.36654
1530880,0.07500,133.0625,149,71,0.35775
1530890,0.04500,132.1875,149,71,0.34896
1530900,0.00500,130.3125,149,71,0.33138
1530910,-0.03000,129.3125,149,71,0.32259
1530920,-0.06500,128.3750,149,71,0.31404
1530930,-0.08500,127.4375,149,71,0.30745
1530940,-0.10000,125.3750,149,71,0.29475
1530950,-0.11000,124.1250,149,71,0.28718
1530960,-0.11000,122.5625,149,71,0.27937
1530970,-0.10500,120.6875,149,71,0.27155
1530980,-0.09500,115.3125,149,71,0.25665
1530990,-0.08000,111.6875,149,71,0.25006
1531000,-0.07000,107.5000,149,71,0.24493
1531010,-0.06000,103.1250,149,71,0.24200
1531020,-0.05000,95.4375,149,71,0.24640
1531030,-0.04000,92.6875,149,71,0.25372
1531040,-0.02000,90.8125,149,71,0.26447
1531050,0.01000,89.6250,149,71,0.27961
1531060,0.03500,88.4375,149,71,0.32234
1531070,0.06500,88.0000,149,71,0.34799
1531080,0.10000,87.5625,149,71,0.37534
1531090,0.12500,87.0625,149,71,0.40391
1531100,0.10500,85.8750,149,71,0.46105
1531110,0.06000,85.1250,149,71,0.48864
1531120,0.00000,84.3125,149,71,0.51477
1531130,-0.04500,83.4375,149,71,0.53651
1531140,-0.08500,81.6875,149,71,0.57558
1531150,-0.10500,80.8750,149,71,0.59487
1531160,-0.11500,80.0625,149,71,0.61319
1531170,-0.12000,79.2500,149,71,0.63004
1531180,-0.12500,77.8750,149,71,0.65934
1531190,-0.13000,77.3125,149,71,0.67204
1531200,-0.13000,76.7500,149,71,0.68327
1531210,-0.12500,75.6875,149,71,0.69353
1531220,-0.12500,75.2500,149,71,0.71013
1531230,-0.14500,74.7500,149,71,0.71526
1531240,-0.03500,74.1875,149,71,0.71819
1531250,0.37000,73.6875,149,71,0.72063
1531260,0.89500,72.5625,149,71,0.72088
1531270,0.87000,71.9375,149,71,0.71795
1531280,0.19500,71.3125,149,71,0.71306
1531290,-0.34500,70.7500,149,71,0.70647
1531300,-0.48500,69.4375,149,71,0.68987
1531310,-0.38000,68.8125,149,71,0.68059
1531320,-0.25000,68.1875,149,71,0.67082
1531330,-0.21000,67.0000,149,71,0.66154
1531340,-0.21000,66.3750,149,71,0.64298
1531350,-0.19500,65.8125,149,71,0.63321
1531360,-0.19000,65.1875,149,71,0.62906
1531370,-0.18000,64.6250,149,71,0.62784
1531380,-0.17000,63.6875,149,71,0.61441
1531390,-0.16000,63.3125,149,71,0.60562
1531400,-0.15500,63.1250,149,71,0.59609
1531410,-0.14000,63.3125,149,71,0.58584
1531420,-0.12500,66.4375,149,71,0.56459
1531430,-0.10500,70.6875,149,71,0.55507
1531440,-0.08000,77.2500,149,71,0.54628
1531450,-0.04500,85.6875,149,71,0.53651
1531460,-0.01000,104.3750,149,71,0.51600
1531470,0.03000,112.8750,149,71,0.50549
1531480,0.06000,120.1250,149,71,0.49524
1531490,0.08500,125.8750,149,71,0.48523
1531500,0.10000,133.0000,149,71,0.46545
1531510,0.11000,134.8125,149,71,0.45568
1531520,0.11000,135.8125,149,71,0.44615
1531530,0.12000,136.2500,149,71,0.43810
1531540,0.12000,136.0625,149,71,0.42247
1531550,0.11000,135.5625,149,71,0.41343
1531560,0.10000,134.9375,149,71,0.40440
1531570,0.08000,134.2500,149,71,0.39512
1531580,0.04500,132.6250,149,71,0.37656
1531590,0.00000,131.7500,149,71,0.36728
1531600,-0.04500,130.8125,149,71,0.35800
1531610,-0.08500,129.8750,149,71,0.34872
1531620,-0.11500,127.8750,149,71,0.33016
1531630,-0.13000,126.8750,149,71,0.32283
1531640,-0.14000,125.6875,149,71,0.31673
1531650,-0.14000,124.3750,149,71,0.30940
1531660,-0.13500,120.8125,149,71,0.29304
1531670,-0.13000,118.2500,149,71,0.28498
1531680,-0.11500,115.0625,149,71,0.27741
1531690,-0.09500,111.2500,149,71,0.27106
1531700,-0.08500,102.3750,149,71,0.26618
1531710,-0.07500,98.1875,149,71,0.26911
1531720,-0.07000,94.6875,149,71,0.27668
1531730,-0.06000,92.0625,149,71,0.28718
1531740,-0.03500,89.1250,149,71,0.31941
1531750,0.00000,88.5000,149,71,0.34188
1531760,0.02500,88.0625,149,71,0.36752
1531770,0.05000,87.7500,149,71,0.39536
1531780,0.07000,86.8750,149,71,0.45348
1531790,0.08000,86.3750,149,71,0.48254
1531800,0.06000,85.7500,149,71,0.51087
1531810,0.02500,85.0625,149,71,0.53822
1531820,-0.02000,83.5000,149,71,0.58877
1531830,-0.07500,82.6250,149,71,0.60855
1531840,-0.11500,81.8125,149,71,0.62540
1531850,-0.13500,81.0000,149,71,0.64322
1531860,-0.14500,79.3750,149,71,0.67717
1531870,-0.15000,78.6875,149,71,0.69255
1531880,-0.15500,77.9375,149,71,0.70647
1531890,-0.15500,77.3125,149,71,0.71893
1531900,-0.15500,76.1875,149,71,0.73993
1531910,-0.15000,75.6875,149,71,0.74872
1531920,-0.14500,75.1250,149,71,0.75580
1531930,-0.16000,74.5625,149,71,0.75995
1531940,-0.11500,73.4375,149,71,0.76337
1531950,0.19000,72.9375,149,71,0.76337
1531960,0.77500,72.3750,149,71,0.76190
1531970,1.01000,71.8125,149,71,0.75849
1531980,0.45000,70.6875,149,71,0.74628
1531990,-0.23500,70.0625,149,71,0.73773
1532000,-0.52000,69.4375,147,70,0.72821
1532010,-0.45500,68.8125,147,70,0.71770
1532020,-0.31000,67.6875,147,70,0.69499
1532030,-0.24500,67.1250,147,70,0.68425
1532040,-0.24000,66.5625,147,70,0.67424
1532050,-0.23000,66.0625,147,70,0.66374
1532060,-0.22000,64.9375,147,70,0.64225
1532070,-0.20000,64.3750,147,70,0.63175
1532080,-0.19000,63.9375,147,70,0.62149
1532090,-0.17500,63.5000,147,70,0.61123
1532100,-0.16500,63.0625,147,70,0.59072
1532110,-0.15500,63.3750,147,70,0.58022
1532120,-0.14500,64.5000,147,70,0.56947
1532130,-0.12500,67.3125,147,70,0.55995
1532140,-0.10500,79.8125,147,70,0.54090
1532150,-0.06500,88.9375,147,70,0.53065
1532160,-0.02500,98.6875,147,70,0.52015
1532170,0.01000,108.0625,147,70,0.50965
1532180,0.04500,123.3750,147,70,0.48840
1532190,0.07500,128.8125,147,70,0.47790
1532200,0.10000,132.7500,147,70,0.46740
1532210,0.11000,135.3750,147,70,0.45714
1532220,0.11500,137.8750,147,70,0.43761
1532230,0.12000,138.3125,147,70,0.42955
1532240,0.12000,138.3750,147,70,0.42247
1532250,0.11000,138.2500,147,70,0.41416
1532260,0.10500,137.5000,147,70,0.39609
1532270,0.08500,136.9375,147,70,0.38681
1532280,0.05000,136.2500,147,70,0.37753
1532290,0.01000,135.5000,147,70,0.36825
1532300,-0.03500,133.8125,147,70,0.34969
1532310,-0.07000,132.9375,147,70,0.34017
1532320,-0.10500,132.0000,147,70,0.33065
1532330,-0.12000,131.0625,147,70,0.32332
1532340,-0.13500,128.9375,147,70,0.30989
1532350,-0.14500,127.6875,147,70,0.30183
1532360,-0.15000,126.1250,147,70,0.29377
1532370,-0.15000,124.2500,147,70,0.28571
1532380,-0.14500,118.8750,147,70,0.27179
1532390,-0.13500,115.1875,147,70,0.26667
1532400,-0.12500,111.0000,147,70,0.26374
1532410,-0.11500,106.4375,147,70,0.26422
1532420,-0.11000,98.0625,147,70,0.27863
1532430,-0.09000,94.9375,147,70,0.29084
1532440,-0.06500,92.6875,147,70,0.30623
1532450,-0.02500,91.1875,147,70,0.32625
1532460,0.00500,89.7500,147,70,0.37680
1532470,0.03500,89.3750,147,70,0.40562
1532480,0.07000,89.0625,147,70,0.43565
1532490,0.08000,88.7500,147,70,0.46593
1532500,0.06000,87.8125,147,70,0.52503
1532510,0.01500,87.1875,147,70,0.55311
1532520,-0.03500,86.5000,147,70,0.57998
1532530,-0.08500,85.7500,147,70,0.60220
1532540,-0.13500,84.0625,147,70,0.64176
1532550,-0.15500,83.2500,147,70,0.66203
1532560,-0.16500,82.3750,147,70,0.68132
1532570,-0.16500,81.5625,147,70,0.69915
1532580,-0.17000,80.0000,147,70,0.73016
1532590,-0.17500,79.3125,147,70,0.74335
1532600,-0.18000,78.6875,147,70,0.75507
1532610,-0.17500,78.0625,147,70,0.76557
1532620,-0.18000,76.8750,147,70,0.78071
1532630,-0.20000,76.2500,147,70,0.78462
1532640,-0.07500,75.6875,147,70,0.78828
1532650,0.37500,75.1250,147,70,0.79121
1532660,0.96000,74.1250,147,70,0.79194
1532670,0.92000,73.5625,147,70,0.78950
1532680,0.16000,73.0000,147,70,0.78510
1532690,-0.42500,72.3750,147,70,0.77875
1532700,-0.53500,71.1250,147,70,0.76142
1532710,-0.39500,70.4375,147,70,0.75116
1532720,-0.27500,69.8125,147,70,0.73993
1532730,-0.24500,69.1875,147,70,0.72918
1532740,-0.24000,67.9375,147,70,0.70769
1532750,-0.23000,67.3750,147,70,0.69646
1532760,-0.21500,66.8125,147,70,0.68523
1532770,-0.20000,66.3125,147,70,0.67399
1532780,-0.18500,65.3750,147,70,0.65226
1532790,-0.18000,65.0000,147,70,0.64176
1532800,-0.17500,64.8125,147,70,0.63101
1532810,-0.16500,64.9375,147,70,0.62002
1532820,-0.15000,68.6250,147,70,0.59927
1532830,-0.12500,73.5000,147,70,0.58974
1532840,-0.10000,80.8750,147,70,0.57949
1532850,-0.06500,90.0625,147,70,0.56899
1532860,-0.02500,109.5625,147,70,0.54701
1532870,0.01500,118.0625,147,70,0.53626
1532880,0.05000,125.1875,147,70,0.52576
1532890,0.07500,130.6875,147,70,0.51502
1532900,0.09000,137.1875,147,70,0.49377
1532910,0.10500,138.6875,147,70,0.48352
1532920,0.11000,139.4375,147,70,0.47302
1532930,0.11000,139.7500,147,70,0.46422
1532940,0.11000,139.4375,147,70,0.44689
1532950,0.11000,139.0000,147,70,0.43687
1532960,0.09500,138.5000,147,70,0.42662
1532970,0.06500,138.0000,147,70,0.41636
1532980,0.02000,136.8125,147,70,0.39609
1532990,-0.03500,136.1875,147,70,0.38632
1533000,-0.06500,135.4375,145,69,0.37680
1533010,-0.09500,134.6875,145,69,0.36728
1533020,-0.12000,133.0000,145,69,0.35067
1533030,-0.13500,132.0000,145,69,0.34432
1533040,-0.14500,130.9375,145,69,0.33675
1533050,-0.15500,129.6875,145,69,0.32869
1533060,-0.15500,126.3125,145,69,0.31136
1533070,-0.16000,123.9375,145,69,0.30281
1533080,-0.16000,120.9375,145,69,0.29499
1533090,-0.15500,117.2500,145,69,0.28864
1533100,-0.14500,108.5625,145,69,0.28449
1533110,-0.12500,104.1250,145,69,0.28864
1533120,-0.11500,100.1875,145,69,0.29744
1533130,-0.09500,97.0625,145,69,0.30916
1533140,-0.06500,93.0625,145,69,0.34408
1533150,-0.02500,92.0625,145,69,0.36801
1533160,0.00000,91.4375,145,69,0.39463
1533170,0.03000,91.0000,145,69,0.42344
1533180,0.07000,90.1875,145,69,0.48230
1533190,0.08000,89.7500,145,69,0.51111
1533200,0.05000,89.1875,145,69,0.53919
1533210,0.00000,88.5625,145,69,0.56654
1533220,-0.05500,87.0625,145,69,0.61441
1533230,-0.10500,86.2500,145,69,0.63321
1533240,-0.14000,85.3750,145,69,0.65299
1533250,-0.15500,84.4375,145,69,0.67253
1533260,-0.16000,82.6250,145,69,0.70818
1533270,-0.16000,81.7500,145,69,0.72381
1533280,-0.16000,80.9375,145,69,0.73822
1533290,-0.16500,80.1875,145,69,0.75116
1533300,-0.18000,78.8125,145,69,0.77289
1533310,-0.17500,78.1875,145,69,0.78193
1533320,-0.17000,77.5625,145,69,0.78950
1533330,-0.14500,76.9375,145,69,0.79414
1533340,0.12500,75.7500,145,69,0.79878
1533350,0.72500,75.2500,145,69,0.80000
1533360,1.10000,74.7500,145,69,0.79951
1533370,0.66000,74.1875,145,69,0.79731
1533380,-0.13000,73.0000,145,69,0.78706
1533390,-0.49000,72.4375,145,69,0.77924
1533400,-0.41500,71.7500,145,69,0.76996
1533410,-0.24000,71.0625,145,69,0.74774
1533420,-0.16500,69.7500,145,69,0.70012
1533430,-0.14500,69.0625,145,69,0.68547
1533440,-0.13500,68.4375,145,69,0.67253
1533450,-0.10500,67.8125,145,69,0.66056
1533460,-0.08500,66.6875,145,69,0.63785
1533470,-0.06000,66.1250,145,69,0.62711
1533480,-0.04000,65.6875,145,69,0.61661
1533490,-0.02500,65.3125,145,69,0.60586
1533500,-0.02000,65.2500,145,69,0.58486
1533510,-0.01500,66.3125,145,69,0.57436
1533520,-0.00500,68.9375,145,69,0.56361
1533530,0.03500,81.1250,145,69,0.54505
1533540,0.07000,90.1250,145,69,0.53504
1533550,0.09500,99.9375,145,69,0.52454
1533560,0.08000,109.5000,145,69,0.51355
1533570,0.04000,118.0625,145,69,0.50281
1533580,0.01000,130.5625,145,69,0.48230
1533590,0.02000,134.3750,145,69,0.47204
1533600,0.10000,136.8750,145,69,0.46154
1533610,0.20500,138.9375,145,69,0.45128
1533620,0.25500,139.1875,145,69,0.43223
1533630,0.27500,139.0625,145,69,0.42442
1533640,0.26500,138.8125,145,69,0.41563
1533650,0.26500,138.3750,145,69,0.40635
1533660,0.26500,137.3125,145,69,0.38730
1533670,0.28000,136.7500,145,69,0.37802
1533680,0.28500,136.1250,145,69,0.36874
1533690,0.24000,135.4375,145,69,0.35946
1533700,0.19500,134.0000,145,69,0.34115
1533710,0.22000,133.2500,145,69,0.33187
1533720,0.29000,132.4375,145,69,0.32259
1533730,0.33000,131.5625,145,69,0.31526
1533740,0.31000,129.1875,145,69,0.30110
1533750,0.22000,127.5625,145,69,0.29280
1533760,0.10000,125.5625,145,69,0.28425
1533770,-0.02500,123.0625,145,69,0.27595
1533780,-0.11500,116.0000,145,69,0.26227
1533790,-0.18000,111.6250,145,69,0.25861
1533800,-0.25000,106.9375,145,69,0.25812
1533810,-0.31500,102.5000,145,69,0.26154
1533820,-0.34500,95.6250,145,69,0.27961
1533830,-0.34000,93.4375,145,69,0.29280
1533840,-0.30500,92.0000,145,69,0.31038
1533850,-0.28000,91.0625,145,69,0.33162
1533860,-0.26000,90.1250,145,69,0.38120
1533870,-0.21500,89.8750,145,69,0.40781
1533880,-0.19000,89.5625,145,69,0.43516
1533890,-0.23000,89.2500,145,69,0.46203
1533900,-0.29000,88.1875,145,69,0.51331
1533910,-0.35500,87.5000,145,69,0.53724
1533920,-0.40500,86.6875,145,69,0.55971
1533930,-0.45500,85.8125,145,69,0.57827
1533940,-0.50000,83.9375,145,69,0.61099
1533950,-0.50000,82.9375,145,69,0.62735
1533960,-0.46000,82.0000,145,69,0.64298
1533970,-0.40000,81.1250,145,69,0.65763
1533980,-0.34500,79.6875,145,69,0.68327
1533990,-0.29500,79.0625,145,69,0.69426
1534000,-0.25000,78.5000,143,68,0.70379
1534010,-0.22000,77.9375,143,68,0.71209
1534020,-0.21000,76.8750,143,68,0.72308
1534030,-0.04000,76.3750,143,68,0.72527
1534040,0.45000,75.8750,143,68,0.72747
1534050,0.98500,75.3125,143,68,0.72845
1534060,0.85500,74.1250,143,68,0.72601
1534070,0.12500,73.5000,143,68,0.72186
1534080,-0.36500,72.8125,143,68,0.71575
1534090,-0.42500,72.1250,143,68,0.70818
1534100,-0.29000,70.7500,143,68,0.68962
1534110,-0.16500,70.1250,143,68,0.67937
1534120,-0.13500,69.5000,143,68,0.66862
1534130,-0.13000,68.8750,143,68,0.65861
1534140,-0.12000,67.6875,143,68,0.63883
1534150,-0.11500,67.1250,143,68,0.62857
1534160,-0.10500,66.5625,143,68,0.61832
1534170,-0.09500,66.0625,143,68,0.60806
1534180,-0.08000,65.3125,143,68,0.58803
1534190,-0.06500,65.2500,143,68,0.57778
1534200,-0.05500,65.5625,143,68,0.56728
1534210,-0.04500,66.8125,143,68,0.55702
1534220,-0.02500,74.6250,143,68,0.53724
1534230,0.00000,81.7500,143,68,0.52869
1534240,0.03500,90.4375,143,68,0.51917
1534250,0.07000,99.7500,143,68,0.50940
1534260,0.10500,116.5000,143,68,0.49035
1534270,0.13000,122.9375,143,68,0.48083
1534280,0.14500,127.8125,143,68,0.47106
1534290,0.16000,131.2500,143,68,0.46105
1534300,0.16500,134.5000,143,68,0.44151
1534310,0.16500,134.9375,143,68,0.43199
1534320,0.16500,134.9375,143,68,0.42418
1534330,0.16500,134.5625,143,68,0.41685
1534340,0.16500,133.3125,143,68,0.39976
1534350,0.15500,132.5625,143,68,0.39096
1534360,0.13000,131.6875,143,68,0.38193
1534370,0.10000,130.8750,143,68,0.37289
1534380,0.06000,129.1875,143,68,0.35507
1534390,0.01000,128.3750,143,68,0.34628
1534400,-0.02000,127.5000,143,68,0.33748
1534410,-0.04500,126.6250,143,68,0.32869
1534420,-0.05500,124.5000,143,68,0.31306
1534430,-0.06000,123.2500,143,68,0.30720
1534440,-0.06500,121.6250,143,68,0.30012
1534450,-0.06000,119.5625,143,68,0.29206
1534460,-0.05500,113.6250,143,68,0.27570
1534470,-0.04500,109.6250,143,68,0.26862
1534480,-0.02500,105.1250,143,68,0.26300
1534490,-0.01000,100.5625,143,68,0.25934
1534500,0.00000,93.1875,143,68,0.26203
1534510,0.02000,90.8750,143,68,0.26935
1534520,0.05000,89.3750,143,68,0.27937
1534530,0.07000,88.5625,143,68,0.29206
1534540,0.10000,87.8750,143,68,0.32918
1534550,0.14000,87.7500,143,68,0.35189
1534560,0.16000,87.5625,143,68,0.37656
1534570,0.15000,87.2500,143,68,0.40220
1534580,0.10500,86.2500,143,68,0.45397
1534590,0.04500,85.5625,143,68,0.47863
1534600,-0.01000,84.8125,143,68,0.50208
1534610,-0.05000,84.0000,143,68,0.52430
1534620,-0.07500,82.2500,143,68,0.56190
1534630,-0.08500,81.3750,143,68,0.57631
1534640,-0.09500,80.5000,143,68,0.59121
1534650,-0.10500,79.6875,143,68,0.60562
1534660,-0.11000,78.3125,143,68,0.63150
1534670,-0.11500,77.7500,143,68,0.64298
1534680,-0.11500,77.1875,143,68,0.65324
1534690,-0.12500,76.6250,143,68,0.66227
1534700,-0.13500,75.5625,143,68,0.67668
1534710,0.03000,75.0000,143,68,0.68205
1534720,0.50000,74.4375,143,68,0.68474
1534730,0.97000,73.8750,143,68,0.68571
1534740,0.78500,72.6875,143,68,0.68449
1534750,0.08000,72.0000,143,68,0.68107
1534760,-0.37500,71.3125,143,68,0.67595
1534770,-0.45000,70.6250,143,68,0.66911
1534780,-0.31500,69.3750,143,68,0.65201
1534790,-0.20000,68.7500,143,68,0.64249
1534800,-0.17000,68.1875,143,68,0.63272
1534810,-0.15500,67.6250,143,68,0.62271
1534820,-0.14500,66.5000,143,68,0.60366
1534830,-0.13000,65.9375,143,68,0.59536
1534840,-0.11500,65.4375,143,68,0.58657
1534850,-0.09500,64.8750,143,68,0.57729
1534860,-0.08000,64.1250,143,68,0.55873
1534870,-0.06500,64.0000,143,68,0.54921
1534880,-0.04500,64.3125,143,68,0.53968
1534890,-0.03500,65.4375,143,68,0.53016
1534900,-0.01000,72.9375,143,68,0.51111
1534910,0.02000,79.9375,143,68,0.50134
1534920,0.06000,88.5000,143,68,0.49280
1534930,0.09500,97.6250,143,68,0.48474
1534940,0.13000,114.2500,143,68,0.46691
1534950,0.15500,120.7500,143,68,0.45739
1534960,0.17500,125.6250,143,68,0.44786
1534970,0.18000,129.0625,143,68,0.43834
1534980,0.17500,132.3750,143,68,0.42002
1534990,0.15500,132.8750,143,68,0.41074
1535000,0.14000,132.8750,142,68,0.40171
1535010,0.12500,132.5625,142,68,0.39267
1535020,0.11500,131.3125,142,68,0.37631
1535030,0.10500,130.5625,142,68,0.36972
1535040,0.07500,129.6875,142,68,0.36190
1535050,0.02500,128.8125,142,68,0.35336
1535060,-0.02500,127.0000,142,68,0.33578
1535070,-0.07500,126.0625,142,68,0.32723
1535080,-0.11500,125.1250,142,68,0.31868
1535090,-0.15000,124.1875,142,68,0.31038
1535100,-0.18000,122.0625,142,68,0.29402
1535110,-0.19500,120.7500,142,68,0.28596
1535120,-0.19500,119.1250,142,68,0.28010
1535130,-0.18500,114.3125,142,68,0.26838
1535140,-0.17500,110.9375,142,68,0.26105
1535150,-0.16000,106.8750,142,68,0.25397
1535160,-0.13500,102.3125,142,68,0.24786
1535170,-0.11500,97.7500,142,68,0.24371
1535180,-0.09500,90.5625,142,68,0.24493
1535190,-0.08000,88.4375,142,68,0.25153
1535200,-0.05500,87.2500,142,68,0.26227
1535210,-0.02000,86.7500,142,68,0.27717
1535220,0.01500,86.6875,142,68,0.31477
1535230,0.04000,86.6250,142,68,0.33455
1535240,0.08500,86.5000,142,68,0.35751
1535250,0.11000,86.1875,142,68,0.38242
1535260,0.10500,85.0625,142,68,0.43370
1535270,0.06000,84.3125,142,68,0.45885
1535280,-0.00500,83.5000,142,68,0.48303
1535290,-0.06500,82.6250,142,68,0.50598
1535300,-0.10500,80.9375,142,68,0.54774
1535310,-0.13000,80.1250,142,68,0.56630
1535320,-0.13500,79.3750,142,68,0.58120
1535330,-0.14000,78.6250,142,68,0.59365
1535340,-0.14500,77.2500,142,68,0.61905
1535350,-0.14500,76.6875,142,68,0.63053
1535360,-0.14000,76.1250,142,68,0.64127
1535370,-0.13000,75.6250,142,68,0.65055
1535380,-0.12500,74.6250,142,68,0.66545
1535390,-0.13500,74.1875,142,68,0.67082
1535400,-0.06000,73.6875,142,68,0.67448
1535410,0.31000,73.1875,142,68,0.67643
1535420,0.87500,72.1250,142,68,0.67448
1535430,0.90000,71.5000,142,68,0.67082
1535440,0.27500,70.9375,142,68,0.66569
1535450,-0.30000,70.3125,142,68,0.65934
1535460,-0.50500,69.0000,142,68,0.65421
1535470,-0.42500,68.3750,142,68,0.64811
1535480,-0.29500,67.7500,142,68,0.63980
1535490,-0.24000,67.1875,142,68,0.63053
1535500,-0.23000,66.0625,142,68,0.61074
1535510,-0.22000,65.5625,142,68,0.60098
1535520,-0.21000,65.0625,142,68,0.59219
1535530,-0.20500,64.5625,142,68,0.58413
1535540,-0.19000,63.6875,142,68,0.56679
1535550,-0.18000,63.3750,142,68,0.55800
1535560,-0.17000,63.2500,142,68,0.54921
1535570,-0.15000,63.4375,142,68,0.54017
1535580,-0.12500,66.5625,142,68,0.52210
1535590,-0.10500,70.8125,142,68,0.51282
1535600,-0.07500,77.3125,142,68,0.50354
1535610,-0.04000,85.6250,142,68,0.49402
1535620,0.00000,103.9375,142,68,0.47643
1535630,0.04000,112.1875,142,68,0.46911
1535640,0.07500,119.1875,142,68,0.46105
1535650,0.10000,124.6875,142,68,0.45250
1535660,0.12000,131.4375,142,68,0.43541
1535670,0.12500,133.1250,142,68,0.42662
1535680,0.13000,134.0000,142,68,0.41807
1535690,0.13000,134.4375,142,68,0.40952
1535700,0.13000,134.1250,142,68,0.39243
1535710,0.13000,133.6250,142,68,0.38413
1535720,0.12000,133.0625,142,68,0.37753
1535730,0.10000,132.3750,142,68,0.37143
1535740,0.06000,130.8125,142,68,0.35629
1535750,0.02000,130.0000,142,68,0.34847
1535760,-0.01500,129.2500,142,68,0.34066
1535770,-0.03500,128.4375,142,68,0.33284
1535780,-0.05500,126.7500,142,68,0.31673
1535790,-0.07000,125.8125,142,68,0.30867
1535800,-0.07500,124.7500,142,68,0.30061
1535810,-0.07500,123.4375,142,68,0.29255
1535820,-0.06500,119.8125,142,68,0.27863
1535830,-0.04500,117.2500,142,68,0.27399
1535840,-0.02500,114.0625,142,68,0.26838
1535850,0.00000,110.2500,142,68,0.26300
1535860,0.03000,101.3125,142,68,0.25739
1535870,0.05000,97.0625,142,68,0.25885
1535880,0.07000,93.5625,142,68,0.26447
1535890,0.09000,91.0000,142,68,0.27448
1535900,0.11000,88.4375,142,68,0.30696
1535910,0.12000,88.0000,142,68,0.32869
1535920,0.12000,87.7500,142,68,0.35018
1535930,0.12000,87.5625,142,68,0.37216
1535940,0.13000,86.8750,142,68,0.42442
1535950,0.11000,86.3750,142,68,0.45201
1535960,0.06000,85.8125,142,68,0.47937
1535970,-0.01500,85.0625,142,68,0.50598
1535980,-0.09000,83.5000,142,68,0.55531
1535990,-0.16000,82.6250,142,68,0.57778
1536000,-0.22000,81.7500,141,67,0.59878
1536010,-0.26500,80.9375,141,67,0.61807
1536020,-0.29000,79.3125,141,67,0.65006
1536030,-0.30500,78.5000,141,67,0.66178
1536040,-0.31000,77.8125,141,67,0.67399
1536050,-0.30000,77.1875,141,67,0.68596
1536060,-0.28500,76.0625,141,67,0.70696
1536070,-0.26000,75.5000,141,67,0.71575
1536080,-0.24500,75.0000,141,67,0.72308
1536090,-0.22500,74.5000,141,67,0.72918
1536100,-0.02500,73.4375,141,67,0.73626
1536110,0.50500,72.8750,141,67,0.73724
1536120,0.97000,72.3750,141,67,0.73578
1536130,0.69000,71.8125,141,67,0.73260
1536140,-0.12000,70.8125,141,67,0.72161
1536150,-0.42500,70.3750,141,67,0.71404
1536160,-0.48500,69.8750,141,67,0.70501
1536170,-0.35500,69.4375,141,67,0.69524
1536180,-0.24500,68.1875,141,67,0.67448
1536190,-0.22000,67.4375,141,67,0.66374
1536200,-0.20500,66.7500,141,67,0.65324
1536210,-0.19500,66.0000,141,67,0.64298
1536220,-0.18500,64.5625,141,67,0.62491
1536230,-0.18500,63.9375,141,67,0.61563
1536240,-0.18000,63.4375,141,67,0.60611
1536250,-0.18000,63.1250,141,67,0.59609
1536260,-0.17000,63.3125,141,67,0.57607
1536270,-0.15500,64.3750,141,67,0.56606
1536280,-0.13000,66.7500,141,67,0.55580
1536290,-0.10000,71.1875,141,67,0.54530
1536300,-0.07000,86.1875,141,67,0.52454
1536310,-0.03500,95.4375,141,67,0.51404
1536320,0.00000,104.5625,141,67,0.50501
1536330,0.05000,112.8750,141,67,0.49670
1536340,0.10000,125.5000,141,67,0.47741
1536350,0.14000,129.6250,141,67,0.46764
1536360,0.15500,132.3750,141,67,0.45812
1536370,0.16500,134.0000,141,67,0.44884
1536380,0.16500,135.3125,141,67,0.43077
1536390,0.17000,135.3125,141,67,0.42173
1536400,0.19500,135.1250,141,67,0.41270
1536410,0.22500,134.7500,141,67,0.40342
1536420,0.23000,133.7500,141,67,0.38926
1536430,0.20500,133.1250,141,67,0.38144
1536440,0.17500,132.4375,141,67,0.37314
1536450,0.12500,131.7500,141,67,0.36484
1536460,0.07500,130.2500,141,67,0.34750
1536470,0.03000,129.5000,141,67,0.33895
1536480,0.00000,128.6875,141,67,0.33040
1536490,-0.02500,127.7500,141,67,0.32186
1536500,-0.04500,125.5000,141,67,0.30525
1536510,-0.07000,124.0000,141,67,0.29719
1536520,-0.09500,122.1250,141,67,0.29109
1536530,-0.11500,119.8125,141,67,0.28620
1536540,-0.13500,113.3125,141,67,0.27497
1536550,-0.16000,109.0625,141,67,0.27106
1536560,-0.18000,104.5000,141,67,0.26935
1536570,-0.20500,100.0625,141,67,0.27082
1536580,-0.22000,93.0625,141,67,0.28596
1536590,-0.22000,90.9375,141,67,0.30012
1536600,-0.18500,89.5000,141,67,0.31868
1536610,-0.14500,88.6875,141,67,0.34066
1536620,-0.09500,87.7500,141,67,0.38462
1536630,-0.03500,87.3750,141,67,0.41001
1536640,0.01500,87.0000,141,67,0.43687
1536650,0.02500,86.5000,141,67,0.46422
1536660,0.00500,85.3750,141,67,0.51770
1536670,-0.03500,84.6875,141,67,0.54286
1536680,-0.07500,83.8750,141,67,0.56679
1536690,-0.11500,83.1875,141,67,0.58950
1536700,-0.13500,81.8125,141,67,0.63053
1536710,-0.14500,81.1250,141,67,0.64884
1536720,-0.14500,80.4375,141,67,0.66325
1536730,-0.14500,79.6875,141,67,0.67521
1536740,-0.14500,78.0625,141,67,0.70061
1536750,-0.14500,77.3125,141,67,0.71233
1536760,-0.14500,76.5625,141,67,0.72259
1536770,-0.14500,75.8750,141,67,0.73138
1536780,-0.16000,74.5625,141,67,0.74505
1536790,-0.10500,74.0000,141,67,0.74969
1536800,0.22500,73.4375,141,67,0.75287
1536810,0.80500,72.9375,141,67,0.75433
1536820,0.97000,71.8750,141,67,0.75067
1536830,0.37000,71.3125,141,67,0.74652
1536840,-0.27000,70.7500,141,67,0.74066
1536850,-0.49500,70.1875,141,67,0.73358
1536860,-0.42000,69.0000,141,67,0.71551
1536870,-0.27000,68.4375,141,67,0.70525
1536880,-0.19000,67.8750,141,67,0.69451
1536890,-0.16500,67.3750,141,67,0.68376
1536900,-0.14000,66.2500,141,67,0.66129
1536910,-0.11500,65.6875,141,67,0.65031
1536920,-0.08000,65.1250,141,67,0.64029
1536930,-0.05000,64.6250,141,67,0.63077
1536940,-0.02500,63.7500,141,67,0.61026
1536950,-0.02500,63.6250,141,67,0.59951
1536960,-0.05000,63.8750,141,67,0.58901
1536970,-0.09500,65.0000,141,67,0.57851
1536980,-0.12500,72.5000,141,67,0.55775
1536990,-0.13500,79.6250,141,67,0.54725
1537000,-0.12500,88.4375,141,67,0.53700
1537010,-0.10500,97.9375,141,67,0.52650
1537020,-0.06500,115.3125,141,67,0.50916
1537030,-0.02500,122.1250,141,67,0.49988
1537040,0.01000,127.4375,141,67,0.48987
1537050,0.04500,131.2500,141,67,0.47985
1537060,0.07000,135.2500,141,67,0.45983
1537070,0.08500,136.0625,141,67,0.45006
1537080,0.10000,136.3750,141,67,0.44029
1537090,0.10500,136.4375,141,67,0.43077
1537100,0.10500,135.9375,141,67,0.41221
1537110,0.09000,135.5000,141,67,0.40293
1537120,0.05000,135.0000,141,67,0.39536
1537130,-0.00500,134.4375,141,67,0.38877
1537140,-0.04000,133.0625,141,67,0.37241
1537150,-0.06000,132.3125,141,67,0.36361
1537160,-0.09500,131.5625,141,67,0.35458
1537170,-0.10500,130.7500,141,67,0.34579
1537180,-0.08000,128.8750,141,67,0.32796
1537190,-0.08000,127.8125,141,67,0.31917
1537200,-0.12500,126.5000,141,67,0.31013
1537210,-0.17000,124.9375,141,67,0.30134
1537220,-0.19000,120.8125,141,67,0.28864
1537230,-0.18500,117.9375,141,67,0.28205
1537240,-0.17000,114.3750,141,67,0.27595
1537250,-0.15500,110.3125,141,67,0.27155
1537260,-0.14500,101.5625,141,67,0.27106
1537270,-0.13500,97.6875,141,67,0.27668
1537280,-0.12500,94.5625,141,67,0.28718
1537290,-0.11500,92.3125,141,67,0.30183
1537300,-0.09500,89.8125,141,67,0.34310
1537310,-0.05500,89.2500,141,67,0.36825
1537320,-0.01500,88.8750,141,67,0.39219
1537330,0.01000,88.5000,141,67,0.41563
1537340,0.05000,87.6875,141,67,0.46935
1537350,0.07000,87.1250,141,67,0.49646
1537360,0.05000,86.5000,141,67,0.52283
1537370,0.01000,85.8125,141,67,0.54847
1537380,-0.03500,84.2500,141,67,0.59585
1537390,-0.09000,83.4375,141,67,0.61709
1537400,-0.13500,82.6250,141,67,0.63687
1537410,-0.15500,81.7500,141,67,0.65543
1537420,-0.16000,80.1875,141,67,0.68156
1537430,-0.16500,79.4375,141,67,0.69426
1537440,-0.16500,78.7500,141,67,0.70647
1537450,-0.17000,78.0625,141,67,0.71819
1537460,-0.17000,76.8750,141,67,0.73846
1537470,-0.16500,76.3125,141,67,0.74676
1537480,-0.16000,75.7500,141,67,0.75360
1537490,-0.17000,75.1875,141,67,0.75873
1537500,-0.08500,74.0625,141,67,0.75971
1537510,0.30500,73.5625,141,67,0.75336
1537520,0.98500,73.0625,141,67,0.74774
1537530,1.00000,72.5625,141,67,0.74212
1537540,0.33000,71.5000,141,67,0.72821
1537550,-0.32500,70.8750,141,67,0.71966
1537560,-0.53000,70.2500,141,67,0.71013
1537570,-0.41000,69.6250,141,67,0.70012
1537580,-0.27000,68.4375,141,67,0.67937
1537590,-0.23000,67.8750,141,67,0.66886
1537600,-0.22000,67.2500,141,67,0.65836
1537610,-0.21000,66.6250,141,67,0.64762
1537620,-0.20000,65.5625,141,67,0.62857
1537630,-0.19000,65.0625,141,67,0.61905
1537640,-0.17500,64.6250,141,67,0.60904
1537650,-0.16500,64.1875,141,67,0.59878
1537660,-0.15500,63.8750,141,67,0.57827
1537670,-0.14500,64.4375,141,67,0.56801
1537680,-0.13500,66.3125,141,67,0.55775
1537690,-0.11500,70.1250,141,67,0.54725
1537700,-0.09000,84.8750,141,67,0.52625
1537710,-0.05500,94.5625,141,67,0.51575
1537720,-0.02000,104.3125,141,67,0.50672
1537730,0.02000,113.3125,141,67,0.49841
1537740,0.05500,127.1250,141,67,0.47961
1537750,0.08500,131.6250,141,67,0.46960
1537760,0.11000,134.6875,141,67,0.45983
1537770,0.12000,136.5625,141,67,0.45006
1537780,0.13000,138.0625,141,67,0.43028
1537790,0.13500,138.1875,141,67,0.42027
1537800,0.13000,138.1250,141,67,0.41050
1537810,0.13000,137.8750,141,67,0.40073
1537820,0.12000,137.1250,141,67,0.38608
1537830,0.09500,136.6250,141,67,0.37827
1537840,0.05500,136.1250,141,67,0.37021
1537850,0.00500,135.5625,141,67,0.36166
1537860,-0.03500,134.3750,141,67,0.34457
1537870,-0.07500,133.6875,141,67,0.33602
1537880,-0.10500,132.9375,141,67,0.32747
1537890,-0.11500,132.1250,141,67,0.31893
1537900,-0.12500,130.1250,141,67,0.30183
1537910,-0.13500,128.8125,141,67,0.29499
1537920,-0.14000,127.2500,141,67,0.28938
1537930,-0.14500,125.3125,141,67,0.28254
1537940,-0.14500,119.8125,141,67,0.26911
1537950,-0.14000,116.1250,141,67,0.26374
1537960,-0.13500,111.8750,141,67,0.26056
1537970,-0.12500,107.3125,141,67,0.26081
1537980,-0.11500,98.8750,141,67,0.27399
1537990,-0.11000,95.7500,141,67,0.28718
1538000,-0.08500,93.4375,141,67,0.30476
1538010,-0.04500,91.9375,141,67,0.32625
1538020,-0.01500,90.4375,141,67,0.36996
1538030,0.01000,90.0000,141,67,0.39560
1538040,0.04500,89.6875,141,67,0.42320
1538050,0.06500,89.3750,141,67,0.45153
1538060,0.05000,88.5625,141,67,0.50647
1538070,0.01000,87.9375,141,67,0.53260
1538080,-0.04500,87.3125,141,67,0.55727
1538090,-0.10500,86.5625,141,67,0.58071
1538100,-0.14500,84.8750,141,67,0.62295
1538110,-0.16500,84.0000,141,67,0.63956
1538120,-0.17500,83.1250,141,67,0.65348
1538130,-0.18000,81.4375,141,67,0.68303
1538140,-0.18000,80.6875,141,67,0.69695
1538150,-0.18000,79.9375,141,67,0.70989
1538160,-0.17500,79.2500,141,67,0.72161
1538170,-0.17000,78.6250,141,67,0.73187
1538180,-0.17000,77.3750,141,67,0.74896
1538190,-0.19000,76.7500,141,67,0.75556
1538200,-0.07500,76.1875,141,67,0.76068
1538210,0.39000,75.6250,141,67,0.76410
1538220,1.00000,75.0729,141,67,0.76459
1538230,1.04000,74.5000,141,67,0.76313
1538240,0.33000,73.8750,141,67,0.76068
1538250,-0.37500,73.3125,141,67,0.75653
1538260,-0.55500,72.0000,141,67,0.74383
1538270,-0.41500,71.3750,141,67,0.73529
1538280,-0.27500,70.7500,141,67,0.72576
1538290,-0.23000,70.0625,141,67,0.71526
1538300,-0.22500,68.8125,141,67,0.69353
1538310,-0.21000,68.1875,141,67,0.68254
1538320,-0.20000,67.6250,141,67,0.67228
1538330,-0.19000,67.0625,141,67,0.66252
1538340,-0.17000,66.0000,141,67,0.64200
1538350,-0.15500,65.5000,141,67,0.63150
1538360,-0.14500,65.1250,141,67,0.62100
1538370,-0.13500,64.9375,141,67,0.61026
1538380,-0.11500,66.3750,141,67,0.58828
1538390,-0.09500,69.1875,141,67,0.57729
1538400,-0.06500,74.3125,141,67,0.56654
1538410,-0.03500,81.7500,141,67,0.55580
1538420,0.00000,100.6250,141,67,0.53529
1538430,0.04500,110.0000,141,67,0.52650
1538440,0.08500,118.1875,141,67,0.51697
1538450,0.12500,124.9375,141,67,0.50672
1538460,0.15000,133.5000,141,67,0.48596
1538470,0.16500,135.7500,141,67,0.47546
1538480,0.17500,137.0000,141,67,0.46496
1538490,0.17500,137.5625,141,67,0.45446
1538500,0.17000,137.5625,141,67,0.43346
1538510,0.16500,137.2500,141,67,0.42320
1538520,0.15500,136.8750,141,67,0.41465
1538530,0.13500,135.8750,141,67,0.40733
1538540,0.09500,135.3750,141,67,0.38974
1538550,0.04000,134.8125,141,67,0.38046
1538560,-0.00500,134.1875,141,67,0.37118
1538570,-0.04000,133.5000,141,67,0.36215
1538580,-0.06500,132.1250,141,67,0.34359
1538590,-0.08000,131.3125,141,67,0.33431
1538600,-0.09000,130.3750,141,67,0.32527
1538610,-0.09000,129.3125,141,67,0.31624
1538620,-0.09500,126.4375,141,67,0.30061
1538630,-0.09000,124.5625,141,67,0.29475
1538640,-0.08500,122.1250,141,67,0.28742
1538650,-0.07500,119.1250,141,67,0.27985
1538660,-0.06500,111.1250,141,67,0.26838
1538670,-0.06000,106.6875,141,67,0.26667
1538680,-0.05500,102.3750,141,67,0.26862
1538690,-0.03500,98.6250,141,67,0.27448
1538700,-0.00500,93.4375,141,67,0.29939
1538710,0.03000,91.9375,141,67,0.31819
1538720,0.06000,91.0000,141,67,0.33773
1538730,0.09500,90.3750,141,67,0.35849
1538740,0.12000,89.6250,141,67,0.40904
1538750,0.11500,89.2500,141,67,0.43590
1538760,0.07500,88.7500,141,67,0.46276
1538770,0.03000,88.2500,141,67,0.48913
1538780,-0.01500,86.9375,141,67,0.53919
1538790,-0.06000,86.1875,141,67,0.56264
1538800,-0.09000,85.3750,141,67,0.58462
1538810,-0.10500,84.5000,141,67,0.60513
1538820,-0.11000,82.7500,141,67,0.63932
1538830,-0.11500,81.8750,141,67,0.65177
1538840,-0.11500,81.0625,141,67,0.66496
1538850,-0.11500,80.2500,141,67,0.67766
1538860,-0.11500,78.8125,141,67,0.70085
1538870,-0.10500,78.1875,141,67,0.71111
1538880,-0.12000,77.5625,141,67,0.72039
1538890,-0.06000,77.0000,141,67,0.72845
1538900,0.29000,75.8125,141,67,0.74017
1538910,0.88000,75.2500,141,67,0.74335
1538920,0.99500,74.6250,141,67,0.74383
1538930,0.37000,74.0625,141,67,0.74261
1538940,-0.28000,72.8125,141,67,0.73651
1538950,-0.50000,72.1250,141,67,0.73138
1538960,-0.39500,71.5000,141,67,0.72479
1538970,-0.25000,70.8125,141,67,0.71673
1538980,-0.20000,69.5625,141,67,0.69719
1538990,-0.19000,68.9375,141,67,0.68645
1539000,-0.17000,68.3750,139,67,0.67570
1539010,-0.16500,67.7500,139,67,0.66471
1539020,-0.15500,66.6250,139,67,0.64371
1539030,-0.14000,66.1250,139,67,0.63419
1539040,-0.12000,65.6875,139,67,0.62442
1539050,-0.10500,65.2500,139,67,0.61441
1539060,-0.09500,64.8125,139,67,0.59389
1539070,-0.08000,65.3125,139,67,0.58339
1539080,-0.06000,66.8750,139,67,0.57265
1539090,-0.03500,70.1875,139,67,0.56190
1539100,-0.00500,83.2500,139,67,0.54017
1539110,0.02500,92.1875,139,67,0.52967
1539120,0.06000,101.3750,139,67,0.52039
1539130,0.10000,110.0000,139,67,0.51184
1539140,0.12000,123.4375,139,67,0.49255
1539150,0.14000,127.8750,139,67,0.48230
1539160,0.14500,130.8750,139,67,0.47228
1539170,0.15000,132.6875,139,67,0.46227
1539180,0.15000,133.9375,139,67,0.44200
1539190,0.15000,133.8750,139,67,0.43199
1539200,0.15000,133.5000,139,67,0.42222
1539210,0.14500,132.9375,139,67,0.41245
1539220,0.12500,131.5625,139,67,0.39414
1539230,0.09500,130.8125,139,67,0.38681
1539240,0.05000,130.0000,139,67,0.37827
1539250,0.01000,129.2500,139,67,0.36923
1539260,-0.03000,127.6250,139,67,0.35018
1539270,-0.05500,126.7500,139,67,0.34066
1539280,-0.07500,125.8750,139,67,0.33162
1539290,-0.09000,124.9375,139,67,0.32283
1539300,-0.10500,122.6250,139,67,0.30549
1539310,-0.10000,121.0000,139,67,0.29695
1539320,-0.09500,119.0000,139,67,0.29035
1539330,-0.08500,116.3750,139,67,0.28474
1539340,-0.07000,109.2500,139,67,0.27082
1539350,-0.05500,105.0000,139,67,0.26471
1539360,-0.04500,100.6250,139,67,0.26032
1539370,-0.02500,96.7500,139,67,0.25861
1539380,0.00000,91.3125,139,67,0.26642
1539390,0.03000,89.8750,139,67,0.27692
1539400,0.06000,89.0000,139,67,0.29158
1539410,0.11000,88.5000,139,67,0.31013
1539420,0.14000,87.9375,139,67,0.35287
1539430,0.13000,87.6250,139,67,0.37411
1539440,0.08000,87.2500,139,67,0.39829
1539450,0.02000,86.7500,139,67,0.42344
1539460,-0.03500,85.4375,139,67,0.47350
1539470,-0.08000,84.6250,139,67,0.49744
1539480,-0.10000,83.8125,139,67,0.52063
1539490,-0.11000,82.9375,139,67,0.54261
1539500,-0.11500,81.2500,139,67,0.58217
1539510,-0.11500,80.4375,139,67,0.59951
1539520,-0.11500,79.6875,139,67,0.61319
1539530,-0.11500,79.0000,139,67,0.62442
1539540,-0.11500,77.7500,139,67,0.64737
1539550,-0.11000,77.1875,139,67,0.65788
1539560,-0.12000,76.6250,139,67,0.66374
1539570,0.00000,76.0625,139,67,0.66642
1539580,0.43500,75.0000,139,67,0.67546
1539590,0.96000,74.3750,139,67,0.67937
1539600,0.86500,73.7500,139,67,0.68181
1539610,0.17500,73.1250,139,67,0.68230
1539620,-0.34000,71.8750,139,67,0.67766
1539630,-0.47000,71.1875,139,67,0.67302
1539640,-0.35500,70.5000,139,67,0.66716
1539650,-0.23000,69.8750,139,67,0.66007
1539660,-0.19000,68.6250,139,67,0.64298
1539670,-0.18000,68.0000,139,67,0.63346
1539680,-0.17000,67.4375,139,67,0.62369
1539690,-0.15500,66.8750,139,67,0.61392
1539700,-0.14500,65.7500,139,67,0.59463
1539710,-0.13500,65.2500,139,67,0.58535
1539720,-0.12500,64.8125,139,67,0.57680
1539730,-0.10500,64.4375,139,67,0.56874
1539740,-0.09000,64.2500,139,67,0.55140
1539750,-0.07500,65.0000,139,67,0.54237
1539760,-0.05500,66.8750,139,67,0.53309
1539770,-0.03500,70.6250,139,67,0.52357
1539780,-0.01000,84.3125,139,67,0.50403
1539790,0.02000,93.1875,139,67,0.49402
1539800,0.05500,102.1250,139,67,0.48425
1539810,0.08500,110.3750,139,67,0.47448
1539820,0.11000,122.8750,139,67,0.45910
1539830,0.12500,126.8750,139,67,0.45104
1539840,0.13500,129.5625,139,67,0.44225
1539850,0.14000,131.1250,139,67,0.43321
1539860,0.14000,132.1250,139,67,0.41490
1539870,0.14000,132.0000,139,67,0.40562
1539880,0.14000,131.5625,139,67,0.39658
1539890,0.13000,131.0000,139,67,0.38779
1539900,0.11000,129.5625,139,67,0.37021
1539910,0.08000,128.7500,139,67,0.36166
1539920,0.03500,127.8750,139,67,0.35458
1539930,-0.00500,127.0625,139,67,0.34847
1539940,-0.04000,125.3125,139,67,0.33284
1539950,-0.06500,124.4375,139,67,0.32454
1539960,-0.08000,123.5625,139,67,0.31624
1539970,-0.09000,122.5625,139,67,0.30794
1539980,-0.09500,120.0625,139,67,0.29109
1539990,-0.09500,118.2500,139,67,0.28254
1540000,-0.08500,116.0000,139,66,0.27399
1540010,-0.07000,113.1250,139,66,0.26593
1540020,-0.05000,105.4375,139,66,0.25592
1540030,-0.03500,101.0625,139,66,0.25177
1540040,-0.02500,96.9375,139,66,0.24933
1540050,-0.01500,93.5000,139,66,0.24933
1540060,0.00000,89.2500,139,66,0.25885
1540070,0.03000,88.2500,139,66,0.26960
1540080,0.05000,87.7500,139,66,0.28425
1540090,0.07000,87.4375,139,66,0.30256
1540100,0.11000,86.9375,139,66,0.34725
1540110,0.14000,86.5000,139,66,0.37192
1540120,0.13000,86.0625,139,66,0.39438
1540130,0.08000,85.4375,139,66,0.41563
1540140,0.01500,83.9375,139,66,0.46178
1540150,-0.03500,83.1250,139,66,0.48474
1540160,-0.03500,83.1250,139,66,0.48474
1540170,-0.03500,83.1250,139,66,0.48474
1540180,-0.12000,79.8125,139,66,0.56581
1540190,-0.12000,79.0000,139,66,0.58266
1540200,-0.12500,78.3125,139,66,0.59805
1540210,-0.13000,77.6250,139,66,0.61221
1540220,-0.13000,76.4375,139,66,0.63150
1540230,-0.12500,75.8750,139,66,0.64054
1540240,-0.12500,75.4375,139,66,0.64908
1540250,-0.13000,74.9375,139,66,0.65665
1540260,0.01000,73.9375,139,66,0.66789
1540270,0.44000,73.3750,139,66,0.67131
1540280,0.93500,72.8750,139,66,0.67326
1540290,0.84000,72.3125,139,66,0.67326
1540300,0.15500,71.1250,139,66,0.66813
1540310,-0.35000,70.5000,139,66,0.66325
1540320,-0.47000,69.8750,139,66,0.65739
1540330,-0.36000,69.2500,139,66,0.65055
1540340,-0.24000,68.0000,139,66,0.63370
1540350,-0.21000,67.4375,139,66,0.62442
1540360,-0.20500,66.8750,139,66,0.61514
1540370,-0.19500,65.7500,139,66,0.60562
1540380,-0.19000,65.1875,139,66,0.58681
1540390,-0.18000,64.6875,139,66,0.57753
1540400,-0.17000,64.1875,139,66,0.56825
1540410,-0.15500,63.7500,139,66,0.55897
1540420,-0.14000,63.1875,139,66,0.54310
1540430,-0.12500,63.2500,139,66,0.53455
1540440,-0.10500,63.9375,139,66,0.52576
1540450,-0.08500,69.6250,139,66,0.51673
1540460,-0.06000,75.7500,139,66,0.49792
1540470,-0.02500,83.8125,139,66,0.48864
1540480,0.01000,92.9375,139,66,0.47912
1540490,0.05000,102.0625,139,66,0.46960
1540500,0.07500,117.5000,139,66,0.45104
1540510,0.10000,123.1250,139,66,0.44176
1540520,0.11000,127.2500,139,66,0.43394
1540530,0.12000,130.0000,139,66,0.42686
1540540,0.12000,132.5625,139,66,0.41050
1540550,0.12500,132.9375,139,66,0.40195
1540560,0.12000,132.8750,139,66,0.39316
1540570,0.12000,132.6250,139,66,0.38413
1540580,0.11000,131.5625,139,66,0.36654
1540590,0.09000,130.8750,139,66,0.35800
1540600,0.06000,130.1250,139,66,0.34994
1540610,0.01500,129.3750,139,66,0.34188
1540620,-0.02500,127.8125,139,66,0.32991
1540630,-0.05500,127.0625,139,66,0.32308
1540640,-0.07500,126.1875,139,66,0.31551
1540650,-0.09000,125.3125,139,66,0.30745
1540660,-0.10500,123.3125,139,66,0.29158
1540670,-0.10500,122.0625,139,66,0.28352
1540680,-0.10500,120.5625,139,66,0.27521
1540690,-0.09500,118.5625,139,66,0.26716
1540700,-0.08500,112.9375,139,66,0.25201
1540710,-0.07000,109.1250,139,66,0.24591
1540720,-0.05500,104.8125,139,66,0.24249
1540730,-0.04500,100.3125,139,66,0.24151
1540740,-0.03000,92.6875,139,66,0.24591
1540750,-0.01000,90.1875,139,66,0.25324
1540760,0.02000,88.5625,139,66,0.26471
1540770,0.05000,87.7500,139,66,0.28010
1540780,0.08000,87.1250,139,66,0.32112
1540790,0.12000,86.9375,139,66,0.34554
1540800,0.14000,86.7500,139,66,0.37143
1540810,0.12500,86.3750,139,66,0.39805
1540820,0.08500,85.3125,139,66,0.44322
1540830,0.03000,84.5625,139,66,0.46642
1540840,-0.02000,83.7500,139,66,0.49011
1540850,-0.06500,82.9375,139,66,0.51306
1540860,-0.09500,81.1875,139,66,0.55580
1540870,-0.10500,80.3750,139,66,0.57509
1540880,-0.11500,79.5625,139,66,0.59292
1540890,-0.11500,78.8125,139,66,0.60904
1540900,-0.12500,77.5000,139,66,0.63761
1540910,-0.12500,76.8750,139,66,0.65006
1540920,-0.12000,76.3125,139,66,0.65958
1540930,-0.11500,75.8125,139,66,0.66691
1540940,-0.12500,74.8750,139,66,0.68205
1540950,-0.03500,74.3125,139,66,0.68840
1540960,0.35000,73.8125,139,66,0.69353
1540970,0.90500,73.2500,139,66,0.69695
1540980,0.90000,72.0625,139,66,0.69866
1540990,0.27500,71.4375,139,66,0.69646
1541000,-0.28500,70.8125,138,66,0.69206
1541010,-0.48000,70.1875,138,66,0.68596
1541020,-0.39500,68.9375,138,66,0.67106
1541030,-0.26000,68.3750,138,66,0.66203
1541040,-0.21500,67.7500,138,66,0.65250
1541050,-0.21000,67.1875,138,66,0.64274
1541060,-0.20000,66.0625,138,66,0.62295
1541070,-0.18500,65.4375,138,66,0.61319
1541080,-0.17000,64.8750,138,66,0.60342
1541090,-0.16000,64.3125,138,66,0.59389
1541100,-0.15500,63.4375,138,66,0.57509
1541110,-0.14000,63.2500,138,66,0.56581
1541120,-0.12500,63.1875,138,66,0.55727
1541130,-0.11000,63.6875,138,66,0.54921
1541140,-0.09000,68.3125,138,66,0.53089
1541150,-0.06000,73.5625,138,66,0.52112
1541160,-0.02500,80.9375,138,66,0.51136
1541170,0.01000,89.6875,138,66,0.50183
1541180,0.05000,107.5000,138,66,0.48278
1541190,0.08000,115.1250,138,66,0.47326
1541200,0.10500,121.3125,138,66,0.46374
1541210,0.12500,126.0625,138,66,0.45421
1541220,0.13000,131.5000,138,66,0.43858
1541230,0.14000,132.8125,138,66,0.43028
1541240,0.13500,133.4375,138,66,0.42149
1541250,0.13000,133.6250,138,66,0.41245
1541260,0.12500,133.2500,138,66,0.39414
1541270,0.12000,132.8750,138,66,0.38510
1541280,0.09000,132.4375,138,66,0.37607
1541290,0.05500,131.8750,138,66,0.36728
1541300,0.01000,130.6250,138,66,0.35043
1541310,-0.02500,129.8750,138,66,0.34212
1541320,-0.05500,129.1250,138,66,0.33529
1541330,-0.08000,128.3125,138,66,0.32943
1541340,-0.09500,126.5000,138,66,0.31453
1541350,-0.11000,125.5000,138,66,0.30647
1541360,-0.12000,124.3125,138,66,0.29841
1541370,-0.12000,122.9375,138,66,0.29011
1541380,-0.11500,119.3125,138,66,0.27375
1541390,-0.10500,116.7500,138,66,0.26618
1541400,-0.10000,113.5000,138,66,0.25910
1541410,-0.08500,109.6875,138,66,0.25348
1541420,-0.07500,101.1250,138,66,0.25104
1541430,-0.06000,97.2500,138,66,0.25348
1541440,-0.04500,94.0625,138,66,0.25934
1541450,-0.01000,91.8125,138,66,0.26911
1541460,0.02000,89.3125,138,66,0.30061
1541470,0.04500,88.6875,138,66,0.32161
1541480,0.08500,88.2500,138,66,0.34530
1541490,0.11500,87.4375,138,66,0.37094
1541500,0.10000,87.0000,138,66,0.42466
1541510,0.06500,86.3750,138,66,0.45128
1541520,0.01000,85.6875,138,66,0.47399
1541530,-0.03500,84.9375,138,66,0.49451
1541540,-0.07500,83.2500,138,66,0.53822
1541550,-0.10000,82.3750,138,66,0.55922
1541560,-0.11000,81.5625,138,66,0.57924
1541570,-0.11500,80.7500,138,66,0.59780
1541580,-0.12500,79.1875,138,66,0.63101
1541590,-0.13000,78.5000,138,66,0.64542
1541600,-0.13500,77.8750,138,66,0.65861
1541610,-0.13000,77.2500,138,66,0.68254
1541620,-0.12500,76.1875,138,66,0.73187
1541630,-0.14000,75.6875,138,66,0.74310
1541640,-0.07500,75.1250,138,66,0.75189
1541650,0.27500,74.5000,138,66,0.76142
1541660,0.85500,73.3750,138,66,0.76630
1541670,0.97000,72.7500,138,66,0.76581
1541680,0.35000,72.1250,138,66,0.76313
1541690,-0.27500,71.5000,138,66,0.75849
1541700,-0.49000,70.2500,138,66,0.74432
1541710,-0.42500,69.6250,138,66,0.73089
1541720,-0.29500,69.0625,138,66,0.72112
1541730,-0.23000,68.4375,138,66,0.71087
1541740,-0.22000,67.2500,138,66,0.68449
1541750,-0.21000,66.6875,138,66,0.67375
1541760,-0.20000,66.1250,138,66,0.66300
1541770,-0.19000,65.5625,138,66,0.65250
1541780,-0.18000,64.5000,138,66,0.63126
1541790,-0.17000,64.0625,138,66,0.62051
1541800,-0.16000,63.7500,138,66,0.61050
1541810,-0.15500,63.6250,138,66,0.60122
1541820,-0.14500,65.0000,138,66,0.58022
1541830,-0.12000,67.6250,138,66,0.56899
1541840,-0.09500,72.3125,138,66,0.55775
1541850,-0.06000,79.2500,138,66,0.54676
1541860,-0.02500,97.1875,138,66,0.52527
1541870,0.01500,106.1875,138,66,0.51453
1541880,0.05000,114.2500,138,66,0.50379
1541890,0.07500,120.9375,138,66,0.49328
1541900,0.09500,129.8125,138,66,0.47619
1541910,0.11000,132.2500,138,66,0.46691
1541920,0.11000,133.7500,138,66,0.45714
1541930,0.11500,134.5000,138,66,0.44713
1541940,0.11500,134.6875,138,66,0.42711
1541950,0.11500,134.4375,138,66,0.41709
1541960,0.10500,134.1250,138,66,0.40708
1541970,0.08000,133.7500,138,66,0.39756
1541980,0.04000,132.6875,138,66,0.37802
1541990,0.00000,132.0625,138,66,0.36850
1542000,-0.04500,131.4375,138,66,0.36117
1542010,-0.07500,130.7500,138,66,0.35458
1542020,-0.09500,129.3125,138,66,0.33773
1542030,-0.11500,128.5000,138,66,0.32894
1542040,-0.13500,127.5625,138,66,0.32015
1542050,-0.14500,126.5625,138,66,0.31111
1542060,-0.15000,123.8125,138,66,0.29328
1542070,-0.15000,122.0000,138,66,0.28523
1542080,-0.14500,119.6875,138,66,0.27814
1542090,-0.13500,116.8750,138,66,0.27302
1542100,-0.12000,109.2500,138,66,0.27350
1542110,-0.10500,104.8125,138,66,0.27863
1542120,-0.10500,100.5000,138,66,0.28767
1542130,-0.09000,96.6875,138,66,0.30110
1542140,-0.07500,91.5000,138,66,0.34042
1542150,-0.03500,90.0625,138,66,0.36484
1542160,0.00000,89.1875,138,66,0.39145
1542170,0.03000,88.6875,138,66,0.41978
1542180,0.06000,88.0625,138,66,0.49182
1542190,0.07500,87.7500,138,66,0.51795
1542200,0.06000,87.3125,138,66,0.54066
1542210,0.03000,86.7500,138,66,0.57485
1542220,-0.01000,85.3750,138,66,0.62027
1542230,-0.06500,84.6250,138,66,0.64127
1542240,-0.12000,83.8125,138,66,0.66056
1542250,-0.14500,82.9375,138,66,0.67839
1542260,-0.16000,81.2500,138,66,0.70965
1542270,-0.16500,80.4375,138,66,0.72332
1542280,-0.17000,79.6875,138,66,0.73529
1542290,-0.17000,79.0000,138,66,0.74408
1542300,-0.17000,77.6875,138,66,0.75897
1542310,-0.17000,77.1250,138,66,0.76606
1542320,-0.16000,76.5625,138,66,0.77216
1542330,-0.16500,76.0000,138,66,0.77656
1542340,-0.16500,74.9375,138,66,0.77973
1542350,0.04000,74.4375,138,66,0.77851
1542360,0.58000,73.8750,138,66,0.77509
1542370,1.03500,73.3750,138,66,0.76996
1542380,0.71500,72.1875,138,66,0.75433
1542390,-0.05500,71.6250,138,66,0.74505
1542400,-0.49000,71.0000,138,66,0.73529
1542410,-0.51000,70.4375,138,66,0.72454
1542420,-0.36000,69.1875,138,66,0.70208
1542430,-0.27000,68.5625,138,66,0.69060
1542440,-0.26000,67.9375,138,66,0.67937
1542450,-0.25000,67.3750,138,66,0.66838
1542460,-0.24000,66.3125,138,66,0.64664
1542470,-0.22500,65.8125,138,66,0.63590
1542480,-0.21000,65.3125,138,66,0.62491
1542490,-0.19500,64.8125,138,66,0.61490
1542500,-0.18500,64.0625,138,66,0.59512
1542510,-0.17000,63.8750,138,66,0.58437
1542520,-0.15500,64.1875,138,66,0.57363
1542530,-0.13500,65.4375,138,66,0.56264
1542540,-0.11500,73.5000,138,66,0.54090
1542550,-0.08000,81.0000,138,66,0.53016
1542560,-0.05000,90.1250,138,66,0.51941
1542570,-0.01000,99.8125,138,66,0.50867
1542580,0.02750,117.2500,138,66,0.48718
1542590,0.06000,124.0000,138,66,0.47814
1542600,0.08500,129.0625,138,66,0.46984
1542610,0.10500,132.6875,138,66,0.46032
1542620,0.12000,136.3750,138,66,0.44029
1542630,0.12000,137.1250,138,66,0.43028
1542640,0.12000,137.3750,138,66,0.42027
1542650,0.12000,137.3750,138,66,0.41050
1542660,0.11000,136.9375,138,66,0.39096
1542670,0.09000,136.6250,138,66,0.38120
