RelativeTimeMilliseconds,ECG,ART,ART (Sys),ART (Dia),PPG
1223700,-0.13500,95.0000,173,89,0.42833
1223710,0.02000,116.0000,173,89,0.64103
1223720,0.02000,116.0000,173,89,0.64103
1223730,0.02000,116.0000,173,89,0.64103
1223740,0.02000,116.0000,173,89,0.64103
1223750,0.02000,116.0000,173,89,0.64103
1223760,0.02000,116.0000,173,89,0.64103
1223770,0.02000,116.0000,173,89,0.64103
1223780,0.02000,116.0000,173,89,0.64103
1223790,0.02000,116.0000,173,89,0.64103
1223800,-0.16500,108.8125,173,89,0.73553
1223810,-0.16500,108.8125,173,89,0.73553
1223820,-0.16500,108.8125,173,89,0.73553
1223830,-0.16500,108.8125,173,89,0.73553
1223840,-0.16500,108.8125,173,89,0.73553
1223850,-0.16500,108.8125,173,89,0.73553
1223860,-0.16500,108.8125,173,89,0.73553
1223870,-0.16500,108.8125,173,89,0.73553
1223880,-0.16500,108.8125,173,89,0.73553
1223890,-0.16500,108.8125,173,89,0.73553
1223900,-0.16500,108.8125,173,89,0.73553
1223910,-0.16500,108.8125,173,89,0.73553
1223920,-0.16500,108.8125,173,89,0.73553
1223930,-0.16500,108.8125,173,89,0.73553
1223940,-0.16500,108.8125,173,89,0.73553
1223950,-0.16500,108.8125,173,89,0.73553
1223960,-0.16500,108.8125,173,89,0.73553
1223970,-0.16500,108.8125,173,89,0.73553
1223980,-0.16500,108.8125,173,89,0.73553
1223990,-0.16500,108.8125,173,89,0.73553
1224000,-0.16500,108.8125,173,89,0.73553
1224010,-0.16500,108.8125,173,89,0.73553
1224020,-0.16500,108.8125,173,89,0.73553
1224030,-0.16500,108.8125,173,89,0.73553
1224040,-0.16500,108.8125,173,89,0.73553
1224050,-0.16500,108.8125,173,89,0.73553
1224060,-0.16500,108.8125,173,89,0.73553
1224070,-0.16500,108.8125,173,89,0.73553
1224080,-0.16500,108.8125,173,89,0.73553
1224090,-0.16500,108.8125,173,89,0.73553
1224100,-0.16500,108.8125,173,89,0.73553
1224110,-0.16500,108.8125,173,89,0.73553
1224120,-0.16500,108.8125,173,89,0.73553
1224130,-0.17000,107.6250,173,89,0.73871
1224140,-0.16000,105.3125,173,89,0.74505
1224150,-0.15500,104.2500,173,89,0.74725
1224160,-0.14500,103.1875,173,89,0.74872
1224170,-0.15500,102.1875,173,89,0.74896
1224270,-0.20000,91.0625,173,89,0.57338
1224280,-0.19000,90.3125,173,89,0.55238
1224290,-0.18000,88.8125,173,89,0.53333
1224300,-0.17000,88.1250,173,89,0.50208
1224310,-0.16000,87.5000,173,89,0.48962
1224320,-0.15500,86.8750,173,89,0.47985
1224330,-0.15000,86.4375,173,89,0.47155
1224340,-0.14500,86.0000,173,89,0.45495
1224350,-0.13500,86.5000,173,89,0.44640
1224360,-0.11500,88.0000,173,89,0.43785
1224370,-0.09500,91.2500,173,89,0.42930
1224380,-0.07500,104.5625,173,89,0.41221
1224390,-0.04500,114.0625,173,89,0.40366
1224400,-0.01500,124.3750,173,89,0.39512
1224410,0.01500,134.5625,173,89,0.38657
1224420,0.05500,151.5000,173,89,0.37143
1224430,0.09000,157.5000,173,89,0.36557
1224440,0.12500,161.8125,173,89,0.35897
1224450,0.15500,164.6250,173,89,0.35189
1224460,0.18500,167.1875,173,89,0.33797
1224470,0.20500,167.5625,173,89,0.33114
1224480,0.21500,167.6250,173,89,0.32454
1224490,0.22500,167.5000,173,89,0.31819
1224500,0.23000,167.3125,173,89,0.30623
1224510,0.21000,167.2500,173,89,0.30061
1224520,0.17500,167.3750,173,89,0.29670
1224530,0.12500,167.5000,173,89,0.29353
1224540,0.07000,167.8125,173,89,0.28498
1224550,0.01500,167.8750,173,89,0.28034
1224560,-0.01500,167.8125,173,89,0.27570
1224570,-0.04500,167.3750,173,89,0.27106
1224580,-0.06500,165.3750,173,89,0.26227
1224590,-0.08500,163.5000,173,89,0.25788
1224600,-0.10000,160.9375,173,89,0.25372
1224610,-0.11000,157.4375,173,89,0.25031
1224620,-0.11500,147.6250,173,89,0.24982
1224630,-0.11500,141.5000,173,89,0.25446
1224640,-0.11000,135.0000,173,89,0.26374
1224650,-0.09500,128.9375,173,89,0.27937
1224660,-0.05500,120.2500,173,89,0.33187
1224670,-0.01500,117.8750,173,89,0.36752
1224680,0.01500,116.6250,173,89,0.40757
1224690,0.05000,116.0625,173,89,0.44933
1224700,0.08500,115.9375,173,89,0.53040
1224710,0.09000,115.9375,173,89,0.56679
1224720,0.07000,115.8125,173,89,0.59536
1224730,0.02000,115.4375,173,89,0.61856
1224740,-0.04000,114.0000,173,89,0.66129
1224750,-0.09500,113.0000,173,89,0.67888
1224760,-0.13000,111.8125,173,89,0.69377
1224770,-0.15000,109.3125,173,89,0.70598
1224780,-0.15500,108.0625,173,89,0.72357
1224790,-0.15500,106.8125,173,89,0.72967
1224800,-0.15500,105.6250,173,89,0.73455
1224810,-0.15500,104.5000,173,89,0.73822
1224820,-0.15500,102.4375,173,89,0.73968
1224830,-0.16000,101.5000,173,89,0.73968
1224840,-0.19000,100.5625,173,89,0.73895
1224850,-0.07500,99.6250,173,89,0.73700
1224860,0.37500,97.9375,173,89,0.72796
1224870,1.00000,97.1250,173,89,0.71966
1224880,0.99500,96.3125,173,89,0.70818
1224890,0.21500,95.5000,173,89,0.69353
1224900,-0.40500,93.9375,173,89,0.65519
1224910,-0.53000,93.1875,173,89,0.63248
1224920,-0.39500,92.4375,173,89,0.61123
1224930,-0.27000,91.7500,173,89,0.59121
1224940,-0.23500,90.3125,173,89,0.54945
1224950,-0.23000,89.6250,173,89,0.53089
1224960,-0.22000,88.8750,173,89,0.51453
1224970,-0.20500,88.1875,173,89,0.50061
1224980,-0.19000,86.9375,173,89,0.47863
1224990,-0.19000,86.3750,173,89,0.46960
1225000,-0.18000,86.0000,173,89,0.46105
1225010,-0.17500,85.7500,173,89,0.45275
1225020,-0.17000,86.8750,173,89,0.43956
1225030,-0.16000,89.3125,173,89,0.43223
1225040,-0.14000,94.0625,173,89,0.42418
1225050,-0.11000,101.2500,173,89,0.41587
1225060,-0.07000,121.0625,173,89,0.39902
1225070,-0.03500,131.6875,173,89,0.39072
1225080,0.01000,141.5625,173,89,0.38242
1225090,0.05000,150.0000,173,89,0.37436
1225100,0.09500,161.6250,173,89,0.35922
1225110,0.13000,164.9375,173,89,0.35214
1225120,0.16500,166.9375,173,89,0.34652
1225130,0.19000,168.0000,173,89,0.34164
1225140,0.20500,168.6250,173,89,0.33040
1225150,0.21000,168.5625,173,89,0.32454
1225160,0.21500,168.5625,173,89,0.31893
1225170,0.20500,168.5000,173,89,0.31331
1225180,0.18500,168.6250,173,89,0.30281
1225190,0.14000,168.7500,173,89,0.29768
1225200,0.08500,168.9375,173,89,0.29304
1225210,0.03000,169.1250,173,89,0.28864
1225220,-0.01500,169.2500,173,89,0.28327
1225230,-0.05500,169.0625,173,89,0.28010
1225240,-0.08500,168.4375,173,89,0.27643
1225250,-0.11500,167.4375,173,89,0.27253
1225260,-0.13500,163.6875,173,89,0.26447
1225270,-0.15000,160.7500,173,89,0.26056
1225280,-0.15000,156.8750,173,89,0.25788
1225290,-0.13500,152.1250,173,89,0.25714
1225300,-0.11500,140.4375,173,89,0.26838
1225310,-0.06500,134.3125,173,89,0.28327
1225320,0.02000,128.8750,173,89,0.30183
1225330,0.11000,124.4375,173,89,0.32503
1225340,0.17000,119.1875,173,89,0.39438
1225350,0.19500,117.9375,173,89,0.43565
1225360,0.22500,117.2500,173,89,0.47814
1225370,0.24000,116.8750,173,89,0.51990
1225380,0.24000,116.3125,173,89,0.59438
1225390,0.21000,115.8750,173,89,0.62564
1225400,0.16000,115.2500,173,89,0.65226
1225410,0.09500,114.4375,173,89,0.67473
1225420,0.04000,112.3750,173,89,0.70281
1225430,0.00000,111.2500,173,89,0.71429
1225440,-0.02500,110.0000,173,89,0.72430
1225450,-0.04000,108.7500,173,89,0.73284
1225460,-0.05500,106.3125,173,89,0.74554
1225470,-0.06500,105.1875,173,89,0.74994
1225480,-0.07500,104.1250,173,89,0.75336
1225490,-0.08000,103.0625,173,89,0.75556
1225500,-0.08500,101.1875,173,89,0.75629
1225510,-0.11000,100.2500,173,89,0.75482
1225520,-0.00500,99.3750,173,89,0.75116
1225530,0.45500,98.5625,173,89,0.74579
1225540,1.07500,97.0625,173,89,0.72943
1225550,1.00000,96.2500,173,89,0.71697
1225560,0.22500,95.4375,173,89,0.70159
1225570,-0.34500,94.6250,173,89,0.68352
1225580,-0.46000,92.8750,173,89,0.64029
1225590,-0.31500,92.0000,173,89,0.61709
1225600,-0.19500,91.0625,173,89,0.59414
1225610,-0.17500,90.2500,173,89,0.57216
1225620,-0.17000,88.6250,173,89,0.53846
1225630,-0.17000,87.8750,173,89,0.52357
1225640,-0.16000,87.1250,173,89,0.50989
1225650,-0.15500,86.4375,173,89,0.49744
1225660,-0.14500,85.3125,173,89,0.47619
1225670,-0.13000,84.9375,173,89,0.46667
1225680,-0.11500,84.8125,173,89,0.45739
1225690,-0.10000,85.0625,173,89,0.44811
1225700,-0.08500,89.0000,173,89,0.42979
1225710,-0.06000,94.0000,173,89,0.42051
1225720,-0.04000,101.5000,173,89,0.41294
1225730,-0.02000,110.9375,173,89,0.40586
1225740,0.01000,131.8750,173,89,0.38950
1225750,0.04000,141.5000,173,89,0.38095
1225760,0.07500,149.5625,173,89,0.37265
1225770,0.11000,155.9375,173,89,0.36459
1225780,0.14000,163.5625,173,89,0.34945
1225790,0.16500,165.3125,173,89,0.34237
1225800,0.18000,166.1875,173,89,0.33578
1225810,0.18500,166.5000,173,89,0.32918
1225820,0.19000,166.5000,173,89,0.32015
1225830,0.19000,166.3750,173,89,0.31502
1225840,0.19000,166.3125,173,89,0.30940
1225850,0.17500,166.3125,173,89,0.30354
1225860,0.14000,166.6250,173,89,0.29182
1225870,0.08500,166.8750,173,89,0.28620
1225880,0.03500,167.1250,173,89,0.28083
1225890,-0.01000,167.3125,173,89,0.27570
1225900,-0.04500,167.1875,173,89,0.26569
1225910,-0.06500,166.6250,173,89,0.26105
1225920,-0.08500,165.6250,173,89,0.25812
1225930,-0.09500,164.0000,173,89,0.25568
1225940,-0.10500,158.4375,173,89,0.24860
1225950,-0.10500,154.2500,173,89,0.24591
1225960,-0.10500,149.1250,173,89,0.24518
1225970,-0.10500,143.2500,173,89,0.24786
1225980,-0.09000,130.9375,173,89,0.27057
1225990,-0.05500,125.7500,173,89,0.29255
1226000,-0.00500,121.8125,173,89,0.32186
1226010,0.03000,119.1250,173,89,0.35751
1226020,0.07000,116.6250,173,89,0.42686
1226030,0.11000,116.1250,173,89,0.46618
1226040,0.14000,115.8750,173,89,0.50623
1226050,0.12500,115.6875,173,89,0.54481
1226060,0.09000,114.9375,173,89,0.61123
1226070,0.03500,114.3125,173,89,0.63810
1226080,-0.02500,113.5625,173,89,0.66081
1226090,-0.06500,112.6250,173,89,0.67961
1226100,-0.09000,110.4375,173,89,0.70769
1226110,-0.10500,109.2500,173,89,0.71795
1226120,-0.11000,108.0625,173,89,0.72430
1226130,-0.11500,105.7500,173,89,0.72845
1226140,-0.11500,104.6875,173,89,0.73675
1226150,-0.11000,103.6250,173,89,0.74115
1226160,-0.11000,102.5625,173,89,0.74286
1226170,-0.12500,101.5625,173,89,0.74359
1226180,-0.09500,99.6875,173,89,0.73651
1226190,0.22000,98.8125,173,89,0.73016
1226200,0.84500,97.9375,173,89,0.71673
1226210,1.10000,96.2500,173,89,0.70330
1226220,0.55500,95.3750,173,89,0.66691
1226230,-0.16500,94.5625,173,89,0.64615
1226240,-0.45000,93.7500,173,89,0.62418
1226250,-0.38000,92.8750,173,89,0.60147
1226260,-0.23000,91.3125,173,89,0.55849
1226270,-0.17000,90.5625,173,89,0.53968
1226280,-0.16000,89.8125,173,89,0.52308
1226290,-0.15500,89.0625,173,89,0.50842
1226300,-0.15500,87.6250,173,89,0.48596
1226310,-0.14500,86.9375,173,89,0.47790
1226320,-0.14500,86.3125,173,89,0.46960
1226330,-0.14500,85.7500,173,89,0.46129
1226340,-0.13500,85.1875,173,89,0.44493
1226350,-0.12500,85.5000,173,89,0.43687
1226360,-0.11000,86.6250,173,89,0.42857
1226370,-0.09500,89.3125,173,89,0.42027
1226380,-0.07500,101.4375,173,89,0.40391
1226390,-0.05500,110.6250,173,89,0.39585
1226400,-0.02000,120.8750,173,89,0.38926
1226410,0.01000,131.1875,173,89,0.38339
1226420,0.04500,148.8125,173,89,0.36947
1226430,0.08500,155.1875,173,89,0.36239
1226440,0.11500,159.8125,173,89,0.35556
1226450,0.14000,162.9375,173,89,0.34896
1226460,0.15000,165.7500,173,89,0.33602
1226470,0.16000,166.1250,173,89,0.32991
1226480,0.16500,166.1250,173,89,0.32405
1226490,0.17500,165.9375,173,89,0.31844
1226500,0.17500,165.5625,173,89,0.30891
1226510,0.16500,165.5000,173,89,0.30549
1226520,0.14000,165.5625,173,89,0.30134
1226530,0.10000,165.6875,173,89,0.29670
1226540,0.04000,166.0625,173,89,0.28767
1226550,-0.01000,166.1250,173,89,0.28327
1226560,-0.05500,166.1250,173,89,0.27888
1226570,-0.08500,165.8125,173,89,0.27448
1226580,-0.11500,164.0000,173,89,0.26593
1226590,-0.13500,162.3125,173,89,0.26203
1226600,-0.14500,159.8125,173,89,0.26032
1226610,-0.15000,156.5625,173,89,0.26056
1226620,-0.15000,147.0625,173,89,0.26960
1226630,-0.14000,141.0625,173,89,0.28205
1226640,-0.12000,134.8125,173,89,0.30134
1226650,-0.09500,129.0000,173,89,0.32772
1226660,-0.05500,120.7500,173,89,0.39829
1226670,-0.00500,118.5000,173,89,0.43858
1226680,0.03000,117.1875,173,89,0.47961
1226690,0.06500,116.5625,173,89,0.51941
1226700,0.10000,116.0000,173,89,0.57949
1226710,0.11000,115.7500,173,89,0.60659
1226720,0.08000,115.3750,173,89,0.63150
1226730,0.03500,114.8125,173,89,0.65299
1226740,-0.03000,113.0625,173,89,0.68645
1226750,-0.08500,112.0000,173,89,0.69890
1226760,-0.13000,110.8125,173,89,0.70891
1226770,-0.15000,109.6875,173,89,0.71697
1226780,-0.16000,107.4375,173,89,0.73065
1226790,-0.16500,106.3750,173,89,0.73333
1226800,-0.16000,105.3125,173,89,0.73407
1226810,-0.15500,104.3125,173,89,0.73431
1226820,-0.15000,102.3125,173,89,0.73236
1226830,-0.15500,101.3125,173,89,0.72918
1226840,-0.17500,100.3750,173,89,0.72405
1226850,-0.11500,99.5000,173,89,0.71648
1226860,0.27500,97.7500,173,89,0.69304
1226870,0.91500,97.0000,173,89,0.67668
1226880,1.02500,96.1875,173,89,0.65763
1226890,0.36000,95.4375,173,89,0.63907
1226900,-0.31000,93.7500,173,89,0.60000
1226910,-0.52000,92.9375,173,89,0.57900
1226920,-0.40500,92.1250,173,89,0.55897
1226930,-0.26500,91.3125,173,89,0.54066
1226940,-0.22000,89.8750,173,89,0.51038
1226950,-0.21500,89.1250,173,89,0.49817
1226960,-0.20500,88.3750,173,89,0.48742
1226970,-0.19000,87.6250,173,89,0.47766
1226980,-0.19000,86.3125,173,89,0.45934
1226990,-0.18000,85.7500,173,89,0.45177
1227000,-0.17000,85.3125,172,89,0.44518
1227010,-0.15500,85.2500,172,89,0.42955
1227020,-0.15000,86.3125,172,89,0.42125
1227030,-0.13500,88.9375,172,89,0.41294
1227040,-0.12000,93.7500,172,89,0.40488
1227050,-0.10000,101.1250,172,89,0.39707
1227060,-0.07500,120.9375,172,89,0.38169
1227070,-0.04500,131.5000,172,89,0.37411
1227080,-0.01500,141.1250,172,89,0.36703
1227090,0.02000,149.3750,172,89,0.36142
1227100,0.06000,160.4375,172,89,0.35092
1227110,0.09500,163.5625,172,89,0.34481
1227120,0.12000,165.5000,172,89,0.33871
1227130,0.14500,166.6250,172,89,0.33284
1227140,0.15500,167.3750,172,89,0.32112
1227150,0.16500,167.4375,172,89,0.31551
1227160,0.16000,167.5000,172,89,0.31013
1227170,0.15500,167.5625,172,89,0.30501
1227180,0.14000,168.0000,172,89,0.29524
1227190,0.11000,168.3125,172,89,0.29182
1227200,0.06000,168.6250,172,89,0.28938
1227210,0.00500,168.9375,172,89,0.28596
1227220,-0.04500,169.1250,172,89,0.27814
1227230,-0.07500,168.8750,172,89,0.27399
1227240,-0.09500,168.3750,172,89,0.26984
1227250,-0.11500,167.3750,172,89,0.26569
1227260,-0.12500,163.7500,172,89,0.26105
1227270,-0.13500,160.8125,172,89,0.26325
1227280,-0.14000,156.9375,172,89,0.27057
1227290,-0.13500,152.1875,172,89,0.28181
1227300,-0.13500,140.3750,172,89,0.32234
1227310,-0.12500,134.1875,172,89,0.35385
1227320,-0.09500,128.6250,172,89,0.39072
1227330,-0.05000,124.1250,172,89,0.43101
1227340,-0.01000,118.8750,172,89,0.51306
1227350,0.03500,117.7500,172,89,0.55116
1227360,0.08000,117.1875,172,89,0.58559
1227370,0.11500,116.8750,172,89,0.61587
1227380,0.11000,116.5000,172,89,0.66398
1227390,0.07000,116.1250,172,89,0.67985
1227400,0.01500,115.5000,172,89,0.69182
1227410,-0.04000,114.7500,172,89,0.70330
1227420,-0.08500,112.7500,172,89,0.72234
1227430,-0.10500,111.5625,172,89,0.72943
1227440,-0.11500,110.3125,172,89,0.73529
1227450,-0.12500,109.0625,172,89,0.74017
1227460,-0.12500,106.6250,172,89,0.74579
1227470,-0.12500,105.4375,172,89,0.74701
1227480,-0.12500,104.3125,172,89,0.74701
1227490,-0.11500,103.3125,172,89,0.74505
1227500,-0.12500,101.3125,172,89,0.73724
1227510,-0.11500,100.4375,172,89,0.73089
1227520,0.14500,99.5000,172,89,0.72234
1227530,0.74500,98.6875,172,89,0.71087
1227540,1.11000,97.0625,172,89,0.67912
1227550,0.66500,96.2500,172,89,0.65934
1227560,-0.09500,95.4375,172,89,0.63761
1227570,-0.44500,94.6875,172,89,0.61490
1227580,-0.41500,93.0625,172,89,0.57045
1227590,-0.26500,92.3125,172,89,0.55214
1227600,-0.18500,91.5000,172,89,0.53675
1227610,-0.17000,90.6875,172,89,0.52186
1227620,-0.16500,89.0625,172,89,0.49646
1227630,-0.15500,88.3125,172,89,0.48596
1227640,-0.15500,87.6250,172,89,0.47643
1227650,-0.15000,86.9375,172,89,0.46740
1227660,-0.14500,86.0625,172,89,0.44982
1227670,-0.14000,85.8750,172,89,0.44103
1227680,-0.13500,86.1250,172,89,0.43223
1227690,-0.12000,87.2500,172,89,0.42466
1227700,-0.10500,94.7500,172,89,0.41026
1227710,-0.08500,102.1875,172,89,0.40195
1227720,-0.06500,111.6250,172,89,0.39365
1227730,-0.03000,122.0625,172,89,0.38535
1227740,0.00000,142.1875,172,89,0.36923
1227750,0.04000,150.3125,172,89,0.36166
1227760,0.07000,156.6875,172,89,0.35433
1227770,0.10000,161.2500,172,89,0.34750
1227780,0.12500,166.1250,172,89,0.33455
1227790,0.14500,167.0625,172,89,0.32991
1227800,0.15500,167.4375,172,89,0.32601
1227810,0.16000,167.5625,172,89,0.32112
1227820,0.15500,167.6250,172,89,0.31062
1227830,0.15500,167.7500,172,89,0.30525
1227840,0.14000,168.0000,172,89,0.29988
1227850,0.11500,168.3125,172,89,0.29475
1227860,0.07000,169.1250,172,89,0.28498
1227870,0.02000,169.5000,172,89,0.28034
1227880,-0.03000,169.7500,172,89,0.27570
1227890,-0.06500,169.8125,172,89,0.27253
1227900,-0.08500,169.2500,172,89,0.26716
1227910,-0.10500,168.3750,172,89,0.26374
1227920,-0.12500,166.8750,172,89,0.26081
1227930,-0.14000,164.6250,172,89,0.25958
1227940,-0.15000,157.5625,172,89,0.26813
1227950,-0.15500,152.6250,172,89,0.28107
1227960,-0.15000,146.8125,172,89,0.30085
1227970,-0.13500,140.5000,172,89,0.32796
1227980,-0.11000,128.6875,172,89,0.39951
1227990,-0.06500,124.3750,172,89,0.43492
1228000,-0.02000,121.3750,171,89,0.46862
1228010,0.03000,118.5625,171,89,0.54164
1228020,0.06000,118.1875,171,89,0.57534
1228030,0.09000,117.9375,171,89,0.60562
1228040,0.09000,117.8125,171,89,0.63175
1228050,0.06000,117.5625,171,89,0.66325
1228060,0.00000,116.5000,171,89,0.69426
1228070,-0.07000,115.6250,171,89,0.71111
1228080,-0.13000,114.6875,171,89,0.71795
1228090,-0.15500,113.5625,171,89,0.72259
1228100,-0.17000,111.1875,171,89,0.73162
1228110,-0.17500,110.0000,171,89,0.73529
1228120,-0.18000,108.8125,171,89,0.73797
1228130,-0.17500,107.6250,171,89,0.73968
1228140,-0.17000,105.5000,171,89,0.73968
1228150,-0.17000,104.5000,171,89,0.73748
1228160,-0.18000,103.5000,171,89,0.73333
1228170,-0.20000,102.5625,171,89,0.72674
1228180,-0.04000,100.6875,171,89,0.70647
1228190,0.46000,99.8125,171,89,0.69353
1228200,1.02500,98.9375,171,89,0.67717
1228210,0.88000,98.0625,171,89,0.65812
1228220,0.08000,96.4375,171,89,0.61441
1228230,-0.47000,95.6250,171,89,0.59194
1228240,-0.53500,94.8125,171,89,0.56996
1228250,-0.39000,94.0625,171,89,0.54945
1228260,-0.28500,92.6875,171,89,0.51575
1228270,-0.26000,92.0000,171,89,0.50232
1228280,-0.26000,91.3125,171,89,0.49182
1228290,-0.25000,90.6250,171,89,0.48303
1228300,-0.24000,89.2500,171,89,0.46569
1228310,-0.23500,88.6875,171,89,0.45714
1228320,-0.23000,88.1250,171,89,0.44860
1228330,-0.22000,87.6875,171,89,0.44005
1228340,-0.22000,87.9375,171,89,0.42295
1228350,-0.20500,89.4375,171,89,0.41416
1228360,-0.19000,92.8125,171,89,0.40562
1228370,-0.17000,98.7500,171,89,0.39731
1228380,-0.15000,117.1875,171,89,0.38266
1228390,-0.11500,128.0000,171,89,0.37680
1228400,-0.08000,138.5000,171,89,0.36996
1228410,-0.03500,147.8125,171,89,0.36288
1228420,0.00000,161.2500,171,89,0.34896
1228430,0.04500,165.3125,171,89,0.34212
1228440,0.08000,167.9375,171,89,0.33553
1228450,0.10000,169.4375,171,89,0.32918
1228460,0.11000,170.6250,171,89,0.31722
1228470,0.12000,170.8125,171,89,0.31136
1228480,0.13000,171.0000,171,89,0.30720
1228490,0.13500,171.1875,171,89,0.30403
1228500,0.13000,171.8750,171,89,0.29621
1228510,0.10500,172.3125,171,89,0.29206
1228520,0.06500,172.8750,171,89,0.28791
1228530,0.01000,173.5000,171,89,0.28400
1228540,-0.04500,174.3750,171,89,0.27570
1228550,-0.08500,174.5000,171,89,0.27131
1228560,-0.11500,174.3750,171,89,0.26691
1228570,-0.13500,173.8125,171,89,0.26325
1228580,-0.14500,171.2500,171,89,0.26203
1228590,-0.15500,169.0625,171,89,0.26496
1228600,-0.16500,166.0625,171,89,0.27277
1228610,-0.17000,162.1875,171,89,0.28669
1228620,-0.17000,151.6875,171,89,0.33651
1228630,-0.16000,145.3750,171,89,0.37118
1228640,-0.14000,138.8750,171,89,0.41050
1228650,-0.10500,132.9375,171,89,0.45201
1228660,-0.06500,124.8125,171,89,0.53333
1228670,-0.01500,122.6250,171,89,0.56996
1228680,0.03000,121.3750,171,89,0.59902
1228690,0.07000,120.8125,171,89,0.62247
1228700,0.07000,120.5000,171,89,0.66545
1228710,0.04000,120.3125,171,89,0.68303
1228720,-0.00500,119.9375,171,89,0.69792
1228730,-0.06500,119.3750,171,89,0.71038
1228740,-0.12000,117.6250,171,89,0.72943
1228750,-0.15000,116.5000,171,89,0.73651
1228760,-0.17000,115.3125,171,89,0.74237
1228770,-0.17500,114.0000,171,89,0.74701
1228780,-0.17500,111.5000,171,89,0.75018
1228790,-0.17000,110.3750,171,89,0.75116
1228800,-0.17000,109.2500,171,89,0.75165
1228810,-0.16000,108.1250,171,89,0.75092
1228820,-0.17000,105.8750,171,89,0.74481
1228830,-0.18000,104.8125,171,89,0.73871
1228840,0.00500,103.8750,171,89,0.73016
1228850,0.53500,102.9375,171,89,0.71868
1228860,1.06500,101.0625,171,89,0.68645
1228870,0.85000,100.1875,171,89,0.66618
1228880,0.04000,99.3125,171,89,0.64640
1228890,-0.46000,98.4375,171,89,0.62686
1228900,-0.47500,96.6875,171,89,0.58364
1228910,-0.35000,95.8750,171,89,0.56288
1228920,-0.25500,95.0000,171,89,0.54383
1228930,-0.23000,94.1250,171,89,0.52723
1228940,-0.21500,92.5000,171,89,0.50037
1228950,-0.20000,91.6875,171,89,0.48938
1228960,-0.19500,91.0000,171,89,0.47961
1228970,-0.19000,90.3125,171,89,0.47033
1228980,-0.18500,89.4375,171,89,0.45543
1228990,-0.18000,89.2500,171,89,0.44737
1229000,-0.17000,89.5000,171,88,0.43883
1229010,-0.16000,90.5000,171,88,0.43004
1229020,-0.14500,97.6875,171,88,0.41197
1229030,-0.12500,104.8750,171,88,0.40317
1229040,-0.10000,114.1875,171,88,0.39463
1229050,-0.07000,124.6875,171,88,0.38608
1229060,-0.03500,145.1250,171,88,0.36996
1229070,-0.00500,153.4375,171,88,0.36215
1229080,0.03500,160.0625,171,88,0.35604
1229090,0.08000,164.9375,171,88,0.35067
1229100,0.12000,170.1875,171,88,0.33822
1229110,0.14500,171.3125,171,88,0.33162
1229120,0.16000,172.0000,171,88,0.32527
1229130,0.17000,172.4375,171,88,0.31893
1229140,0.17000,172.9375,171,88,0.30672
1229150,0.16500,173.1875,171,88,0.30085
1229160,0.15000,173.5000,171,88,0.29524
1229170,0.12500,173.9375,171,88,0.28987
1229180,0.07500,175.0000,171,88,0.28303
1229190,0.02000,175.4375,171,88,0.27912
1229200,-0.03500,175.8750,171,88,0.27497
1229210,-0.07500,176.0625,171,88,0.27082
1229220,-0.10000,175.6875,171,88,0.26227
1229230,-0.11500,174.8750,171,88,0.25910
1229240,-0.12500,173.5625,171,88,0.25763
1229250,-0.13500,171.5625,171,88,0.25934
1229260,-0.14500,165.3125,171,88,0.27863
1229270,-0.15500,160.8125,171,88,0.29817
1229280,-0.16000,155.4375,171,88,0.32063
1229290,-0.15500,149.3750,171,88,0.34676
1229300,-0.13000,137.2500,171,88,0.41880
1229310,-0.08500,132.3750,171,88,0.45910
1229320,-0.05000,128.6875,171,88,0.49915
1229330,-0.01500,126.1250,171,88,0.53700
1229340,0.02000,123.6250,171,88,0.60244
1229350,0.04000,123.0625,171,88,0.62906
1229360,0.04500,122.6875,171,88,0.65177
1229370,0.02000,122.3125,171,88,0.67082
1229380,-0.03500,121.2500,171,88,0.69451
1229390,-0.09500,120.5000,171,88,0.70427
1229400,-0.13500,119.5625,171,88,0.71331
1229410,-0.16000,118.5625,171,88,0.72112
1229420,-0.17000,116.1875,171,88,0.73284
1229430,-0.18000,114.9375,171,88,0.73700
1229440,-0.18000,113.6875,171,88,0.74017
1229450,-0.18000,112.5000,171,88,0.74237
1229460,-0.18000,110.2500,171,88,0.74359
1229470,-0.18000,109.1875,171,88,0.74188
1229480,-0.19000,108.1875,171,88,0.73822
1229490,-0.17000,107.1875,171,88,0.73284
1229500,0.12000,105.3750,171,88,0.71575
1229510,0.77500,104.5000,171,88,0.70305
1229520,1.13500,103.6250,171,88,0.68742
1229530,0.63000,102.8125,171,88,0.66935
1229540,-0.17500,101.1250,171,88,0.62711
1229550,-0.53000,100.2500,171,88,0.60513
1229560,-0.47500,99.3750,171,88,0.58364
1229570,-0.32500,98.5000,171,88,0.56337
1229580,-0.26500,96.8750,171,88,0.53260
1229590,-0.25000,96.0625,171,88,0.51893
1229600,-0.24000,95.2500,171,88,0.50623
1229610,-0.23000,94.5000,171,88,0.49475
1229620,-0.22000,93.0625,171,88,0.47473
1229630,-0.21000,92.4375,171,88,0.46545
1229640,-0.21000,91.8750,171,88,0.45641
1229650,-0.20500,91.5000,171,88,0.44762
1229660,-0.20000,92.6250,171,88,0.43028
1229670,-0.19000,95.3750,171,88,0.42173
1229680,-0.18000,100.5625,171,88,0.41441
1229690,-0.16000,118.5000,171,88,0.40781
1229700,-0.12500,129.5000,171,88,0.39267
1229710,-0.09000,140.3750,171,88,0.38486
1229720,-0.05500,150.1875,171,88,0.37729
1229730,-0.01000,158.3750,171,88,0.36996
1229740,0.03000,169.1875,171,88,0.35580
1229750,0.07000,172.1250,171,88,0.34921
1229760,0.09500,173.8125,171,88,0.34286
1229770,0.12000,174.6875,171,88,0.33675
1229780,0.13000,175.3750,171,88,0.32796
1229790,0.14000,175.6875,171,88,0.32332
1229800,0.14500,176.0000,171,88,0.31819
1229810,0.14500,176.3750,171,88,0.31306
1229820,0.13000,177.6250,171,88,0.30281
1229830,0.08500,178.3125,171,88,0.29817
1229840,0.02500,179.0000,171,88,0.29353
1229850,-0.02500,179.5000,171,88,0.28889
1229860,-0.07500,180.1250,171,88,0.27985
1229870,-0.10500,180.0625,171,88,0.27521
1229880,-0.12500,179.7500,171,88,0.27204
1229890,-0.13500,178.9375,171,88,0.27033
1229900,-0.14000,175.7500,171,88,0.27033
1229910,-0.15000,173.0625,171,88,0.27619
1229920,-0.15500,169.5000,171,88,0.28791
1229930,-0.16000,165.0000,171,88,0.30672
1229940,-0.16500,153.3750,171,88,0.36532
1229950,-0.15000,146.9375,171,88,0.40244
1229960,-0.12000,140.6875,171,88,0.44225
1229970,-0.08500,135.3125,171,88,0.48230
1229980,-0.04500,128.3125,171,88,0.54603
1229990,-0.01000,126.5000,171,88,0.57582
1230000,0.02000,125.4375,170,88,0.60366
1230010,0.04500,124.8750,170,88,0.62833
1230020,0.04000,124.3125,170,88,0.66740
1230030,0.00500,123.9375,170,88,0.68254
1230040,-0.05000,123.4375,170,88,0.69524
1230050,-0.10000,122.6875,170,88,0.70574
1230060,-0.12500,120.6250,170,88,0.72234
1230070,-0.14500,119.4375,170,88,0.72869
1230080,-0.15500,118.1250,170,88,0.73236
1230090,-0.15500,116.8125,170,88,0.73431
1230100,-0.16000,114.1250,170,88,0.73871
1230110,-0.15500,112.8125,170,88,0.73993
1230120,-0.15000,111.5625,170,88,0.74017
1230130,-0.14500,110.3125,170,88,0.73895
1230140,-0.16000,108.1250,170,88,0.73089
1230150,-0.05000,107.0625,170,88,0.72332
1230160,0.42500,106.0625,170,88,0.71331
1230170,1.07000,105.1250,170,88,0.70012
1230180,1.01500,103.1875,170,88,0.67033
1230190,0.24000,102.3125,170,88,0.65128
1230200,-0.36000,101.4375,170,88,0.63004
1230210,-0.50000,100.6250,170,88,0.60781
1230220,-0.37500,98.9375,170,88,0.56435
1230230,-0.25000,98.1250,170,88,0.54481
1230240,-0.22000,97.3125,170,88,0.52723
1230250,-0.20500,96.4375,170,88,0.51184
1230260,-0.19500,94.7500,170,88,0.48669
1230270,-0.18500,94.0000,170,88,0.47741
1230280,-0.18000,93.3125,170,88,0.46960
1230290,-0.17500,92.6875,170,88,0.46007
1230300,-0.17000,92.0625,170,88,0.44005
1230310,-0.16000,92.3750,170,88,0.43077
1230320,-0.15000,93.6875,170,88,0.42149
1230330,-0.13500,96.6250,170,88,0.41197
1230340,-0.12000,109.9375,170,88,0.39341
1230350,-0.09500,119.8750,170,88,0.38437
1230360,-0.06500,130.8750,170,88,0.37558
1230370,-0.02500,141.6875,170,88,0.36703
1230380,0.01000,159.6250,170,88,0.35433
1230390,0.05000,165.8750,170,88,0.34750
1230400,0.09500,170.2500,170,88,0.34042
1230410,0.13000,174.8125,170,88,0.33333
1230420,0.15000,175.7500,170,88,0.31966
1230430,0.16500,176.2500,170,88,0.31282
1230440,0.17500,176.5625,170,88,0.30647
1230450,0.18500,176.8125,170,88,0.30037
1230460,0.18500,177.5000,170,88,0.28864
1230470,0.17500,178.0000,170,88,0.28474
1230480,0.14500,178.5625,170,88,0.28156
1230490,0.10000,179.2500,170,88,0.27741
1230500,0.04000,180.5625,170,88,0.26862
1230510,-0.01500,181.1250,170,88,0.26422
1230520,-0.05500,181.4375,170,88,0.25958
1230530,-0.07500,181.5000,170,88,0.25519
1230540,-0.09000,180.3125,170,88,0.24786
1230550,-0.09500,178.8750,170,88,0.24713
1230560,-0.10500,176.7500,170,88,0.24982
1230570,-0.11500,173.7500,170,88,0.25763
1230580,-0.12500,164.9375,170,88,0.28571
1230590,-0.13500,159.1250,170,88,0.30989
1230600,-0.13500,152.6250,170,88,0.34090
1230610,-0.11000,145.9375,170,88,0.37729
1230620,-0.07500,134.7500,170,88,0.45665
1230630,-0.03500,131.1875,170,88,0.49548
1230640,-0.00500,128.8750,170,88,0.53187
1230650,0.03000,127.6250,170,88,0.56435
1230660,0.06000,126.7500,170,88,0.61734
1230670,0.07000,126.5625,170,88,0.63541
1230680,0.05000,126.3125,170,88,0.64908
1230690,-0.00500,125.8750,170,88,0.66252
1230700,-0.06500,124.3750,170,88,0.68498
1230710,-0.11000,123.3750,170,88,0.69402
1230720,-0.13000,122.1875,170,88,0.70183
1230730,-0.14500,121.0000,170,88,0.70842
1230740,-0.15000,118.3750,170,88,0.71844
1230750,-0.15000,117.0000,170,88,0.72210
1230760,-0.14500,115.6875,170,88,0.72479
1230770,-0.14500,114.3750,170,88,0.72625
1230780,-0.14500,111.8125,170,88,0.72332
1230790,-0.16000,110.6250,170,88,0.72015
1230800,-0.16000,109.5000,170,88,0.71502
1230810,0.10000,108.4375,170,88,0.70769
1230820,0.72500,106.5625,170,88,0.68474
1230830,1.17500,105.6250,170,88,0.66862
1230840,0.77500,104.7500,170,88,0.64982
1230850,-0.04500,103.9375,170,88,0.62906
1230860,-0.47000,102.3750,170,88,0.58510
1230870,-0.45000,101.6250,170,88,0.56581
1230880,-0.31000,100.8125,170,88,0.54896
1230890,-0.25000,100.0625,170,88,0.53211
1230900,-0.23000,98.4375,170,88,0.50281
1230910,-0.23000,97.6875,170,88,0.49060
1230920,-0.22000,96.9375,170,88,0.47985
1230930,-0.21000,96.2500,170,88,0.47009
1230940,-0.19500,95.1250,170,88,0.45177
1230950,-0.18500,94.7500,170,88,0.44298
1230960,-0.18000,94.6875,170,88,0.43443
1230970,-0.18000,95.3125,170,88,0.42564
1230980,-0.17000,101.3125,170,88,0.41172
1230990,-0.16000,108.0000,170,88,0.40415
1231000,-0.14500,117.0625,170,88,0.39585
1231010,-0.12500,127.6875,170,88,0.38755
1231020,-0.09500,149.4375,170,88,0.37094
1231030,-0.06500,158.6250,170,88,0.36264
1231040,-0.02000,166.0000,170,88,0.35458
1231050,0.01000,171.4375,170,88,0.34676
1231060,0.05500,177.3125,170,88,0.33236
1231070,0.09000,178.6250,170,88,0.32698
1231080,0.12000,179.2500,170,88,0.32259
1231090,0.13500,179.5625,170,88,0.31722
1231100,0.14500,180.0000,170,88,0.30623
1231110,0.15500,180.3750,170,88,0.30085
1231120,0.15500,180.8750,170,88,0.29573
1231130,0.13500,181.5000,170,88,0.29060
1231140,0.10000,182.9375,170,88,0.28132
1231150,0.05000,183.6250,170,88,0.27692
1231160,0.00500,184.2500,170,88,0.27253
1231170,-0.03500,184.6250,170,88,0.26789
1231180,-0.06500,184.6250,170,88,0.26252
1231190,-0.09500,184.0000,170,88,0.25958
1231200,-0.11000,182.8125,170,88,0.25739
1231210,-0.12500,181.0000,170,88,0.25739
1231220,-0.13500,175.0625,170,88,0.26984
1231230,-0.15000,170.8125,170,88,0.28523
1231240,-0.15500,165.6250,170,88,0.30769
1231250,-0.16000,159.6250,170,88,0.33675
1231260,-0.14000,146.6250,170,88,0.40904
1231270,-0.10500,140.8125,170,88,0.44347
1231280,-0.07000,136.1250,170,88,0.47521
1231290,-0.03500,132.8125,170,88,0.50916
1231300,0.00000,129.4375,170,88,0.57192
1231310,0.02500,128.7500,170,88,0.59829
1231320,0.03000,128.3750,170,88,0.62100
1231330,0.01000,127.9375,170,88,0.64005
1231340,-0.03500,126.8750,170,88,0.66984
1231350,-0.09500,126.0625,170,88,0.68132
1231360,-0.14000,125.1250,170,88,0.69109
1231370,-0.16000,122.7500,170,88,0.69939
1231380,-0.17500,121.4375,170,88,0.70891
1231390,-0.18000,120.1250,170,88,0.71331
1231400,-0.18000,118.8125,170,88,0.71746
1231410,-0.18000,117.4375,170,88,0.72088
1231420,-0.17000,114.8750,170,88,0.72405
1231430,-0.17000,113.6250,170,88,0.72381
1231440,-0.18500,112.5000,170,88,0.72161
1231450,-0.21000,111.3750,170,88,0.71770
1231460,-0.04000,109.3125,170,88,0.70256
1231470,0.52000,108.3125,170,88,0.69206
1231480,1.07000,107.2500,170,88,0.67985
1231490,0.79500,106.2500,170,88,0.66422
1231500,0.00000,104.1875,170,88,0.62540
1231510,-0.43000,103.2500,170,88,0.60391
1231520,-0.42000,102.3125,170,88,0.58217
1231530,-0.23000,100.7500,170,88,0.56093
1231540,-0.08500,100.0000,170,88,0.52357
1231550,0.00500,99.1875,170,88,0.50769
1231560,0.03000,98.4375,170,88,0.49402
1231570,-0.02000,97.7500,170,88,0.48181
1231580,-0.05500,96.4375,170,88,0.46349
1231590,-0.07500,95.8750,170,88,0.45446
1231600,-0.09500,95.3125,170,88,0.44542
1231610,-0.11500,95.0000,170,88,0.43614
1231620,-0.13500,96.0000,170,88,0.41758
1231630,-0.14000,98.5625,170,88,0.40830
1231640,-0.13000,103.5625,170,88,0.39902
1231650,-0.10500,111.3125,170,88,0.38999
1231660,-0.08000,132.1875,170,88,0.37265
1231670,-0.05500,143.3125,170,88,0.36557
1231680,-0.02500,153.5625,170,88,0.35946
1231690,0.00500,162.3125,170,88,0.35238
1231700,0.04000,173.6875,170,88,0.33748
1231710,0.08000,176.8125,170,88,0.33016
1231720,0.11000,178.7500,170,88,0.32283
1231730,0.13500,180.1875,170,88,0.31575
1231740,0.15500,180.3750,170,88,0.30183
1231750,0.17500,180.5000,170,88,0.29548
1231760,0.18500,180.6875,170,88,0.28938
1231770,0.17000,181.0625,170,88,0.28352
1231780,0.14000,182.1250,170,88,0.27643
1231790,0.09000,182.8750,170,88,0.27277
1231800,0.03000,183.5625,170,88,0.26886
1231810,-0.03000,184.2500,170,88,0.26471
1231820,-0.07500,184.9375,170,88,0.25665
1231830,-0.10500,184.9375,170,88,0.25250
1231840,-0.12500,184.5000,170,88,0.24860
1231850,-0.13500,183.6250,170,88,0.24542
1231860,-0.14500,179.6875,170,88,0.24567
1231870,-0.15500,176.3750,170,88,0.25079
1231880,-0.16000,172.1875,170,88,0.26056
1231890,-0.17000,167.0000,170,88,0.27668
1231900,-0.17000,154.5000,170,88,0.32918
1231910,-0.16000,147.9375,170,88,0.36410
1231920,-0.13000,142.0625,170,88,0.40220
1231930,-0.09500,137.3750,170,88,0.44127
1231940,-0.05500,131.8750,170,88,0.51502
1231950,-0.01500,130.6250,170,88,0.54725
1231960,0.03000,129.9375,170,88,0.57558
1231970,0.06000,129.5000,170,88,0.59976
1231980,0.06000,128.6875,170,88,0.63150
1231990,0.02500,128.1250,170,88,0.64493
1232000,-0.01500,127.3125,171,88,0.65690
1232010,-0.03500,126.3125,171,88,0.66764
1232020,-0.03500,123.8125,171,88,0.68498
1232030,-0.03000,122.4375,171,88,0.69206
1232040,0.00000,121.1250,171,88,0.69792
1232050,0.05000,119.8125,171,88,0.70305
1232060,0.08000,117.3125,171,88,0.70989
1232070,0.07500,116.1250,171,88,0.71062
1232080,0.05000,115.0000,171,88,0.70989
1232090,0.00500,113.8750,171,88,0.70867
1232100,-0.04500,111.8750,171,88,0.70134
1232110,0.14500,110.9375,171,88,0.69402
1232120,0.74000,110.0000,171,88,0.68400
1232130,1.31500,109.0625,171,88,0.67082
1232140,1.07500,107.1875,171,88,0.63614
1232150,0.17500,106.3125,171,88,0.61587
1232160,-0.45000,105.3750,171,88,0.59463
1232170,-0.56000,104.5000,171,88,0.57558
1232180,-0.44000,102.8125,171,88,0.54042
1232190,-0.34500,101.9375,171,88,0.52357
1232200,-0.31500,100.9375,171,88,0.50842
1232210,-0.29000,100.0625,171,88,0.49475
1232220,-0.26000,98.5000,171,88,0.47228
1232230,-0.22500,97.8125,171,88,0.46252
1232240,-0.20000,97.1250,171,88,0.45324
1232250,-0.19000,96.5625,171,88,0.44420
1232260,-0.18000,96.1250,171,88,0.42589
1232270,-0.17500,96.9375,171,88,0.41832
1232280,-0.16500,99.3750,171,88,0.41123
1232290,-0.15500,104.1875,171,88,0.40342
1232300,-0.13500,121.5625,171,88,0.38681
1232310,-0.10500,132.7500,171,88,0.37851
1232320,-0.06500,144.1250,171,88,0.37045
1232330,-0.02500,154.6250,171,88,0.36264
1232340,0.01500,170.5625,171,88,0.35507
1232350,0.05000,175.6250,171,88,0.35018
1232360,0.08000,178.9375,171,88,0.34457
1232370,0.10000,180.8750,171,88,0.33993
1232380,0.12000,182.4375,171,88,0.33065
1232390,0.13000,182.6875,171,88,0.32503
1232400,0.14000,182.9375,171,88,0.31941
1232410,0.14000,183.1875,171,88,0.31380
1232420,0.14000,183.8750,171,88,0.30330
1232430,0.13000,184.4375,171,88,0.29817
1232440,0.10000,185.1250,171,88,0.29328
1232450,0.05500,185.7500,171,88,0.28864
1232460,0.00500,186.8125,171,88,0.27937
1232470,-0.04500,187.0625,171,88,0.27619
1232480,-0.07500,187.0625,171,88,0.27350
1232490,-0.09500,186.6875,171,88,0.26984
1232500,-0.11000,184.3750,171,88,0.26349
1232510,-0.12500,182.1875,171,88,0.26374
1232520,-0.13500,179.0625,171,88,0.26838
1232530,-0.14500,175.0000,171,88,0.27888
1232540,-0.16500,164.0625,171,88,0.32088
1232550,-0.18000,157.4375,171,88,0.35189
1232560,-0.17000,150.6875,171,88,0.38779
1232570,-0.14000,144.5000,171,88,0.42149
1232580,-0.10000,135.7500,171,88,0.48913
1232590,-0.06500,133.2500,171,88,0.52430
1232600,-0.02500,131.6875,171,88,0.55727
1232610,0.00000,130.7500,171,88,0.58681
1232620,0.02000,129.7500,171,88,0.63443
1232630,0.01000,129.3125,171,88,0.65324
1232640,-0.02000,128.7500,171,88,0.66911
1232650,-0.07500,127.1875,171,88,0.68230
1232660,-0.11500,126.1250,171,88,0.70330
1232670,-0.14000,125.0000,171,88,0.70989
1232680,-0.15500,123.7500,171,88,0.71453
1232690,-0.16500,122.3750,171,88,0.71966
1232700,-0.17000,119.7500,171,88,0.72869
1232710,-0.17000,118.4375,171,88,0.73187
1232720,-0.16500,117.1875,171,88,0.73407
1232730,-0.15500,115.8750,171,88,0.73480
1232740,-0.16000,113.3750,171,88,0.73162
1232750,-0.16000,112.2500,171,88,0.72674
1232760,0.04000,111.1875,171,88,0.71941
1232770,0.62500,110.1875,171,88,0.71013
1232780,1.14500,108.1250,171,88,0.68400
1232790,0.79000,107.1250,171,88,0.66642
1232800,-0.02500,106.1875,171,88,0.64640
1232810,-0.45000,105.2500,171,88,0.62491
1232820,-0.45500,103.5000,171,88,0.58144
1232830,-0.30500,102.6250,171,88,0.56117
1232840,-0.21500,101.8125,171,88,0.54286
1232850,-0.20000,101.0000,171,88,0.52650
1232860,-0.18000,99.3125,171,88,0.49939
1232870,-0.17000,98.5000,171,88,0.48938
1232880,-0.15500,97.6875,171,88,0.48059
1232890,-0.15000,96.9375,171,88,0.47155
1232900,-0.14000,95.8125,171,88,0.45348
1232910,-0.13000,95.7500,171,88,0.44444
1232920,-0.11500,96.3750,171,88,0.43516
1232930,-0.10000,98.3125,171,88,0.42589
1232940,-0.08000,108.8750,171,88,0.40757
1232950,-0.06000,117.8125,171,88,0.39853
1232960,-0.03500,128.3750,171,88,0.38974
1232970,-0.00500,139.5000,171,88,0.38242
1232980,0.03000,159.5000,171,88,0.36874
1232990,0.06000,167.1250,171,88,0.36117
1233000,0.10500,172.8125,172,89,0.35360
1233010,0.14500,176.8125,172,89,0.34603
1233020,0.17500,180.8125,172,89,0.33138
1233030,0.19500,181.5625,172,89,0.32454
1233040,0.20500,181.9375,172,89,0.31795
1233050,0.21000,182.1250,172,89,0.31136
1233060,0.22000,182.4375,172,89,0.29939
1233070,0.22500,182.6875,172,89,0.29524
1233080,0.22000,183.1250,172,89,0.29182
1233090,0.18500,183.6250,172,89,0.28767
1233100,0.13500,184.9375,172,89,0.27839
1233110,0.08000,185.5000,172,89,0.27375
1233120,0.02500,185.8750,172,89,0.26886
1233130,-0.02000,186.0625,172,89,0.26374
1233140,-0.05000,185.0625,172,89,0.25446
1233150,-0.06500,183.6250,172,89,0.25153
1233160,-0.08500,181.3750,172,89,0.25128
1233170,-0.09500,178.1875,172,89,0.25470
1233180,-0.11000,168.9375,172,89,0.27570
1233190,-0.11500,162.8750,172,89,0.29573
1233200,-0.11000,156.2500,172,89,0.32234
1233210,-0.08500,149.5625,172,89,0.35482
1233220,-0.04000,138.5000,172,89,0.43004
1233230,-0.00500,134.9375,172,89,0.46862
1233240,0.03000,132.5000,172,89,0.50549
1233250,0.06500,131.0625,172,89,0.53944
1233260,0.09000,129.6875,172,89,0.59609
1233270,0.09000,129.3125,172,89,0.61587
1233280,0.07000,128.8750,172,89,0.63150
1233290,0.02000,128.3125,172,89,0.64664
1233300,-0.03500,126.6875,172,89,0.67204
1233310,-0.07500,125.6250,172,89,0.68230
1233320,-0.09500,124.5000,172,89,0.69109
1233330,-0.10500,123.3125,172,89,0.69841
1233340,-0.11500,120.8125,172,89,0.71013
1233350,-0.11500,119.5000,172,89,0.71477
1233360,-0.11000,118.2500,172,89,0.71819
1233370,-0.10500,116.9375,172,89,0.71966
1233380,-0.09500,114.4375,172,89,0.71893
1233390,-0.11500,113.2500,172,89,0.71697
1233400,-0.06000,112.0625,172,89,0.71306
1233410,0.30000,110.9375,172,89,0.70647
1233420,0.93000,108.7500,172,89,0.68449
1233430,1.05000,107.6875,172,89,0.66886
1233440,0.42000,106.6875,172,89,0.65055
1233450,-0.22000,105.6875,172,89,0.63004
1233460,-0.43500,103.8750,172,89,0.58681
1233470,-0.33500,103.0000,172,89,0.56777
1233480,-0.20000,102.1250,172,89,0.55092
1233490,-0.16000,101.3125,172,89,0.53407
1233500,-0.15500,99.6250,172,89,0.50403
1233510,-0.14500,98.7500,172,89,0.49158
1233520,-0.13500,97.9375,172,89,0.48059
1233530,-0.12500,97.1875,172,89,0.47057
1233540,-0.12500,96.1250,172,89,0.45201
1233550,-0.12000,95.8750,172,89,0.44322
1233560,-0.11000,96.0000,172,89,0.43443
1233570,-0.10500,96.8125,172,89,0.42711
1233580,-0.08500,103.4375,172,89,0.41245
1233590,-0.06500,110.3750,172,89,0.40440
1233600,-0.04500,119.6875,172,89,0.39585
1233610,-0.01500,130.4375,172,89,0.38755
1233620,0.01500,151.8125,172,89,0.37094
1233630,0.05000,160.7500,172,89,0.36288
1233640,0.09500,167.8750,172,89,0.35531
1233650,0.13000,173.1250,172,89,0.34774
1233660,0.15500,178.9375,172,89,0.33309
1233670,0.17500,180.2500,172,89,0.32772
1233680,0.18500,180.8750,172,89,0.32308
1233690,0.19500,181.1250,172,89,0.31746
1233700,0.19500,181.3750,172,89,0.30574
1233710,0.20000,181.5625,172,89,0.29988
1233720,0.19500,181.8125,172,89,0.29426
1233730,0.17500,182.1250,172,89,0.28889
1233740,0.13500,183.0000,172,89,0.27888
1233750,0.08500,183.4375,172,89,0.27399
1233760,0.04000,183.7500,172,89,0.26911
1233770,0.00000,183.9375,172,89,0.26569
1233780,-0.03500,183.1875,172,89,0.25983
1233790,-0.06500,182.0625,172,89,0.25641
1233800,-0.08500,180.2500,172,89,0.25421
1233810,-0.10000,177.5625,172,89,0.25446
1233820,-0.11500,169.1250,172,89,0.26813
1233830,-0.12500,163.3750,172,89,0.28400
1233840,-0.11500,156.8125,172,89,0.30672
1233850,-0.09500,149.8750,172,89,0.33578
1233860,-0.05500,138.0625,172,89,0.40733
1233870,-0.00500,134.1875,172,89,0.44103
1233880,0.04000,131.7500,172,89,0.47204
1233890,0.08500,130.3750,172,89,0.50525
1233900,0.11000,129.3125,172,89,0.56679
1233910,0.12000,129.1250,172,89,0.59292
1233920,0.10000,128.9375,172,89,0.61538
1233930,0.05500,128.5625,172,89,0.63468
1233940,-0.00500,127.1250,172,89,0.66447
1233950,-0.06500,126.0625,172,89,0.67570
1233960,-0.10500,124.8125,172,89,0.68523
1233970,-0.12500,123.5000,172,89,0.69182
1233980,-0.13500,120.7500,172,89,0.70134
1233990,-0.13500,119.3750,172,89,0.70598
1234000,-0.14000,118.0625,173,89,0.70989
1234010,-0.13500,116.8125,173,89,0.71306
1234020,-0.13000,114.4375,173,89,0.71551
1234030,-0.13500,113.3125,173,89,0.71429
1234040,-0.14000,112.1875,173,89,0.71111
1234050,0.08000,111.0625,173,89,0.70525
1234060,0.64000,109.0000,173,89,0.68547
1234070,1.09000,108.0000,173,89,0.67277
1234080,0.76000,107.0625,173,89,0.65665
1234090,-0.01000,106.1250,173,89,0.63761
1234100,-0.42000,104.3125,173,89,0.59512
1234110,-0.42500,103.4375,173,89,0.57363
1234120,-0.29000,102.6250,173,89,0.55360
1234130,-0.20000,101.8750,173,89,0.53553
1234140,-0.18000,100.2500,173,89,0.50598
1234150,-0.17000,99.4375,173,89,0.49426
1234160,-0.16000,98.5625,173,89,0.48400
1234170,-0.15000,97.8125,173,89,0.47570
1234180,-0.14500,96.5625,173,89,0.46105
1234190,-0.14000,96.1875,173,89,0.45299
1234200,-0.13500,96.1250,173,89,0.44469
1234210,-0.13500,96.6875,173,89,0.43614
1234220,-0.12500,101.9375,173,89,0.41880
1234230,-0.11000,108.1250,173,89,0.41001
1234240,-0.08500,116.8125,173,89,0.40147
1234250,-0.06500,127.2500,173,89,0.39292
1234260,-0.03500,149.3125,173,89,0.37802
1234270,0.00000,159.0000,173,89,0.37216
1234280,0.04000,167.0000,173,89,0.36557
1234290,0.07500,173.0625,173,89,0.35849
1234300,0.11000,180.1250,173,89,0.34457
1234310,0.13000,181.8125,173,89,0.33773
1234320,0.14000,182.8125,173,89,0.33114
1234330,0.14500,183.3125,173,89,0.32479
1234340,0.15500,183.8125,173,89,0.31282
1234350,0.15500,184.0625,173,89,0.30720
1234360,0.14500,184.4375,173,89,0.30183
1234370,0.13000,184.9375,173,89,0.29792
1234380,0.10000,186.1875,173,89,0.29182
1234390,0.05000,186.9375,173,89,0.28840
1234400,-0.01000,187.5625,173,89,0.28425
1234410,-0.06000,188.0000,173,89,0.27985
1234420,-0.09500,188.0625,173,89,0.27082
1234430,-0.11500,187.5000,173,89,0.26667
1234440,-0.13500,186.2500,173,89,0.26349
1234450,-0.14000,184.2500,173,89,0.26276
1234460,-0.14500,177.3750,173,89,0.27302
1234470,-0.15000,172.3750,173,89,0.28474
1234480,-0.14500,166.4375,173,89,0.30330
1234490,-0.13500,159.7500,173,89,0.32894
1234500,-0.10500,146.5625,173,89,0.39731
1234510,-0.06000,141.3750,173,89,0.43639
1234520,-0.00500,137.5625,173,89,0.47595
1234530,0.05000,135.0000,173,89,0.51404
1234540,0.09500,132.6250,173,89,0.58169
1234550,0.12000,132.1250,173,89,0.61001
1234560,0.12000,131.6875,173,89,0.63443
1234570,0.09000,131.2500,173,89,0.65275
1234580,0.03000,129.8750,173,89,0.68059
1234590,-0.03000,128.9375,173,89,0.69304
1234600,-0.06500,127.8750,173,89,0.70379
1234610,-0.09000,125.5000,173,89,0.71331
1234620,-0.09500,124.1875,173,89,0.72845
1234630,-0.10500,122.8750,173,89,0.73431
1234640,-0.11000,121.5625,173,89,0.73919
1234650,-0.11500,120.3125,173,89,0.74335
1234660,-0.11000,117.6250,173,89,0.74701
1234670,-0.10500,116.3750,173,89,0.74603
1234680,-0.11000,115.0625,173,89,0.74408
1234690,0.00500,113.8750,173,89,0.74042
1234700,0.41500,111.5625,173,89,0.72576
1234710,0.97000,110.5000,173,89,0.71380
1234720,0.96000,109.4375,173,89,0.69841
1234730,0.27500,107.4375,173,89,0.68010
1234740,-0.27000,106.5625,173,89,0.63761
1234750,-0.41000,105.6875,173,89,0.61514
1234760,-0.31500,104.8125,173,89,0.59316
1234770,-0.19000,104.0000,173,89,0.57460
1234780,-0.15000,102.3125,173,89,0.54335
1234790,-0.14000,101.4375,173,89,0.52918
1234800,-0.12500,100.5625,173,89,0.51648
1234810,-0.12000,99.6875,173,89,0.50501
1234820,-0.11500,98.4375,173,89,0.48498
1234830,-0.11500,98.1250,173,89,0.47546
1234840,-0.11000,98.0625,173,89,0.46618
1234850,-0.10000,98.4375,173,89,0.45690
1234860,-0.08500,102.0000,173,89,0.43980
1234870,-0.06000,106.6875,173,89,0.43272
1234880,-0.03500,113.8125,173,89,0.42442
1234890,-0.01500,123.0000,173,89,0.41587
1234900,0.01000,144.1875,173,89,0.39878
1234910,0.04000,154.1875,173,89,0.39023
1234920,0.07500,162.8125,173,89,0.38193
1234930,0.11000,169.6875,173,89,0.37363
1234940,0.14000,178.4375,173,89,0.35751
1234950,0.17000,180.6875,173,89,0.34969
1234960,0.19500,182.0625,173,89,0.34212
1234970,0.20500,182.8125,173,89,0.33651
1234980,0.21500,183.5000,173,89,0.32625
1234990,0.21000,183.8125,173,89,0.32063
1235000,0.20500,184.1250,176,91,0.31477
1235010,0.19000,184.5625,176,91,0.30916
1235020,0.16500,185.8125,176,91,0.29841
1235030,0.12000,186.5000,176,91,0.29328
1235040,0.07000,187.1875,176,91,0.28816
1235050,0.01500,187.7500,176,91,0.28303
1235060,-0.02000,188.0625,176,91,0.27473
1235070,-0.04500,187.6875,176,91,0.27253
1235080,-0.06500,186.7500,176,91,0.26984
1235090,-0.08500,185.0625,176,91,0.26789
1235100,-0.09500,179.2500,176,91,0.27253
1235110,-0.11000,174.8125,176,91,0.28230
1235120,-0.11000,169.3750,176,91,0.29817
1235130,-0.09500,156.1250,176,91,0.32088
1235140,-0.06500,149.4375,176,91,0.38339
1235150,-0.01500,143.5625,176,91,0.42027
1235160,0.03500,139.0000,176,91,0.45812
1235170,0.08500,135.8125,176,91,0.49084
1235180,0.12500,132.5000,176,91,0.54945
1235190,0.14000,131.6875,176,91,0.57778
1235200,0.13500,131.0625,176,91,0.60317
1235210,0.10000,130.5000,176,91,0.62540
1235220,0.04500,129.0625,176,91,0.66081
1235230,-0.01500,128.1250,176,91,0.67497
1235240,-0.05500,127.8438,176,91,0.68018
1235250,-0.07500,127.0625,176,91,0.68694
1235260,-0.09500,124.6250,176,91,0.70574
1235270,-0.10500,123.3750,176,91,0.71160
1235280,-0.11000,122.1250,176,91,0.71575
1235290,-0.10500,120.8750,176,91,0.72039
1235300,-0.10500,118.3750,176,91,0.72821
1235310,-0.09500,117.1250,176,91,0.73065
1235320,-0.10000,115.9375,176,91,0.73162
1235330,-0.08000,114.6875,176,91,0.73114
1235340,0.17000,112.3125,176,91,0.72357
1235350,0.71000,111.1250,176,91,0.71575
1235360,1.03000,110.0000,176,91,0.70476
1235370,0.64000,108.8750,176,91,0.69060
1235380,-0.04000,106.8750,176,91,0.65910
1235390,-0.39500,106.0000,176,91,0.63932
1235400,-0.41000,105.0625,176,91,0.61783
1235410,-0.28500,104.1875,176,91,0.59585
1235420,-0.20000,102.4375,176,91,0.55482
1235430,-0.18000,101.5625,176,91,0.53675
1235440,-0.17000,100.6875,176,91,0.52088
1235450,-0.16000,99.7500,176,91,0.50696
1235460,-0.15500,98.1875,176,91,0.48352
1235470,-0.15500,97.6250,176,91,0.47424
1235480,-0.14500,97.2500,176,91,0.46618
1235490,-0.13500,97.1250,176,91,0.45763
1235500,-0.12500,98.1875,176,91,0.43956
1235510,-0.11500,100.3125,176,91,0.43053
1235520,-0.09500,104.4375,176,91,0.42149
1235530,-0.07500,111.1250,176,91,0.41245
1235540,-0.04500,130.6250,176,91,0.39487
1235550,-0.01500,141.6250,176,91,0.38632
1235560,0.02000,152.0625,176,91,0.37802
1235570,0.05000,161.2500,176,91,0.36996
1235580,0.09000,174.3125,176,91,0.35775
1235590,0.12000,178.3125,176,91,0.35116
1235600,0.14000,180.9375,176,91,0.34432
1235610,0.15500,182.5000,176,91,0.33724
1235620,0.16500,184.0625,176,91,0.32381
1235630,0.17500,184.4375,176,91,0.31722
1235640,0.17500,184.7500,176,91,0.31087
1235650,0.16500,185.1250,176,91,0.30476
1235660,0.15000,186.1250,176,91,0.29328
1235670,0.12000,186.7500,176,91,0.28938
1235680,0.07000,187.4375,176,91,0.28620
1235690,0.02500,188.0625,176,91,0.28230
1235700,-0.01500,189.0625,176,91,0.27326
1235710,-0.05000,189.1875,176,91,0.26862
1235720,-0.07000,188.9375,176,91,0.26422
1235730,-0.08500,188.1875,176,91,0.26056
1235740,-0.10000,184.7500,176,91,0.25861
1235750,-0.11500,181.8125,176,91,0.26300
1235760,-0.12500,178.0000,176,91,0.27253
1235770,-0.11500,173.1250,176,91,0.28571
1235780,-0.08500,160.6875,176,91,0.32845
1235790,-0.05000,153.8750,176,91,0.35971
1235800,-0.00500,147.3750,176,91,0.39536
1235810,0.04500,141.9375,176,91,0.43321
1235820,0.09000,134.9375,176,91,0.50842
1235830,0.11500,133.0625,176,91,0.54261
1235840,0.12000,131.8750,176,91,0.57363
1235850,0.10500,131.0625,176,91,0.60098
1235860,0.05500,129.6875,176,91,0.64493
1235870,-0.01000,128.9375,176,91,0.66007
1235880,-0.07000,128.0000,176,91,0.67179
1235890,-0.10500,126.9375,176,91,0.68327
1235900,-0.12500,124.5625,176,91,0.70305
1235910,-0.14000,123.2500,176,91,0.71136
1235920,-0.15000,122.0000,176,91,0.71844
1235930,-0.15000,120.7500,176,91,0.72454
1235940,-0.14500,118.1875,176,91,0.73382
1235950,-0.13500,116.8750,176,91,0.73675
1235960,-0.13500,115.6250,176,91,0.73822
1235970,-0.13000,114.4375,176,91,0.73748
1235980,0.06500,112.1875,176,91,0.73162
1235990,0.56500,111.1250,176,91,0.72601
1236000,1.03000,110.0625,177,92,0.71770
1236010,0.79500,109.0000,177,92,0.70647
1236020,0.06500,106.9375,177,92,0.67448
1236030,-0.38500,106.0000,177,92,0.65446
1236040,-0.45000,105.1250,177,92,0.63272
1236050,-0.34500,104.2500,177,92,0.61026
1236060,-0.25000,102.5625,177,92,0.56679
1236070,-0.22000,101.6875,177,92,0.54921
1236080,-0.21000,100.7500,177,92,0.53455
1236090,-0.19500,99.8125,177,92,0.52015
1236100,-0.19000,98.1875,177,92,0.49451
1236110,-0.19000,97.6250,177,92,0.48327
1236120,-0.19000,97.1875,177,92,0.47253
1236130,-0.18000,97.0625,177,92,0.46227
1236140,-0.17000,98.0625,177,92,0.44298
1236150,-0.15500,100.1875,177,92,0.43346
1236160,-0.13500,104.4375,177,92,0.42418
1236170,-0.11500,111.1875,177,92,0.41636
1236180,-0.08500,131.1875,177,92,0.40147
1236190,-0.05500,142.5000,177,92,0.39316
1236200,-0.02000,153.3125,177,92,0.38486
1236210,0.02000,162.7500,177,92,0.37656
1236220,0.06000,176.1875,177,92,0.36020
1236230,0.10000,180.2500,177,92,0.35238
1236240,0.13000,182.8750,177,92,0.34481
1236250,0.15500,184.5000,177,92,0.33748
1236260,0.16500,185.8750,177,92,0.32357
1236270,0.17500,186.1250,177,92,0.31844
1236280,0.17500,186.4375,177,92,0.31429
1236290,0.17000,186.7500,177,92,0.30916
1236300,0.15000,187.8750,177,92,0.29841
1236310,0.12000,188.6250,177,92,0.29304
1236320,0.07000,189.4375,177,92,0.28791
1236330,0.02000,190.2500,177,92,0.28278
1236340,-0.03000,191.5625,177,92,0.27277
1236350,-0.06500,191.8750,177,92,0.26789
1236360,-0.08500,191.7500,177,92,0.26325
1236370,-0.10000,191.1875,177,92,0.26032
1236380,-0.11500,188.2500,177,92,0.25934
1236390,-0.12500,185.6250,177,92,0.26227
1236400,-0.14500,182.1250,177,92,0.27009
1236410,-0.14500,177.6875,177,92,0.28400
1236420,-0.13500,165.9375,177,92,0.33236
1236430,-0.10500,159.0000,177,92,0.36581
1236440,-0.06500,152.0625,177,92,0.40244
1236450,-0.01500,145.7500,177,92,0.44078
1236460,0.03000,137.0625,177,92,0.51770
1236470,0.05000,134.6250,177,92,0.54896
1236480,0.05500,133.1875,177,92,0.57509
1236490,0.05000,132.2500,177,92,0.60098
1236500,0.02000,130.8125,177,92,0.64591
1236510,-0.03500,130.0625,177,92,0.66422
1236520,-0.09500,129.2500,177,92,0.68010
1236530,-0.12000,128.2500,177,92,0.69353
1236540,-0.14000,126.0625,177,92,0.71526
1236550,-0.15500,124.8750,177,92,0.72405
1236560,-0.15500,123.6875,177,92,0.73162
1236570,-0.15500,122.4375,177,92,0.73675
1236580,-0.15500,119.9375,177,92,0.74383
1236590,-0.14500,118.6875,177,92,0.74725
1236600,-0.14000,117.3750,177,92,0.74969
1236610,-0.12500,116.1250,177,92,0.75067
1236620,0.08000,113.6250,177,92,0.74725
1236630,0.58500,112.3750,177,92,0.74212
1236640,1.02500,111.1875,177,92,0.73431
1236650,0.78500,110.0625,177,92,0.72332
1236660,0.07500,107.8750,177,92,0.69182
1236670,-0.35500,106.8750,177,92,0.67424
1236680,-0.42500,105.8750,177,92,0.65592
1236690,-0.31500,105.0000,177,92,0.63468
1236700,-0.22000,103.1250,177,92,0.58950
1236710,-0.20000,102.1250,177,92,0.56825
1236720,-0.19500,101.1875,177,92,0.54872
1236730,-0.19000,100.1875,177,92,0.53114
1236740,-0.19000,98.5625,177,92,0.50159
1236750,-0.19000,98.0000,177,92,0.48938
1236760,-0.18000,97.6250,177,92,0.47790
1236770,-0.17000,97.5625,177,92,0.46862
1236780,-0.16000,98.7500,177,92,0.45153
1236790,-0.14500,101.1250,177,92,0.44200
1236800,-0.12500,105.6250,177,92,0.43272
1236810,-0.09500,112.7500,177,92,0.42344
1236820,-0.06500,133.0625,177,92,0.40513
1236830,-0.03500,144.3125,177,92,0.39609
1236840,0.00000,154.9375,177,92,0.38706
1236850,0.04000,164.1250,177,92,0.37827
1236860,0.08000,177.0625,177,92,0.36166
1236870,0.11500,180.8750,177,92,0.35507
1236880,0.14000,183.3750,177,92,0.34945
1236890,0.16500,184.8750,177,92,0.34286
1236900,0.17500,186.2500,177,92,0.32869
1236910,0.18000,186.6250,177,92,0.32186
1236920,0.17500,187.0000,177,92,0.31502
1236930,0.16500,187.4375,177,92,0.30842
1236940,0.14500,188.6250,177,92,0.29597
1236950,0.11500,189.4375,177,92,0.29011
1236960,0.06000,190.1875,177,92,0.28425
1236970,0.01500,191.0000,177,92,0.28010
1236980,-0.03000,192.3125,177,92,0.27253
1236990,-0.06500,192.6250,177,92,0.26789
1237000,-0.08500,192.6250,179,93,0.26325
1237010,-0.09500,192.1250,179,93,0.25885
1237020,-0.10500,189.2500,179,93,0.25592
1237030,-0.12000,186.6250,179,93,0.25983
1237040,-0.13500,183.0625,179,93,0.26911
1237050,-0.13500,178.5625,179,93,0.28498
1237060,-0.12500,166.5000,179,93,0.33748
1237070,-0.09500,159.2500,179,93,0.36752
1237080,-0.05000,151.8125,179,93,0.39878
1237090,0.00000,144.9375,179,93,0.43516
1237100,0.04000,135.1250,179,93,0.51111
1237110,0.06000,132.5625,179,93,0.54652
1237120,0.06500,131.1250,179,93,0.57851
1237130,0.06000,130.3750,179,93,0.60684
1237140,0.02500,129.5625,179,93,0.65250
1237150,-0.02500,129.1250,179,93,0.67057
1237160,-0.08000,128.5000,179,93,0.68596
1237170,-0.11000,127.7500,179,93,0.69719
1237180,-0.13000,125.7500,179,93,0.71429
1237190,-0.14000,124.6250,179,93,0.72259
1237200,-0.14000,123.3750,179,93,0.73016
1237210,-0.14000,122.1250,179,93,0.73700
1237220,-0.13500,119.4375,179,93,0.74774
1237230,-0.13000,118.0625,179,93,0.75140
1237240,-0.13000,116.7500,179,93,0.75385
1237250,-0.10500,115.4375,179,93,0.75482
1237260,0.14500,112.8750,179,93,0.75092
1237270,0.70000,111.6875,179,93,0.74603
1237280,1.06000,110.5000,179,93,0.73871
1237290,0.69500,109.3750,179,93,0.72869
1237300,-0.02000,107.2500,179,93,0.69890
1237310,-0.40500,106.1875,179,93,0.67912
1237320,-0.42000,105.1875,179,93,0.65665
1237330,-0.30500,104.2500,179,93,0.63248
1237340,-0.22500,102.3750,179,93,0.58339
1237350,-0.21000,101.4375,179,93,0.56093
1237360,-0.20000,100.5000,179,93,0.54066
1237370,-0.19000,99.6250,179,93,0.52430
1237380,-0.19500,98.0625,179,93,0.49841
1237390,-0.19000,97.5000,179,93,0.48669
1237400,-0.19000,97.1875,179,93,0.47570
1237410,-0.18500,97.1250,179,93,0.46545
1237420,-0.18000,98.8750,179,93,0.44615
1237430,-0.16000,102.0000,179,93,0.43663
1237440,-0.14000,107.5625,179,93,0.42735
1237450,-0.11500,115.8750,179,93,0.41832
1237460,-0.09000,137.7500,179,93,0.40195
1237470,-0.06000,149.1250,179,93,0.39536
1237480,-0.02500,159.4375,179,93,0.38755
1237490,0.01000,168.0625,179,93,0.37924
1237500,0.05000,179.6875,179,93,0.36264
1237510,0.09000,182.8750,179,93,0.35433
1237520,0.11500,184.8125,179,93,0.34628
1237530,0.13000,185.9375,179,93,0.33846
1237540,0.14000,187.0625,179,93,0.32357
1237550,0.14500,187.4375,179,93,0.31648
1237560,0.14000,187.8125,179,93,0.30965
1237570,0.13000,188.3750,179,93,0.30452
1237580,0.11000,189.8125,179,93,0.29548
1237590,0.07500,190.6875,179,93,0.28987
1237600,0.02000,191.5625,179,93,0.28425
1237610,-0.03000,192.3750,179,93,0.27888
1237620,-0.07500,193.6250,179,93,0.26813
1237630,-0.10000,193.8125,179,93,0.26300
1237640,-0.11500,193.6250,179,93,0.25812
1237650,-0.12500,192.8750,179,93,0.25421
1237660,-0.13500,189.5000,179,93,0.25397
1237670,-0.14500,186.5625,179,93,0.25910
1237680,-0.16000,182.7500,179,93,0.26935
1237690,-0.15500,177.9375,179,93,0.28596
1237700,-0.14500,165.5625,179,93,0.34042
1237710,-0.11500,158.4375,179,93,0.37631
1237720,-0.07500,151.4375,179,93,0.41587
1237730,-0.03500,145.2500,179,93,0.45665
1237740,0.00000,136.8125,179,93,0.53431
1237750,0.02000,134.5000,179,93,0.56874
1237760,0.02500,133.0625,179,93,0.59951
1237770,0.01500,132.1875,179,93,0.62320
1237780,-0.02000,130.8750,179,93,0.66032
1237790,-0.07000,130.1875,179,93,0.67717
1237800,-0.11500,129.3750,179,93,0.69206
1237810,-0.14500,128.3750,179,93,0.70501
1237820,-0.16500,126.0625,179,93,0.72625
1237830,-0.17500,124.7500,179,93,0.73480
1237840,-0.17500,123.4375,179,93,0.74212
1237850,-0.17500,122.0625,179,93,0.74847
1237860,-0.17500,119.3125,179,93,0.75678
1237870,-0.17000,117.9375,179,93,0.75824
1237880,-0.18000,116.6250,179,93,0.75946
1237890,-0.14500,115.3750,179,93,0.75995
1237900,0.17500,113.0000,179,93,0.75653
1237910,0.80500,111.8750,179,93,0.75140
1237920,1.07500,110.7500,179,93,0.74335
1237930,0.56500,109.7500,179,93,0.73187
1237940,-0.14000,107.7500,179,93,0.69915
1237950,-0.45000,106.8750,179,93,0.67839
1237960,-0.42500,106.0000,179,93,0.65543
1237970,-0.31000,104.1875,179,93,0.63419
1237980,-0.26000,103.1875,179,93,0.59243
1237990,-0.25000,102.1875,179,93,0.57118
1238000,-0.24500,101.2500,179,93,0.55165
1238010,-0.24000,100.3750,179,93,0.53407
1238020,-0.24000,98.8125,179,93,0.50476
1238030,-0.23000,98.1875,179,93,0.49231
1238040,-0.22000,97.8125,179,93,0.48083
1238050,-0.21500,97.7500,179,93,0.46984
1238060,-0.20500,100.4375,179,93,0.45055
1238070,-0.19000,104.5625,179,93,0.44249
1238080,-0.17000,111.5625,179,93,0.43346
1238090,-0.14500,121.0625,179,93,0.42393
1238100,-0.11500,144.1875,179,93,0.40488
1238110,-0.07500,155.4375,179,93,0.39536
1238120,-0.03500,165.2500,179,93,0.38632
1238130,0.01000,173.1875,179,93,0.37753
1238140,0.05500,183.0625,179,93,0.36068
1238150,0.09000,185.5625,179,93,0.35263
1238160,0.11500,187.0000,179,93,0.34481
1238170,0.13500,187.8125,179,93,0.33871
1238180,0.14500,188.7500,179,93,0.32772
1238190,0.15000,189.1875,179,93,0.32137
1238200,0.14500,189.6875,179,93,0.31502
1238210,0.14000,190.3750,179,93,0.30891
1238220,0.12000,192.0625,179,93,0.29695
1238230,0.08000,193.0625,179,93,0.29133
1238240,0.02000,194.0625,179,93,0.28547
1238250,-0.02500,195.0000,179,93,0.27985
1238260,-0.06500,196.1875,179,93,0.27033
1238270,-0.09500,196.3125,179,93,0.26740
1238280,-0.11000,195.9375,179,93,0.26349
1238290,-0.11500,195.0000,179,93,0.25983
1238300,-0.12500,191.1875,179,93,0.25934
1238310,-0.13500,188.0625,179,93,0.26593
1238320,-0.14000,184.0000,179,93,0.27937
1238330,-0.13500,179.0000,179,93,0.30012
1238340,-0.12000,166.2500,179,93,0.36264
1238350,-0.09000,159.0000,179,93,0.40147
1238360,-0.05500,152.0000,179,93,0.44249
1238370,-0.01500,145.8125,179,93,0.47863
1238380,0.00000,137.4375,179,93,0.54481
1238390,0.01000,135.0625,179,93,0.57705
1238400,0.00500,133.5625,179,93,0.60659
1238410,-0.01000,132.6250,179,93,0.63248
1238420,-0.05500,131.1875,179,93,0.67424
1238430,-0.10500,130.5000,179,93,0.69084
1238440,-0.13500,129.6250,179,93,0.70501
1238450,-0.15500,128.6250,179,93,0.71722
1238460,-0.16500,126.3125,179,93,0.73504
1238470,-0.17000,125.0625,179,93,0.74042
1238480,-0.17000,123.8125,179,93,0.74628
1238490,-0.17000,122.4375,179,93,0.74921
1238500,-0.16000,119.6250,179,93,0.75214
1238510,-0.15500,118.1875,179,93,0.75409
1238520,-0.15500,116.7500,179,93,0.75507
1238530,-0.03500,115.3750,179,93,0.75482
1238540,0.41500,112.7500,179,93,0.74872
1238550,1.00500,111.4375,179,93,0.74212
1238560,0.96000,110.2500,179,93,0.73284
1238570,0.27500,109.1250,179,93,0.72186
1238580,-0.29000,107.0000,179,93,0.69206
1238590,-0.46000,106.0625,179,93,0.67228
1238600,-0.37000,105.1250,179,93,0.65031
1238610,-0.25000,104.1875,179,93,0.62711
1238620,-0.21500,102.3750,179,93,0.58071
1238630,-0.20000,101.4375,179,93,0.55922
1238640,-0.19000,100.4375,179,93,0.53968
1238650,-0.18000,99.4375,179,93,0.52210
1238660,-0.18000,97.7500,179,93,0.49402
1238670,-0.18000,97.2500,179,93,0.48376
1238680,-0.17500,97.0000,179,93,0.47326
1238690,-0.17500,97.2500,179,93,0.46300
1238700,-0.17000,101.3750,179,93,0.44274
1238710,-0.15000,106.8125,179,93,0.43297
1238720,-0.12500,115.0000,179,93,0.42344
1238730,-0.09500,125.4375,179,93,0.41392
1238740,-0.06500,148.6875,179,93,0.39487
1238750,-0.02500,159.3750,179,93,0.38535
1238760,0.01000,168.3125,179,93,0.37607
1238770,0.05000,175.2500,179,93,0.36850
1238780,0.09000,183.6250,179,93,0.35385
1238790,0.11500,185.6250,179,93,0.34579
1238800,0.13000,186.7500,179,93,0.33773
1238810,0.14500,187.3125,179,93,0.32991
1238820,0.15500,187.8125,179,93,0.31453
1238830,0.16000,188.0625,179,93,0.30745
1238840,0.15500,188.4375,179,93,0.30061
1238850,0.13000,188.9375,179,93,0.29402
1238860,0.07000,190.5000,179,93,0.28278
1238870,-0.01000,191.4375,179,93,0.27912
1238880,-0.09500,192.3125,179,93,0.27424
1238890,-0.17500,193.0625,179,93,0.26911
1238900,-0.22000,193.8750,179,93,0.25812
1238910,-0.20500,193.6875,179,93,0.25299
1238920,-0.13500,193.0000,179,93,0.24860
1238930,-0.09500,191.7500,179,93,0.24615
1238940,-0.09500,186.8750,179,93,0.25177
1238950,-0.09500,183.0000,179,93,0.26300
1238960,-0.10000,178.1875,179,93,0.28107
1238970,-0.09500,172.3750,179,93,0.30232
1238980,-0.06500,158.3750,179,93,0.36044
1238990,-0.02500,150.9375,179,93,0.39805
1239000,0.01000,144.0000,180,93,0.43810
1239010,0.03000,138.3125,180,93,0.47814
1239020,0.03000,131.4375,180,93,0.55116
1239030,0.03500,129.9375,180,93,0.58242
1239040,0.02000,129.1875,180,93,0.60952
1239050,-0.01500,128.7500,180,93,0.63272
1239060,-0.06500,128.0000,180,93,0.66691
1239070,-0.12000,127.5000,180,93,0.67790
1239080,-0.16000,126.8750,180,93,0.68913
1239090,-0.17000,126.1250,180,93,0.69963
1239100,-0.17000,123.6875,180,93,0.71746
1239110,-0.16000,122.4375,180,93,0.72479
1239120,-0.14500,121.2500,180,93,0.73114
1239130,-0.13000,119.8750,180,93,0.73675
1239140,-0.12000,117.0000,180,93,0.74432
1239150,-0.12500,115.5625,180,93,0.74628
1239160,-0.09500,114.1250,180,93,0.74652
1239170,0.15500,112.7500,180,93,0.74457
1239180,0.73500,110.0625,180,93,0.73504
1239190,1.08000,108.8750,180,93,0.72723
1239200,0.61000,107.7500,180,93,0.71648
1239210,-0.12500,106.6250,180,93,0.70256
1239220,-0.47000,104.4375,180,93,0.66520
1239230,-0.47000,103.3750,180,93,0.64249
1239240,-0.36500,102.3750,180,93,0.61832
1239250,-0.33000,101.5625,180,93,0.59341
1239260,-0.34000,99.8125,180,93,0.54872
1239270,-0.34000,98.7500,180,93,0.53114
1239280,-0.31000,97.7500,180,93,0.51380
1239290,-0.22500,96.8750,180,93,0.49792
1239300,-0.16000,95.6875,180,93,0.47155
1239310,-0.13000,95.5000,180,93,0.46056
1239320,-0.09500,95.6250,180,93,0.45031
1239330,-0.06500,96.5000,180,93,0.44078
1239340,-0.03500,104.1250,180,93,0.42295
1239350,-0.02000,112.1875,180,93,0.41416
1239360,-0.00500,122.7500,180,93,0.40684
1239370,0.02000,134.6875,180,93,0.40024
1239380,0.05000,157.8125,180,93,0.38437
1239390,0.08000,167.1875,180,93,0.37582
1239400,0.10500,174.4375,180,93,0.36728
1239410,0.13000,182.8750,180,93,0.35873
1239420,0.14500,184.8750,180,93,0.34212
1239430,0.15500,186.0000,180,93,0.33382
1239440,0.15000,186.6250,180,93,0.32576
1239450,0.14000,187.0000,180,93,0.31795
1239460,0.12500,187.6250,180,93,0.30476
1239470,0.11000,187.9375,180,93,0.30012
1239480,0.09500,188.3750,180,93,0.29426
1239490,0.07000,189.1250,180,93,0.28816
1239500,0.03500,191.1250,180,93,0.27595
1239510,-0.01000,191.9375,180,93,0.27009
1239520,-0.05500,192.6875,180,93,0.26447
1239530,-0.09500,193.6250,180,93,0.25861
1239540,-0.13000,193.4375,180,93,0.24786
1239550,-0.15500,192.7500,180,93,0.24322
1239560,-0.17000,191.4375,180,93,0.24103
1239570,-0.17500,189.5000,180,93,0.24127
1239580,-0.18000,183.3750,180,93,0.25201
1239590,-0.17500,178.8750,180,93,0.26642
1239600,-0.17000,173.5000,180,93,0.28816
1239610,-0.15000,160.0000,180,93,0.31722
1239620,-0.12500,152.4375,180,93,0.39243
1239630,-0.10500,145.3125,180,93,0.43443
1239640,-0.07500,139.3750,180,93,0.47619
1239650,-0.05000,135.0000,180,93,0.51624
1239660,-0.02500,130.3750,180,93,0.58169
1239670,-0.01000,129.3750,180,93,0.60513
1239680,-0.01500,128.7500,180,93,0.62784
1239690,-0.05500,128.2500,180,93,0.64860
1239700,-0.10500,127.1875,180,93,0.68230
1239710,-0.14500,126.5000,180,93,0.69597
1239720,-0.17000,125.6875,180,93,0.70769
1239730,-0.18500,124.6250,180,93,0.71795
1239740,-0.19000,122.1250,180,93,0.73455
1239750,-0.20000,120.8125,180,93,0.74115
1239760,-0.20000,119.5000,180,93,0.74505
1239770,-0.19500,118.1875,180,93,0.74725
1239780,-0.19500,115.5625,180,93,0.75140
1239790,-0.21500,114.2500,180,93,0.75189
1239800,-0.15000,112.9375,180,93,0.75092
1239810,0.22500,111.6250,180,93,0.74823
1239820,0.83500,109.1875,180,93,0.73578
1239830,0.94000,108.0000,180,93,0.72527
1239840,0.28500,106.8750,180,93,0.71160
1239850,-0.36500,105.8125,180,93,0.69475
1239860,-0.55000,103.8125,180,93,0.65495
1239870,-0.43000,102.8125,180,93,0.63468
1239880,-0.29000,101.8750,180,93,0.61197
1239890,-0.25000,100.9375,180,93,0.58803
1239900,-0.24000,99.0000,180,93,0.54335
1239910,-0.24000,98.1250,180,93,0.52381
1239920,-0.24000,97.2500,180,93,0.50672
1239930,-0.24000,96.5000,180,93,0.49182
1239940,-0.24000,95.5000,180,93,0.46691
1239950,-0.24500,95.3750,180,93,0.45617
1239960,-0.24500,95.9375,180,93,0.44713
1239970,-0.23000,97.9375,180,93,0.43932
1239980,-0.21000,109.5625,180,93,0.42198
1239990,-0.18000,119.6250,180,93,0.41319
1240000,-0.14500,131.5000,182,95,0.40415
1240010,-0.10000,143.8750,182,95,0.39512
1240020,-0.05500,165.4375,182,95,0.37729
1240030,-0.01500,173.2500,182,95,0.36850
1240040,0.03000,178.9375,182,95,0.35971
1240050,0.07000,182.6875,182,95,0.35116
1240060,0.10000,186.1250,182,95,0.33626
1240070,0.12500,186.7500,182,95,0.33065
1240080,0.13000,187.0625,182,95,0.32405
1240090,0.14000,187.3125,182,95,0.31697
1240100,0.14000,188.0000,182,95,0.30305
1240110,0.13000,188.6250,182,95,0.29646
1240120,0.12000,189.4375,182,95,0.29011
1240130,0.08000,190.3125,182,95,0.28400
1240140,0.03000,192.0000,182,95,0.27204
1240150,-0.02500,192.8750,182,95,0.26642
1240160,-0.06500,193.6875,182,95,0.26252
1240170,-0.10000,194.1875,182,95,0.25958
1240180,-0.12500,193.7500,182,95,0.25104
1240190,-0.14500,192.6875,182,95,0.24713
1240200,-0.15500,190.9375,182,95,0.24493
1240210,-0.16500,188.5000,182,95,0.24591
1240220,-0.18000,181.0000,182,95,0.26520
1240230,-0.20000,175.8125,182,95,0.28571
1240240,-0.21000,169.6250,182,95,0.31404
1240250,-0.19500,162.6875,182,95,0.34896
1240260,-0.15000,148.1875,182,95,0.42564
1240270,-0.09000,142.0000,182,95,0.46056
1240280,-0.04000,137.1250,182,95,0.49866
1240290,-0.00500,133.6875,182,95,0.53602
1240300,0.04000,130.0625,182,95,0.60098
1240310,0.08000,129.1875,182,95,0.62735
1240320,0.12000,128.6250,182,95,0.65006
1240330,0.12000,127.4375,182,95,0.66911
1240340,0.09000,126.6875,182,95,0.69890
1240350,0.05000,125.8125,182,95,0.71062
1240360,0.00500,124.8125,182,95,0.71893
1240370,-0.02500,123.6875,182,95,0.72503
1240380,-0.05500,121.1875,182,95,0.73773
1240390,-0.07500,119.8750,182,95,0.74310
1240400,-0.08500,118.5625,182,95,0.74774
1240410,-0.09500,117.2500,182,95,0.75140
1240420,-0.11000,114.5625,182,95,0.75531
1240430,-0.09500,113.2500,182,95,0.75482
1240440,0.15500,111.9375,182,95,0.75287
1240450,0.73500,110.6250,182,95,0.74872
1240460,1.13000,108.1250,182,95,0.73333
1240470,0.69500,106.8750,182,95,0.72234
1240480,-0.06000,105.7500,182,95,0.70818
1240490,-0.42500,104.6875,182,95,0.69060
1240500,-0.43500,102.6250,182,95,0.64762
1240510,-0.31000,101.6250,182,95,0.62344
1240520,-0.23500,100.6875,182,95,0.59878
1240530,-0.22500,99.6875,182,95,0.57485
1240540,-0.21500,97.8125,182,95,0.53309
1240550,-0.20500,97.0000,182,95,0.51551
1240560,-0.20000,96.2500,182,95,0.50159
1240570,-0.19500,95.6875,182,95,0.49035
1240580,-0.19500,95.3750,182,95,0.46838
1240590,-0.19000,95.9375,182,95,0.45812
1240600,-0.18000,97.6875,182,95,0.44835
1240610,-0.16000,101.4375,182,95,0.43883
1240620,-0.14500,117.1250,182,95,0.42051
1240630,-0.12500,128.3125,182,95,0.41148
1240640,-0.09000,140.1250,182,95,0.40269
1240650,-0.05500,151.5000,182,95,0.39390
1240660,-0.01500,169.5625,182,95,0.37827
1240670,0.03000,175.5625,182,95,0.37192
1240680,0.08000,179.6250,182,95,0.36459
1240690,0.11000,182.1875,182,95,0.35678
1240700,0.13000,184.4375,182,95,0.34090
1240710,0.14500,184.8750,182,95,0.33309
1240720,0.15000,185.2500,182,95,0.32576
1240730,0.15500,185.6250,182,95,0.31844
1240740,0.15500,186.7500,182,95,0.30452
1240750,0.14500,187.5000,182,95,0.29792
1240760,0.12000,188.3750,182,95,0.29328
1240770,0.08000,189.2500,182,95,0.28938
1240780,0.03500,190.9375,182,95,0.27937
1240790,-0.01500,191.5625,182,95,0.27424
1240800,-0.05500,191.8750,182,95,0.26911
1240810,-0.09000,191.8125,182,95,0.26398
1240820,-0.10500,190.3125,182,95,0.25519
1240830,-0.12500,188.6250,182,95,0.25299
1240840,-0.13500,186.1875,182,95,0.25421
1240850,-0.14500,182.8750,182,95,0.26007
1240860,-0.14500,173.3750,182,95,0.28791
1240870,-0.13500,167.2500,182,95,0.30867
1240880,-0.10500,160.3750,182,95,0.33724
1240890,-0.07500,153.0625,182,95,0.37192
1240900,-0.03000,140.0000,182,95,0.45055
1240910,0.00000,135.2500,182,95,0.48987
1240920,0.02000,132.0000,182,95,0.52723
1240930,0.03000,129.9375,182,95,0.56093
1240940,0.02500,127.8750,182,95,0.61661
1240950,-0.00500,127.3750,182,95,0.63858
1240960,-0.05500,126.8125,182,95,0.65470
1240970,-0.10500,126.1875,182,95,0.66716
1240980,-0.13500,124.4375,182,95,0.69060
1240990,-0.15500,123.3750,182,95,0.70061
1241000,-0.16000,122.1875,184,95,0.70965
1241010,-0.16000,120.9375,184,95,0.71746
1241020,-0.15500,118.1875,184,95,0.72991
1241030,-0.15500,116.8750,184,95,0.73455
1241040,-0.15000,115.5000,184,95,0.73797
1241050,-0.14500,114.1250,184,95,0.74017
1241060,-0.13500,111.3750,184,95,0.73968
1241070,0.06500,110.0625,184,95,0.73651
1241080,0.59000,108.8125,184,95,0.73236
1241090,1.09500,107.5625,184,95,0.72601
1241100,0.87500,105.2500,184,95,0.70598
1241110,0.10500,104.1250,184,95,0.69133
1241120,-0.37000,103.1250,184,95,0.67375
1241130,-0.43000,102.1250,184,95,0.65348
1241140,-0.31500,100.3125,184,95,0.60781
1241150,-0.22000,99.3750,184,95,0.58413
1241160,-0.20000,98.5000,184,95,0.56361
1241170,-0.19000,97.5625,184,95,0.54579
1241180,-0.18000,95.8125,184,95,0.51087
1241190,-0.17500,95.0000,184,95,0.49573
1241200,-0.17000,94.3750,184,95,0.48230
1241210,-0.16000,93.9375,184,95,0.47033
1241220,-0.15500,94.3125,184,95,0.44908
1241230,-0.15000,96.0000,184,95,0.43907
1241240,-0.13500,99.6875,184,95,0.42955
1241250,-0.12000,106.2500,184,95,0.42027
1241260,-0.09500,127.1250,184,95,0.40562
1241270,-0.06500,139.3125,184,95,0.39780
1241280,-0.03500,150.9375,184,95,0.38950
1241290,0.00000,169.2500,184,95,0.38095
1241300,0.04000,175.2500,184,95,0.36386
1241310,0.07500,179.2500,184,95,0.35531
1241320,0.11000,181.6250,184,95,0.34701
1241330,0.13500,182.9375,184,95,0.33895
1241340,0.15500,184.0000,184,95,0.32357
1241350,0.16500,184.2500,184,95,0.31624
1241360,0.17000,184.5625,184,95,0.31062
1241370,0.16500,185.0000,184,95,0.30623
1241380,0.15500,186.3125,184,95,0.29524
1241390,0.13000,187.1875,184,95,0.28962
1241400,0.09500,188.1250,184,95,0.28425
1241410,0.04500,189.0625,184,95,0.27888
1241420,-0.00500,190.5000,184,95,0.26838
1241430,-0.04500,190.7500,184,95,0.26325
1241440,-0.07000,190.6250,184,95,0.25788
1241450,-0.09500,190.0625,184,95,0.25299
1241460,-0.11500,187.0625,184,95,0.24908
1241470,-0.12500,184.4375,184,95,0.24982
1241480,-0.14000,181.0000,184,95,0.25397
1241490,-0.15500,176.6875,184,95,0.26374
1241500,-0.15000,165.1875,184,95,0.30476
1241510,-0.13000,158.3125,184,95,0.33602
1241520,-0.09500,151.0625,184,95,0.37289
1241530,-0.05000,144.1250,184,95,0.41319
1241540,-0.01000,133.5625,184,95,0.49475
1241550,0.01000,130.3125,184,95,0.53260
1241560,0.02500,128.2500,184,95,0.56288
1241570,0.02000,127.1875,184,95,0.58755
1241580,0.00000,126.3750,184,95,0.63370
1241590,-0.05500,125.9375,184,95,0.65299
1241600,-0.10500,125.2500,184,95,0.66960
1241610,-0.14500,124.5000,184,95,0.68376
1241620,-0.16000,122.5625,184,95,0.70647
1241630,-0.17000,121.3750,184,95,0.71526
1241640,-0.17000,120.0625,184,95,0.72308
1241650,-0.17000,118.5625,184,95,0.72967
1241660,-0.16000,115.9375,184,95,0.73602
1241670,-0.16000,114.6250,184,95,0.73871
1241680,-0.15500,113.2500,184,95,0.74066
1241690,-0.16000,111.8125,184,95,0.74164
1241700,-0.06500,109.1875,184,95,0.73919
1241710,0.38000,107.9375,184,95,0.73504
1241720,1.03500,106.8125,184,95,0.72869
1241730,1.07000,105.7500,184,95,0.71941
1241740,0.35500,103.5000,184,95,0.69231
1241750,-0.28500,102.3750,184,95,0.67399
1241760,-0.48500,101.4375,184,95,0.65543
1241770,-0.40000,100.5000,184,95,0.63639
1241780,-0.30000,98.8750,184,95,0.59121
1241790,-0.28000,98.0000,184,95,0.56825
1241800,-0.27000,97.1250,184,95,0.54652
1241810,-0.25000,96.2500,184,95,0.52674
1241820,-0.22000,94.6875,184,95,0.49426
1241830,-0.19500,94.0000,184,95,0.48107
1241840,-0.17000,93.5000,184,95,0.46935
1241850,-0.16000,93.1875,184,95,0.45885
1241860,-0.15000,95.0625,184,95,0.44274
1241870,-0.14500,98.6875,184,95,0.43419
1241880,-0.13000,105.3125,184,95,0.42540
1241890,-0.11500,114.8125,184,95,0.41636
1241900,-0.10000,138.8750,184,95,0.39878
1241910,-0.07500,150.8125,184,95,0.38999
1241920,-0.04500,161.2500,184,95,0.38120
1241930,-0.00500,169.5625,184,95,0.37241
1241940,0.04000,179.7500,184,95,0.35556
1241950,0.08000,182.1875,184,95,0.34725
1241960,0.11000,183.4375,184,95,0.34090
1241970,0.13500,184.0625,184,95,0.33529
1241980,0.14500,184.6875,184,95,0.32210
1241990,0.15500,184.9375,184,95,0.31526
1242000,0.15500,185.3750,185,96,0.30867
1242010,0.15500,185.9375,185,96,0.30232
1242020,0.14500,187.6250,185,96,0.29011
1242030,0.11000,188.5000,185,96,0.28449
1242040,0.06000,189.3750,185,96,0.27912
1242050,0.00000,190.1875,185,96,0.27424
1242060,-0.04500,191.1875,185,96,0.26813
1242070,-0.08500,191.1875,185,96,0.26422
1242080,-0.11500,190.6875,185,96,0.25983
1242090,-0.13500,189.5625,185,96,0.25543
1242100,-0.14500,185.3125,185,96,0.25226
1242110,-0.15500,181.9375,185,96,0.25617
1242120,-0.16000,177.6875,185,96,0.26618
1242130,-0.16000,172.4375,185,96,0.28352
1242140,-0.14000,159.3750,185,96,0.34090
1242150,-0.11000,152.0625,185,96,0.37851
1242160,-0.06500,144.9375,185,96,0.41441
1242170,-0.02500,138.7500,185,96,0.44884
1242180,0.01000,130.5625,185,96,0.52479
1242190,0.02500,128.3750,185,96,0.56020
1242200,0.04000,127.1875,185,96,0.59219
1242210,0.02500,126.5000,185,96,0.62002
1242220,-0.01500,125.5625,185,96,0.66374
1242230,-0.06000,125.0000,185,96,0.68083
1242240,-0.09500,124.2500,185,96,0.69499
1242250,-0.12000,123.3750,185,96,0.70696
1242260,-0.13500,121.1250,185,96,0.72161
1242270,-0.14500,119.8125,185,96,0.72796
1242280,-0.14500,118.5000,185,96,0.73407
1242290,-0.14000,117.1250,185,96,0.73968
1242300,-0.13000,114.3750,185,96,0.74799
1242310,-0.12500,113.0000,185,96,0.75043
1242320,-0.12500,111.6875,185,96,0.75165
1242330,-0.08500,110.3750,185,96,0.75116
1242340,0.20000,107.8125,185,96,0.74457
1242350,0.81000,106.5000,185,96,0.73797
1242360,1.16500,105.2500,185,96,0.72943
1242370,0.68000,104.1250,185,96,0.71868
1242380,-0.06500,101.9375,185,96,0.68767
1242390,-0.40500,101.0000,185,96,0.66789
1242400,-0.39500,100.0625,185,96,0.64567
1242410,-0.26000,99.1875,185,96,0.62198
1242420,-0.19000,97.3750,185,96,0.57436
1242430,-0.18000,96.5000,185,96,0.55214
1242440,-0.16500,95.5625,185,96,0.53187
1242450,-0.16000,94.6875,185,96,0.51380
1242460,-0.15500,93.1875,185,96,0.48767
1242470,-0.15500,92.6250,185,96,0.47619
1242480,-0.15000,92.3750,185,96,0.46520
1242490,-0.14500,92.6250,185,96,0.45495
1242500,-0.14500,96.8750,185,96,0.43516
1242510,-0.13500,102.4375,185,96,0.42564
1242520,-0.11500,110.9375,185,96,0.41636
1242530,-0.09500,121.6875,185,96,0.40708
1242540,-0.06500,145.5625,185,96,0.38877
1242550,-0.02500,156.2500,185,96,0.37998
1242560,0.01000,165.0625,185,96,0.37265
1242570,0.06000,171.6875,185,96,0.36630
1242580,0.10500,179.1250,185,96,0.35140
1242590,0.14000,180.7500,185,96,0.34432
1242600,0.16000,181.6250,185,96,0.33675
1242610,0.17000,182.3750,185,96,0.32918
1242620,0.18000,182.6875,185,96,0.31453
1242630,0.18500,183.0625,185,96,0.30745
1242640,0.18000,183.5625,185,96,0.30085
1242650,0.17000,184.1875,185,96,0.29451
1242660,0.15500,185.7500,185,96,0.28669
1242670,0.12000,186.5625,185,96,0.28230
1242680,0.07500,187.3125,185,96,0.27741
1242690,0.02500,187.9375,185,96,0.27253
1242700,-0.02500,188.2500,185,96,0.26252
1242710,-0.06500,187.8125,185,96,0.25763
1242720,-0.10500,186.9375,185,96,0.25324
1242730,-0.13000,185.3750,185,96,0.25006
1242740,-0.14500,179.9375,185,96,0.25275
1242750,-0.16000,175.8750,185,96,0.26178
1242760,-0.16000,170.8750,185,96,0.27497
1242770,-0.14500,165.0000,185,96,0.29304
1242780,-0.11500,151.1875,185,96,0.35263
1242790,-0.08000,144.1875,185,96,0.39072
1242800,-0.03500,138.0000,185,96,0.43126
1242810,0.00000,133.0625,185,96,0.47228
1242820,0.02000,127.1875,185,96,0.54823
1242830,0.02500,125.7500,185,96,0.58071
1242840,0.02000,124.8750,185,96,0.60904
1242850,-0.01000,124.2500,185,96,0.63321
1242860,-0.06500,123.1875,185,96,0.66471
1242870,-0.11500,122.4375,185,96,0.67790
1242880,-0.14000,121.5625,185,96,0.68987
1242890,-0.15500,120.5000,185,96,0.70061
1242900,-0.16000,118.0000,185,96,0.71770
1242910,-0.17000,116.7500,185,96,0.72454
1242920,-0.17000,115.3750,185,96,0.73040
1242930,-0.16000,114.0625,185,96,0.73504
1242940,-0.15000,111.4375,185,96,0.74115
1242950,-0.14500,110.0625,185,96,0.74237
1242960,-0.14000,108.7500,185,96,0.74139
1242970,0.04000,107.5000,185,96,0.73871
1242980,0.55000,104.9375,185,96,0.72943
1242990,1.10000,103.6875,185,96,0.72161
1243000,0.96000,102.5000,188,96,0.71111
1243010,0.19500,101.3750,188,96,0.69768
1243020,-0.33500,99.3125,188,96,0.66178
1243030,-0.43500,98.3750,188,96,0.64029
1243040,-0.31500,97.5000,188,96,0.61734
1243050,-0.22000,96.6250,188,96,0.59389
1243060,-0.19000,94.8125,188,96,0.55482
1243070,-0.17500,93.9375,188,96,0.53602
1243080,-0.16500,93.0625,188,96,0.51795
1243090,-0.16000,92.2500,188,96,0.50183
1243100,-0.16000,91.0000,188,96,0.47473
1243110,-0.16000,90.6250,188,96,0.46300
1243120,-0.16000,90.6875,188,96,0.45226
1243130,-0.16000,91.5625,188,96,0.44225
1243140,-0.14500,99.3125,188,96,0.42320
1243150,-0.13000,107.4375,188,96,0.41538
1243160,-0.10500,118.1875,188,96,0.40855
1243170,-0.07500,130.4375,188,96,0.40073
1243180,-0.04500,153.9375,188,96,0.38388
1243190,-0.01000,163.1875,188,96,0.37534
1243200,0.02000,170.2500,188,96,0.36679
1243210,0.05000,175.0625,188,96,0.35849
1243220,0.08000,179.7500,188,96,0.34212
1243230,0.10000,180.5625,188,96,0.33407
1243240,0.11500,180.9375,188,96,0.32625
1243250,0.12500,181.1250,188,96,0.31868
1243260,0.13000,181.6875,188,96,0.30818
1243270,0.12500,182.1250,188,96,0.30256
1243280,0.12000,182.7500,188,96,0.29646
1243290,0.10500,183.5000,188,96,0.29035
1243300,0.07500,185.1875,188,96,0.27912
1243310,0.03000,185.9375,188,96,0.27375
1243320,-0.01500,186.5625,188,96,0.26862
1243330,-0.06500,186.8125,188,96,0.26374
1243340,-0.10000,186.2500,188,96,0.25372
1243350,-0.12500,185.3125,188,96,0.25055
1243360,-0.14500,183.6875,188,96,0.24884
1243370,-0.15500,181.3750,188,96,0.24762
1243380,-0.17000,174.3750,188,96,0.25470
1243390,-0.17000,169.4375,188,96,0.26691
1243400,-0.16000,163.4375,188,96,0.28669
1243410,-0.13500,156.6250,188,96,0.31380
1243420,-0.10500,142.4375,188,96,0.38730
1243430,-0.06500,136.0625,188,96,0.42930
1243440,-0.02000,130.9375,188,96,0.47179
1243450,0.01000,127.2500,188,96,0.51258
1243460,0.03000,123.6875,188,96,0.57387
1243470,0.03500,123.0000,188,96,0.60147
1243480,0.02000,122.6250,188,96,0.62662
1243490,-0.03000,122.3125,188,96,0.64860
1243500,-0.08000,121.5000,188,96,0.68327
1243510,-0.11500,120.7500,188,96,0.69670
1243520,-0.14000,119.6875,188,96,0.70818
1243530,-0.15500,118.4375,188,96,0.71795
1243540,-0.16500,115.5625,188,96,0.73333
1243550,-0.18000,114.1875,188,96,0.73797
1243560,-0.18500,112.8750,188,96,0.74090
1243570,-0.19000,111.6875,188,96,0.74383
1243580,-0.19500,109.1875,188,96,0.74799
1243590,-0.21500,107.9375,188,96,0.74823
1243600,-0.16000,106.6250,188,96,0.74701
1243610,0.20500,105.3750,188,96,0.74383
1243620,0.87500,103.0000,188,96,0.73016
1243630,1.09500,101.8750,188,96,0.71941
1243640,0.49500,100.7500,188,96,0.70549
1243650,-0.22000,99.6875,188,96,0.68864
1243660,-0.48000,97.6875,188,96,0.65299
1243670,-0.39000,96.8125,188,96,0.63126
1243680,-0.24000,95.9375,188,96,0.60806
1243690,-0.18000,95.1250,188,96,0.58462
1243700,-0.13000,93.3750,188,96,0.54090
1243710,-0.09000,92.5625,188,96,0.52210
1243720,-0.09000,91.7500,188,96,0.50549
1243730,-0.12000,91.0625,188,96,0.49109
1243740,-0.15500,90.0000,188,96,0.46716
1243750,-0.17000,89.8750,188,96,0.45836
1243760,-0.17500,90.4375,188,96,0.45055
1243770,-0.18000,92.4375,188,96,0.44225
1243780,-0.17000,104.3125,188,96,0.42491
1243790,-0.15000,114.5625,188,96,0.41587
1243800,-0.12500,126.6875,188,96,0.40684
1243810,-0.10000,139.1875,188,96,0.39780
1243820,-0.07000,160.6250,188,96,0.38022
1243830,-0.03500,168.1875,188,96,0.37167
1243840,-0.00500,173.5000,188,96,0.36313
1243850,0.02000,176.8750,188,96,0.35482
1243860,0.05000,179.8125,188,96,0.34261
1243870,0.08000,180.3125,188,96,0.33578
1243880,0.10000,180.5000,188,96,0.32869
1243890,0.11000,181.0000,188,96,0.32161
1243900,0.12000,181.3750,188,96,0.30769
1243910,0.12500,181.9375,188,96,0.30110
1243920,0.12000,182.5625,188,96,0.29499
1243930,0.10000,183.3125,188,96,0.28938
1243940,0.05500,184.8125,188,96,0.27863
1243950,0.00000,185.3750,188,96,0.27497
1243960,-0.04000,185.6875,188,96,0.27228
1243970,-0.07000,185.3125,188,96,0.26838
1243980,-0.09500,184.5000,188,96,0.25885
1243990,-0.12500,183.1250,188,96,0.25446
1244000,-0.14000,181.0625,188,96,0.25153
1244010,-0.15000,178.2500,188,96,0.25153
1244020,-0.15500,170.0000,188,96,0.26716
1244030,-0.15500,164.4375,188,96,0.28571
1244040,-0.14500,158.0000,188,96,0.31209
1244050,-0.11500,150.8750,188,96,0.34554
1244060,-0.08000,137.1875,188,96,0.41368
1244070,-0.04500,131.7500,188,96,0.45324
1244080,-0.00500,127.7500,188,96,0.49402
1244090,0.00500,125.0000,188,96,0.53333
1244100,0.01000,122.3750,188,96,0.60171
1244110,-0.01000,121.8750,188,96,0.62930
1244120,-0.05500,121.4375,188,96,0.65299
1244130,-0.11500,120.9375,188,96,0.67277
1244140,-0.16500,119.6250,188,96,0.70354
1244150,-0.20500,118.6875,188,96,0.71331
1244160,-0.22000,117.6250,188,96,0.72039
1244170,-0.22500,116.4375,188,96,0.72772
1244180,-0.22000,113.9375,188,96,0.74042
1244190,-0.21000,112.6250,188,96,0.74554
1244200,-0.21000,112.6250,188,96,0.74554
1244210,-0.21000,112.6250,188,96,0.74554
1244220,-0.17000,107.0625,188,96,0.75458
1244230,-0.17000,105.7500,188,96,0.75311
1244240,0.00500,104.4375,188,96,0.74994
1244250,0.51000,103.1875,188,96,0.74457
1244260,1.05500,100.7500,188,96,0.72845
1244270,0.91000,99.6250,188,96,0.71648
1244280,0.16500,98.5625,188,96,0.70134
1244290,-0.33500,97.6250,188,96,0.68327
1244300,-0.40000,95.8750,188,96,0.64005
1244310,-0.27000,95.0000,188,96,0.61612
1244320,-0.16500,94.1250,188,96,0.59194
1244330,-0.14500,93.2500,188,96,0.56850
1244340,-0.14000,91.5000,188,96,0.52698
1244350,-0.14500,90.6250,188,96,0.51111
1244360,-0.15500,89.8125,188,96,0.49817
1244370,-0.15500,88.6250,188,96,0.48571
1244380,-0.15000,88.5000,188,96,0.46325
1244390,-0.14500,88.8750,188,96,0.45324
1244400,-0.13000,90.5000,188,96,0.44347
1244410,-0.10500,94.1250,188,96,0.43394
1244420,-0.08000,109.7500,188,96,0.41514
1244430,-0.05500,121.0625,188,96,0.40586
1244440,-0.03500,133.1875,188,96,0.39658
1244450,-0.01500,144.7500,188,96,0.38730
1244460,0.00500,162.9375,188,96,0.37314
1244470,0.03000,168.8125,188,96,0.36532
1244480,0.07000,172.7500,188,96,0.35726
1244490,0.10500,175.0625,188,96,0.34921
1244500,0.13000,176.8750,188,96,0.33284
1244510,0.15000,177.1250,188,96,0.32503
1244520,0.15500,177.2500,188,96,0.31746
1244530,0.16000,177.4375,188,96,0.30989
1244540,0.15500,178.0625,188,96,0.29597
1244550,0.14000,178.5625,188,96,0.29109
1244560,0.12000,179.1875,188,96,0.28718
1244570,0.09500,179.8750,188,96,0.28230
1244580,0.05000,181.0625,188,96,0.27228
1244590,0.00500,181.4375,188,96,0.26716
1244600,-0.03500,181.4375,188,96,0.26203
1244610,-0.06500,181.1250,188,96,0.25690
1244620,-0.09500,178.8750,188,96,0.24713
1244630,-0.11500,176.7500,188,96,0.24615
1244640,-0.13500,173.8750,188,96,0.24908
1244650,-0.14500,170.0625,188,96,0.25446
1244660,-0.14500,159.6875,188,96,0.27643
1244670,-0.13500,153.1875,188,96,0.29695
1244680,-0.11000,146.1875,188,96,0.32479
1244690,-0.07000,139.1875,188,96,0.35897
1244700,-0.02000,127.8750,188,96,0.43883
1244710,0.03000,124.1875,188,96,0.48010
1244720,0.06500,121.8125,188,96,0.51941
1244730,0.08000,120.3750,188,96,0.55556
1244740,0.08000,119.1250,188,96,0.61538
1244750,0.05500,118.6875,188,96,0.63639
1244760,-0.00500,118.2500,188,96,0.65250
1244770,-0.05500,117.6250,188,96,0.66789
1244780,-0.09500,115.7500,188,96,0.69402
1244790,-0.12000,114.6250,188,96,0.70452
1244800,-0.14000,113.4375,188,96,0.71331
1244810,-0.15500,112.1250,188,96,0.72088
1244820,-0.16000,109.5625,188,96,0.73236
1244830,-0.16000,108.3125,188,96,0.73626
1244840,-0.16000,107.0625,188,96,0.73895
1244850,-0.16000,105.8750,188,96,0.73968
1244860,-0.17500,103.4375,188,96,0.73748
1244870,-0.12000,102.1875,188,96,0.73480
1244880,0.23500,101.0625,188,96,0.73040
1244890,0.87500,99.8750,188,96,0.72381
1244900,1.07500,97.6875,188,96,0.70232
1244910,0.47500,96.6875,188,96,0.68718
1244920,-0.23000,95.6875,188,96,0.66911
1244930,-0.50000,94.7500,188,96,0.64860
1244940,-0.43000,93.0000,188,96,0.60293
1244950,-0.30000,92.1875,188,96,0.58217
1244960,-0.24500,91.3125,188,96,0.56337
1244970,-0.23000,90.5000,188,96,0.54408
1244980,-0.22500,88.8125,188,96,0.50916
1244990,-0.22000,88.0625,188,96,0.49426
1245000,-0.21000,87.3750,189,96,0.48132
1245010,-0.20000,86.8750,189,96,0.46960
1245020,-0.19000,86.6875,189,96,0.44884
1245030,-0.18000,87.8125,189,96,0.43932
1245040,-0.17000,90.7500,189,96,0.43004
1245050,-0.15000,96.5000,189,96,0.42222
1245060,-0.12500,116.6875,189,96,0.40757
1245070,-0.10000,129.1250,189,96,0.39927
1245080,-0.07500,141.3750,189,96,0.39096
1245090,-0.04500,152.1250,189,96,0.38266
1245100,-0.02000,167.2500,189,96,0.36630
1245110,0.00500,171.5000,189,96,0.35824
1245120,0.03000,174.0625,189,96,0.35043
1245130,0.05000,175.4375,189,96,0.34286
1245140,0.06500,176.3125,189,96,0.32821
1245150,0.07000,176.4375,189,96,0.32259
1245160,0.07000,176.5625,189,96,0.31795
1245170,0.07000,176.7500,189,96,0.31233
1245180,0.06500,177.5625,189,96,0.30061
1245190,0.05500,178.1250,189,96,0.29475
1245200,0.03000,178.6875,189,96,0.28938
1245210,0.00000,179.2500,189,96,0.28425
1245220,-0.04000,180.0000,189,96,0.27424
1245230,-0.07500,180.0625,189,96,0.26960
1245240,-0.10000,179.6875,189,96,0.26496
1245250,-0.11500,178.8750,189,96,0.26154
1245260,-0.13000,175.5625,189,96,0.25617
1245270,-0.14000,172.8750,189,96,0.25421
1245280,-0.15500,169.3750,189,96,0.25519
1245290,-0.16000,164.9375,189,96,0.26105
1245300,-0.16000,153.3125,189,96,0.29328
1245310,-0.14500,146.3125,189,96,0.32088
1245320,-0.11500,139.0625,189,96,0.35531
1245330,-0.07000,132.1875,189,96,0.39487
1245340,-0.01500,122.2500,189,96,0.48010
1245350,0.04000,119.5625,189,96,0.51648
1245360,0.07000,118.1250,189,96,0.54799
1245370,0.09000,117.5000,189,96,0.57973
1245380,0.08000,117.2500,189,96,0.63541
1245390,0.02000,117.0625,189,96,0.65788
1245400,-0.06500,116.6875,189,96,0.67692
1245410,-0.14000,116.1250,189,96,0.69280
1245420,-0.18000,114.1875,189,96,0.71746
1245430,-0.20500,113.0000,189,96,0.72674
1245440,-0.22000,111.6250,189,96,0.73455
1245450,-0.21500,110.3125,189,96,0.73944
1245460,-0.21000,107.6875,189,96,0.74579
1245470,-0.20000,106.4375,189,96,0.74847
1245480,-0.19000,105.1875,189,96,0.75043
1245490,-0.19000,103.9375,189,96,0.75116
1245500,-0.20000,101.4375,189,96,0.74847
1245510,-0.09500,100.2500,189,96,0.74432
1245520,0.34000,99.1250,189,96,0.73773
1245530,0.98000,96.9375,189,96,0.72869
1245540,1.00000,95.9375,189,96,0.70183
1245550,0.29000,94.9375,189,96,0.68571
1245560,-0.32000,94.0000,189,96,0.66838
1245570,-0.49500,93.1250,189,96,0.64737
1245580,-0.39000,91.4375,189,96,0.60024
1245590,-0.27000,90.6250,189,96,0.57656
1245600,-0.24000,89.8125,189,96,0.55409
1245610,-0.22500,88.9375,189,96,0.53382
1245620,-0.21000,87.3125,189,96,0.50085
1245630,-0.19000,86.5625,189,96,0.48767
1245640,-0.17000,85.9375,189,96,0.47619
1245650,-0.15000,85.2500,189,96,0.46716
1245660,-0.14500,85.6250,189,96,0.45104
1245670,-0.13000,87.1250,189,96,0.44249
1245680,-0.11500,90.6875,189,96,0.43370
1245690,-0.09500,97.1250,189,96,0.42466
1245700,-0.08500,118.1875,189,96,0.40659
1245710,-0.07000,130.5625,189,96,0.39780
1245720,-0.03500,142.3750,189,96,0.38901
1245730,0.01000,152.5625,189,96,0.38046
1245740,0.05000,166.3750,189,96,0.36361
1245750,0.08000,170.1875,189,96,0.35702
1245760,0.11000,172.3750,189,96,0.35140
1245770,0.12000,173.5625,189,96,0.34457
1245780,0.12500,174.3750,189,96,0.33040
1245790,0.13000,174.4375,189,96,0.32332
1245800,0.13500,174.5625,189,96,0.31648
1245810,0.14000,174.8125,189,96,0.30989
1245820,0.14000,175.6250,189,96,0.29744
1245830,0.13000,176.1875,189,96,0.29158
1245840,0.11000,176.6875,189,96,0.28596
1245850,0.08000,177.2500,189,96,0.28205
1245860,0.04000,177.9375,189,96,0.27521
1245870,0.00000,177.9375,189,96,0.27082
1245880,-0.03500,177.5000,189,96,0.26618
1245890,-0.06500,176.6875,189,96,0.26129
1245900,-0.08500,173.1875,189,96,0.25299
1245910,-0.10000,170.3750,189,96,0.25153
1245920,-0.11500,166.7500,189,96,0.25397
1245930,-0.12500,162.1875,189,96,0.26203
1245940,-0.13000,150.3750,189,96,0.30012
1245950,-0.10500,143.4375,189,96,0.32576
1245960,-0.07500,136.5000,189,96,0.35482
1245970,-0.02500,130.1875,189,96,0.39170
1245980,0.01500,121.3125,189,96,0.47497
1245990,0.05500,118.7500,189,96,0.51624
1246000,0.08000,117.2500,190,96,0.55458
1246010,0.08500,115.8125,190,96,0.58901
1246020,0.06000,115.4375,190,96,0.64493
1246030,0.01500,115.0000,190,96,0.66642
1246040,-0.04500,114.4375,190,96,0.68449
1246050,-0.09000,113.6875,190,96,0.69744
1246060,-0.11000,111.7500,190,96,0.71648
1246070,-0.12000,110.6250,190,96,0.72503
1246080,-0.12500,109.4375,190,96,0.73260
1246090,-0.13000,108.1875,190,96,0.73895
1246100,-0.13500,105.6875,190,96,0.74823
1246110,-0.12500,104.4375,190,96,0.75116
1246120,-0.12000,103.2500,190,96,0.75287
1246130,-0.11500,102.0625,190,96,0.75311
1246140,-0.11500,99.7500,190,96,0.74896
1246150,0.02000,98.5625,190,96,0.74408
1246160,0.48000,97.4375,190,96,0.73724
1246170,1.04500,96.3125,190,96,0.72821
1246180,0.94000,94.1250,190,96,0.70208
1246190,0.21500,93.1250,190,96,0.68449
1246200,-0.31500,92.1875,190,96,0.66447
1246210,-0.44500,91.3125,190,96,0.64225
1246220,-0.32500,89.6250,190,96,0.59487
1246230,-0.21000,88.8125,190,96,0.57167
1246240,-0.19000,88.0000,190,96,0.55018
1246250,-0.18000,87.1875,190,96,0.53236
1246260,-0.17000,85.6250,190,96,0.50305
1246270,-0.16500,84.8750,190,96,0.48962
1246280,-0.16000,84.3125,190,96,0.47717
1246290,-0.15500,83.8750,190,96,0.46593
1246300,-0.15000,84.1875,190,96,0.44518
1246310,-0.14000,85.8125,190,96,0.43541
1246320,-0.12500,89.5000,190,96,0.42589
1246330,-0.10500,96.0000,190,96,0.41661
1246340,-0.08000,116.7500,190,96,0.39878
1246350,-0.05500,128.8750,190,96,0.39170
1246360,-0.03000,140.4375,190,96,0.38535
1246370,0.00000,150.3750,190,96,0.37802
1246380,0.02000,163.9375,190,96,0.36239
1246390,0.04000,167.5000,190,96,0.35458
1246400,0.05500,169.5625,190,96,0.34676
1246410,0.07500,170.6250,190,96,0.33895
1246420,0.09000,171.2500,190,96,0.32381
1246430,0.10000,171.3125,190,96,0.31673
1246440,0.09500,171.5000,190,96,0.30965
1246450,0.09000,171.7500,190,96,0.30452
1246460,0.08500,172.3750,190,96,0.29524
1246470,0.08000,172.6875,190,96,0.28987
1246480,0.05500,173.1250,190,96,0.28449
1246490,0.02500,173.4375,190,96,0.27912
1246500,-0.02000,173.6250,190,96,0.26911
1246510,-0.07000,173.3125,190,96,0.26422
1246520,-0.12500,172.6875,190,96,0.25910
1246530,-0.16000,171.5625,190,96,0.25421
1246540,-0.18500,167.3125,190,96,0.24664
1246550,-0.20000,164.1875,190,96,0.24615
1246560,-0.20500,160.3750,190,96,0.24908
1246570,-0.19000,155.4375,190,96,0.25592
1246580,-0.16000,142.6875,190,96,0.28962
1246590,-0.12000,135.6875,190,96,0.31770
1246600,-0.06500,128.8750,190,96,0.35263
1246610,-0.00500,123.1875,190,96,0.39267
1246620,0.04000,116.4375,190,96,0.47814
1246630,0.08000,114.9375,190,96,0.51941
1246640,0.10000,114.0625,190,96,0.55751
1246650,0.10000,113.5000,190,96,0.58779
1246660,0.08000,112.8750,190,96,0.63590
1246670,0.04000,112.4375,190,96,0.65739
1246680,-0.00500,111.7500,190,96,0.67521
1246690,-0.04000,110.8750,190,96,0.68962
1246700,-0.05500,108.7500,190,96,0.71282
1246710,-0.06000,107.5625,190,96,0.72161
1246720,-0.07000,106.3750,190,96,0.72894
1246730,-0.08500,105.2500,190,96,0.73480
1246740,-0.10000,102.8750,190,96,0.74164
1246750,-0.11500,101.7500,190,96,0.74212
1246760,-0.12500,100.5625,190,96,0.74261
1246770,-0.14500,99.4375,190,96,0.74237
1246780,-0.16500,97.1875,190,96,0.73748
1246790,-0.06000,96.0625,190,96,0.73236
1246800,0.38500,95.0000,190,96,0.72479
1246810,0.96500,93.9375,190,96,0.71477
1246820,0.87500,91.9375,190,96,0.68571
1246830,0.12500,91.0000,190,96,0.66667
1246840,-0.45000,90.1250,190,96,0.64542
1246850,-0.63000,89.3750,190,96,0.62540
1246860,-0.57000,87.8750,190,96,0.58437
1246870,-0.50000,87.1875,190,96,0.56288
1246880,-0.54000,86.4375,190,96,0.54261
1246890,-0.62500,85.6250,190,96,0.52430
1246900,-0.73500,84.0000,190,96,0.49377
1246910,-0.81000,83.3125,190,96,0.48132
1246920,-0.81500,82.6250,190,96,0.47009
1246930,-0.73500,82.1250,190,96,0.45983
1246940,-0.59500,82.2500,190,96,0.44249
1246950,-0.45500,83.7500,190,96,0.43541
1246960,-0.32000,87.2500,190,96,0.42735
1246970,-0.17000,93.6875,190,96,0.41880
1246980,-0.02500,114.6250,190,96,0.40147
1246990,0.10000,126.8125,190,96,0.39292
1247000,0.19500,138.3750,189,96,0.38462
1247010,0.28500,148.3750,189,96,0.37656
1247020,0.35000,162.0000,189,96,0.36117
1247030,0.40500,165.8125,189,96,0.35360
1247040,0.44000,168.0625,189,96,0.34628
1247050,0.46500,169.1875,189,96,0.34042
1247060,0.48500,169.8750,189,96,0.32943
1247070,0.49000,169.9375,189,96,0.32283
1247080,0.48500,169.9375,189,96,0.31624
1247090,0.46000,170.1250,189,96,0.30989
1247100,0.41500,170.6875,189,96,0.29792
1247110,0.35500,171.0625,189,96,0.29231
1247120,0.28000,171.3750,189,96,0.28718
1247130,0.19500,171.6875,189,96,0.28205
1247140,0.11000,171.8125,189,96,0.27399
1247150,0.03000,171.4375,189,96,0.27155
1247160,-0.03000,170.7500,189,96,0.26789
1247170,-0.07500,167.9375,189,96,0.26349
1247180,-0.11000,165.6250,189,96,0.25592
1247190,-0.13500,162.5625,189,96,0.25421
1247200,-0.14500,158.6875,189,96,0.25592
1247210,-0.13000,153.8750,189,96,0.26276
1247220,-0.10500,141.6875,189,96,0.29719
1247230,-0.06500,134.8750,189,96,0.32576
1247240,-0.00500,128.3750,189,96,0.36093
1247250,0.05500,122.6875,189,96,0.39536
1247260,0.11500,115.4375,189,96,0.46935
1247270,0.17000,113.6875,189,96,0.50940
1247280,0.19500,112.7500,189,96,0.54799
1247290,0.20500,112.2500,189,96,0.58315
1247300,0.17500,111.6250,189,96,0.64127
1247310,0.12000,111.1875,189,96,0.66398
1247320,0.05000,110.5625,189,96,0.68303
1247330,-0.01500,109.7500,189,96,0.69890
1247340,-0.05500,107.6250,189,96,0.72112
1247350,-0.08000,106.3750,189,96,0.72747
1247360,-0.09500,105.1875,189,96,0.73382
1247370,-0.11000,103.9375,189,96,0.73968
1247380,-0.11500,101.7500,189,96,0.74799
1247390,-0.11500,100.6875,189,96,0.75043
1247400,-0.11000,99.6250,189,96,0.75140
1247410,-0.10000,98.5625,189,96,0.75116
1247420,-0.11000,96.5000,189,96,0.74579
1247430,-0.07000,95.5000,189,96,0.74017
1247440,0.25000,94.5000,189,96,0.73236
1247450,0.87500,93.5625,189,96,0.72283
1247460,1.13000,91.6875,189,96,0.69670
1247470,0.59000,90.7500,189,96,0.67888
1247480,-0.14500,89.8750,189,96,0.65861
1247490,-0.44500,89.0625,189,96,0.63639
1247500,-0.38000,87.4375,189,96,0.58999
1247510,-0.24500,86.6250,189,96,0.56752
1247520,-0.19000,85.8750,189,96,0.54701
1247530,-0.18000,85.1250,189,96,0.52845
1247540,-0.17500,83.6875,189,96,0.49939
1247550,-0.16500,83.0000,189,96,0.48889
1247560,-0.16000,82.3750,189,96,0.47839
1247570,-0.16500,81.8125,189,96,0.46838
1247580,-0.17000,81.5000,189,96,0.44933
1247590,-0.17000,82.3125,189,96,0.44005
1247600,-0.17000,84.8125,189,96,0.43101
1247610,-0.17000,98.1250,189,96,0.42198
1247620,-0.16000,108.8750,189,96,0.40440
1247630,-0.14500,121.0000,189,96,0.39585
1247640,-0.12000,133.0625,189,96,0.38779
1247650,-0.09000,143.9375,189,96,0.38120
1247660,-0.05500,159.5000,189,96,0.36923
1247670,-0.02000,164.0000,189,96,0.36239
1247680,0.01500,166.8125,189,96,0.35531
1247690,0.04000,168.3125,189,96,0.34847
1247700,0.06500,169.1875,189,96,0.33504
1247710,0.08000,169.2500,189,96,0.32845
1247720,0.09500,169.3125,189,96,0.32210
1247730,0.10500,169.3750,189,96,0.31600
1247740,0.11000,169.8125,189,96,0.30598
1247750,0.11000,170.1250,189,96,0.30281
1247760,0.11000,170.4375,189,96,0.29866
1247770,0.09500,170.8125,189,96,0.29426
1247780,0.06500,171.1875,189,96,0.28523
1247790,0.03000,171.0625,189,96,0.28083
1247800,-0.00500,170.6250,189,96,0.27643
1247810,-0.03500,168.4375,189,96,0.27204
1247820,-0.06500,166.4375,189,96,0.26349
1247830,-0.08500,163.8125,189,96,0.26105
1247840,-0.10000,160.3125,189,96,0.26154
1247850,-0.10500,155.9375,189,96,0.26545
1247860,-0.11500,144.5625,189,96,0.28962
1247870,-0.11000,137.8750,189,96,0.31258
1247880,-0.08500,131.1875,189,96,0.34310
1247890,-0.04500,125.1250,189,96,0.37973
1247900,0.00000,116.6875,189,96,0.46374
1247910,0.06000,114.3750,189,96,0.50623
1247920,0.10500,113.0000,189,96,0.54676
1247930,0.13000,112.2500,189,96,0.58364
1247940,0.12500,111.5000,189,96,0.64127
1247950,0.09000,111.1250,189,96,0.66105
1247960,0.04000,110.6250,189,96,0.68010
1247970,-0.01500,109.9375,189,96,0.69719
1247980,-0.04500,108.0625,189,96,0.72405
1247990,-0.06500,106.9375,189,96,0.73431
1248000,-0.07500,105.7500,189,95,0.74286
1248010,-0.08000,104.5625,189,95,0.74969
1248020,-0.08500,102.3125,189,95,0.75922
1248030,-0.09500,101.1875,189,95,0.76215
1248040,-0.09500,100.1250,189,95,0.76386
1248050,-0.08500,99.0625,189,95,0.76337
1248060,-0.08500,96.8750,189,95,0.75873
1248070,-0.09000,95.8125,189,95,0.75458
1248080,0.08000,94.8125,189,95,0.74872
1248090,0.56500,93.8125,189,95,0.74066
1248100,1.09000,91.8750,189,95,0.71600
1248110,0.93000,90.8750,189,95,0.69939
1248120,0.16000,89.9375,189,95,0.67985
1248130,-0.35000,89.0625,189,95,0.65812
1248140,-0.42500,87.3750,189,95,0.61416
1248150,-0.28500,86.5625,189,95,0.59463
1248160,-0.17000,85.7500,189,95,0.57436
1248170,-0.14000,84.8750,189,95,0.55458
1248180,-0.13500,83.2500,189,95,0.52039
1248190,-0.12500,82.4375,189,95,0.50623
1248200,-0.11500,81.7500,189,95,0.49353
1248210,-0.10500,81.1875,189,95,0.48205
1248220,-0.09500,80.5000,189,95,0.46154
1248230,-0.09000,80.8125,189,95,0.45201
1248240,-0.08000,82.1250,189,95,0.44249
1248250,-0.06500,85.4375,189,95,0.43468
1248260,-0.04000,100.5625,189,95,0.42002
1248270,-0.02000,111.7500,189,95,0.41172
1248280,-0.00500,123.7500,189,95,0.40342
1248290,0.02000,135.3125,189,95,0.39536
1248300,0.04000,153.5000,189,95,0.37924
1248310,0.06500,159.3125,189,95,0.37143
1248320,0.09000,163.1875,189,95,0.36361
1248330,0.11000,165.5000,189,95,0.35604
1248340,0.12000,167.3125,189,95,0.34286
1248350,0.13000,167.5625,189,95,0.33797
1248360,0.13000,167.6250,189,95,0.33211
1248370,0.12500,167.6875,189,95,0.32601
1248380,0.12000,167.9375,189,95,0.31355
1248390,0.11500,168.1875,189,95,0.30745
1248400,0.10500,168.4375,189,95,0.30159
1248410,0.09000,168.7500,189,95,0.29597
1248420,0.05500,169.1875,189,95,0.28547
1248430,0.02000,169.1250,189,95,0.28034
1248440,-0.02500,168.8750,189,95,0.27521
1248450,-0.06500,168.2500,189,95,0.27179
1248460,-0.10500,165.6250,189,95,0.26496
1248470,-0.13500,163.4375,189,95,0.26105
1248480,-0.15000,160.5625,189,95,0.25836
1248490,-0.15000,156.8125,189,95,0.25861
1248500,-0.14500,146.5000,189,95,0.27521
1248510,-0.13000,140.0000,189,95,0.29426
1248520,-0.10000,133.1250,189,95,0.32112
1248530,-0.04500,126.5000,189,95,0.35507
1248540,0.01000,116.3125,189,95,0.43101
1248550,0.06000,113.3125,189,95,0.46618
1248560,0.09500,111.5625,189,95,0.50501
1248570,0.11500,110.6875,189,95,0.54359
1248580,0.12000,110.1875,189,95,0.61197
1248590,0.09000,110.0000,189,95,0.64029
1248600,0.05000,109.6875,189,95,0.66447
1248610,-0.01500,109.1875,189,95,0.68474
1248620,-0.07500,107.5000,189,95,0.71575
1248630,-0.11500,106.4375,189,95,0.72747
1248640,-0.14000,105.2500,189,95,0.73529
1248650,-0.15500,104.1250,189,95,0.74066
1248660,-0.16000,101.8125,189,95,0.75067
1248670,-0.16500,100.6875,189,95,0.75433
1248680,-0.16000,99.6250,189,95,0.75678
1248690,-0.15500,98.5625,189,95,0.75824
1248700,-0.15000,96.5000,189,95,0.75702
1248710,-0.15500,95.4375,189,95,0.75409
1248720,-0.08500,94.4375,189,95,0.74921
1248730,0.17000,93.3750,189,95,0.73846
1248740,0.77500,91.3750,189,95,0.70965
1248750,1.06000,90.4375,189,95,0.69524
1248760,0.55500,89.5000,189,95,0.67839
1248770,-0.16500,88.5625,189,95,0.65885
1248780,-0.47000,86.9375,189,95,0.61441
1248790,-0.42000,86.1875,189,95,0.59121
1248800,-0.27500,85.5000,189,95,0.56850
1248810,-0.20500,84.8125,189,95,0.54750
1248820,-0.19000,83.3750,189,95,0.51184
1248830,-0.18000,82.6875,189,95,0.49744
1248840,-0.17000,82.0000,189,95,0.48620
1248850,-0.16500,81.3750,189,95,0.47692
1248860,-0.16000,80.5000,189,95,0.45836
1248870,-0.16000,80.4375,189,95,0.44933
1248880,-0.16000,81.1250,189,95,0.44054
1248890,-0.15500,83.2500,189,95,0.43175
1248900,-0.13500,95.0000,189,95,0.41441
1248910,-0.12000,105.0000,189,95,0.40610
1248920,-0.09500,116.6250,189,95,0.39780
1248930,-0.06500,128.4375,189,95,0.38950
1248940,-0.03500,148.2500,189,95,0.37509
1248950,0.00000,155.0625,189,95,0.36947
1248960,0.04000,159.8125,189,95,0.36313
1248970,0.07500,162.7500,189,95,0.35629
1248980,0.10500,165.4375,189,95,0.34212
1248990,0.12000,165.8750,189,95,0.33529
1249000,0.13000,166.1250,187,94,0.32845
1249010,0.13000,166.2500,187,94,0.32161
1249020,0.14000,166.5625,187,94,0.30916
1249030,0.13000,166.7500,187,94,0.30330
1249040,0.12500,167.0000,187,94,0.29915
1249050,0.11000,167.1875,187,94,0.29597
1249060,0.09000,167.5000,187,94,0.28742
1249070,0.05000,167.5000,187,94,0.28303
1249080,0.00500,167.3125,187,94,0.27888
1249090,-0.04000,166.8750,187,94,0.27473
1249100,-0.07500,164.8750,187,94,0.26593
1249110,-0.11000,163.1250,187,94,0.26178
1249120,-0.13500,160.6875,187,94,0.25861
1249130,-0.14500,157.4375,187,94,0.25788
1249140,-0.14500,148.3125,187,94,0.26813
1249150,-0.13500,142.3125,187,94,0.28034
1249160,-0.11500,135.8125,187,94,0.29963
1249170,-0.08000,129.2500,187,94,0.32650
1249180,-0.03000,118.5625,187,94,0.39780
1249190,0.02000,115.1875,187,94,0.43858
1249200,0.07000,113.0000,187,94,0.47985
1249210,0.10000,111.6875,187,94,0.51966
1249220,0.11000,110.5625,187,94,0.58926
1249230,0.09000,110.1875,187,94,0.61807
1249240,0.04000,109.7500,187,94,0.64005
1249250,-0.01500,109.1250,187,94,0.65714
1249260,-0.07500,107.4375,187,94,0.68864
1249270,-0.11500,106.4375,187,94,0.70134
1249280,-0.13500,105.3750,187,94,0.71233
1249290,-0.14000,104.2500,187,94,0.72137
1249300,-0.14500,102.0625,187,94,0.73407
1249310,-0.14500,101.0625,187,94,0.73846
1249320,-0.14000,100.0625,187,94,0.74139
1249330,-0.14000,99.0625,187,94,0.74310
1249340,-0.14000,97.0000,187,94,0.74212
1249350,-0.14500,96.0000,187,94,0.73919
1249360,-0.14500,95.0000,187,94,0.73529
1249370,0.07500,93.9375,187,94,0.72991
1249380,0.62000,91.8750,187,94,0.71233
1249390,1.04000,90.8125,187,94,0.69963
1249400,0.71000,89.8125,187,94,0.68425
1249410,-0.04500,88.8750,187,94,0.66618
1249420,-0.45000,87.1250,187,94,0.62418
1249430,-0.45500,86.2500,187,94,0.60195
1249440,-0.30500,85.5000,187,94,0.58217
1249450,-0.21500,84.6875,187,94,0.56435
1249460,-0.19000,83.1250,187,94,0.52918
1249470,-0.17000,82.3750,187,94,0.51355
1249480,-0.14500,81.6250,187,94,0.49963
1249490,-0.12500,80.9375,187,94,0.48718
1249500,-0.11500,79.8750,187,94,0.46569
1249510,-0.10500,79.7500,187,94,0.45592
1249520,-0.10000,80.1875,187,94,0.44444
1249530,-0.08500,81.7500,187,94,0.43443
1249540,-0.06000,91.9375,187,94,0.42076
1249550,-0.04000,101.4375,187,94,0.41465
1249560,-0.02500,112.9375,187,94,0.40757
1249570,-0.01500,125.0625,187,94,0.40000
1249580,-0.01500,146.1875,187,94,0.38486
1249590,-0.00500,153.7500,187,94,0.37753
1249600,0.00000,159.0625,187,94,0.37021
1249610,0.01500,162.5000,187,94,0.36288
1249620,0.03000,165.5000,187,94,0.34896
1249630,0.04000,166.0000,187,94,0.34212
1249640,0.04500,166.1875,187,94,0.33675
1249650,0.04000,166.3125,187,94,0.33211
1249660,0.04500,166.3750,187,94,0.32088
1249670,0.04500,166.5000,187,94,0.31477
1249680,0.04500,166.5625,187,94,0.30891
1249690,0.03500,166.7500,187,94,0.30330
1249700,0.01000,167.0625,187,94,0.29231
1249710,-0.02500,167.1250,187,94,0.28718
1249720,-0.08500,167.0625,187,94,0.28205
1249730,-0.11500,166.6875,187,94,0.27717
1249740,-0.14500,164.9375,187,94,0.26862
1249750,-0.17000,163.3125,187,94,0.26593
1249760,-0.18000,161.0000,187,94,0.26276
1249770,-0.18500,157.8750,187,94,0.26056
1249780,-0.18000,148.9375,187,94,0.26618
1249790,-0.17000,143.0625,187,94,0.27766
1249800,-0.15500,136.5625,187,94,0.29621
1249810,-0.12500,130.0625,187,94,0.32234
1249820,-0.08000,119.6250,187,94,0.39365
1249830,-0.03500,116.3750,187,94,0.43492
1249840,0.00000,114.3750,187,94,0.47155
1249850,0.03000,113.2500,187,94,0.50501
1249860,0.05000,112.3125,187,94,0.57460
1249870,0.05000,111.9375,187,94,0.60562
1249880,0.02000,111.5000,187,94,0.63297
1249890,-0.03500,110.8750,187,94,0.65641
1249900,-0.09500,109.1250,187,94,0.69304
1249910,-0.15500,108.0000,187,94,0.70672
1249920,-0.18500,106.8125,187,94,0.71819
1249930,-0.20000,105.5625,187,94,0.72747
1249940,-0.21000,103.1875,187,94,0.73944
1249950,-0.21500,102.0625,187,94,0.74188
1249960,-0.21000,101.0625,187,94,0.74457
1249970,-0.21000,100.0625,187,94,0.74652
1249980,-0.20000,98.0625,187,94,0.74750
1249990,-0.19000,97.0625,187,94,0.74603
1250000,-0.19500,96.0625,186,93,0.74286
1250010,-0.08500,95.0625,186,93,0.73797
1250020,0.34000,93.1250,186,93,0.72112
1250030,0.94000,92.1875,186,93,0.70867
1250040,0.94000,91.2500,186,93,0.69499
1250050,0.19500,90.3750,186,93,0.68010
1250060,-0.38500,88.6250,186,93,0.64176
1250070,-0.49500,87.8750,186,93,0.62051
1250080,-0.37000,87.0625,186,93,0.59951
1250090,-0.24500,86.3125,186,93,0.57924
1250100,-0.19000,84.7500,186,93,0.54335
1250110,-0.18000,84.0000,186,93,0.52821
1250120,-0.19000,83.2500,186,93,0.51477
1250130,-0.20500,82.5625,186,93,0.50281
1250140,-0.21000,81.3750,186,93,0.48303
1250150,-0.24000,81.0625,186,93,0.47521
1250160,-0.29000,81.1250,186,93,0.46667
1250170,-0.30000,82.0625,186,93,0.45763
1250180,-0.26000,89.5625,186,93,0.43932
1250190,-0.18500,97.5625,186,93,0.43028
1250200,-0.08500,108.0625,186,93,0.42149
1250210,0.01500,119.9375,186,93,0.41294
1250220,0.10000,142.3125,186,93,0.39634
1250230,0.12500,150.9375,186,93,0.38852
1250240,0.11000,157.4375,186,93,0.38217
1250250,0.07000,161.9375,186,93,0.37656
1250260,0.02000,166.1875,186,93,0.36337
1250270,-0.02500,166.9375,186,93,0.35653
1250280,-0.04000,167.3125,186,93,0.34969
1250290,-0.04000,167.5000,186,93,0.34286
1250300,-0.02500,167.9375,186,93,0.32967
1250310,-0.00500,168.3125,186,93,0.32357
1250320,0.04500,168.7500,186,93,0.31770
1250330,0.11000,169.2500,186,93,0.31209
1250340,0.16500,170.1250,186,93,0.30476
1250350,0.19500,170.3750,186,93,0.30061
1250360,0.18500,170.5000,186,93,0.29621
1250370,0.13000,170.3125,186,93,0.29158
1250380,0.06000,169.0000,186,93,0.28181
1250390,-0.01000,167.6875,186,93,0.27668
1250400,-0.08500,165.7500,186,93,0.27204
1250410,-0.12500,163.1875,186,93,0.26862
1250420,-0.12000,155.5625,186,93,0.27106
1250430,-0.08500,150.3750,186,93,0.28010
1250440,-0.03500,144.3750,186,93,0.29304
1250450,0.00000,137.7500,186,93,0.31087
1250460,0.04000,125.0625,186,93,0.36947
1250470,0.08500,120.3125,186,93,0.40708
1250480,0.09500,117.0000,186,93,0.44737
1250490,0.07000,115.0000,186,93,0.48791
1250500,0.06000,113.5000,186,93,0.56313
1250510,0.10500,113.1875,186,93,0.59560
1250520,0.17500,112.9375,186,93,0.62393
1250530,0.26500,112.6250,186,93,0.64835
1250540,0.32500,111.5000,186,93,0.68327
1250550,0.35500,110.6250,186,93,0.69817
1250560,0.36500,109.5625,186,93,0.70818
1250570,0.34000,108.4375,186,93,0.71795
1250580,0.29500,106.0625,186,93,0.73358
1250590,0.24000,104.9375,186,93,0.73944
1250600,0.18500,103.8750,186,93,0.74408
1250610,0.13000,101.6875,186,93,0.74750
1250620,0.08000,100.6250,186,93,0.75018
1250630,0.02500,99.5625,186,93,0.74945
1250640,-0.02500,98.5625,186,93,0.74676
1250650,0.08500,97.5000,186,93,0.74261
1250660,0.51500,95.5000,186,93,0.72991
1250670,1.01000,94.5625,186,93,0.72015
1250680,0.86000,93.6250,186,93,0.70769
1250690,0.11000,92.7500,186,93,0.69231
1250700,-0.39500,91.0625,186,93,0.65397
1250710,-0.49000,90.2500,186,93,0.63223
1250720,-0.37500,89.5000,186,93,0.61001
1250730,-0.27000,87.8750,186,93,0.58803
1250740,-0.24500,87.0625,186,93,0.55311
1250750,-0.24000,86.1875,186,93,0.53700
1250760,-0.23500,85.3750,186,93,0.52210
1250770,-0.23500,84.6250,186,93,0.50891
1250780,-0.23500,83.5000,186,93,0.48400
1250790,-0.23000,83.2500,186,93,0.47326
1250800,-0.23000,83.5000,186,93,0.46349
1250810,-0.22000,84.5000,186,93,0.45421
1250820,-0.20000,92.1250,186,93,0.43639
1250830,-0.18500,100.0000,186,93,0.42784
1250840,-0.16000,110.2500,186,93,0.42076
1250850,-0.14000,121.8125,186,93,0.41441
1250860,-0.11500,143.6250,186,93,0.39951
1250870,-0.08500,152.1250,186,93,0.39194
1250880,-0.05500,158.5625,186,93,0.38437
1250890,-0.02500,163.0000,186,93,0.37680
1250900,0.00000,167.5000,186,93,0.36215
1250910,0.01500,168.4375,186,93,0.35507
1250920,0.03000,169.0000,186,93,0.34799
1250930,0.03000,169.3750,186,93,0.34115
1250940,0.03500,169.9375,186,93,0.33162
1250950,0.04000,170.3125,186,93,0.32650
1250960,0.04000,170.6875,186,93,0.32088
1250970,0.02500,171.1250,186,93,0.31551
1250980,0.00000,172.0625,186,93,0.30476
1250990,-0.04000,172.3750,186,93,0.29963
1251000,-0.08000,172.5000,183,91,0.29475
1251010,-0.11500,172.3125,183,91,0.28962
1251020,-0.15000,170.8125,183,91,0.27985
1251030,-0.18000,169.2500,183,91,0.27521
1251040,-0.19500,167.0625,183,91,0.27204
1251050,-0.21000,164.1250,183,91,0.27033
1251060,-0.21000,155.4375,183,91,0.27228
1251070,-0.20000,149.6250,183,91,0.27937
1251080,-0.17500,143.0625,183,91,0.29255
1251090,-0.13500,136.3750,183,91,0.31282
1251100,-0.08500,125.1250,183,91,0.37289
1251110,-0.03000,121.5625,183,91,0.40977
1251120,0.02000,119.3125,183,91,0.44860
1251130,0.05000,118.0625,183,91,0.48742
1251140,0.07500,117.1250,183,91,0.54847
1251150,0.06500,116.9375,183,91,0.57729
1251160,0.02000,116.6250,183,91,0.60415
1251170,-0.04000,116.1250,183,91,0.62833
1251180,-0.10000,114.5625,183,91,0.66764
1251190,-0.14000,113.5000,183,91,0.68303
1251200,-0.16000,112.3750,183,91,0.69597
1251210,-0.17000,111.1875,183,91,0.70672
1251220,-0.18000,108.6875,183,91,0.72332
1251230,-0.19000,107.5625,183,91,0.72943
1251240,-0.19500,106.4375,183,91,0.73309
1251250,-0.20000,105.3125,183,91,0.73480
1251260,-0.19500,103.0625,183,91,0.73773
1251270,-0.20500,101.9375,183,91,0.73773
1251280,-0.18000,100.8750,183,91,0.73626
1251290,0.10000,99.8125,183,91,0.73284
1251300,0.69000,97.7500,183,91,0.71917
1251310,0.99500,96.7500,183,91,0.70842
1251320,0.53500,95.8750,183,91,0.69475
1251330,-0.18500,95.0000,183,91,0.67839
1251340,-0.50500,93.3750,183,91,0.64444
1251350,-0.43500,92.6250,183,91,0.62491
1251360,-0.32000,92.0000,183,91,0.60440
1251370,-0.26000,91.3125,183,91,0.58437
1251380,-0.25000,89.7500,183,91,0.54872
1251390,-0.25000,88.8125,183,91,0.53358
1251400,-0.24000,87.9375,183,91,0.52039
1251410,-0.22500,87.1250,183,91,0.50867
1251420,-0.21000,86.2500,183,91,0.48816
1251430,-0.20000,86.3125,183,91,0.47888
1251440,-0.19500,86.9375,183,91,0.47082
1251450,-0.18000,88.6875,183,91,0.46349
1251460,-0.16500,99.3125,183,91,0.44713
1251470,-0.14500,109.1250,183,91,0.43858
1251480,-0.11500,120.7500,183,91,0.42979
1251490,-0.08500,132.6875,183,91,0.42125
1251500,-0.04500,153.3125,183,91,0.40464
1251510,-0.01500,160.8750,183,91,0.39658
1251520,0.01000,166.3750,183,91,0.38852
1251530,0.03500,169.9375,183,91,0.38071
1251540,0.06000,173.3750,183,91,0.36923
1251550,0.07000,174.1875,183,91,0.36288
1251560,0.08500,174.7500,183,91,0.35604
1251570,0.09000,175.1250,183,91,0.34774
1251580,0.09000,175.8750,183,91,0.33480
1251590,0.08500,176.4375,183,91,0.32918
1251600,0.07500,177.0000,183,91,0.32381
1251610,0.05000,177.5625,183,91,0.31844
1251620,0.02000,178.6875,183,91,0.30818
1251630,-0.02500,179.1875,183,91,0.30330
1251640,-0.06500,179.3750,183,91,0.29963
1251650,-0.10500,179.1875,183,91,0.29670
1251660,-0.13500,177.4375,183,91,0.28791
1251670,-0.15500,175.8125,183,91,0.28327
1251680,-0.17500,173.4375,183,91,0.27937
1251690,-0.19000,170.1875,183,91,0.27692
1251700,-0.19000,160.8750,183,91,0.28352
1251710,-0.18000,154.8125,183,91,0.29499
1251720,-0.16000,148.0000,183,91,0.31331
1251730,-0.11500,134.8750,183,91,0.36532
1251740,-0.07500,130.0000,183,91,0.39390
1251750,-0.03500,126.5625,183,91,0.42833
1251760,0.01000,124.5000,183,91,0.46520
1251770,0.04000,123.3750,183,91,0.50208
1251780,0.06000,122.5625,183,91,0.56947
1251790,0.05000,122.3125,183,91,0.59829
1251800,0.01000,121.9375,183,91,0.62344
1251810,-0.05500,121.3750,183,91,0.64518
1251820,-0.11500,119.6250,183,91,0.68010
1251830,-0.16000,118.5000,183,91,0.69402
1251840,-0.19000,117.2500,183,91,0.70379
1251850,-0.20500,115.9375,183,91,0.71111
1251860,-0.20500,113.4375,183,91,0.72576
1251870,-0.20500,112.1875,183,91,0.73187
1251880,-0.20000,111.0000,183,91,0.73700
1251890,-0.20000,109.8125,183,91,0.74115
1251900,-0.20000,107.6875,183,91,0.74530
1251910,-0.21000,106.6250,183,91,0.74530
1251920,-0.09500,105.5625,183,91,0.74335
1251930,0.38000,104.5625,183,91,0.73944
1251940,1.00000,102.6250,183,91,0.72552
1251950,0.93000,101.6250,183,91,0.71502
1251960,0.15500,100.6250,183,91,0.70183
1251970,-0.42500,99.7500,183,91,0.68620
1251980,-0.53000,98.0625,183,91,0.64835
1251990,-0.39500,97.2500,183,91,0.62784
1252000,-0.28000,96.4375,181,90,0.60757
1252010,-0.25500,95.5625,181,90,0.58828
1252020,-0.24500,93.9375,181,90,0.55458
1252030,-0.23500,93.0625,181,90,0.54066
1252040,-0.22000,92.3125,181,90,0.52943
1252050,-0.21000,91.6875,181,90,0.51990
1252060,-0.20000,90.9375,181,90,0.50134
1252070,-0.19000,91.3125,181,90,0.49206
1252080,-0.17500,92.6875,181,90,0.48303
1252090,-0.16000,102.0625,181,90,0.47399
1252100,-0.14000,111.0000,181,90,0.45617
1252110,-0.11500,122.0625,181,90,0.44737
1252120,-0.08500,134.0625,181,90,0.43883
1252130,-0.05500,145.5625,181,90,0.43028
1252140,-0.01500,163.8750,181,90,0.41685
1252150,0.02000,169.9375,181,90,0.40977
1252160,0.06000,174.1250,181,90,0.40244
1252170,0.09000,178.3750,181,90,0.39512
1252180,0.11500,179.3125,181,90,0.38046
1252190,0.13000,180.0000,181,90,0.37338
1252200,0.14000,180.5625,181,90,0.36654
1252210,0.14500,181.1250,181,90,0.35995
1252220,0.14500,182.5000,181,90,0.34750
1252230,0.14000,183.2500,181,90,0.34286
1252240,0.12000,184.0625,181,90,0.33895
1252250,0.07500,184.9375,181,90,0.33407
1252260,0.03000,186.3750,181,90,0.32381
1252270,-0.02000,186.8125,181,90,0.31893
1252280,-0.06000,186.9375,181,90,0.31380
1252290,-0.09500,186.6875,181,90,0.30867
1252300,-0.11500,184.6250,181,90,0.29866
1252310,-0.12500,182.6250,181,90,0.29451
1252320,-0.13500,179.8125,181,90,0.29182
1252330,-0.14500,176.0625,181,90,0.29206
1252340,-0.15000,165.5625,181,90,0.30354
1252350,-0.14500,159.0000,181,90,0.31722
1252360,-0.12500,152.0625,181,90,0.33724
1252370,-0.09500,145.3750,181,90,0.36361
1252380,-0.05500,135.1875,181,90,0.42979
1252390,-0.00500,132.0625,181,90,0.46593
1252400,0.03000,130.0625,181,90,0.50159
1252410,0.04500,128.8750,181,90,0.53529
1252420,0.05000,127.6875,181,90,0.59414
1252430,0.02000,127.1250,181,90,0.61563
1252440,-0.03000,126.5000,181,90,0.63272
1252450,-0.08000,125.7500,181,90,0.64957
1252460,-0.11000,123.7500,181,90,0.67912
1252470,-0.13000,122.6875,181,90,0.69158
1252480,-0.14000,121.5000,181,90,0.70232
1252490,-0.14500,120.3125,181,90,0.71184
1252500,-0.14500,117.8125,181,90,0.72723
1252510,-0.14000,116.5000,181,90,0.73333
1252520,-0.13500,115.1875,181,90,0.73822
1252530,-0.12500,113.8750,181,90,0.74164
1252540,-0.13500,111.2500,181,90,0.74261
1252550,-0.02500,110.0625,181,90,0.74164
1252560,0.38000,108.8125,181,90,0.73944
1252570,0.97000,107.6250,181,90,0.73529
1252580,1.00000,105.4375,181,90,0.72039
1252590,0.28500,104.4375,181,90,0.70403
1252600,-0.31500,103.5000,181,90,0.68742
1252610,-0.46500,102.6875,181,90,0.67399
1252620,-0.36500,101.0000,181,90,0.63834
1252630,-0.24000,100.1250,181,90,0.62076
1252640,-0.19500,99.1875,181,90,0.60415
1252650,-0.18000,98.3125,181,90,0.58706
1252660,-0.16500,96.5000,181,90,0.55507
1252670,-0.16000,95.6875,181,90,0.54115
1252680,-0.15500,95.0625,181,90,0.52845
1252690,-0.15000,94.6250,181,90,0.51697
1252700,-0.14000,95.0000,181,90,0.49670
1252710,-0.12500,96.5000,181,90,0.48718
1252720,-0.10500,99.8125,181,90,0.47814
1252730,-0.08500,105.6875,181,90,0.46911
1252740,-0.05500,125.0000,181,90,0.45421
1252750,-0.03000,136.5625,181,90,0.44640
1252760,0.00000,147.7500,181,90,0.43834
1252770,0.03000,157.6875,181,90,0.43004
1252780,0.05500,171.8750,181,90,0.41343
1252790,0.08000,176.1250,181,90,0.40537
1252800,0.10500,178.8750,181,90,0.39731
1252810,0.12000,180.6250,181,90,0.38926
1252820,0.13000,182.4375,181,90,0.36996
1252830,0.14000,183.0000,181,90,0.35873
1252840,0.14000,183.5625,181,90,0.35092
1252850,0.14000,184.1875,181,90,0.34335
1252860,0.13500,185.6875,181,90,0.32967
1252870,0.12000,186.5000,181,90,0.32332
1252880,0.09000,187.3125,181,90,0.31722
1252890,0.04500,188.0000,181,90,0.31160
1252900,0.00500,188.9375,181,90,0.30037
1252910,-0.03500,189.2083,181,90,0.29670
1252920,-0.05500,189.0625,181,90,0.29499
1252930,-0.08500,188.7500,181,90,0.28962
1252940,-0.10500,186.5000,181,90,0.28059
1252950,-0.11500,184.2500,181,90,0.27814
1252960,-0.13500,181.1875,181,90,0.27595
1252970,-0.14000,172.0625,181,90,0.27570
1252980,-0.13500,166.0625,181,90,0.28767
1252990,-0.11500,159.2500,181,90,0.30208
1253000,-0.08000,152.1250,178,88,0.32308
1253010,-0.02500,145.4375,178,88,0.34994
1253020,0.02500,135.6875,178,88,0.41563
1253030,0.06000,132.9375,178,88,0.45104
1253040,0.08000,131.3125,178,88,0.48156
1253050,0.08500,130.3750,178,88,0.50842
1253060,0.06000,129.4375,178,88,0.56239
1253070,0.01000,128.9375,178,88,0.58657
1253080,-0.05000,128.3125,178,88,0.60781
1253090,-0.09500,127.5625,178,88,0.62637
1253100,-0.12000,125.4375,178,88,0.65690
1253110,-0.13500,124.1875,178,88,0.66935
1253120,-0.14000,122.9375,178,88,0.68010
1253130,-0.14000,121.6875,178,88,0.68938
1253140,-0.13500,119.1250,178,88,0.70281
1253150,-0.13500,117.8125,178,88,0.70647
1253160,-0.12500,116.5000,178,88,0.71038
1253170,-0.13500,115.2500,178,88,0.71380
1253180,-0.02500,112.7500,178,88,0.71770
1253190,0.38000,111.5000,178,88,0.71722
1253200,0.97000,110.3125,178,88,0.71477
1253210,1.00500,109.1250,178,88,0.71013
1253220,0.30000,106.9375,178,88,0.69304
1253230,-0.29500,106.0000,178,88,0.68010
1253240,-0.44500,105.0625,178,88,0.66618
1253250,-0.35000,104.1875,178,88,0.65104
1253260,-0.22500,102.4375,178,88,0.61368
1253270,-0.18500,101.5625,178,88,0.59365
1253280,-0.17000,100.6250,178,88,0.57436
1253290,-0.16000,99.6875,178,88,0.55604
1253300,-0.15500,97.8750,178,88,0.52479
1253310,-0.14500,97.1250,178,88,0.51160
1253320,-0.14000,96.5625,178,88,0.49988
1253330,-0.13500,96.2500,178,88,0.48913
1253340,-0.12500,97.2500,178,88,0.47106
1253350,-0.11500,99.6875,178,88,0.46374
1253360,-0.10500,104.4375,178,88,0.45568
1253370,-0.08500,112.1250,178,88,0.44737
1253380,-0.06500,133.8125,178,88,0.43053
1253390,-0.02500,145.5625,178,88,0.42198
1253400,0.01000,156.3125,178,88,0.41368
1253410,0.04500,165.4375,178,88,0.40537
1253420,0.08000,177.6250,178,88,0.38877
1253430,0.11000,181.0625,178,88,0.38071
