RelativeTimeMilliseconds,ECG,ART,ART (Sys),ART (Dia),PPG
1345490,0.10000,100.0000,155,75,0.65006
1345500,0.10000,100.0000,155,75,0.65006
1345510,0.10000,100.0000,155,75,0.65006
1345520,0.10000,100.0000,155,75,0.65006
1345530,0.07000,99.3125,155,75,0.66545
1345540,0.02500,97.6250,155,75,0.69377
1345550,-0.01500,96.6250,155,75,0.70525
1345560,-0.06500,95.5625,155,75,0.71477
1345570,-0.09500,94.4375,155,75,0.72234
1345580,-0.11500,92.3125,155,75,0.73211
1345590,-0.11500,91.3125,155,75,0.73480
1345600,-0.12000,90.3750,155,75,0.73602
1345610,-0.12500,89.5000,155,75,0.73578
1345620,-0.12500,87.9375,155,75,0.73114
1345630,-0.12000,87.1875,155,75,0.72650
1345640,-0.11500,86.5000,155,75,0.72112
1345650,-0.12000,85.7500,155,75,0.71429
1345660,-0.02500,84.3125,155,75,0.69475
1345670,0.33000,83.5625,155,75,0.68156
1345680,0.89500,82.8125,155,75,0.66593
1345690,0.98500,82.0625,155,75,0.64811
1345700,0.35500,80.6250,155,75,0.60855
1345710,-0.24500,79.8750,155,75,0.58828
1345720,-0.44500,79.1250,155,75,0.57045
1345730,-0.37500,78.4375,155,75,0.55458
1345740,-0.25000,77.0000,155,75,0.52332
1345750,-0.19500,76.3125,155,75,0.50916
1345760,-0.18500,75.6250,155,75,0.49646
1345770,-0.17000,74.9375,155,75,0.48474
1345780,-0.16500,73.6250,155,75,0.46374
1345790,-0.15500,73.0625,155,75,0.45397
1345800,-0.14000,72.5000,155,75,0.44444
1345810,-0.13000,72.0625,155,75,0.43516
1345820,-0.12000,71.9375,155,75,0.41856
1345830,-0.10500,72.5625,155,75,0.41172
1345840,-0.09000,74.3125,155,75,0.40415
1345850,-0.07000,78.0000,155,75,0.39634
1345860,-0.04500,92.6875,155,75,0.38120
1345870,-0.00500,102.5625,155,75,0.37387
1345880,0.03000,112.6250,155,75,0.36679
1345890,0.08000,121.8750,155,75,0.35995
1345900,0.11500,136.1250,155,75,0.34701
1345910,0.14500,140.8750,155,75,0.34090
1345920,0.16500,144.1250,155,75,0.33626
1345930,0.18000,146.3750,155,75,0.33236
1345940,0.18500,148.9375,155,75,0.32259
1345950,0.18500,149.6250,155,75,0.31746
1345960,0.17500,150.1250,155,75,0.31233
1345970,0.16000,150.4375,155,75,0.30720
1345980,0.13000,151.0625,155,75,0.29744
1345990,0.08000,151.2500,155,75,0.29255
1346000,0.02500,151.4375,155,75,0.28791
1346010,-0.02500,151.4375,155,75,0.28327
1346020,-0.06500,151.2500,155,75,0.27570
1346030,-0.09500,150.9375,155,75,0.27326
1346040,-0.12500,150.4375,155,75,0.26984
1346050,-0.13500,149.7500,155,75,0.26569
1346060,-0.15000,147.5625,155,75,0.25788
1346070,-0.15500,145.9375,155,75,0.25592
1346080,-0.16000,143.9375,155,75,0.25690
1346090,-0.16000,141.4375,155,75,0.26227
1346100,-0.15000,134.2500,155,75,0.29182
1346110,-0.13500,129.5625,155,75,0.31697
1346120,-0.12500,124.2500,155,75,0.34383
1346130,-0.10500,118.6875,155,75,0.37314
1346140,-0.07500,109.2500,155,75,0.44762
1346150,-0.03500,106.1250,155,75,0.48718
1346160,0.00500,104.0625,155,75,0.52552
1346170,0.04500,102.0625,155,75,0.56142
1346180,0.09000,101.5000,155,75,0.62320
1346190,0.11500,100.9375,155,75,0.64835
1346200,0.09500,100.3125,155,75,0.67009
1346210,0.05500,99.5625,155,75,0.68864
1346220,0.01000,97.8125,155,75,0.71453
1346230,-0.03500,96.8750,155,75,0.72186
1346240,-0.08000,95.8125,155,75,0.72894
1346250,-0.11500,94.6875,155,75,0.73529
1346260,-0.12500,92.5625,155,75,0.74359
1346270,-0.13500,91.5000,155,75,0.74579
1346280,-0.13500,90.6250,155,75,0.74652
1346290,-0.13500,89.7500,155,75,0.74603
1346300,-0.13000,88.1875,155,75,0.74139
1346310,-0.12000,87.5000,155,75,0.73700
1346320,-0.12000,86.7500,155,75,0.73114
1346330,-0.12000,86.0000,155,75,0.72381
1346340,0.04500,84.4375,155,75,0.70330
1346350,0.51500,83.6875,155,75,0.68987
1346360,1.00500,82.9375,155,75,0.67424
1346370,0.83000,82.1875,155,75,0.65665
1346380,0.11000,80.6875,155,75,0.61709
1346390,-0.37000,79.8750,155,75,0.59658
1346400,-0.45500,79.1875,155,75,0.57656
1346410,-0.35000,78.4375,155,75,0.55775
1346420,-0.24000,77.0000,155,75,0.52601
1346430,-0.21000,76.3125,155,75,0.51380
1346440,-0.20000,75.6250,155,75,0.50183
1346450,-0.19500,74.9375,155,75,0.49035
1346460,-0.19000,73.6875,155,75,0.46886
1346470,-0.18000,73.0625,155,75,0.45885
1346480,-0.16500,72.5625,155,75,0.44908
1346490,-0.15500,72.1875,155,75,0.43956
1346500,-0.14500,72.3125,155,75,0.42100
1346510,-0.13000,73.3750,155,75,0.41197
1346520,-0.11500,75.9375,155,75,0.40464
1346530,-0.08500,80.7500,155,75,0.39829
1346540,-0.04500,97.1250,155,75,0.38388
1346550,-0.00500,107.1250,155,75,0.37656
1346560,0.03000,116.9375,155,75,0.36972
1346570,0.07000,125.6875,155,75,0.36288
1346580,0.11000,138.5625,155,75,0.34994
1346590,0.14000,142.6250,155,75,0.34383
1346600,0.15500,145.4375,155,75,0.33773
1346610,0.15500,147.3750,155,75,0.33162
1346620,0.15500,149.6250,155,75,0.32137
1346630,0.15000,150.2500,155,75,0.31770
1346640,0.14000,150.8125,155,75,0.31331
1346650,0.12000,151.1875,155,75,0.30842
1346660,0.09000,151.8125,155,75,0.29817
1346670,0.04500,152.0000,155,75,0.29328
1346680,-0.01000,152.1875,155,75,0.28840
1346690,-0.07500,152.1875,155,75,0.28376
1346700,-0.12000,152.0000,155,75,0.27497
1346710,-0.14000,151.6250,155,75,0.27033
1346720,-0.15000,151.0625,155,75,0.26716
1346730,-0.16000,150.2500,155,75,0.26471
1346740,-0.17000,147.6875,155,75,0.25861
1346750,-0.17500,145.9375,155,75,0.25714
1346760,-0.17500,143.6875,155,75,0.25910
1346770,-0.17500,140.8750,155,75,0.26593
1346780,-0.17000,133.2500,155,75,0.29915
1346790,-0.17000,128.3750,155,75,0.32625
1346800,-0.16000,122.8750,155,75,0.35922
1346810,-0.15000,117.3125,155,75,0.39658
1346820,-0.12500,108.0625,155,75,0.46422
1346830,-0.09000,105.1250,155,75,0.50012
1346840,-0.04000,103.2500,155,75,0.53626
1346850,0.00500,102.1875,155,75,0.57021
1346860,0.04000,101.1875,155,75,0.62906
1346870,0.06500,100.8125,155,75,0.65348
1346880,0.07000,100.3125,155,75,0.67424
1346890,0.05000,99.7500,155,75,0.69182
1346900,0.02000,98.0625,155,75,0.71893
1346910,-0.03500,97.0625,155,75,0.72869
1346920,-0.09000,96.0625,155,75,0.73480
1346930,-0.13500,95.0000,155,75,0.73846
1346940,-0.15500,92.8750,155,75,0.74457
1346950,-0.17000,91.8750,155,75,0.74628
1346960,-0.17500,90.8750,155,75,0.74676
1346970,-0.18000,89.9375,155,75,0.74603
1346980,-0.19000,88.2500,155,75,0.74090
1346990,-0.18500,87.5000,155,75,0.73602
1347000,-0.18000,86.7500,155,75,0.72967
1347010,-0.18000,85.9375,155,75,0.72137
1347020,-0.18500,84.5000,155,75,0.70110
1347030,-0.01500,83.7500,155,75,0.68791
1347040,0.46500,83.0000,155,75,0.67204
1347050,0.98500,82.3125,155,75,0.65397
1347060,0.84500,80.8125,155,75,0.61294
1347070,0.10000,80.1250,155,75,0.59170
1347080,-0.41500,79.4375,155,75,0.57118
1347090,-0.50000,78.7500,155,75,0.55189
1347100,-0.37500,77.3750,155,75,0.51844
1347110,-0.27500,76.6875,155,75,0.50427
1347120,-0.25000,76.0000,155,75,0.49304
1347130,-0.24000,75.3750,155,75,0.48376
1347140,-0.22500,74.0625,155,75,0.46471
1347150,-0.21000,73.5000,155,75,0.45543
1347160,-0.19000,72.8750,155,75,0.44615
1347170,-0.18000,72.3750,155,75,0.43712
1347180,-0.17000,71.8125,155,75,0.41905
1347190,-0.16500,72.0625,155,75,0.41026
1347200,-0.15500,73.2500,155,75,0.40171
1347210,-0.14000,76.1875,155,75,0.39341
1347220,-0.11500,89.3750,155,75,0.38071
1347230,-0.09000,99.1875,155,75,0.37411
1347240,-0.05500,109.6875,155,75,0.36728
1347250,-0.01500,119.7500,155,75,0.36044
1347260,0.03000,135.7500,155,75,0.34750
1347270,0.07000,141.1250,155,75,0.34139
1347280,0.10000,145.0000,155,75,0.33529
1347290,0.12000,147.5625,155,75,0.32943
1347300,0.13000,150.5000,155,75,0.31795
1347310,0.13500,151.3750,155,75,0.31258
1347320,0.14500,152.0625,155,75,0.30867
1347330,0.14000,152.6250,155,75,0.30525
1347340,0.12000,153.5000,155,75,0.29670
1347350,0.08500,153.8750,155,75,0.29206
1347360,0.02000,154.1250,155,75,0.28742
1347370,-0.02500,154.3750,155,75,0.28278
1347380,-0.07500,154.3750,155,75,0.27375
1347390,-0.11500,154.2500,155,75,0.26960
1347400,-0.14000,153.9375,155,75,0.26520
1347410,-0.16000,153.4375,155,75,0.26081
1347420,-0.17500,151.6875,155,75,0.25592
1347430,-0.19000,150.3750,155,75,0.25348
1347440,-0.19500,148.7500,155,75,0.25275
1347450,-0.20000,146.5625,155,75,0.25495
1347460,-0.20000,140.5625,155,75,0.27643
1347470,-0.19500,136.5000,155,75,0.29792
1347480,-0.19000,131.7500,155,75,0.32650
1347490,-0.18000,126.3750,155,75,0.36117
1347500,-0.16000,115.3750,155,75,0.44200
1347510,-0.13000,110.7500,155,75,0.48352
1347520,-0.08000,107.3125,155,75,0.51893
1347530,-0.03000,104.9375,155,75,0.54994
1347540,0.01000,102.6875,155,75,0.61221
1347550,0.04000,102.2500,155,75,0.63956
1347560,0.05000,101.8750,155,75,0.66374
1347570,0.03500,101.5625,155,75,0.68474
1347580,0.00500,100.5000,155,75,0.71795
1347590,-0.04000,99.7500,155,75,0.73040
1347600,-0.09500,98.8125,155,75,0.74042
1347610,-0.14000,97.8125,155,75,0.74823
1347620,-0.16500,95.6250,155,75,0.75531
1347630,-0.18500,94.5000,155,75,0.75751
1347640,-0.19500,93.4375,155,75,0.75897
1347650,-0.20000,92.3750,155,75,0.75946
1347660,-0.20500,90.4375,155,75,0.75702
1347670,-0.20000,89.5625,155,75,0.75385
1347680,-0.19000,88.6875,155,75,0.74945
1347690,-0.19500,87.8750,155,75,0.74335
1347700,-0.21000,86.3750,155,75,0.72576
1347710,-0.07500,85.6250,155,75,0.71380
1347720,0.39000,84.9375,155,75,0.70110
1347730,0.98000,84.1875,155,75,0.68694
1347740,0.92500,82.7500,155,75,0.65031
1347750,0.14500,82.0625,155,75,0.62955
1347760,-0.44000,81.3125,155,75,0.60830
1347770,-0.54000,80.5625,155,75,0.58706
1347780,-0.41500,79.1250,155,75,0.54847
1347790,-0.30500,78.4375,155,75,0.53162
1347800,-0.27500,77.6875,155,75,0.51648
1347810,-0.27000,77.0000,155,75,0.50305
1347820,-0.25500,75.6250,155,75,0.48327
1347830,-0.24500,75.0000,155,75,0.47399
1347840,-0.23000,74.4375,155,75,0.46471
1347850,-0.22000,73.9375,155,75,0.45568
1347860,-0.20000,73.1875,155,75,0.43810
1347870,-0.19000,73.3125,155,75,0.42930
1347880,-0.17500,74.1875,155,75,0.42051
1347890,-0.16000,76.6875,155,75,0.41172
1347900,-0.13500,89.3125,155,75,0.39487
1347910,-0.10000,99.1250,155,75,0.38681
1347920,-0.06500,109.7500,155,75,0.38022
1347930,-0.02500,120.0625,155,75,0.37460
1347940,0.02000,136.5000,155,75,0.36117
1347950,0.05500,142.0000,155,75,0.35458
1347960,0.08500,145.8750,155,75,0.34799
1347970,0.10500,148.4375,155,75,0.34164
1347980,0.12000,151.2500,155,75,0.32967
1347990,0.13000,151.9375,155,75,0.32405
1348000,0.13000,152.5000,155,75,0.31844
1348010,0.12500,152.8750,155,75,0.31306
1348020,0.11000,153.6250,155,75,0.30598
1348030,0.07500,153.9375,155,75,0.30208
1348040,0.02500,154.1250,155,75,0.29768
1348050,-0.03500,154.3125,155,75,0.29304
1348060,-0.09500,154.4375,155,75,0.28400
1348070,-0.13500,154.3125,155,75,0.27937
1348080,-0.15000,154.0000,155,75,0.27473
1348090,-0.16000,153.4375,155,75,0.27009
1348100,-0.17000,151.6250,155,75,0.26081
1348110,-0.17500,150.2500,155,75,0.25763
1348120,-0.17500,148.5000,155,75,0.25714
1348130,-0.18000,146.3125,155,75,0.25983
1348140,-0.18000,140.1875,155,75,0.27888
1348150,-0.17500,136.0625,155,75,0.29841
1348160,-0.17000,131.2500,155,75,0.32479
1348170,-0.16500,125.8125,155,75,0.35775
1348180,-0.15500,115.0625,155,75,0.43565
1348190,-0.12500,110.7500,155,75,0.47643
1348200,-0.08500,107.4375,155,75,0.51600
1348210,-0.05000,105.1875,155,75,0.55311
1348220,-0.02000,102.8750,155,75,0.60757
1348230,0.01000,102.3125,155,75,0.63223
1348240,0.02500,101.8750,155,75,0.65495
1348250,0.01000,101.3750,155,75,0.67497
1348260,-0.01500,100.1875,155,75,0.70696
1348270,-0.05500,99.3750,155,75,0.71917
1348280,-0.10000,98.5000,155,75,0.72918
1348290,-0.13500,97.5000,155,75,0.73700
1348300,-0.15500,95.3125,155,75,0.74750
1348310,-0.15500,94.2500,155,75,0.75043
1348320,-0.15500,93.1250,155,75,0.75092
1348330,-0.15500,92.1250,155,75,0.74994
1348340,-0.15500,90.1875,155,75,0.74652
1348350,-0.15000,89.3750,155,75,0.74335
1348360,-0.14000,88.5625,155,75,0.73895
1348370,-0.14500,86.9375,155,75,0.73309
1348380,-0.14500,86.1250,155,75,0.71575
1348390,0.07500,85.3750,155,75,0.70379
1348400,0.63000,84.6250,155,75,0.68962
1348410,1.07000,83.8750,155,75,0.67326
1348420,0.74500,82.3750,155,75,0.64005
1348430,-0.03500,81.5625,155,75,0.62100
1348440,-0.45000,80.8125,155,75,0.60073
1348450,-0.46000,80.0000,155,75,0.58022
1348460,-0.32000,78.5000,155,75,0.54237
1348470,-0.23500,77.7500,155,75,0.52552
1348480,-0.21500,77.0000,155,75,0.51062
1348490,-0.20000,76.3125,155,75,0.49719
1348500,-0.19000,74.9375,155,75,0.47399
1348510,-0.18000,74.2500,155,75,0.46349
1348520,-0.17000,73.6875,155,75,0.45495
1348530,-0.16000,73.1250,155,75,0.44737
1348540,-0.15500,72.5625,155,75,0.43053
1348550,-0.13500,72.8125,155,75,0.42173
1348560,-0.12000,74.0000,155,75,0.41294
1348570,-0.10000,76.9375,155,75,0.40415
1348580,-0.07000,90.2500,155,75,0.38730
1348590,-0.03500,99.9375,155,75,0.37924
1348600,0.01000,110.3125,155,75,0.37143
1348610,0.05500,120.1250,155,75,0.36386
1348620,0.10000,135.5625,155,75,0.35311
1348630,0.14000,140.7500,155,75,0.34725
1348640,0.16500,144.3125,155,75,0.34115
1348650,0.18500,146.6875,155,75,0.33480
1348660,0.20000,149.1875,155,75,0.32259
1348670,0.20500,149.8750,155,75,0.31673
1348680,0.20000,150.3750,155,75,0.31087
1348690,0.19000,150.7500,155,75,0.30525
1348700,0.17500,151.3125,155,75,0.29426
1348710,0.14000,151.5625,155,75,0.29035
1348720,0.08500,151.6875,155,75,0.28718
1348730,0.02500,151.7500,155,75,0.28327
1348740,-0.02000,151.6250,155,75,0.27424
1348750,-0.05500,151.3125,155,75,0.26960
1348760,-0.08500,150.8125,155,75,0.26471
1348770,-0.10500,150.1875,155,75,0.25983
1348780,-0.11000,148.1250,155,75,0.25079
1348790,-0.11500,146.6250,155,75,0.24762
1348800,-0.12500,144.6875,155,75,0.24689
1348810,-0.12500,142.2500,155,75,0.25006
1348820,-0.11500,135.3125,155,75,0.26911
1348830,-0.11000,130.6875,155,75,0.28816
1348840,-0.10000,125.3750,155,75,0.31453
1348850,-0.08500,119.6875,155,75,0.34701
1348860,-0.03500,109.4375,155,75,0.42466
1348870,0.00000,105.8750,155,75,0.46545
1348880,0.05000,103.5000,155,75,0.50501
1348890,0.08000,102.0000,155,75,0.54212
1348900,0.11000,100.6250,155,75,0.60586
1348910,0.12000,100.2500,155,75,0.62882
1348920,0.10000,99.9375,155,75,0.64713
1348930,0.06000,99.4375,155,75,0.66496
1348940,0.01500,98.0625,155,75,0.69499
1348950,-0.04000,97.1875,155,75,0.70672
1348960,-0.08500,96.2500,155,75,0.71624
1348970,-0.11000,95.1875,155,75,0.72381
1348980,-0.12500,93.1250,155,75,0.73382
1348990,-0.13000,92.1250,155,75,0.73651
1349000,-0.13000,91.1875,154,75,0.73773
1349010,-0.13500,90.2500,154,75,0.73773
1349020,-0.13000,88.5625,154,75,0.73260
1349030,-0.12500,87.6875,154,75,0.72869
1349040,-0.11500,86.8750,154,75,0.72381
1349050,-0.12500,86.0625,154,75,0.71746
1349060,-0.02500,84.5000,154,75,0.69866
1349070,0.37500,83.6875,154,75,0.68400
1349080,0.96500,82.8750,154,75,0.66593
1349090,0.98000,82.1250,154,75,0.64737
1349100,0.32500,80.5625,154,75,0.60708
1349110,-0.25500,79.8125,154,75,0.58852
1349120,-0.43500,79.0625,154,75,0.57143
1349130,-0.34500,78.3750,154,75,0.55336
1349140,-0.21000,76.9375,154,75,0.51917
1349150,-0.17000,76.2500,154,75,0.50427
1349160,-0.16000,75.5625,154,75,0.49109
1349170,-0.15500,74.8125,154,75,0.47912
1349180,-0.14500,73.4375,154,75,0.45861
1349190,-0.13500,72.8125,154,75,0.44908
1349200,-0.11500,72.2500,154,75,0.44005
1349210,-0.10500,71.8750,154,75,0.43126
1349220,-0.09000,71.8125,154,75,0.41734
1349230,-0.08000,72.5625,154,75,0.41001
1349240,-0.06500,74.6875,154,75,0.40244
1349250,-0.04500,78.8750,154,75,0.39463
1349260,-0.01500,94.3750,154,75,0.37973
1349270,0.02000,104.2500,154,75,0.37265
1349280,0.06000,114.1250,154,75,0.36557
1349290,0.10000,123.0625,154,75,0.35873
1349300,0.13500,136.3750,154,75,0.34579
1349310,0.16000,140.6250,154,75,0.34090
1349320,0.17500,143.4375,154,75,0.33675
1349330,0.19000,145.3125,154,75,0.33187
1349340,0.19500,147.1875,154,75,0.32112
1349350,0.19500,147.6250,154,75,0.31551
1349360,0.19000,147.9375,154,75,0.31013
1349370,0.17500,148.1250,154,75,0.30476
1349380,0.15000,148.4375,154,75,0.29426
1349390,0.11000,148.5000,154,75,0.28938
1349400,0.06000,148.4375,154,75,0.28449
1349410,0.01000,148.3125,154,75,0.27985
1349420,-0.03500,147.7500,154,75,0.27424
1349430,-0.06500,147.2500,154,75,0.27057
1349440,-0.08500,146.5625,154,75,0.26642
1349450,-0.10000,145.6875,154,75,0.26203
1349460,-0.11000,143.1250,154,75,0.25421
1349470,-0.12000,141.1875,154,75,0.25201
1349480,-0.12500,138.7500,154,75,0.25275
1349490,-0.12500,135.5625,154,75,0.25812
1349500,-0.11000,126.9375,154,75,0.28694
1349510,-0.10000,121.5625,154,75,0.30769
1349520,-0.08500,116.0000,154,75,0.33211
1349530,-0.05000,110.8125,154,75,0.36386
1349540,0.00000,103.4375,154,75,0.43907
1349550,0.04500,101.5000,154,75,0.47790
1349560,0.08500,100.3125,154,75,0.51502
1349570,0.12500,99.6875,154,75,0.54969
1349580,0.14500,98.8750,154,75,0.60855
1349590,0.12000,98.4375,154,75,0.63248
1349600,0.08000,97.8125,154,75,0.65299
1349610,0.03000,97.0625,154,75,0.67033
1349620,-0.02000,95.2500,154,75,0.69158
1349630,-0.06500,94.2500,154,75,0.70012
1349640,-0.09500,93.1875,154,75,0.70745
1349650,-0.11500,92.1250,154,75,0.71331
1349660,-0.11500,90.1250,154,75,0.72088
1349670,-0.12500,89.1875,154,75,0.72259
1349680,-0.12500,88.3750,154,75,0.72283
1349690,-0.12500,87.6250,154,75,0.72186
1349700,-0.12500,86.1875,154,75,0.71648
1349710,-0.12500,85.3750,154,75,0.71160
1349720,-0.13500,84.6250,154,75,0.70525
1349730,-0.03000,83.8750,154,75,0.69744
1349740,0.36000,82.3750,154,75,0.67546
1349750,0.91500,81.6250,154,75,0.66081
1349760,0.94500,80.8125,154,75,0.64396
1349770,0.27000,80.1250,154,75,0.62515
1349780,-0.30500,78.6250,154,75,0.58486
1349790,-0.46500,77.8750,154,75,0.56484
1349800,-0.38500,77.1250,154,75,0.54603
1349810,-0.26500,76.3750,154,75,0.52869
1349820,-0.22000,75.0000,154,75,0.50256
1349830,-0.21000,74.3125,154,75,0.49109
1349840,-0.20000,73.6250,154,75,0.48010
1349850,-0.19500,73.0000,154,75,0.46984
1349860,-0.18000,71.8125,154,75,0.45079
1349870,-0.16500,71.3125,154,75,0.44176
1349880,-0.15500,70.9375,154,75,0.43297
1349890,-0.14000,70.8125,154,75,0.42418
1349900,-0.12000,72.0000,154,75,0.40733
1349910,-0.10500,74.5000,154,75,0.40049
1349920,-0.07500,79.2500,154,75,0.39438
1349930,-0.04000,86.5000,154,75,0.38755
1349940,0.00500,105.6875,154,75,0.37363
1349950,0.05000,115.3750,154,75,0.36679
1349960,0.10000,124.0000,154,75,0.36020
1349970,0.14000,131.0625,154,75,0.35360
1349980,0.16500,140.2500,154,75,0.34115
1349990,0.18500,142.8750,154,75,0.33529
1350000,0.19500,144.6250,153,75,0.32943
1350010,0.19500,145.7500,153,75,0.32381
1350020,0.19500,146.9375,153,75,0.31624
1350030,0.18500,147.1875,153,75,0.31184
1350040,0.17500,147.3750,153,75,0.30696
1350050,0.14500,147.5000,153,75,0.30183
1350060,0.11000,147.5625,153,75,0.29206
1350070,0.05500,147.4375,153,75,0.28718
1350080,0.00500,147.2500,153,75,0.28254
1350090,-0.03500,146.9375,153,75,0.27814
1350100,-0.07000,146.0000,153,75,0.26911
1350110,-0.09500,145.2500,153,75,0.26593
1350120,-0.11000,144.3125,153,75,0.26325
1350130,-0.12500,143.0625,153,75,0.25983
1350140,-0.13500,139.4375,153,75,0.25446
1350150,-0.14000,136.8125,153,75,0.25543
1350160,-0.13500,133.5000,153,75,0.26105
1350170,-0.13000,129.3750,153,75,0.27253
1350180,-0.11500,119.1875,153,75,0.31600
1350190,-0.10000,113.8750,153,75,0.34750
1350200,-0.08000,109.0625,153,75,0.38364
1350210,-0.05000,105.2500,153,75,0.42247
1350220,0.00000,100.8750,153,75,0.48864
1350230,0.04000,99.8750,153,75,0.52259
1350240,0.07500,99.2500,153,75,0.55556
1350250,0.11000,98.7500,153,75,0.58632
1350260,0.12000,97.6875,153,75,0.63785
1350270,0.09000,97.0000,153,75,0.65861
1350280,0.05000,96.1250,153,75,0.67619
1350290,0.00000,95.2500,153,75,0.69084
1350300,-0.05000,93.1875,153,75,0.71233
1350310,-0.09000,92.1875,153,75,0.71819
1350320,-0.12000,91.1250,153,75,0.72161
1350330,-0.13500,90.1250,153,75,0.72479
1350340,-0.13500,88.2500,153,75,0.72845
1350350,-0.14000,87.4375,153,75,0.72869
1350360,-0.14000,86.6250,153,75,0.72747
1350370,-0.14000,85.9375,153,75,0.72503
1350380,-0.13500,84.6250,153,75,0.71600
1350390,-0.13500,83.9375,153,75,0.70891
1350400,-0.13500,83.1875,153,75,0.69963
1350410,0.05000,81.8125,153,75,0.67766
1350420,0.42000,81.0625,153,75,0.66325
1350430,0.96000,80.3750,153,75,0.64640
1350440,0.90000,79.6250,153,75,0.62784
1350450,0.20500,78.8750,153,75,0.60830
1350460,-0.31500,77.4375,153,75,0.56874
1350470,-0.45000,76.6875,153,75,0.55018
1350480,-0.35500,76.0000,153,75,0.53309
1350490,-0.23500,75.3125,153,75,0.51746
1350500,-0.19000,74.0000,153,75,0.49109
1350510,-0.18000,73.3125,153,75,0.48107
1350520,-0.17000,72.6875,153,75,0.47253
1350530,-0.16000,72.0625,153,75,0.46349
1350540,-0.15500,70.8750,153,75,0.44518
1350550,-0.13500,70.3750,153,75,0.43614
1350560,-0.12500,70.0625,153,75,0.42711
1350570,-0.11500,70.0000,153,75,0.41832
1350580,-0.10000,71.6875,153,75,0.40122
1350590,-0.08500,74.6875,153,75,0.39316
1350600,-0.06500,80.0625,153,75,0.38535
1350610,-0.04000,87.9375,153,75,0.37924
1350620,-0.00500,107.6250,153,75,0.36801
1350630,0.03000,117.1875,153,75,0.36190
1350640,0.07000,125.5000,153,75,0.35580
1350650,0.11000,132.3125,153,75,0.34969
1350660,0.14000,141.0625,153,75,0.33773
1350670,0.16000,143.5000,153,75,0.33211
1350680,0.17000,145.1250,153,75,0.32650
1350690,0.17000,146.1250,153,75,0.32112
1350700,0.16500,147.1875,153,75,0.31062
1350710,0.15500,147.4375,153,75,0.30672
1350720,0.14500,147.6250,153,75,0.30379
1350730,0.12000,147.6875,153,75,0.29988
1350740,0.08000,147.6875,153,75,0.29084
1350750,0.03000,147.5625,153,75,0.28620
1350760,-0.01500,147.4375,153,75,0.28156
1350770,-0.05500,147.1875,153,75,0.27717
1350780,-0.08500,146.3125,153,75,0.26838
1350790,-0.10500,145.6250,153,75,0.26374
1350800,-0.12000,144.6875,153,75,0.25934
1350810,-0.13000,143.5000,153,75,0.25641
1350820,-0.13500,140.0000,153,75,0.25421
1350830,-0.14500,137.4375,153,75,0.25617
1350840,-0.14000,134.1875,153,75,0.26252
1350850,-0.13000,130.1875,153,75,0.27473
1350860,-0.11500,120.1875,153,75,0.31990
1350870,-0.10500,114.8125,153,75,0.35214
1350880,-0.08500,109.8750,153,75,0.38926
1350890,-0.05500,103.0000,153,75,0.42882
1350900,-0.01000,101.0625,153,75,0.50842
1350910,0.03500,99.8750,153,75,0.54090
1350920,0.06500,99.1875,153,75,0.56874
1350930,0.10000,98.6250,153,75,0.59707
1350940,0.11000,97.5625,153,75,0.64713
1350950,0.09000,96.8750,153,75,0.66789
1350960,0.05000,96.0625,153,75,0.68547
1350970,0.00000,95.1875,153,75,0.70012
1350980,-0.05000,93.1250,153,75,0.72186
1350990,-0.09500,92.0625,153,75,0.72943
1351000,-0.12000,91.0000,153,74,0.73480
1351010,-0.13000,90.0000,153,74,0.73748
1351020,-0.13500,88.1875,153,74,0.73871
1351030,-0.13500,87.3125,153,74,0.73822
1351040,-0.14500,86.5625,153,74,0.73700
1351050,-0.14500,85.8125,153,74,0.73455
1351060,-0.14000,84.4375,153,74,0.72552
1351070,-0.13000,83.7500,153,74,0.71868
1351080,-0.13500,83.0000,153,74,0.70989
1351090,-0.06500,82.3125,153,74,0.69890
1351100,0.29000,80.8125,153,74,0.66984
1351110,0.86500,80.1250,153,74,0.65421
1351120,0.97500,79.3750,153,74,0.63956
1351130,0.40000,78.6250,153,74,0.62320
1351140,-0.21000,77.1875,153,74,0.58510
1351150,-0.45000,76.4375,153,74,0.56606
1351160,-0.39500,75.7500,153,74,0.54823
1351170,-0.26000,75.1250,153,74,0.53187
1351180,-0.20000,73.8125,153,74,0.50354
1351190,-0.19000,73.1250,153,74,0.49158
1351200,-0.18000,72.4375,153,74,0.48034
1351210,-0.17000,71.8125,153,74,0.47106
1351220,-0.16500,70.6250,153,74,0.45397
1351230,-0.15500,70.1250,153,74,0.44493
1351240,-0.14500,69.8125,153,74,0.43565
1351250,-0.14000,69.7500,153,74,0.42637
1351260,-0.12500,71.4375,153,74,0.40855
1351270,-0.10500,74.4375,153,74,0.40000
1351280,-0.08500,79.6875,153,74,0.39170
1351290,-0.05500,87.3750,153,74,0.38388
1351300,-0.02500,106.7500,153,74,0.36947
1351310,0.01000,116.3125,153,74,0.36386
1351320,0.05000,124.6875,153,74,0.35922
1351330,0.09000,131.5000,153,74,0.35385
1351340,0.11500,140.3750,153,74,0.34237
1351350,0.13500,142.8750,153,74,0.33651
1351360,0.14500,144.5625,153,74,0.33065
1351370,0.15500,145.6250,153,74,0.32479
1351380,0.15500,146.8750,153,74,0.31380
1351390,0.15000,147.1875,153,74,0.30842
1351400,0.14000,147.4375,153,74,0.30305
1351410,0.11500,147.6875,153,74,0.29915
1351420,0.07000,147.8125,153,74,0.29206
1351430,0.03000,147.7500,153,74,0.28767
1351440,-0.01500,147.6250,153,74,0.28303
1351450,-0.05000,147.3750,153,74,0.27863
1351460,-0.08500,146.4375,153,74,0.26984
1351470,-0.10500,145.8125,153,74,0.26520
1351480,-0.12000,144.8750,153,74,0.26056
1351490,-0.13500,143.7500,153,74,0.25641
1351500,-0.14500,140.3750,153,74,0.25226
1351510,-0.14500,137.9375,153,74,0.25470
1351520,-0.14500,135.0000,153,74,0.26081
1351530,-0.13500,131.3125,153,74,0.27253
1351540,-0.11500,121.7500,153,74,0.31600
1351550,-0.10500,116.3125,153,74,0.34774
1351560,-0.09000,111.1250,153,74,0.38437
1351570,-0.07500,106.7500,153,74,0.42418
1351580,-0.04500,101.1875,153,74,0.50549
1351590,-0.01000,99.8125,153,74,0.54359
1351600,0.01000,99.0000,153,74,0.57851
1351610,0.02000,98.4375,153,74,0.60635
1351620,0.04000,97.5000,153,74,0.65153
1351630,0.07000,96.8750,153,74,0.67204
1351640,0.07000,96.1875,153,74,0.69011
1351650,0.04000,95.3125,153,74,0.70549
1351660,-0.01500,93.4375,153,74,0.72894
1351670,-0.07000,92.3750,153,74,0.73724
1351680,-0.11500,91.3750,153,74,0.74335
1351690,-0.14000,90.3750,153,74,0.74750
1351700,-0.15500,88.3750,153,74,0.75140
1351710,-0.16000,87.5000,153,74,0.75043
1351720,-0.17000,86.6250,153,74,0.74823
1351730,-0.16500,85.8125,153,74,0.74554
1351740,-0.16500,84.3750,153,74,0.73700
1351750,-0.16000,83.6875,153,74,0.73065
1351760,-0.15500,83.0000,153,74,0.72259
1351770,-0.16000,82.2500,153,74,0.71233
1351780,-0.07500,80.8750,153,74,0.68498
1351790,0.29000,80.1875,153,74,0.66789
1351800,0.89000,79.4375,153,74,0.64884
1351810,1.00000,78.7500,153,74,0.63077
1351820,0.34500,77.3125,153,74,0.59389
1351830,-0.28000,76.6250,153,74,0.57460
1351840,-0.48000,75.9375,153,74,0.55604
1351850,-0.40000,75.2500,153,74,0.53871
1351860,-0.27500,74.0000,153,74,0.50891
1351870,-0.22500,73.3750,153,74,0.49621
1351880,-0.22000,72.7500,153,74,0.48474
1351890,-0.21000,72.1250,153,74,0.47399
1351900,-0.20000,70.9375,153,74,0.45421
1351910,-0.19000,70.3750,153,74,0.44615
1351920,-0.18000,69.8750,153,74,0.43883
1351930,-0.17000,69.5000,153,74,0.43053
1351940,-0.16000,69.6250,153,74,0.41343
1351950,-0.15000,70.8125,153,74,0.40488
1351960,-0.13500,73.6875,153,74,0.39658
1351970,-0.11500,79.0625,153,74,0.38852
1351980,-0.08500,96.6250,153,74,0.37314
1351990,-0.04500,107.0000,153,74,0.36606
1352000,-0.00500,116.8750,153,74,0.35922
1352010,0.03500,125.5625,153,74,0.35409
1352020,0.07500,137.8750,153,74,0.34432
1352030,0.11000,141.5625,153,74,0.33871
1352040,0.13000,144.1250,153,74,0.33309
1352050,0.14000,145.7500,153,74,0.32772
1352060,0.14000,147.5625,153,74,0.31697
1352070,0.14000,148.1250,153,74,0.31160
1352080,0.13000,148.5000,153,74,0.30647
1352090,0.12000,148.8125,153,74,0.30134
1352100,0.09500,149.1250,153,74,0.29158
1352110,0.05000,149.1875,153,74,0.28816
1352120,-0.00500,149.1875,153,74,0.28547
1352130,-0.06000,149.0625,153,74,0.28205
1352140,-0.10500,148.4375,153,74,0.27399
1352150,-0.13500,147.9375,153,74,0.26984
1352160,-0.15500,147.1875,153,74,0.26545
1352170,-0.17000,146.3125,153,74,0.26105
1352180,-0.18000,143.7500,153,74,0.25324
1352190,-0.19000,141.9375,153,74,0.25201
1352200,-0.19500,139.7500,153,74,0.25421
1352210,-0.20000,137.0000,153,74,0.26007
1352220,-0.19500,129.5000,153,74,0.28840
1352230,-0.19000,124.5625,153,74,0.31355
1352240,-0.18000,119.1250,153,74,0.34530
1352250,-0.16000,113.4375,153,74,0.38266
1352260,-0.14000,104.0000,153,74,0.46520
1352270,-0.10000,101.0625,153,74,0.50647
1352280,-0.05500,99.2500,153,74,0.54579
1352290,-0.00500,98.3125,153,74,0.58193
1352300,0.02000,97.7500,153,74,0.64005
1352310,0.04500,97.5625,153,74,0.66032
1352320,0.05000,97.2500,153,74,0.68034
1352330,0.03000,96.8125,153,74,0.69866
1352340,-0.01500,95.3125,153,74,0.72772
1352350,-0.06000,94.4375,153,74,0.73871
1352360,-0.10500,93.4375,153,74,0.74725
1352370,-0.14500,92.4375,153,74,0.75360
1352380,-0.16000,90.2500,153,74,0.76142
1352390,-0.17000,89.2500,153,74,0.76288
1352400,-0.17500,88.2500,153,74,0.76288
1352410,-0.17500,87.3750,153,74,0.76093
1352420,-0.17000,85.7500,153,74,0.75360
1352430,-0.17000,85.0000,153,74,0.74872
1352440,-0.17000,84.3125,153,74,0.74261
1352450,-0.18000,83.5625,153,74,0.73504
1352460,-0.19000,82.1250,153,74,0.71404
1352470,-0.02000,81.5000,153,74,0.70012
1352480,0.50500,80.8125,153,74,0.68376
1352490,1.02500,80.1250,153,74,0.66520
1352500,0.79000,78.7500,153,74,0.62564
1352510,0.01000,78.0625,153,74,0.60708
1352520,-0.45000,77.4375,153,74,0.58730
1352530,-0.53000,76.7500,153,74,0.56752
1352540,-0.45000,75.4375,153,74,0.53162
1352550,-0.33000,74.8125,153,74,0.51648
1352560,-0.26500,74.1250,153,74,0.50305
1352570,-0.25000,73.5000,153,74,0.49133
1352580,-0.24000,72.1875,153,74,0.47082
1352590,-0.22500,71.5625,153,74,0.46129
1352600,-0.21000,71.0000,153,74,0.45226
1352610,-0.19500,70.5000,153,74,0.44469
1352620,-0.18500,70.0000,153,74,0.43004
1352630,-0.17000,70.3125,153,74,0.42198
1352640,-0.16000,71.7500,153,74,0.41368
1352650,-0.14500,75.0625,153,74,0.40537
1352660,-0.12000,89.6875,153,74,0.38901
1352670,-0.08500,99.8750,153,74,0.38144
1352680,-0.05000,110.3750,153,74,0.37387
1352690,-0.00500,120.1875,153,74,0.36679
1352700,0.03500,135.0625,153,74,0.35433
1352710,0.07000,139.8750,153,74,0.34994
1352720,0.10000,143.1250,153,74,0.34457
1352730,0.12000,145.3125,153,74,0.33919
1352740,0.13000,147.6250,153,74,0.32845
1352750,0.14000,148.3125,153,74,0.32308
1352760,0.13500,148.8125,153,74,0.31795
1352770,0.13000,149.1875,153,74,0.31282
1352780,0.11000,149.8125,153,74,0.30305
1352790,0.08500,149.9375,153,74,0.29817
1352800,0.04500,150.0000,153,74,0.29328
1352810,0.00000,149.9375,153,74,0.28987
1352820,-0.05500,149.5625,153,74,0.28400
1352830,-0.09500,149.1875,153,74,0.28010
1352840,-0.12000,148.6875,153,74,0.27570
1352850,-0.13500,147.9375,153,74,0.27106
1352860,-0.15000,145.6875,153,74,0.26178
1352870,-0.15500,144.0625,153,74,0.25836
1352880,-0.16000,142.0625,153,74,0.25714
1352890,-0.16500,136.5000,153,74,0.25983
1352900,-0.17000,132.7500,153,74,0.27985
1352910,-0.17000,128.3125,153,74,0.29719
1352920,-0.16500,123.1875,153,74,0.32234
1352930,-0.16000,117.6875,153,74,0.35433
1352940,-0.15000,107.6250,153,74,0.43223
1352950,-0.13500,104.0000,153,74,0.47375
1352960,-0.10500,101.5000,153,74,0.51453
1352970,-0.06000,100.0000,153,74,0.55311
1352980,-0.02500,98.8125,153,74,0.61978
1352990,0.01000,98.5625,153,74,0.64762
1353000,0.04500,98.3125,153,74,0.67155
1353010,0.04000,97.9375,153,74,0.68938
1353020,0.00500,96.8125,153,74,0.71624
1353030,-0.03500,96.0000,153,74,0.72821
1353040,-0.08500,95.0625,153,74,0.73822
1353050,-0.13000,94.0625,153,74,0.74628
1353060,-0.16000,91.9375,153,74,0.75702
1353070,-0.17500,90.8750,153,74,0.75995
1353080,-0.19000,89.8125,153,74,0.76117
1353090,-0.19500,88.7500,153,74,0.76093
1353100,-0.20000,86.8750,153,74,0.75629
1353110,-0.19000,86.0625,153,74,0.75189
1353120,-0.19000,85.2500,153,74,0.74652
1353130,-0.19500,84.5000,153,74,0.73993
1353140,-0.22000,83.0000,153,74,0.72161
1353150,-0.17000,82.3125,153,74,0.70940
1353160,0.18500,81.6875,153,74,0.69499
1353170,0.82500,81.0625,153,74,0.67521
1353180,1.01000,79.8125,153,74,0.63004
1353190,0.39500,79.1875,153,74,0.60830
1353200,-0.30000,78.5000,153,74,0.58706
1353210,-0.54000,77.8125,153,74,0.56899
1353220,-0.44500,76.3750,153,74,0.53675
1353230,-0.30500,75.6250,153,74,0.52161
1353240,-0.26500,74.9375,153,74,0.50769
1353250,-0.25000,74.2500,153,74,0.49524
1353260,-0.23000,72.9375,153,74,0.47399
1353270,-0.21000,72.3750,153,74,0.46471
1353280,-0.19000,71.7500,153,74,0.45568
1353290,-0.17000,71.1875,153,74,0.44713
1353300,-0.16000,70.4375,153,74,0.43126
1353310,-0.15500,70.4375,153,74,0.42491
1353320,-0.14000,71.0625,153,74,0.41758
1353330,-0.11500,72.9375,153,74,0.40977
1353340,-0.09000,83.6250,153,74,0.39414
1353350,-0.06500,92.5000,153,74,0.38632
1353360,-0.02500,102.6875,153,74,0.37875
1353370,0.01500,112.8750,153,74,0.37118
1353380,0.06000,130.0000,153,74,0.35726
1353390,0.10500,136.0000,153,74,0.35067
1353400,0.14000,140.3125,153,74,0.34432
1353410,0.16500,143.1875,153,74,0.33968
1353420,0.18000,146.3125,153,74,0.33114
1353430,0.19000,147.0625,153,74,0.32601
1353440,0.19500,147.5625,153,74,0.32088
1353450,0.18500,148.0000,153,74,0.31600
1353460,0.17500,148.4375,153,74,0.30598
1353470,0.15500,148.6250,153,74,0.30110
1353480,0.12500,148.6875,153,74,0.29621
1353490,0.07000,148.6875,153,74,0.29158
1353500,0.02000,148.3750,153,74,0.28376
1353510,-0.02500,148.0625,153,74,0.28132
1353520,-0.05000,147.6250,153,74,0.27790
1353530,-0.07000,147.0000,153,74,0.27399
1353540,-0.08500,145.0625,153,74,0.26520
1353550,-0.10000,143.6875,153,74,0.26105
1353560,-0.10500,141.9375,153,74,0.25812
1353570,-0.10500,139.7500,153,74,0.25739
1353580,-0.10500,133.6875,153,74,0.26935
1353590,-0.09500,129.5625,153,74,0.28474
1353600,-0.09500,124.6875,153,74,0.30720
1353610,-0.09000,119.3125,153,74,0.33187
1353620,-0.08000,109.0000,153,74,0.39390
1353630,-0.05500,105.1250,153,74,0.43199
1353640,-0.01000,102.3125,153,74,0.47131
1353650,0.03000,100.5000,153,74,0.50965
1353660,0.05000,98.7500,153,74,0.57875
1353670,0.08000,98.3125,153,74,0.60830
1353680,0.08500,97.9375,153,74,0.63394
1353690,0.07000,97.5000,153,74,0.65617
1353700,0.03500,96.3125,153,74,0.68864
1353710,-0.00500,95.6250,153,74,0.69866
1353720,-0.05500,94.7500,153,74,0.70818
1353730,-0.10500,93.8125,153,74,0.71648
1353740,-0.12500,91.7500,153,74,0.72869
1353750,-0.13500,90.7500,153,74,0.73236
1353760,-0.14000,89.7500,153,74,0.73480
1353770,-0.14500,88.7500,153,74,0.73578
1353780,-0.14000,87.0625,153,74,0.73358
1353790,-0.14500,86.2500,153,74,0.73065
1353800,-0.14500,85.5000,153,74,0.72625
1353810,-0.14000,84.7500,153,74,0.72063
1353820,-0.15500,83.2500,153,74,0.70476
1353830,-0.10000,82.5625,153,74,0.69426
1353840,0.23500,81.8125,153,74,0.68156
1353850,0.83000,81.0625,153,74,0.66642
1353860,0.98000,79.6250,153,74,0.63077
1353870,0.39500,78.8750,153,74,0.61099
1353880,-0.27000,78.0625,153,74,0.59072
1353890,-0.56000,77.3125,153,74,0.57094
1353900,-0.57000,75.8750,153,74,0.53626
1353910,-0.50000,75.1875,153,74,0.52259
1353920,-0.43000,74.5000,153,74,0.50916
1353930,-0.35000,73.8125,153,74,0.49646
1353940,-0.23000,72.5000,153,74,0.47448
1353950,-0.12500,71.8125,153,74,0.46471
1353960,-0.06000,71.1875,153,74,0.45543
1353970,0.02000,70.2500,153,74,0.43761
1353980,0.10000,69.9375,153,74,0.42906
1353990,0.26000,69.8750,153,74,0.42051
1354000,0.43500,70.3750,152,74,0.41197
1354010,0.38500,71.8750,152,74,0.40513
1354020,0.20500,81.0000,152,74,0.39219
1354030,0.12000,89.1250,152,74,0.38510
1354040,0.09500,98.7500,152,74,0.37802
1354050,0.10000,108.7500,152,74,0.37094
1354060,0.11500,126.0625,152,74,0.35751
1354070,0.13500,132.3750,152,74,0.35116
1354080,0.13500,137.0000,152,74,0.34505
1354090,0.10500,140.1875,152,74,0.33895
1354100,-0.01500,143.5000,152,74,0.32869
1354110,-0.09000,144.2500,152,74,0.32503
1354120,0.10000,144.6250,152,74,0.32039
1354130,0.37000,144.8125,152,74,0.31526
1354140,0.42000,144.9375,152,74,0.30476
1354150,0.32500,144.9375,152,74,0.29939
1354160,0.31000,144.8750,152,74,0.29426
1354170,0.40500,144.7500,152,74,0.28913
1354180,0.30500,144.2500,152,74,0.27937
1354190,-0.01500,143.8125,152,74,0.27473
1354200,-0.19500,143.3125,152,74,0.27155
1354210,-0.17000,142.6250,152,74,0.26911
1354220,-0.12500,140.5000,152,74,0.26129
1354230,-0.12500,139.0625,152,74,0.25714
1354240,-0.14500,137.2500,152,74,0.25372
1354250,-0.16000,134.9375,152,74,0.25201
1354260,-0.16000,128.0625,152,74,0.25983
1354270,-0.15000,123.4375,152,74,0.27228
1354280,-0.14500,118.3125,152,74,0.29182
1354290,-0.14000,113.0000,152,74,0.31819
1354300,-0.12500,104.0625,152,74,0.38193
1354310,-0.09500,101.1250,152,74,0.41343
1354320,-0.04500,99.1875,152,74,0.44957
1354330,0.00500,98.1250,152,74,0.48669
1354340,0.03000,97.1250,152,74,0.55629
1354350,0.05000,96.7500,152,74,0.58681
1354360,0.04000,96.3750,152,74,0.61368
1354370,0.00000,95.8750,152,74,0.63712
1354380,-0.04500,94.5000,152,74,0.67350
1354390,-0.06500,93.6875,152,74,0.68718
1354400,-0.07000,92.7500,152,74,0.69646
1354410,-0.09500,91.8125,152,74,0.70281
1354420,-0.12000,89.6875,152,74,0.71380
1354430,-0.11500,88.6250,152,74,0.71746
1354440,-0.11000,87.6250,152,74,0.71966
1354450,-0.10000,86.6875,152,74,0.72039
1354460,-0.09500,85.1250,152,74,0.71868
1354470,-0.09000,84.3750,152,74,0.71575
1354480,-0.09000,83.6250,152,74,0.71160
1354490,-0.09000,82.9375,152,74,0.70574
1354500,-0.10500,81.5625,152,74,0.68913
1354510,-0.08000,80.8750,152,74,0.67863
1354520,0.18500,80.2500,152,74,0.66569
1354530,0.74500,79.5625,152,74,0.65031
1354540,1.03500,78.2500,152,74,0.61416
1354550,0.58000,77.5625,152,74,0.59438
1354560,-0.11000,76.8750,152,74,0.57485
1354570,-0.41500,76.2500,152,74,0.55580
1354580,-0.38500,74.9375,152,74,0.52210
1354590,-0.26000,74.3125,152,74,0.50794
1354600,-0.17500,73.6875,152,74,0.49646
1354610,-0.13500,73.0625,152,74,0.48694
1354620,-0.08500,71.8750,152,74,0.46838
1354630,-0.05500,71.2500,152,74,0.45958
1354640,-0.02500,70.6250,152,74,0.45079
1354650,-0.01500,70.1250,152,74,0.44225
1354660,-0.03500,69.2500,152,74,0.42540
1354670,-0.05500,69.0625,152,74,0.41709
1354680,-0.06500,69.3750,152,74,0.40879
1354690,-0.06500,70.5625,152,74,0.40073
1354700,-0.06000,78.5000,152,74,0.38657
1354710,-0.04500,86.0000,152,74,0.38120
1354720,-0.01500,95.3125,152,74,0.37485
1354730,0.02000,105.1875,152,74,0.36825
1354740,0.05000,122.8125,152,74,0.35531
1354750,0.09000,129.5000,152,74,0.34921
1354760,0.12000,134.5625,152,74,0.34310
1354770,0.14000,138.1875,152,74,0.33748
1354780,0.14500,142.0625,152,74,0.32650
1354790,0.15500,143.0625,152,74,0.32137
1354800,0.15000,143.6250,152,74,0.31770
1354810,0.14500,143.8750,152,74,0.31477
1354820,0.13000,143.9375,152,74,0.30647
1354830,0.11500,143.8750,152,74,0.30208
1354840,0.08500,143.6875,152,74,0.29768
1354850,0.04500,143.5000,152,74,0.29328
1354860,0.00000,142.8125,152,74,0.28474
1354870,-0.04000,142.4375,152,74,0.28059
1354880,-0.08000,141.8750,152,74,0.27643
1354890,-0.11500,141.2500,152,74,0.27228
1354900,-0.14500,139.4375,152,74,0.26496
1354910,-0.16000,138.1250,152,74,0.26276
1354920,-0.16000,136.5000,152,74,0.26007
1354930,-0.16500,134.3125,152,74,0.25812
1354940,-0.17500,128.0000,152,74,0.26349
1354950,-0.19500,123.6875,152,74,0.27350
1354960,-0.20000,118.7500,152,74,0.29011
1354970,-0.20000,113.5625,152,74,0.31355
1354980,-0.21500,104.6250,152,74,0.37851
1354990,-0.18000,101.6250,152,74,0.41685
1355000,-0.10500,99.6250,151,73,0.45128
1355010,-0.03000,98.4375,151,73,0.48327
1355020,0.00500,97.3125,151,73,0.55116
1355030,0.03000,97.0000,151,73,0.58242
1355040,0.09500,96.5625,151,73,0.61050
1355050,0.16000,96.0000,151,73,0.63541
1355060,0.15500,94.5625,151,73,0.67473
1355070,0.10500,93.6875,151,73,0.68987
1355080,0.01500,92.7500,151,73,0.70208
1355090,-0.06500,91.6875,151,73,0.71160
1355100,-0.06500,89.6875,151,73,0.72283
1355110,-0.03500,88.6875,151,73,0.72479
1355120,-0.01000,87.8125,151,73,0.72625
1355130,-0.00500,86.8750,151,73,0.72698
1355140,-0.01500,85.2500,151,73,0.72527
1355150,0.02000,84.5000,151,73,0.72259
1355160,0.10500,83.8125,151,73,0.71868
1355170,0.17500,83.1875,151,73,0.71331
1355180,0.14000,81.8125,151,73,0.69744
1355190,0.15500,81.0625,151,73,0.68620
1355200,0.47500,80.3750,151,73,0.67399
1355210,0.99000,79.6250,151,73,0.66056
1355220,0.94000,78.1875,151,73,0.63223
1355230,0.26500,77.4375,151,73,0.61465
1355240,-0.30500,76.6875,151,73,0.59585
1355250,-0.49000,76.0000,151,73,0.57705
1355260,-0.41000,74.7500,151,73,0.54286
1355270,-0.27000,74.1875,151,73,0.52796
1355280,-0.21000,73.6875,151,73,0.51453
1355290,-0.19500,73.1250,151,73,0.50256
1355300,-0.20000,71.9375,151,73,0.48278
1355310,-0.20000,71.3750,151,73,0.47497
1355320,-0.19500,70.7500,151,73,0.46667
1355330,-0.18000,70.3125,151,73,0.45812
1355340,-0.17500,69.6875,151,73,0.44054
1355350,-0.16500,69.8125,151,73,0.43175
1355360,-0.15083,70.5000,151,73,0.42295
1355370,-0.13000,72.4375,151,73,0.41441
1355380,-0.10000,82.7500,151,73,0.39805
1355390,-0.07000,91.2500,151,73,0.39023
1355400,-0.03500,100.8750,151,73,0.38413
1355410,0.00000,110.5625,151,73,0.37875
1355420,0.03000,126.8125,151,73,0.36630
1355430,0.07000,132.6250,151,73,0.35995
1355440,0.10500,136.7500,151,73,0.35360
1355450,0.11500,139.5625,151,73,0.34725
1355460,0.12500,142.5625,151,73,0.33529
1355470,0.12500,143.2500,151,73,0.32967
1355480,0.12000,143.6250,151,73,0.32405
1355490,0.12000,144.0000,151,73,0.31893
1355500,0.11500,144.0000,151,73,0.31013
1355510,0.10000,143.8750,151,73,0.30720
1355520,0.07500,143.6875,151,73,0.30354
1355530,0.03000,143.4375,151,73,0.29939
1355540,-0.01000,142.6875,151,73,0.29060
1355550,-0.05500,142.2500,151,73,0.28620
1355560,-0.09000,141.6875,151,73,0.28181
1355570,-0.11500,140.9375,151,73,0.27766
1355580,-0.12000,139.0625,151,73,0.26911
1355590,-0.12500,137.6875,151,73,0.26545
1355600,-0.12500,136.0000,151,73,0.26398
1355610,-0.12500,133.6875,151,73,0.26471
1355620,-0.12500,127.0625,151,73,0.27473
1355630,-0.12000,122.6250,151,73,0.28791
1355640,-0.11500,117.5000,151,73,0.30769
1355650,-0.10000,112.2500,151,73,0.33431
1355660,-0.07500,103.5625,151,73,0.40391
1355670,-0.04500,100.7500,151,73,0.44322
1355680,-0.00500,98.8750,151,73,0.48303
1355690,0.03000,97.7500,151,73,0.52186
1355700,0.06500,96.6250,151,73,0.58755
1355710,0.09500,96.2500,151,73,0.61172
1355720,0.12000,95.7500,151,73,0.63565
1355730,0.11000,95.1250,151,73,0.65788
1355740,0.08000,93.4375,151,73,0.69402
1355750,0.03000,92.5000,151,73,0.70769
1355760,-0.01500,91.4375,151,73,0.71868
1355770,-0.06500,90.4375,151,73,0.72747
1355780,-0.10500,88.5000,151,73,0.73871
1355790,-0.13500,87.5625,151,73,0.74164
1355800,-0.15000,86.6250,151,73,0.74237
1355810,-0.16000,85.7500,151,73,0.74139
1355820,-0.16000,84.1250,151,73,0.73822
1355830,-0.16500,83.3750,151,73,0.73504
1355840,-0.16000,82.7500,151,73,0.73089
1355850,-0.15000,82.1250,151,73,0.72527
1355860,-0.15000,81.0625,151,73,0.70794
1355870,-0.14500,80.5000,151,73,0.69597
1355880,0.05000,79.8750,151,73,0.68156
1355890,0.57500,79.2500,151,73,0.66496
1355900,1.00500,78.0000,151,73,0.63199
1355910,0.68500,77.3125,151,73,0.61319
1355920,-0.02000,76.6250,151,73,0.59365
1355930,-0.40500,75.9375,151,73,0.57460
1355940,-0.45000,74.5000,151,73,0.53993
1355950,-0.32500,73.8750,151,73,0.52503
1355960,-0.23000,73.1875,151,73,0.51160
1355970,-0.21500,72.5625,151,73,0.49939
1355980,-0.20500,71.2500,151,73,0.47790
1355990,-0.19000,70.5000,151,73,0.46789
1356000,-0.17000,69.8125,151,73,0.45934
1356010,-0.15000,69.2500,151,73,0.45177
1356020,-0.13500,68.6875,151,73,0.43443
1356030,-0.12500,68.7500,151,73,0.42540
1356040,-0.11500,69.2500,151,73,0.41661
1356050,-0.09500,70.6250,151,73,0.40781
1356060,-0.08000,79.1875,151,73,0.39121
1356070,-0.05500,86.8750,151,73,0.38339
1356080,-0.02500,96.1250,151,73,0.37607
1356090,0.00000,105.7500,151,73,0.36923
1356100,0.03000,122.9375,151,73,0.35971
1356110,0.07000,129.5000,151,73,0.35458
1356120,0.11000,134.5000,151,73,0.34945
1356130,0.14000,138.1250,151,73,0.34408
1356140,0.15500,142.4375,151,73,0.33358
1356150,0.16000,143.6250,151,73,0.32845
1356160,0.16500,144.4375,151,73,0.32332
1356170,0.15500,144.9375,151,73,0.31844
1356180,0.14500,145.5000,151,73,0.30891
1356190,0.14000,145.5625,151,73,0.30403
1356200,0.12000,145.6250,151,73,0.30061
1356210,0.08000,145.5625,151,73,0.29792
1356220,0.03000,145.1875,151,73,0.28987
1356230,-0.02500,144.8125,151,73,0.28547
1356240,-0.07000,144.2500,151,73,0.28107
1356250,-0.09500,143.6250,151,73,0.27643
1356260,-0.10500,141.8750,151,73,0.26716
1356270,-0.11500,140.7500,151,73,0.26276
1356280,-0.12000,139.3125,151,73,0.25934
1356290,-0.13000,137.4375,151,73,0.25788
1356300,-0.14000,132.1250,151,73,0.26447
1356310,-0.15500,128.3750,151,73,0.27448
1356320,-0.14500,123.8125,151,73,0.29060
1356330,-0.11000,118.6875,151,73,0.31380
1356340,-0.09500,108.2500,151,73,0.37875
1356350,-0.08500,104.1875,151,73,0.41734
1356360,-0.05000,101.3750,151,73,0.45763
1356370,-0.01000,99.5000,151,73,0.49792
1356380,0.02000,97.7500,151,73,0.57265
1356390,0.05500,97.3750,151,73,0.60537
1356400,0.09000,97.0000,151,73,0.63101
1356410,0.10500,96.5625,151,73,0.65153
1356420,0.10000,95.4375,151,73,0.69035
1356430,0.06000,94.6875,151,73,0.70647
1356440,0.01000,93.8750,151,73,0.72015
1356450,-0.06000,92.9375,151,73,0.73138
1356460,-0.10000,91.0000,151,73,0.74676
1356470,-0.13000,90.0625,151,73,0.75140
1356480,-0.14500,89.1250,151,73,0.75433
1356490,-0.14000,88.2500,151,73,0.75580
1356500,-0.14500,86.6875,151,73,0.75263
1356510,-0.16000,85.9375,151,73,0.75018
1356520,-0.16000,85.2500,151,73,0.74676
1356530,-0.16000,84.6250,151,73,0.74212
1356540,-0.20000,83.1875,151,73,0.72845
1356550,-0.20500,82.5000,151,73,0.71868
1356560,0.07000,81.7500,151,73,0.70647
1356570,0.61000,81.0625,151,73,0.69206
1356580,1.07500,79.6250,151,73,0.65641
1356590,0.84500,78.9375,151,73,0.63639
1356600,0.10000,78.1875,151,73,0.61783
1356610,-0.38500,77.5000,151,73,0.60049
1356620,-0.50500,76.0625,151,73,0.56410
1356630,-0.40500,75.3125,151,73,0.54725
1356640,-0.29000,74.6875,151,73,0.53187
1356650,-0.26000,74.0625,151,73,0.51819
1356660,-0.25000,72.8750,151,73,0.49499
1356670,-0.24000,72.3125,151,73,0.48498
1356680,-0.23000,71.7500,151,73,0.47546
1356690,-0.22500,71.2500,151,73,0.46618
1356700,-0.21000,70.6250,151,73,0.45128
1356710,-0.19500,70.6250,151,73,0.44347
1356720,-0.18500,71.0625,151,73,0.43541
1356730,-0.17500,72.3125,151,73,0.42711
1356740,-0.15500,80.2500,151,73,0.41099
1356750,-0.12000,87.6875,151,73,0.40317
1356760,-0.08500,96.8750,151,73,0.39585
1356770,-0.05500,106.6875,151,73,0.38877
1356780,-0.01500,124.3750,151,73,0.37534
1356790,0.02500,131.1875,151,73,0.36899
1356800,0.07000,136.3750,151,73,0.36386
1356810,0.10000,140.0625,151,73,0.35946
1356820,0.12000,144.3125,151,73,0.34896
1356830,0.12000,145.5000,151,73,0.34335
1356840,0.12000,146.2500,151,73,0.33748
1356850,0.11000,146.8125,151,73,0.33162
1356860,0.10000,147.5625,151,73,0.32039
1356870,0.09000,147.8125,151,73,0.31477
1356880,0.07000,147.9375,151,73,0.30940
1356890,0.02500,147.8750,151,73,0.30403
1356900,-0.02500,147.4375,151,73,0.29744
1356910,-0.09500,147.0625,151,73,0.29353
1356920,-0.12500,146.5625,151,73,0.28938
1356930,-0.15500,145.8750,151,73,0.28498
1356940,-0.17000,144.1250,151,73,0.27595
1356950,-0.18000,143.0000,151,73,0.27155
1356960,-0.17500,141.6250,151,73,0.26789
1356970,-0.18000,139.9375,151,73,0.26593
1356980,-0.18000,135.1250,151,73,0.27228
1356990,-0.19000,131.7500,151,73,0.28352
1357000,-0.19000,127.5625,151,73,0.29841
1357010,-0.18500,122.7500,151,73,0.31770
1357020,-0.17000,112.5625,151,73,0.37778
1357030,-0.15500,108.2500,151,73,0.41514
1357040,-0.13000,104.8750,151,73,0.45446
1357050,-0.10000,102.5625,151,73,0.49402
1357060,-0.05500,100.1875,151,73,0.56801
1357070,-0.01000,99.6875,151,73,0.60049
1357080,0.02000,99.2500,151,73,0.62955
1357090,0.04500,98.8750,151,73,0.65495
1357100,0.05500,97.8125,151,73,0.68864
1357110,0.04500,97.0625,151,73,0.70281
1357120,0.01500,96.2500,151,73,0.71551
1357130,-0.03500,95.3750,151,73,0.72625
1357140,-0.08500,93.3750,151,73,0.74188
1357150,-0.13000,92.3750,151,73,0.74676
1357160,-0.15500,91.3750,151,73,0.74994
1357170,-0.17000,90.4375,151,73,0.75165
1357180,-0.17500,88.7500,151,73,0.75092
1357190,-0.18000,88.0625,151,73,0.74872
1357200,-0.17000,87.3750,151,73,0.74505
1357210,-0.17000,86.1250,151,73,0.73993
1357220,-0.16000,85.4375,151,73,0.72698
1357230,-0.16000,84.7500,151,73,0.71819
1357240,-0.17500,84.0625,151,73,0.70745
1357250,-0.06500,83.3125,151,73,0.69451
1357260,0.35000,81.8750,151,73,0.66056
1357270,0.93000,81.1250,151,73,0.63932
1357280,0.95500,80.3125,151,73,0.61856
1357290,0.25500,79.5000,151,73,0.59829
1357300,-0.32500,77.8750,151,73,0.56484
1357310,-0.47000,77.1250,151,73,0.54896
1357320,-0.38000,76.4375,151,73,0.53358
1357330,-0.27000,75.7500,151,73,0.51966
1357340,-0.24000,74.5000,151,73,0.49524
1357350,-0.24000,73.9375,151,73,0.48474
1357360,-0.23000,73.3750,151,73,0.47497
1357370,-0.22500,72.8750,151,73,0.46569
1357380,-0.22000,71.9375,151,73,0.44811
1357390,-0.22500,71.5625,151,73,0.43956
1357400,-0.23000,71.4375,151,73,0.43223
1357410,-0.22000,71.5625,151,73,0.42564
1357420,-0.20000,74.6250,151,73,0.41074
1357430,-0.18000,79.1875,151,73,0.40342
1357440,-0.15500,86.3750,151,73,0.39609
1357450,-0.12500,95.8125,151,73,0.38901
1357460,-0.09000,116.3750,151,73,0.37582
1357470,-0.05000,125.3750,151,73,0.36947
1357480,-0.00500,132.7500,151,73,0.36337
1357490,0.03000,138.3125,151,73,0.35751
1357500,0.06000,145.1250,151,73,0.34896
1357510,0.08000,147.0000,151,73,0.34408
1357520,0.10000,148.3125,151,73,0.33871
1357530,0.11000,149.1875,151,73,0.33333
1357540,0.11000,150.5000,151,73,0.32210
1357550,0.10500,150.9375,151,73,0.31624
1357560,0.09500,151.3125,151,73,0.31062
1357570,0.07500,151.6250,151,73,0.30501
1357580,0.03500,151.9375,151,73,0.29451
1357590,-0.01500,151.9375,151,73,0.28938
1357600,-0.07000,151.8125,151,73,0.28596
1357610,-0.11500,151.5625,151,73,0.28327
1357620,-0.15000,150.5625,151,73,0.27595
1357630,-0.17000,149.7500,151,73,0.27179
1357640,-0.18500,148.8125,151,73,0.26764
1357650,-0.19500,147.6250,151,73,0.26398
1357660,-0.20000,144.2500,151,73,0.26154
1357670,-0.20500,141.8750,151,73,0.26545
1357680,-0.20500,138.7500,151,73,0.27497
1357690,-0.20000,134.9375,151,73,0.29084
1357700,-0.18500,125.2500,151,73,0.33309
1357710,-0.17500,119.8750,151,73,0.36386
1357720,-0.16500,114.8125,151,73,0.39976
1357730,-0.15000,110.6875,151,73,0.43834
1357740,-0.12000,105.7500,151,73,0.51624
1357750,-0.08500,104.6250,151,73,0.55238
1357760,-0.04500,104.0625,151,73,0.58535
1357770,-0.01500,103.6875,151,73,0.61490
1357780,0.01000,102.8750,151,73,0.66349
1357790,0.01000,102.2500,151,73,0.68010
1357800,-0.01500,101.3750,151,73,0.69280
1357810,-0.05500,100.4375,151,73,0.70525
1357820,-0.10500,98.3750,151,73,0.72576
1357830,-0.16000,97.3125,151,73,0.73333
1357840,-0.19500,96.2500,151,73,0.73944
1357850,-0.21500,95.2500,151,73,0.74383
1357860,-0.22500,93.4375,151,73,0.74823
1357870,-0.23500,92.6250,151,73,0.74847
1357880,-0.23500,91.8750,151,73,0.74750
1357890,-0.23000,91.1875,151,73,0.74505
1357900,-0.22500,89.8125,151,73,0.73602
1357910,-0.23000,89.1250,151,73,0.72991
1357920,-0.25000,88.4375,151,73,0.72234
1357930,-0.21000,87.0625,151,73,0.71306
1357940,0.10000,86.3750,151,73,0.68840
1357950,0.72500,85.6875,151,73,0.67277
1357960,1.02500,85.0625,151,73,0.65519
1357970,0.46500,84.3125,151,73,0.63639
1357980,-0.26000,82.8750,151,73,0.59756
1357990,-0.53000,82.0625,151,73,0.58071
1358000,-0.48000,81.3125,150,72,0.56581
1358010,-0.35500,80.4375,150,72,0.55092
1358020,-0.30000,78.8125,150,72,0.52405
1358030,-0.29500,78.0000,150,72,0.51209
1358040,-0.28000,77.1875,150,72,0.50110
1358050,-0.27500,76.4375,150,72,0.49084
1358060,-0.26000,75.1250,150,72,0.47155
1358070,-0.24000,74.6250,150,72,0.46203
1358080,-0.22500,74.1875,150,72,0.45299
1358090,-0.22000,74.0625,150,72,0.44396
1358100,-0.21000,75.9375,150,72,0.42955
1358110,-0.19000,79.3125,150,72,0.42222
1358120,-0.16000,85.2500,150,72,0.41465
1358130,-0.13500,93.6250,150,72,0.40708
1358140,-0.09500,113.8750,150,72,0.39267
1358150,-0.05500,123.5625,150,72,0.38584
1358160,-0.01000,131.8750,150,72,0.37924
1358170,0.02500,138.5000,150,72,0.37314
1358180,0.06500,146.8750,150,72,0.36142
1358190,0.10000,149.1875,150,72,0.35702
1358200,0.13500,150.8125,150,72,0.35336
1358210,0.14500,151.8750,150,72,0.34872
1358220,0.14500,153.2500,150,72,0.33871
1358230,0.14000,153.6875,150,72,0.33358
1358240,0.13000,154.0625,150,72,0.32845
1358250,0.11000,154.3750,150,72,0.32308
1358260,0.07500,154.8125,150,72,0.31233
1358270,0.02000,154.8750,150,72,0.30696
1358280,-0.03500,154.7500,150,72,0.30159
1358290,-0.08500,154.5625,150,72,0.29621
1358300,-0.11500,153.6875,150,72,0.28938
1358310,-0.13500,153.0000,150,72,0.28498
1358320,-0.14500,152.1250,150,72,0.28010
1358330,-0.15500,151.0000,150,72,0.27521
1358340,-0.15500,147.8125,150,72,0.26813
1358350,-0.16000,145.5625,150,72,0.26862
1358360,-0.16000,142.6250,150,72,0.27350
1358370,-0.15500,138.8750,150,72,0.28449
1358380,-0.14500,129.1875,150,72,0.32698
1358390,-0.13500,123.6250,150,72,0.35311
1358400,-0.11500,118.2500,150,72,0.38120
1358410,-0.08500,113.5625,150,72,0.41514
1358420,-0.04500,107.5000,150,72,0.48816
1358430,0.00000,105.9375,150,72,0.52332
1358440,0.02500,105.0625,150,72,0.55604
1358450,0.05500,104.5000,150,72,0.58584
1358460,0.07000,103.6875,150,72,0.63516
1358470,0.06000,103.1875,150,72,0.65519
1358480,0.03500,102.6250,150,72,0.67228
1358490,-0.00500,101.9375,150,72,0.68669
1358500,-0.06000,100.3750,150,72,0.70379
1358510,-0.10000,99.4375,150,72,0.71087
1358520,-0.12000,98.5000,150,72,0.71697
1358530,-0.13000,97.5625,150,72,0.72186
1358540,-0.13500,95.5625,150,72,0.72796
1358550,-0.14500,94.5625,150,72,0.72918
1358560,-0.14500,93.6250,150,72,0.72918
1358570,-0.14500,92.8125,150,72,0.72772
1358580,-0.13500,91.1250,150,72,0.72137
1358590,-0.13500,90.3125,150,72,0.71600
1358600,-0.14500,89.5000,150,72,0.70916
1358610,0.01000,88.6875,150,72,0.70061
1358620,0.50000,87.1250,150,72,0.67790
1358630,1.02000,86.3750,150,72,0.66325
1358640,0.84500,85.6875,150,72,0.64664
1358650,0.10000,84.9375,150,72,0.62833
1358660,-0.36500,83.5000,150,72,0.58950
1358670,-0.42500,82.7500,150,72,0.57045
1358680,-0.30500,82.0625,150,72,0.55238
1358690,-0.21000,81.3125,150,72,0.53578
1358700,-0.18500,79.8750,150,72,0.51087
1358710,-0.17500,79.1875,150,72,0.49963
1358720,-0.16500,78.5000,150,72,0.48889
1358730,-0.16000,77.8125,150,72,0.47912
1358740,-0.14500,76.5000,150,72,0.46105
1358750,-0.13500,76.0000,150,72,0.45250
1358760,-0.12500,75.7500,150,72,0.44396
1358770,-0.11000,75.8125,150,72,0.43565
1358780,-0.09500,78.8125,150,72,0.41954
1358790,-0.07500,83.0625,150,72,0.41294
1358800,-0.04500,89.8750,150,72,0.40708
1358810,-0.01500,98.7500,150,72,0.40024
1358820,0.01500,118.6250,150,72,0.38608
1358830,0.06000,127.5625,150,72,0.37924
1358840,0.11000,135.0625,150,72,0.37241
1358850,0.14500,140.8750,150,72,0.36581
1358860,0.17500,148.0625,150,72,0.35287
1358870,0.19000,150.0625,150,72,0.34676
1358880,0.20000,151.3750,150,72,0.34090
1358890,0.20500,152.2500,150,72,0.33504
1358900,0.20000,153.1875,150,72,0.32698
1358910,0.19000,153.5000,150,72,0.32259
1358920,0.17500,153.6875,150,72,0.31795
1358930,0.14500,153.7500,150,72,0.31306
1358940,0.10500,153.6875,150,72,0.30354
1358950,0.05500,153.6250,150,72,0.29890
1358960,0.00500,153.4375,150,72,0.29426
1358970,-0.03500,153.1250,150,72,0.28962
1358980,-0.06500,152.1250,150,72,0.28034
1358990,-0.08000,151.3750,150,72,0.27692
1359000,-0.09000,150.3125,148,72,0.27399
1359010,-0.10000,149.0000,148,72,0.27033
1359020,-0.10500,144.8750,148,72,0.26569
1359030,-0.11500,141.8750,148,72,0.26740
1359040,-0.11000,138.1875,148,72,0.27424
1359050,-0.10500,133.6250,148,72,0.28694
1359060,-0.09500,122.6875,148,72,0.33187
1359070,-0.08500,117.3125,148,72,0.36288
1359080,-0.05000,112.7500,148,72,0.39756
1359090,-0.01000,109.3125,148,72,0.43370
1359100,0.03500,105.7500,148,72,0.49377
1359110,0.07000,105.0000,148,72,0.52357
1359120,0.10500,104.5625,148,72,0.55238
1359130,0.12000,104.1875,148,72,0.57875
1359140,0.12000,103.3750,148,72,0.62344
1359150,0.09000,102.8750,148,72,0.64151
1359160,0.03500,102.2500,148,72,0.65714
1359170,-0.02500,101.6250,148,72,0.67009
1359180,-0.07500,100.0625,148,72,0.68962
1359190,-0.10000,99.1250,148,72,0.69524
1359200,-0.11500,98.1875,148,72,0.69866
1359210,-0.11500,97.2500,148,72,0.70183
1359220,-0.11500,95.5000,148,72,0.70623
1359230,-0.11500,94.6250,148,72,0.70696
1359240,-0.12000,93.7500,148,72,0.70647
1359250,-0.12000,92.8125,148,72,0.70476
1359260,-0.12500,90.8750,148,72,0.69744
1359270,-0.14000,89.8750,148,72,0.69109
1359280,-0.04500,88.9375,148,72,0.68278
1359290,0.35000,87.9375,148,72,0.67204
1359300,0.93500,86.1250,148,72,0.64786
1359310,0.94500,85.3125,148,72,0.63175
1359320,0.29500,84.5000,148,72,0.61294
1359330,-0.26000,83.7500,148,72,0.59341
1359340,-0.43000,82.3125,148,72,0.55482
1359350,-0.33500,81.7500,148,72,0.53700
1359360,-0.21000,81.1875,148,72,0.52063
1359370,-0.16500,80.6875,148,72,0.50623
1359380,-0.15500,79.6250,148,72,0.48230
1359390,-0.14500,79.1250,148,72,0.47350
1359400,-0.14000,78.6250,148,72,0.46618
1359410,-0.13500,78.1250,148,72,0.45861
1359420,-0.12000,77.3125,148,72,0.44322
1359430,-0.09500,77.0625,148,72,0.43565
1359440,-0.08500,77.1250,148,72,0.42833
1359450,-0.08000,77.7500,148,72,0.42100
1359460,-0.06500,83.3750,148,72,0.40635
1359470,-0.04500,89.6250,148,72,0.39927
1359480,-0.01500,98.0625,148,72,0.39243
1359490,0.02000,107.7500,148,72,0.38681
1359500,0.06000,126.6875,148,72,0.37607
1359510,0.10000,134.3750,148,72,0.36972
1359520,0.13500,140.4375,148,72,0.36288
1359530,0.15500,145.0000,148,72,0.35604
1359540,0.17500,150.1875,148,72,0.34237
1359550,0.18500,151.5625,148,72,0.33578
1359560,0.19000,152.4375,148,72,0.32918
1359570,0.19000,153.0000,148,72,0.32283
1359580,0.19000,153.6250,148,72,0.31111
1359590,0.18000,153.8125,148,72,0.30696
1359600,0.16000,153.9375,148,72,0.30379
1359610,0.12500,153.9375,148,72,0.29988
1359620,0.07000,153.8125,148,72,0.29158
1359630,0.02000,153.5625,148,72,0.28767
1359640,-0.02500,153.1875,148,72,0.28376
1359650,-0.05500,152.6875,148,72,0.28010
1359660,-0.07000,151.2500,148,72,0.27277
1359670,-0.08500,150.2500,148,72,0.26911
1359680,-0.09500,148.8750,148,72,0.26593
1359690,-0.11000,147.1250,148,72,0.26447
1359700,-0.11500,141.8750,148,72,0.26740
1359710,-0.11500,138.0625,148,72,0.27375
1359720,-0.11500,133.3750,148,72,0.28547
1359730,-0.10500,128.0625,148,72,0.30305
1359740,-0.09000,117.5000,148,72,0.35629
1359750,-0.05500,113.3750,148,72,0.38974
1359760,-0.00500,110.4375,148,72,0.42515
1359770,0.03000,108.6250,148,72,0.46081
1359780,0.07000,106.8750,148,72,0.52796
1359790,0.11000,106.4375,148,72,0.55409
1359800,0.12500,106.0000,148,72,0.57582
1359810,0.10500,105.5000,148,72,0.59756
1359820,0.06500,104.2500,148,72,0.63590
1359830,0.01500,103.5000,148,72,0.65153
1359840,-0.03500,102.6250,148,72,0.66496
1359850,-0.08500,101.6875,148,72,0.67595
1359860,-0.11500,99.6875,148,72,0.69255
1359870,-0.13000,98.6875,148,72,0.69817
1359880,-0.13500,97.6875,148,72,0.70232
1359890,-0.13500,96.7500,148,72,0.70403
1359900,-0.13500,95.0625,148,72,0.70403
1359910,-0.12500,94.2500,148,72,0.70330
1359920,-0.11500,93.4375,148,72,0.70159
1359930,-0.12500,92.6875,148,72,0.69866
1359940,-0.10000,91.1250,148,72,0.68816
1359950,0.17500,90.4375,148,72,0.68010
1359960,0.17500,90.4375,148,72,0.68010
1359970,0.17500,90.4375,148,72,0.68010
1359980,0.17500,90.4375,148,72,0.68010
1359990,0.01000,87.3750,148,72,0.62540
1360000,-0.36000,86.5000,148,72,0.60904
1360010,-0.41000,85.5625,148,72,0.59316
1360020,-0.29000,83.7500,148,72,0.55849
1360030,-0.19000,82.8750,148,72,0.54212
1360040,-0.17000,82.0625,148,72,0.52723
1360050,-0.16000,81.1875,148,72,0.51380
1360060,-0.15500,79.6250,148,72,0.49133
1360070,-0.14500,78.8125,148,72,0.48181
1360080,-0.14000,78.1250,148,72,0.47302
1360090,-0.12500,77.5000,148,72,0.46471
1360100,-0.11500,76.7500,148,72,0.45104
1360110,-0.10000,76.8125,148,72,0.44371
1360120,-0.08500,77.4375,148,72,0.43614
1360130,-0.05500,79.3750,148,72,0.42857
1360140,-0.03000,89.6875,148,72,0.41368
1360150,0.00000,98.3750,148,72,0.40659
1360160,0.04000,108.3125,148,72,0.39951
1360170,0.08000,118.3750,148,72,0.39267
1360180,0.12000,135.3125,148,72,0.37973
1360190,0.15500,141.4375,148,72,0.37363
1360200,0.17500,146.0000,148,72,0.36874
1360210,0.19000,149.1250,148,72,0.36459
1360220,0.19500,152.6875,148,72,0.35482
1360230,0.19500,153.5625,148,72,0.34945
1360240,0.19000,154.0625,148,72,0.34408
1360250,0.18500,154.3750,148,72,0.33871
1360260,0.16500,154.5000,148,72,0.32747
1360270,0.14000,154.4375,148,72,0.32161
1360280,0.09000,154.3125,148,72,0.31575
1360290,0.04000,154.1875,148,72,0.30989
1360300,-0.00500,153.6250,148,72,0.30183
1360310,-0.04000,153.2500,148,72,0.29719
1360320,-0.06000,152.7500,148,72,0.29206
1360330,-0.07500,152.1250,148,72,0.28669
1360340,-0.09000,150.3125,148,72,0.27595
1360350,-0.10500,149.0000,148,72,0.27106
1360360,-0.11500,147.3125,148,72,0.26716
1360370,-0.11500,145.0000,148,72,0.26569
1360380,-0.10500,138.0625,148,72,0.27448
1360390,-0.09500,133.3750,148,72,0.28767
1360400,-0.08500,127.9375,148,72,0.30403
1360410,-0.07500,122.2500,148,72,0.32430
1360420,-0.05500,112.3750,148,72,0.38388
1360430,-0.01000,109.2500,148,72,0.41905
1360440,0.04000,107.3125,148,72,0.45495
1360450,0.07000,106.3125,148,72,0.49011
1360460,0.10000,105.4375,148,72,0.55263
1360470,0.13000,105.1250,148,72,0.57924
1360480,0.12500,104.6875,148,72,0.60269
1360490,0.09000,104.1250,148,72,0.62295
1360500,0.05000,102.6875,148,72,0.64982
1360510,0.00000,101.8125,148,72,0.66105
1360520,-0.04500,100.8125,148,72,0.67131
1360530,-0.08500,99.7500,148,72,0.67985
1360540,-0.10500,97.6250,148,72,0.69255
1360550,-0.11500,96.6875,148,72,0.69646
1360560,-0.12000,95.7500,148,72,0.69915
1360570,-0.12500,94.8125,148,72,0.70061
1360580,-0.12500,93.3125,148,72,0.70012
1360590,-0.11500,92.5625,148,72,0.69817
1360600,-0.11500,91.8750,148,72,0.69451
1360610,-0.12000,91.1250,148,72,0.68962
1360620,0.00000,89.5000,148,72,0.67570
1360630,0.41500,88.6875,148,72,0.66569
1360640,0.95000,87.8750,148,72,0.65299
1360650,0.90000,86.3125,148,72,0.63810
1360660,0.24000,85.5625,148,72,0.60244
1360670,-0.27500,84.8125,148,72,0.58315
1360680,-0.42000,84.0625,148,72,0.56410
1360690,-0.33000,83.3125,148,72,0.54579
1360700,-0.21000,81.9375,148,72,0.51770
1360710,-0.17000,81.3125,148,72,0.50501
1360720,-0.16000,80.6875,148,72,0.49328
1360730,-0.15000,80.0625,148,72,0.48278
1360740,-0.14500,78.8125,148,72,0.46447
1360750,-0.14000,78.2500,148,72,0.45592
1360760,-0.13000,77.6875,148,72,0.44762
1360770,-0.11500,77.3125,148,72,0.43932
1360780,-0.11000,77.1250,148,72,0.42344
1360790,-0.09500,77.8750,148,72,0.41563
1360800,-0.07500,79.8125,148,72,0.40904
1360810,-0.05500,83.7500,148,72,0.40317
1360820,-0.03000,98.8125,148,72,0.38999
1360830,0.00500,108.6875,148,72,0.38339
1360840,0.04000,118.6875,148,72,0.37705
1360850,0.08500,127.8750,148,72,0.37070
1360860,0.12500,142.0000,148,72,0.35849
1360870,0.15500,146.6875,148,72,0.35263
1360880,0.17500,150.1250,148,72,0.34676
1360890,0.18500,152.5000,148,72,0.34090
1360900,0.19000,155.1250,148,72,0.33284
1360910,0.19000,155.8125,148,72,0.32845
1360920,0.18000,156.3125,148,72,0.32357
1360930,0.16500,156.6250,148,72,0.31844
1360940,0.14000,156.9375,148,72,0.30867
1360950,0.10000,157.0625,148,72,0.30403
1360960,0.04500,157.0625,148,72,0.29939
1360970,-0.00500,157.0000,148,72,0.29499
1360980,-0.04500,156.6250,148,72,0.28669
1360990,-0.06500,156.2500,148,72,0.28278
1361000,-0.08000,155.6875,149,72,0.27985
1361010,-0.09500,155.0000,149,72,0.27766
1361020,-0.10500,152.8125,149,72,0.27057
1361030,-0.11500,151.1875,149,72,0.26740
1361040,-0.12000,149.1250,149,72,0.26618
1361050,-0.11500,146.5000,149,72,0.26813
1361060,-0.11000,138.9375,149,72,0.28718
1361070,-0.10500,133.9375,149,72,0.30598
1361080,-0.10000,128.3750,149,72,0.33138
1361090,-0.08000,122.8125,149,72,0.36215
1361100,-0.04500,113.7500,149,72,0.42149
1361110,0.00000,110.8750,149,72,0.45519
1361120,0.03000,109.0625,149,72,0.48962
1361130,0.06500,107.9375,149,72,0.52283
1361140,0.10000,106.8125,149,72,0.58144
1361150,0.10500,106.3125,149,72,0.60611
1361160,0.08000,105.8125,149,72,0.62784
1361170,0.04000,105.1875,149,72,0.64640
1361180,-0.00500,103.6250,149,72,0.67570
1361190,-0.05500,102.6875,149,72,0.68694
1361200,-0.09500,101.7500,149,72,0.69451
1361210,-0.12000,100.7500,149,72,0.69963
1361220,-0.13500,98.8125,149,72,0.70867
1361230,-0.14000,97.8750,149,72,0.71184
1361240,-0.14500,97.0000,149,72,0.71380
1361250,-0.14500,96.1875,149,72,0.71477
1361260,-0.14000,94.5625,149,72,0.71306
1361270,-0.13500,93.7500,149,72,0.71038
1361280,-0.15000,92.8750,149,72,0.70647
1361290,-0.10500,91.9375,149,72,0.70085
1361300,0.21500,89.9375,149,72,0.68523
1361310,0.78500,89.0000,149,72,0.67424
1361320,0.96000,88.0625,149,72,0.66105
1361330,0.43000,87.1875,149,72,0.64542
1361340,-0.19000,85.4375,149,72,0.60952
1361350,-0.45000,84.6250,149,72,0.59023
1361360,-0.41000,83.8750,149,72,0.57118
1361370,-0.27500,83.1250,149,72,0.55678
1361380,-0.21000,81.8750,149,72,0.53211
1361390,-0.20000,81.3125,149,72,0.52039
1361400,-0.19000,80.7500,149,72,0.51013
1361410,-0.18000,80.1875,149,72,0.49963
1361420,-0.17500,79.2500,149,72,0.47961
1361430,-0.16000,78.8125,149,72,0.47009
1361440,-0.15500,78.5000,149,72,0.46081
1361450,-0.14000,78.2500,149,72,0.45177
1361460,-0.13500,78.9375,149,72,0.43419
1361470,-0.12000,80.6875,149,72,0.42540
1361480,-0.10500,84.3750,149,72,0.41685
1361490,-0.07500,90.5000,149,72,0.40879
1361500,-0.04000,108.5625,149,72,0.39634
1361510,0.00000,118.4375,149,72,0.38950
1361520,0.04500,127.6250,149,72,0.38242
1361530,0.09000,135.5000,149,72,0.37534
1361540,0.12000,146.6875,149,72,0.36117
1361550,0.14500,150.1875,149,72,0.35409
1361560,0.15500,152.6250,149,72,0.34701
1361570,0.16500,154.2500,149,72,0.33993
1361580,0.16500,156.1875,149,72,0.32625
1361590,0.16500,156.6875,149,72,0.32088
1361600,0.16000,157.0625,149,72,0.31648
1361610,0.14000,157.3125,149,72,0.31111
1361620,0.09000,157.6250,149,72,0.29963
1361630,0.04000,157.6875,149,72,0.29402
1361640,-0.01500,157.6875,149,72,0.28889
1361650,-0.06500,157.6250,149,72,0.28400
1361660,-0.09500,157.0000,149,72,0.27497
1361670,-0.11000,156.4375,149,72,0.27082
1361680,-0.12500,155.6250,149,72,0.26667
1361690,-0.13000,154.6250,149,72,0.26276
1361700,-0.14000,151.8125,149,72,0.25910
1361710,-0.14500,149.8750,149,72,0.25836
1361720,-0.14500,147.4375,149,72,0.26007
1361730,-0.14500,144.3750,149,72,0.26618
1361740,-0.14000,135.6875,149,72,0.29719
1361750,-0.13500,130.3125,149,72,0.32283
1361760,-0.12500,124.5625,149,72,0.35482
1361770,-0.10000,114.7500,149,72,0.39121
1361780,-0.06000,111.5000,149,72,0.46960
1361790,-0.00500,109.3750,149,72,0.50330
1361800,0.03000,108.1250,149,72,0.53284
1361810,0.06000,107.4375,149,72,0.56361
1361820,0.07500,106.5625,149,72,0.61954
1361830,0.08000,106.1250,149,72,0.64347
1361840,0.07000,105.6250,149,72,0.66447
1361850,0.03500,104.9375,149,72,0.68254
1361860,-0.02500,103.0000,149,72,0.71062
1361870,-0.09500,101.8125,149,72,0.72112
1361880,-0.14000,100.5000,149,72,0.72967
1361890,-0.16500,99.1250,149,72,0.73626
1361900,-0.17500,96.4375,149,72,0.74164
1361910,-0.18000,95.1250,149,72,0.74310
1361920,-0.18000,94.0000,149,72,0.74408
1361930,-0.17500,93.0625,149,72,0.74383
1361940,-0.17000,91.6250,149,72,0.74017
1361950,-0.16000,91.0625,149,72,0.73626
1361960,-0.16500,90.5625,149,72,0.73065
1361970,-0.16000,90.0000,149,72,0.72332
1361980,0.06000,89.0000,149,72,0.70159
1361990,0.58500,88.5000,149,72,0.68864
1362000,1.02000,88.0000,149,72,0.67424
1362010,0.73500,87.5000,149,72,0.65665
1362020,0.00500,86.1875,149,72,0.61587
1362030,-0.41000,85.4375,149,72,0.59463
1362040,-0.43500,84.6875,149,72,0.57411
1362050,-0.30500,83.8750,149,72,0.55507
1362060,-0.22000,82.2500,149,72,0.52210
1362070,-0.21000,81.5000,149,72,0.50842
1362080,-0.20000,80.6875,149,72,0.49621
1362090,-0.20000,79.8750,149,72,0.48547
1362100,-0.20000,78.3125,149,72,0.46838
1362110,-0.19000,77.6250,149,72,0.45958
1362120,-0.18000,77.0000,149,72,0.45031
1362130,-0.17000,76.5000,149,72,0.44078
1362140,-0.16500,76.5000,149,72,0.42076
1362150,-0.15500,77.8125,149,72,0.41050
1362160,-0.12500,81.0000,149,72,0.40049
1362170,-0.09500,86.8750,149,72,0.39096
1362180,-0.06000,105.6250,149,72,0.37314
1362190,-0.02000,116.3125,149,72,0.36654
1362200,0.02000,126.3750,149,72,0.36117
1362210,0.06000,135.0625,149,72,0.35531
1362220,0.10000,147.5000,149,72,0.34383
1362230,0.13500,151.3750,149,72,0.33846
1362240,0.15500,154.0625,149,72,0.33333
1362250,0.17000,155.8750,149,72,0.32845
1362260,0.17000,158.0000,149,72,0.31893
1362270,0.17000,158.5625,149,72,0.31453
1362280,0.16500,159.0000,149,72,0.30989
1362290,0.14500,159.3750,149,72,0.30525
1362300,0.10500,159.8750,149,72,0.29915
1362310,0.05000,160.1250,149,72,0.29548
1362320,-0.01000,160.2500,149,72,0.29109
1362330,-0.06000,160.2500,149,72,0.28645
1362340,-0.10000,160.0000,149,72,0.27643
1362350,-0.13000,159.5625,149,72,0.27131
1362360,-0.14500,159.0000,149,72,0.26593
1362370,-0.15500,158.1875,149,72,0.26032
1362380,-0.16000,155.6875,149,72,0.25006
1362390,-0.17000,153.9375,149,72,0.24786
1362400,-0.17500,151.6875,149,72,0.24884
1362410,-0.17500,148.8750,149,72,0.25299
1362420,-0.17000,140.9375,149,72,0.27961
1362430,-0.17000,135.7500,149,72,0.30403
1362440,-0.16500,130.0625,149,72,0.33578
1362450,-0.14500,124.2500,149,72,0.37289
1362460,-0.10500,114.7500,149,72,0.45568
1362470,-0.06000,111.7500,149,72,0.49695
1362480,-0.02000,109.8125,149,72,0.53602
1362490,0.01000,108.6875,149,72,0.57192
1362500,0.02000,107.5625,149,72,0.62344
1362510,0.02500,107.1250,149,72,0.64689
1362520,0.00500,106.6250,149,72,0.66838
1362530,-0.03500,106.0625,149,72,0.68767
1362540,-0.09500,104.5000,149,72,0.71893
1362550,-0.15000,103.5625,149,72,0.73114
1362560,-0.17500,102.5625,149,72,0.74115
1362570,-0.19000,101.5625,149,72,0.74945
1362580,-0.20500,99.5000,149,72,0.76044
1362590,-0.21000,98.5000,149,72,0.76239
1362600,-0.20500,97.5625,149,72,0.76239
1362610,-0.20000,96.6875,149,72,0.76215
1362620,-0.20000,95.0000,149,72,0.75922
1362630,-0.20000,94.1875,149,72,0.75604
1362640,-0.21000,93.4375,149,72,0.75140
1362650,-0.10500,92.6875,149,72,0.74505
1362660,0.33000,91.1250,149,72,0.72601
1362670,0.94000,90.3750,149,72,0.71258
1362680,0.94000,89.6250,149,72,0.69670
1362690,0.23500,88.8125,149,72,0.67839
1362700,-0.35500,87.1875,149,72,0.64176
1362710,-0.50500,86.3750,149,72,0.62125
1362720,-0.39500,85.6250,149,72,0.60024
1362730,-0.28000,84.8750,149,72,0.57949
1362740,-0.25000,83.3750,149,72,0.54261
1362750,-0.24000,82.6250,149,72,0.52698
1362760,-0.23500,81.8750,149,72,0.51306
1362770,-0.22500,81.1875,149,72,0.50037
1362780,-0.21500,79.8125,149,72,0.47839
1362790,-0.20000,79.2500,149,72,0.46960
1362800,-0.19500,78.8125,149,72,0.46178
1362810,-0.19000,78.5625,149,72,0.45324
1362820,-0.18000,79.9375,149,72,0.43565
1362830,-0.16000,82.8125,149,72,0.42686
1362840,-0.13500,88.1875,149,72,0.41832
1362850,-0.10000,96.0625,149,72,0.41001
1362860,-0.06500,116.5000,149,72,0.39390
1362870,-0.01500,126.6250,149,72,0.38632
1362880,0.03000,135.5625,149,72,0.37900
1362890,0.07000,142.8750,149,72,0.37192
1362900,0.10000,152.5000,149,72,0.36142
1362910,0.12000,155.2500,149,72,0.35580
1362920,0.13500,157.1250,149,72,0.34969
1362930,0.14500,158.3125,149,72,0.34359
1362940,0.14000,159.6250,149,72,0.33138
1362950,0.13000,160.0000,149,72,0.32552
1362960,0.11500,160.2500,149,72,0.31966
1362970,0.08500,160.5000,149,72,0.31380
1362980,0.04000,161.0000,149,72,0.30281
1362990,-0.01500,161.2500,149,72,0.29890
1363000,-0.06000,161.4375,150,73,0.29597
1363010,-0.09500,161.5625,150,73,0.29206
1363020,-0.12000,161.5000,150,73,0.28303
1363030,-0.14000,161.1875,150,73,0.27814
1363040,-0.15500,160.6250,150,73,0.27302
1363050,-0.15500,159.6875,150,73,0.26764
1363060,-0.16500,156.2500,150,73,0.25958
1363070,-0.17000,153.6250,150,73,0.25910
1363080,-0.17500,150.1875,150,73,0.26325
1363090,-0.17000,140.9375,150,73,0.27375
1363100,-0.17000,135.3125,150,73,0.30769
1363110,-0.16500,129.3750,150,73,0.33553
1363120,-0.14500,123.5625,150,73,0.36972
1363130,-0.10500,118.6250,150,73,0.40830
1363140,-0.06500,112.0625,150,73,0.48938
1363150,-0.02500,110.2500,150,73,0.52821
1363160,0.00000,109.1250,150,73,0.56410
1363170,0.02000,108.5000,150,73,0.59634
1363180,0.03000,107.8125,150,73,0.64982
1363190,0.01500,107.5000,150,73,0.66862
1363200,-0.03000,107.1250,150,73,0.68303
1363210,-0.08500,106.7500,150,73,0.69719
1363220,-0.13500,105.5625,150,73,0.72137
1363230,-0.16000,104.8125,150,73,0.73114
1363240,-0.17500,104.0000,150,73,0.73919
1363250,-0.18000,103.0000,150,73,0.74579
1363260,-0.18000,100.8125,150,73,0.75482
1363270,-0.18000,99.7500,150,73,0.75751
1363280,-0.17500,98.6875,150,73,0.75897
1363290,-0.17000,96.5625,150,73,0.75824
1363300,-0.17000,95.5000,150,73,0.75263
1363310,-0.18000,94.5000,150,73,0.74799
1363320,-0.06500,93.5625,150,73,0.74164
1363330,0.37000,92.5625,150,73,0.73284
1363340,0.95000,90.6250,150,73,0.70745
1363350,0.94000,89.7500,150,73,0.69060
1363360,0.21500,88.8125,150,73,0.67131
1363370,-0.34500,87.9375,150,73,0.65031
1363380,-0.45500,86.2500,150,73,0.60562
1363390,-0.34000,85.5625,150,73,0.58608
1363400,-0.22000,84.8750,150,73,0.56850
1363410,-0.18500,84.1875,150,73,0.55067
1363420,-0.17000,83.0000,150,73,0.51551
1363430,-0.16000,82.3750,150,73,0.50159
1363440,-0.15500,81.7500,150,73,0.48987
1363450,-0.14500,81.0625,150,73,0.47961
1363460,-0.12500,79.9375,150,73,0.46178
1363470,-0.11500,79.5000,150,73,0.45372
1363480,-0.10500,79.3125,150,73,0.44591
1363490,-0.09500,79.6250,150,73,0.43932
1363500,-0.06500,84.3125,150,73,0.42637
1363510,-0.03000,90.0625,150,73,0.41905
1363520,0.01000,98.3125,150,73,0.41172
1363530,0.05500,108.1875,150,73,0.40415
1363540,0.10000,128.5000,150,73,0.38901
1363550,0.15000,137.0000,150,73,0.38144
1363560,0.19000,143.9375,150,73,0.37411
1363570,0.22000,152.9375,150,73,0.36679
1363580,0.23500,155.5625,150,73,0.35214
1363590,0.24500,157.2500,150,73,0.34652
1363600,0.24000,158.3750,150,73,0.34164
1363610,0.23000,159.1250,150,73,0.33578
1363620,0.21500,159.8125,150,73,0.32308
1363630,0.19500,160.0000,150,73,0.31697
1363640,0.15500,160.1250,150,73,0.31087
1363650,0.10000,160.2500,150,73,0.30525
1363660,0.04000,160.4375,150,73,0.29475
1363670,-0.01500,160.4375,150,73,0.28987
1363680,-0.06500,160.4375,150,73,0.28498
1363690,-0.09500,160.3750,150,73,0.28181
1363700,-0.11000,159.5625,150,73,0.27546
1363710,-0.11000,158.8125,150,73,0.27131
1363720,-0.11000,157.6875,150,73,0.26691
1363730,-0.10500,156.1875,150,73,0.26276
1363740,-0.10500,151.6250,150,73,0.26007
1363750,-0.10500,148.3125,150,73,0.26447
1363760,-0.09500,144.1250,150,73,0.27473
1363770,-0.09000,139.1250,150,73,0.29158
1363780,-0.07500,127.8125,150,73,0.34579
1363790,-0.03500,122.6250,150,73,0.37607
1363800,0.00500,118.5000,150,73,0.40684
1363810,0.04500,115.5000,150,73,0.44225
1363820,0.07000,112.3125,150,73,0.51502
1363830,0.09500,111.5625,150,73,0.54847
1363840,0.10000,111.0000,150,73,0.57875
1363850,0.09000,110.4375,150,73,0.60562
1363860,0.05500,109.0000,150,73,0.64908
1363870,-0.00500,108.1250,150,73,0.66618
1363880,-0.06500,107.0625,150,73,0.68059
1363890,-0.11000,105.9375,150,73,0.69060
1363900,-0.13500,103.5625,150,73,0.70501
1363910,-0.14500,102.3750,150,73,0.71136
1363920,-0.15000,101.1875,150,73,0.71648
1363930,-0.14500,100.0625,150,73,0.72039
1363940,-0.14500,98.1250,150,73,0.72454
1363950,-0.13500,97.2500,150,73,0.72479
1363960,-0.12500,96.4375,150,73,0.72381
1363970,-0.13000,95.6875,150,73,0.72161
1363980,-0.08500,94.3125,150,73,0.71306
1363990,0.21500,93.6875,150,73,0.70647
1364000,0.80000,93.1250,152,74,0.69817
1364010,1.04000,92.5000,152,74,0.68767
1364020,0.49500,91.1875,152,74,0.65958
1364030,-0.16000,90.4375,152,74,0.64225
1364040,-0.42000,89.6875,152,74,0.62320
1364050,-0.38500,88.8750,152,74,0.60342
1364060,-0.25000,87.1875,152,74,0.56459
1364070,-0.18000,86.3125,152,74,0.54701
1364080,-0.17500,85.3750,152,74,0.53089
1364090,-0.17000,84.5000,152,74,0.51795
1364100,-0.16500,82.6875,152,74,0.49597
1364110,-0.16500,81.8125,152,74,0.48547
1364120,-0.15500,81.0625,152,74,0.47521
1364130,-0.14500,80.3750,152,74,0.46545
1364140,-0.13500,79.7500,152,74,0.44615
1364150,-0.12500,80.0000,152,74,0.43663
1364160,-0.10500,81.1875,152,74,0.42735
1364170,-0.07500,84.0000,152,74,0.41807
1364180,-0.04500,96.8750,152,74,0.40024
1364190,-0.01500,106.5000,152,74,0.39341
1364200,0.02500,116.8125,152,74,0.38730
1364210,0.07000,126.6875,152,74,0.38046
1364220,0.11000,142.6875,152,74,0.36703
1364230,0.15000,148.1875,152,74,0.36068
1364240,0.17500,152.1875,152,74,0.35458
1364250,0.18500,154.9375,152,74,0.34896
1364260,0.19500,157.9375,152,74,0.33846
1364270,0.19500,158.6875,152,74,0.33333
1364280,0.19000,159.0625,152,74,0.32845
1364290,0.18500,159.3125,152,74,0.32479
1364300,0.16000,159.5000,152,74,0.31770
1364310,0.12000,159.5625,152,74,0.31306
1364320,0.06000,159.5625,152,74,0.30818
1364330,0.02000,159.5625,152,74,0.30305
1364340,-0.02500,159.3125,152,74,0.29231
1364350,-0.06000,159.0625,152,74,0.28694
1364360,-0.08000,158.6250,152,74,0.28132
1364370,-0.09500,158.0000,152,74,0.27570
1364380,-0.11500,155.8125,152,74,0.26471
1364390,-0.12500,154.1250,152,74,0.26129
1364400,-0.13000,151.8750,152,74,0.25983
1364410,-0.13000,148.9375,152,74,0.25934
1364420,-0.12000,140.5000,152,74,0.26935
1364430,-0.11500,135.1250,152,74,0.28327
1364440,-0.09500,129.4375,152,74,0.30403
1364450,-0.06000,123.8750,152,74,0.33138
1364460,-0.01500,115.6875,152,74,0.39976
1364470,0.02500,113.3750,152,74,0.43712
1364480,0.06500,111.9375,152,74,0.47399
1364490,0.10000,111.1250,152,74,0.50501
1364500,0.10000,110.0625,152,74,0.55897
1364510,0.07000,109.5625,152,74,0.58437
1364520,0.03000,108.9375,152,74,0.60733
1364530,-0.01500,108.2500,152,74,0.62735
1364540,-0.05500,106.5625,152,74,0.65934
1364550,-0.09500,105.5625,152,74,0.67179
1364560,-0.11500,104.5625,152,74,0.68205
1364570,-0.13000,103.5625,152,74,0.69011
1364580,-0.13500,101.5000,152,74,0.70134
1364590,-0.13500,100.6250,152,74,0.70379
1364600,-0.13000,99.7500,152,74,0.70452
1364610,-0.12500,98.8750,152,74,0.70501
1364620,-0.11500,97.2500,152,74,0.70403
1364630,-0.13000,96.4375,152,74,0.70183
1364640,-0.03000,95.6250,152,74,0.69792
1364650,0.39000,94.7500,152,74,0.69255
1364660,0.95000,93.1250,152,74,0.67497
1364670,0.89000,92.2500,152,74,0.66227
1364680,0.23000,91.4375,152,74,0.64737
1364690,-0.28500,89.6875,152,74,0.63223
1364700,-0.43500,88.8750,152,74,0.59829
1364710,-0.34000,88.0625,152,74,0.57900
1364720,-0.22000,87.1875,152,74,0.55995
1364730,-0.18000,86.3750,152,74,0.54188
1364740,-0.17000,84.8750,152,74,0.51038
1364750,-0.16000,84.1250,152,74,0.49719
1364760,-0.15500,83.3750,152,74,0.48547
1364770,-0.14500,82.6875,152,74,0.47497
1364780,-0.13500,81.5000,152,74,0.45592
1364790,-0.12500,81.1875,152,74,0.44811
1364800,-0.11500,81.0625,152,74,0.44127
1364810,-0.10500,81.5000,152,74,0.43370
1364820,-0.08500,86.0625,152,74,0.41758
1364830,-0.06000,91.6250,152,74,0.40952
1364840,-0.03000,99.6250,152,74,0.40171
1364850,0.00000,109.2500,152,74,0.39390
1364860,0.04000,129.2500,152,74,0.37949
1364870,0.08000,137.7500,152,74,0.37265
1364880,0.12000,144.7500,152,74,0.36606
1364890,0.14500,150.1250,152,74,0.36093
1364900,0.16500,156.8125,152,74,0.35140
1364910,0.17500,158.6250,152,74,0.34579
1364920,0.17500,159.8750,152,74,0.34017
1364930,0.17500,160.6250,152,74,0.33431
1364940,0.17500,161.3125,152,74,0.32259
1364950,0.16500,161.3750,152,74,0.31697
1364960,0.14000,161.3750,152,74,0.31136
1364970,0.10000,161.3750,152,74,0.30574
1364980,0.04500,161.3125,152,74,0.29621
1364990,-0.00500,161.1875,152,74,0.29304
1365000,-0.04000,161.0000,152,75,0.28889
1365010,-0.07000,160.6250,152,75,0.28425
1365020,-0.08500,159.5000,152,75,0.27473
1365030,-0.10000,158.5625,152,75,0.26984
1365040,-0.11000,157.2500,152,75,0.26520
1365050,-0.11500,155.5000,152,75,0.26105
1365060,-0.11500,150.1875,152,75,0.25885
1365070,-0.11500,146.3125,152,75,0.26349
1365080,-0.11500,141.5000,152,75,0.27375
1365090,-0.11000,135.8750,152,75,0.28767
1365100,-0.09500,124.1250,152,75,0.33114
1365110,-0.06500,119.3750,152,75,0.36215
1365120,-0.01500,115.9375,152,75,0.39683
1365130,0.02000,113.7500,152,75,0.43297
1365140,0.06000,111.8125,152,75,0.50305
1365150,0.10000,111.3125,152,75,0.53480
1365160,0.11000,110.8750,152,75,0.56337
1365170,0.09000,110.4375,152,75,0.58852
1365180,0.04500,109.1250,152,75,0.62735
1365190,-0.00500,108.2500,152,75,0.64029
1365200,-0.05500,107.3125,152,75,0.65275
1365210,-0.10000,106.3125,152,75,0.66398
1365220,-0.12500,104.1250,152,75,0.68181
1365230,-0.14500,103.1250,152,75,0.68840
1365240,-0.15000,102.0625,152,75,0.69328
1365250,-0.16000,101.1250,152,75,0.69695
1365260,-0.15500,99.4375,152,75,0.70110
1365270,-0.15500,98.6250,152,75,0.70110
1365280,-0.14500,97.8125,152,75,0.69988
1365290,-0.15500,97.0000,152,75,0.69695
1365300,-0.10000,95.3750,152,75,0.68718
1365310,0.22000,94.5000,152,75,0.67985
1365320,0.79500,93.6250,152,75,0.67033
1365330,0.96000,92.8125,152,75,0.65812
1365340,0.42000,91.0625,152,75,0.62662
1365350,-0.21000,90.1875,152,75,0.60781
1365360,-0.46500,89.3750,152,75,0.58803
1365370,-0.40500,88.5625,152,75,0.56825
1365380,-0.27000,87.1250,152,75,0.53260
1365390,-0.20000,86.3750,152,75,0.51893
1365400,-0.18000,85.6250,152,75,0.50549
1365410,-0.16500,84.8750,152,75,0.49304
1365420,-0.15500,83.4375,152,75,0.47204
1365430,-0.14500,82.8125,152,75,0.46276
1365440,-0.13000,82.2500,152,75,0.45397
1365450,-0.12500,81.7500,152,75,0.44542
1365460,-0.12500,81.6250,152,75,0.42979
1365470,-0.12000,82.3125,152,75,0.42295
1365480,-0.10500,84.3125,152,75,0.41538
1365490,-0.08500,88.3750,152,75,0.40879
1365500,-0.05000,103.8750,152,75,0.39585
1365510,-0.02000,114.0000,152,75,0.38852
1365520,0.02000,124.3125,152,75,0.38095
1365530,0.05500,133.9375,152,75,0.37363
1365540,0.09000,148.8125,152,75,0.35995
1365550,0.12500,153.8750,152,75,0.35336
1365560,0.15000,157.5625,152,75,0.34676
1365570,0.17000,160.1250,152,75,0.34042
1365580,0.18000,163.0625,152,75,0.32967
1365590,0.18000,163.8125,152,75,0.32576
1365600,0.18000,164.2500,152,75,0.32088
1365610,0.16500,164.5625,152,75,0.31526
1365620,0.14000,164.8750,152,75,0.30403
1365630,0.09000,165.0000,152,75,0.29866
1365640,0.03000,165.0625,152,75,0.29328
1365650,-0.02000,165.1250,152,75,0.28791
1365660,-0.06500,165.0000,152,75,0.27790
1365670,-0.10500,164.6875,152,75,0.27302
1365680,-0.12500,164.2500,152,75,0.26789
1365690,-0.13500,163.5625,152,75,0.26447
1365700,-0.14500,161.3125,152,75,0.25812
1365710,-0.15000,159.6250,152,75,0.25470
1365720,-0.15500,157.3750,152,75,0.25299
1365730,-0.15500,154.5000,152,75,0.25446
1365740,-0.15500,146.1875,152,75,0.27277
1365750,-0.15000,140.7500,152,75,0.29206
1365760,-0.13500,134.8125,152,75,0.31819
1365770,-0.10500,128.8750,152,75,0.35043
1365780,-0.05500,119.6250,152,75,0.42100
1365790,-0.01500,116.8125,152,75,0.45275
1365800,0.02000,115.0625,152,75,0.48742
1365810,0.06000,114.0000,152,75,0.52210
1365820,0.08500,112.6875,152,75,0.58462
1365830,0.07500,112.1250,152,75,0.61123
1365840,0.04000,111.5000,152,75,0.63468
1365850,-0.00500,110.8125,152,75,0.65495
1365860,-0.06500,109.1250,152,75,0.68742
1365870,-0.11500,108.1250,152,75,0.70012
1365880,-0.14000,107.1250,152,75,0.71062
1365890,-0.15500,106.0625,152,75,0.71746
1365900,-0.16000,104.0000,152,75,0.72650
1365910,-0.16500,103.0000,152,75,0.73016
1365920,-0.16000,102.0625,152,75,0.73284
1365930,-0.16000,101.1875,152,75,0.73431
1365940,-0.16000,99.5000,152,75,0.73407
1365950,-0.16500,98.6250,152,75,0.73187
1365960,-0.15000,97.7500,152,75,0.72821
1365970,0.10500,96.8125,152,75,0.72259
1365980,0.65000,95.0625,152,75,0.70549
1365990,0.97500,94.1250,152,75,0.69451
1366000,0.58000,93.1875,152,75,0.68034
1366010,-0.10500,92.3125,152,75,0.66325
1366020,-0.44500,90.6250,152,75,0.62320
1366030,-0.44500,89.8125,152,75,0.60195
1366040,-0.31500,89.0000,152,75,0.58095
1366050,-0.23000,88.2500,152,75,0.56117
1366060,-0.21000,86.7500,152,75,0.52674
1366070,-0.19500,85.9375,152,75,0.51233
1366080,-0.18500,85.1875,152,75,0.49939
1366090,-0.17500,84.4375,152,75,0.48913
1366100,-0.16000,83.2500,152,75,0.47155
1366110,-0.15500,82.8750,152,75,0.46227
1366120,-0.14000,82.6875,152,75,0.45299
1366130,-0.12500,82.9375,152,75,0.44371
1366140,-0.11000,86.3750,152,75,0.42589
1366150,-0.09000,91.0625,152,75,0.41734
1366160,-0.06000,98.3125,152,75,0.40904
1366170,-0.03000,107.7500,152,75,0.40098
1366180,0.01000,128.7500,152,75,0.38681
1366190,0.05500,138.2500,152,75,0.38144
1366200,0.10000,146.3125,152,75,0.37509
1366210,0.13000,152.6250,152,75,0.36850
1366220,0.16500,160.6250,152,75,0.35531
1366230,0.18000,162.8750,152,75,0.34872
1366240,0.19500,164.3125,152,75,0.34212
1366250,0.19500,165.2500,152,75,0.33553
1366260,0.19500,166.2500,152,75,0.32259
1366270,0.18500,166.5000,152,75,0.31648
1366280,0.15500,166.5625,152,75,0.31038
1366290,0.11000,166.5625,152,75,0.30598
1366300,0.06000,166.4375,152,75,0.29792
1366310,0.01000,166.3750,152,75,0.29304
1366320,-0.03500,166.2500,152,75,0.28816
1366330,-0.07000,166.0625,152,75,0.28327
1366340,-0.09500,165.5000,152,75,0.27326
1366350,-0.10500,165.0000,152,75,0.26838
1366360,-0.11500,164.2500,152,75,0.26349
1366370,-0.11500,163.1875,152,75,0.25910
1366380,-0.12000,159.5625,152,75,0.25592
1366390,-0.12500,156.8125,152,75,0.25910
1366400,-0.13000,153.1875,152,75,0.26642
1366410,-0.12500,148.6250,152,75,0.27961
1366420,-0.11500,137.2500,152,75,0.32650
1366430,-0.08500,131.1875,152,75,0.35897
1366440,-0.04000,125.8125,152,75,0.39560
1366450,0.00000,121.5000,152,75,0.43419
1366460,0.04500,116.3750,152,75,0.50989
1366470,0.07000,115.0625,152,75,0.54457
1366480,0.09000,114.1250,152,75,0.57582
1366490,0.08000,113.3750,152,75,0.60024
1366500,0.05000,111.9375,152,75,0.64005
1366510,-0.00500,111.1250,152,75,0.65836
1366520,-0.06500,110.2500,152,75,0.67448
1366530,-0.11500,109.3125,152,75,0.68840
1366540,-0.14500,107.3125,152,75,0.70965
1366550,-0.16500,106.3125,152,75,0.71722
1366560,-0.17000,105.3125,152,75,0.72308
1366570,-0.17000,104.3125,152,75,0.72772
1366580,-0.17000,102.4375,152,75,0.73236
1366590,-0.16500,101.5625,152,75,0.73211
1366600,-0.15500,100.7500,152,75,0.73187
1366610,-0.15500,99.8750,152,75,0.73114
1366620,-0.15000,98.0625,152,75,0.72601
1366630,0.06000,97.1875,152,75,0.72112
1366640,0.57500,96.2500,152,75,0.71429
1366650,1.01000,95.3750,152,75,0.70501
1366660,0.74000,93.5625,152,75,0.67839
1366670,0.01000,92.6250,152,75,0.66105
1366680,-0.40500,91.7500,152,75,0.64151
1366690,-0.45000,90.8750,152,75,0.62295
1366700,-0.33000,89.1875,152,75,0.58559
1366710,-0.23500,88.4375,152,75,0.56606
1366720,-0.21000,87.6250,152,75,0.54750
1366730,-0.20000,86.9375,152,75,0.53040
1366740,-0.19000,85.4375,152,75,0.50159
1366750,-0.18000,84.7500,152,75,0.48962
1366760,-0.17000,84.1250,152,75,0.47839
1366770,-0.15500,83.6250,152,75,0.46789
1366780,-0.14500,83.1875,152,75,0.44933
1366790,-0.13500,83.6250,152,75,0.44176
1366800,-0.12500,85.0000,152,75,0.43346
1366810,-0.10500,88.3125,152,75,0.42491
1366820,-0.07500,102.6250,152,75,0.40806
1366830,-0.04000,112.8125,152,75,0.40000
1366840,-0.00500,123.6875,152,75,0.39219
1366850,0.04000,134.0000,152,75,0.38462
1366860,0.08500,150.5625,152,75,0.37045
1366870,0.12000,156.3125,152,75,0.36361
1366880,0.15500,160.5000,152,75,0.35800
1366890,0.17500,163.3750,152,75,0.35336
1366900,0.18500,166.7500,152,75,0.34139
1366910,0.19500,167.6875,152,75,0.33504
1366920,0.19500,168.3125,152,75,0.32869
1366930,0.18500,168.7500,152,75,0.32234
1366940,0.15500,169.3125,152,75,0.31038
1366950,0.12000,169.4375,152,75,0.30452
1366960,0.07500,169.6250,152,75,0.29890
1366970,0.02000,169.8125,152,75,0.29353
1366980,-0.03000,170.0000,152,75,0.28474
1366990,-0.07500,170.0000,152,75,0.28205
1367000,-0.10500,169.8125,154,76,0.27814
1367010,-0.12500,169.4375,154,76,0.27375
1367020,-0.14000,167.6875,154,76,0.26422
1367030,-0.14500,166.0625,154,76,0.26007
1367040,-0.15500,163.9375,154,76,0.25739
1367050,-0.16000,161.0625,154,76,0.25763
1367060,-0.16000,153.0625,154,76,0.27326
1367070,-0.16000,147.8750,154,76,0.29109
1367080,-0.15500,142.0000,154,76,0.31209
1367090,-0.12500,135.8125,154,76,0.33675
1367100,-0.09000,124.8125,154,76,0.40537
1367110,-0.04500,120.8750,154,76,0.44396
1367120,-0.00500,118.1875,154,76,0.48254
1367130,0.03500,116.5000,154,76,0.51941
1367140,0.06000,114.8750,154,76,0.58413
1367150,0.07000,114.3750,154,76,0.61172
1367160,0.06000,113.9375,154,76,0.63590
1367170,0.01500,113.5000,154,76,0.65690
1367180,-0.04500,112.4375,154,76,0.68864
1367190,-0.10500,111.7500,154,76,0.69890
1367200,-0.14000,110.9375,154,76,0.70916
1367210,-0.16000,110.0000,154,76,0.71844
1367220,-0.17500,107.8750,154,76,0.73333
1367230,-0.18000,106.6875,154,76,0.73871
1367240,-0.18000,105.5625,154,76,0.74286
1367250,-0.19000,104.3750,154,76,0.74579
1367260,-0.19000,102.1875,154,76,0.74774
1367270,-0.20500,101.0625,154,76,0.74652
1367280,-0.21500,100.0000,154,76,0.74335
1367290,-0.04000,98.8750,154,76,0.73846
1367300,0.47500,96.8125,154,76,0.72332
1367310,1.00000,95.8125,154,76,0.71233
1367320,0.80000,94.8125,154,76,0.69866
1367330,0.03000,93.8750,154,76,0.68230
1367340,-0.43500,92.0625,154,76,0.64322
1367350,-0.48000,91.3125,154,76,0.62149
1367360,-0.35500,90.5625,154,76,0.59976
1367370,-0.25000,89.8750,154,76,0.57875
1367380,-0.22000,88.5625,154,76,0.54286
1367390,-0.21000,87.8750,154,76,0.52918
1367400,-0.20000,87.1875,154,76,0.51600
1367410,-0.19000,86.5000,154,76,0.50379
1367420,-0.18500,85.1875,154,76,0.48303
1367430,-0.17000,84.6875,154,76,0.47375
1367440,-0.16000,84.3750,154,76,0.46496
1367450,-0.16000,85.3125,154,76,0.44835
1367460,-0.14500,87.6875,154,76,0.44005
1367470,-0.12500,92.5000,154,76,0.43175
1367480,-0.10000,100.0000,154,76,0.42466
1367490,-0.06500,109.8125,154,76,0.41832
1367500,-0.02500,131.5625,154,76,0.40342
1367510,0.02000,141.4375,154,76,0.39560
1367520,0.07000,149.7500,154,76,0.38779
1367530,0.11000,156.3125,154,76,0.37998
1367540,0.14500,164.6875,154,76,0.36435
1367550,0.16500,167.0000,154,76,0.35653
1367560,0.17500,168.5625,154,76,0.34896
1367570,0.18000,169.5625,154,76,0.34164
1367580,0.18500,170.6250,154,76,0.32894
1367590,0.17500,170.8750,154,76,0.32454
1367600,0.15500,171.0625,154,76,0.31917
1367610,0.11000,171.2500,154,76,0.31355
1367620,0.05500,171.5000,154,76,0.30281
1367630,-0.00500,171.6250,154,76,0.29768
1367640,-0.05500,171.7500,154,76,0.29255
1367650,-0.09500,171.7500,154,76,0.28767
1367660,-0.12500,171.2500,154,76,0.27839
1367670,-0.14000,170.6875,154,76,0.27350
1367680,-0.15000,169.8750,154,76,0.27009
1367690,-0.15500,168.6250,154,76,0.26740
1367700,-0.16000,164.7500,154,76,0.26276
1367710,-0.16500,161.9375,154,76,0.26422
1367720,-0.17000,158.3125,154,76,0.27082
1367730,-0.17000,153.8750,154,76,0.28376
1367740,-0.17000,142.6250,154,76,0.33138
1367750,-0.15500,136.3750,154,76,0.36484
1367760,-0.12500,130.5625,154,76,0.40244
1367770,-0.09500,122.0000,154,76,0.44200
1367780,-0.05500,119.5000,154,76,0.51477
1367790,-0.01500,117.8125,154,76,0.54359
1367800,0.00000,116.7500,154,76,0.57289
1367810,0.01500,116.0000,154,76,0.60073
1367820,0.00000,114.8750,154,76,0.64860
1367830,-0.04000,114.3125,154,76,0.66813
1367840,-0.10000,113.5625,154,76,0.68498
1367850,-0.15500,112.7500,154,76,0.69939
1367860,-0.18000,110.8750,154,76,0.72161
1367870,-0.20000,109.8125,154,76,0.72991
1367880,-0.21000,108.6875,154,76,0.73504
1367890,-0.21000,107.5000,154,76,0.73846
1367900,-0.21000,105.2500,154,76,0.74481
1367910,-0.20500,104.1875,154,76,0.74676
1367920,-0.20000,103.1875,154,76,0.74799
1367930,-0.21000,102.1250,154,76,0.74799
1367940,-0.22000,100.1875,154,76,0.74335
1367950,-0.03000,99.2500,154,76,0.73846
1367960,0.50500,98.3125,154,76,0.73162
1367970,1.02000,97.3750,154,76,0.72234
1367980,0.80000,95.5000,154,76,0.69719
1367990,0.01500,94.5625,154,76,0.68254
1368000,-0.45500,93.6875,155,76,0.66496
1368010,-0.49500,92.8125,155,76,0.64518
1368020,-0.36500,91.1875,155,76,0.60220
1368030,-0.28000,90.3750,155,76,0.58095
1368040,-0.26000,89.5625,155,76,0.56117
1368050,-0.25000,88.6875,155,76,0.54310
1368060,-0.24000,87.0625,155,76,0.51282
1368070,-0.23000,86.2500,155,76,0.50037
1368080,-0.22000,85.5625,155,76,0.49035
1368090,-0.20500,84.9375,155,76,0.48181
1368100,-0.19500,84.1875,155,76,0.46398
1368110,-0.18000,84.6250,155,76,0.45495
1368120,-0.16000,86.3125,155,76,0.44591
1368130,-0.14500,90.0625,155,76,0.43712
1368140,-0.11500,105.5625,155,76,0.41954
1368150,-0.07500,116.3125,155,76,0.41099
1368160,-0.03000,127.3750,155,76,0.40244
1368170,0.01500,137.7500,155,76,0.39414
1368180,0.07000,154.0625,155,76,0.37973
1368190,0.11000,159.5625,155,76,0.37411
1368200,0.14500,163.5000,155,76,0.36777
1368210,0.17000,166.1250,155,76,0.36093
1368220,0.18500,168.9375,155,76,0.34725
1368230,0.19500,169.6250,155,76,0.34066
1368240,0.20000,170.0000,155,76,0.33407
1368250,0.19500,170.2500,155,76,0.32772
1368260,0.17000,170.6250,155,76,0.31502
1368270,0.13000,170.7500,155,76,0.30891
1368280,0.07000,170.9375,155,76,0.30452
1368290,0.01000,171.0625,155,76,0.30110
1368300,-0.04500,171.1875,155,76,0.29182
1368310,-0.08500,171.0625,155,76,0.28669
1368320,-0.11500,170.8125,155,76,0.28156
1368330,-0.13000,170.2500,155,76,0.27619
1368340,-0.14000,168.2500,155,76,0.26520
1368350,-0.14500,166.6875,155,76,0.26056
1368360,-0.14500,164.5625,155,76,0.25763
1368370,-0.15000,161.8125,155,76,0.25812
1368380,-0.15500,153.8750,155,76,0.27302
1368390,-0.15500,148.6250,155,76,0.28791
1368400,-0.13500,142.6250,155,76,0.31038
1368410,-0.11500,136.2500,155,76,0.33993
1368420,-0.07500,124.6875,155,76,0.41319
1368430,-0.03000,120.5000,155,76,0.45250
1368440,0.01000,117.6250,155,76,0.49133
1368450,0.03500,115.8125,155,76,0.52796
1368460,0.05000,114.1250,155,76,0.59170
1368470,0.05500,113.6875,155,76,0.61807
1368480,0.03000,113.2500,155,76,0.63834
1368490,-0.02500,112.7500,155,76,0.65421
1368500,-0.08000,111.3125,155,76,0.68449
1368510,-0.12500,110.4375,155,76,0.69744
1368520,-0.13500,109.5000,155,76,0.70842
1368530,-0.14000,108.5000,155,76,0.71770
1368540,-0.15500,106.3750,155,76,0.73138
1368550,-0.17000,105.3125,155,76,0.73602
1368560,-0.16000,104.2500,155,76,0.73944
1368570,-0.15500,103.1875,155,76,0.74164
1368580,-0.14000,101.1250,155,76,0.74164
1368590,-0.15000,100.1250,155,76,0.73919
1368600,-0.10500,99.0625,155,76,0.73602
1368610,0.21500,97.0625,155,76,0.73162
1368620,0.82000,96.1250,155,76,0.71722
1368630,1.03000,95.1250,155,76,0.70623
1368640,0.49000,94.1250,155,76,0.69255
1368650,-0.17500,93.1875,155,76,0.67595
1368660,-0.44500,91.3750,155,76,0.63541
1368670,-0.38500,90.5000,155,76,0.61294
1368680,-0.25000,89.6875,155,76,0.59267
1368690,-0.19500,88.8750,155,76,0.57387
1368700,-0.18500,87.2500,155,76,0.53553
1368710,-0.17000,86.5000,155,76,0.51868
1368720,-0.16500,85.6875,155,76,0.50379
1368730,-0.16500,84.9375,155,76,0.49060
1368740,-0.16000,83.6250,155,76,0.46838
1368750,-0.17500,83.1875,155,76,0.45861
1368760,-0.15500,83.0000,155,76,0.44933
1368770,-0.10500,83.3125,155,76,0.44005
1368780,-0.07000,87.9375,155,76,0.42564
1368790,-0.04500,93.7500,155,76,0.41783
1368800,-0.03500,102.2500,155,76,0.40977
1368810,-0.01000,112.6250,155,76,0.40171
1368820,0.03500,133.8125,155,76,0.38535
1368830,0.07500,142.9375,155,76,0.37753
1368840,0.11000,150.3125,155,76,0.36996
1368850,0.13000,156.0000,155,76,0.36239
1368860,0.15000,162.8125,155,76,0.34799
1368870,0.19500,164.6250,155,76,0.34090
1368880,0.24500,165.6875,155,76,0.33529
1368890,0.25500,166.3125,155,76,0.33065
1368900,0.22000,166.6875,155,76,0.31868
1368910,0.19500,166.6875,155,76,0.31233
1368920,0.16500,166.7500,155,76,0.30598
1368930,0.12000,166.7500,155,76,0.29988
1368940,0.08000,166.7500,155,76,0.28816
1368950,0.02500,166.6875,155,76,0.28254
1368960,0.00000,166.6250,155,76,0.27717
1368970,0.00500,166.0625,155,76,0.27179
1368980,-0.04000,165.4375,155,76,0.26496
1368990,-0.10000,164.5625,155,76,0.26081
1369000,-0.12500,163.3125,156,78,0.25592
1369010,-0.13500,161.5000,156,78,0.25128
1369020,-0.14000,156.1875,156,78,0.24689
1369030,-0.14500,152.3125,156,78,0.25031
1369040,-0.14500,147.6250,156,78,0.25934
1369050,-0.13500,142.0625,156,78,0.27546
1369060,-0.11500,129.9375,156,78,0.32918
1369070,-0.07500,124.6250,156,78,0.36459
1369080,-0.02500,120.3750,156,78,0.39829
1369090,0.02000,117.3125,156,78,0.43101
1369100,0.06000,113.8750,156,78,0.50379
1369110,0.08000,113.0000,156,78,0.53822
1369120,0.09000,112.3750,156,78,0.56972
1369130,0.07500,111.7500,156,78,0.59780
1369140,0.03000,110.4375,156,78,0.64396
1369150,-0.02500,109.6875,156,78,0.66227
1369160,-0.08500,108.8125,156,78,0.67790
1369170,-0.12000,107.8750,156,78,0.69084
1369180,-0.14000,105.8125,156,78,0.70623
1369190,-0.14500,104.8125,156,78,0.71258
1369200,-0.15500,103.7500,156,78,0.71819
1369210,-0.15500,102.7500,156,78,0.72283
1369220,-0.15000,100.8750,156,78,0.72869
1369230,-0.14000,99.8750,156,78,0.72967
1369240,-0.14000,98.8750,156,78,0.72967
1369250,-0.15500,97.9375,156,78,0.72821
1369260,-0.04500,96.0000,156,78,0.71990
1369270,0.36500,95.0625,156,78,0.71258
1369280,0.92000,94.1250,156,78,0.70354
1369290,0.90000,93.1875,156,78,0.69280
1369300,0.21000,91.4375,156,78,0.66227
1369310,-0.30000,90.5625,156,78,0.64322
1369320,-0.40000,89.7500,156,78,0.62247
1369330,-0.35500,88.8750,156,78,0.60073
1369340,-0.27000,87.3750,156,78,0.55824
1369350,-0.21000,86.5625,156,78,0.53919
1369360,-0.19500,85.8125,156,78,0.52186
1369370,-0.18500,85.0000,156,78,0.50647
1369380,-0.18000,83.4375,156,78,0.48400
1369390,-0.17000,82.8125,156,78,0.47375
1369400,-0.15500,82.2500,156,78,0.46374
1369410,-0.14500,81.8750,156,78,0.45421
1369420,-0.14000,82.3125,156,78,0.43565
1369430,-0.13500,83.8750,156,78,0.42662
1369440,-0.13500,87.4375,156,78,0.41783
1369450,-0.10500,93.5625,156,78,0.40904
1369460,-0.06000,112.3750,156,78,0.39243
1369470,-0.00500,123.0000,156,78,0.38462
1369480,0.04500,133.1250,156,78,0.37827
1369490,0.10000,141.9375,156,78,0.37265
1369500,0.14500,154.6250,156,78,0.35946
1369510,0.17500,158.5625,156,78,0.35263
1369520,0.19500,161.2500,156,78,0.34579
1369530,0.20500,163.0000,156,78,0.33895
1369540,0.20500,164.6250,156,78,0.32552
1369550,0.20500,164.8750,156,78,0.31893
1369560,0.21000,164.9375,156,78,0.31380
1369570,0.20500,164.8750,156,78,0.30940
1369580,0.18500,164.6875,156,78,0.30256
1369590,0.14000,164.6250,156,78,0.29817
1369600,0.08500,164.5000,156,78,0.29328
1369610,0.03000,164.3750,156,78,0.28816
1369620,-0.02000,163.8125,156,78,0.27790
1369630,-0.05500,163.2500,156,78,0.27302
1369640,-0.08000,162.5000,156,78,0.26789
1369650,-0.09500,161.4375,156,78,0.26276
1369660,-0.11500,158.0625,156,78,0.25372
1369670,-0.12000,155.5000,156,78,0.25104
1369680,-0.12500,152.1875,156,78,0.25153
1369690,-0.12500,142.8750,156,78,0.25568
1369700,-0.11500,137.0000,156,78,0.27961
1369710,-0.09500,130.7500,156,78,0.30183
1369720,-0.05500,124.7500,156,78,0.33089
1369730,-0.00500,119.8125,156,78,0.36557
1369740,0.03000,113.9375,156,78,0.44420
1369750,0.07500,112.5625,156,78,0.48376
1369760,0.11000,111.8125,156,78,0.52137
1369770,0.12000,111.3750,156,78,0.55604
1369780,0.09500,110.5000,156,78,0.60611
1369790,0.05000,109.8750,156,78,0.62857
1369800,-0.00500,109.1250,156,78,0.64908
1369810,-0.05500,108.2500,156,78,0.66716
1369820,-0.10000,106.1875,156,78,0.69597
1369830,-0.12500,105.1875,156,78,0.70696
1369840,-0.14000,104.1250,156,78,0.71575
1369850,-0.14500,103.0625,156,78,0.72283
1369860,-0.14500,101.0625,156,78,0.73211
1369870,-0.14500,100.0625,156,78,0.73455
1369880,-0.14000,99.1250,156,78,0.73504
1369890,-0.13500,98.2500,156,78,0.73382
1369900,-0.14500,96.4375,156,78,0.73016
1369910,-0.10000,95.5000,156,78,0.72650
1369920,0.23000,94.6250,156,78,0.72088
1369930,0.81500,93.6875,156,78,0.71306
1369940,0.97000,91.8125,156,78,0.68938
1369950,0.41000,90.8750,156,78,0.67326
1369960,-0.21000,89.9375,156,78,0.65446
1369970,-0.45000,89.0625,156,78,0.63370
1369980,-0.39000,87.3750,156,78,0.59560
1369990,-0.25500,86.5625,156,78,0.57558
1370000,-0.20000,85.8125,157,78,0.55604
1370010,-0.18500,85.1250,157,78,0.53797
1370020,-0.17500,83.7500,157,78,0.50720
1370030,-0.17000,83.1250,157,78,0.49475
1370040,-0.18000,82.5000,157,78,0.48376
1370050,-0.33000,81.9375,157,78,0.47350
1370060,-0.67500,81.3750,157,78,0.45470
1370070,-0.59000,81.6250,157,78,0.44542
1370080,-0.09000,82.6250,157,78,0.43761
1370090,-0.08500,85.0625,157,78,0.43077
1370100,-0.20000,97.0625,157,78,0.41490
1370110,-0.14000,106.6250,157,78,0.40659
1370120,-0.02500,117.2500,157,78,0.39829
1370130,0.04500,127.8750,157,78,0.39023
1370140,0.09000,145.6250,157,78,0.37485
1370150,0.11000,151.9375,157,78,0.36752
1370160,0.13500,156.5625,157,78,0.36044
1370170,0.18000,159.6875,157,78,0.35360
1370180,0.20500,162.7500,157,78,0.34359
1370190,0.19500,163.2500,157,78,0.33797
1370200,0.18500,163.4375,157,78,0.33187
1370210,0.18500,163.3750,157,78,0.32576
1370220,0.17500,163.1875,157,78,0.31306
1370230,0.15500,163.1250,157,78,0.30696
1370240,0.12000,163.1250,157,78,0.30085
1370250,0.07500,163.2500,157,78,0.29499
1370260,0.02000,163.5625,157,78,0.28425
1370270,-0.02000,163.5625,157,78,0.27937
1370280,-0.05500,163.5000,157,78,0.27595
1370290,-0.07500,163.1250,157,78,0.27326
1370300,-0.08500,161.5000,157,78,0.26520
1370310,-0.09500,160.0625,157,78,0.26081
1370320,-0.11000,158.0625,157,78,0.25739
1370330,-0.11000,155.3125,157,78,0.25568
1370340,-0.10500,147.2500,157,78,0.26447
1370350,-0.09500,141.8125,157,78,0.27790
1370360,-0.08000,135.6875,157,78,0.29866
1370370,-0.05000,129.3750,157,78,0.32650
1370380,-0.00500,118.8125,157,78,0.38632
1370390,0.04000,115.3125,157,78,0.42295
1370400,0.07500,113.0625,157,78,0.46203
1370410,0.11500,111.6875,157,78,0.50110
1370420,0.13500,110.2500,157,78,0.57167
1370430,0.13000,109.7500,157,78,0.60171
1370440,0.09000,109.1875,157,78,0.62808
1370450,0.04000,108.5625,157,78,0.65055
1370460,-0.02000,107.0000,157,78,0.68596
1370470,-0.07500,106.0625,157,78,0.69744
1370480,-0.09500,105.1250,157,78,0.70574
1370490,-0.10500,104.1250,157,78,0.71380
1370500,-0.11000,102.1250,157,78,0.72723
1370510,-0.11500,101.1875,157,78,0.73236
1370520,-0.12000,100.3125,157,78,0.73626
1370530,-0.12000,99.4375,157,78,0.73895
1370540,-0.11500,97.7500,157,78,0.74139
1370550,-0.11500,96.8125,157,78,0.74066
1370560,-0.12000,95.9375,157,78,0.73846
1370570,0.02500,94.9375,157,78,0.73431
1370580,0.49000,93.0000,157,78,0.72015
1370590,1.00500,92.0000,157,78,0.70940
1370600,0.83000,91.0625,157,78,0.69597
1370610,0.13500,90.1875,157,78,0.67937
1370620,-0.32500,88.4375,157,78,0.63932
1370630,-0.43000,87.5625,157,78,0.61709
1370640,-0.32500,86.7500,157,78,0.59438
1370650,-0.21000,86.0000,157,78,0.57265
1370660,-0.17500,84.5625,157,78,0.53358
1370670,-0.16500,83.8125,157,78,0.51868
1370680,-0.16000,83.1250,157,78,0.50647
1370690,-0.15000,82.3750,157,78,0.49451
1370700,-0.14500,81.1875,157,78,0.47277
1370710,-0.13500,80.7500,157,78,0.46276
1370720,-0.13000,80.5625,157,78,0.45324
1370730,-0.13500,80.7500,157,78,0.44396
1370740,-0.15500,84.1875,157,78,0.42589
1370750,-0.16500,89.0625,157,78,0.41734
1370760,-0.09000,96.6875,157,78,0.40879
1370770,0.02000,106.4375,157,78,0.40073
1370780,0.05000,127.7500,157,78,0.38877
1370790,-0.00500,137.2500,157,78,0.38242
1370800,-0.06000,145.2500,157,78,0.37558
1370810,-0.03500,151.5000,157,78,0.36874
1370820,-0.01500,159.1875,157,78,0.35507
1370830,-0.05500,161.2500,157,78,0.34823
1370840,-0.03500,162.5000,157,78,0.34139
1370850,0.11000,163.2500,157,78,0.33455
1370860,0.21500,163.9375,157,78,0.32112
1370870,0.31000,164.1250,157,78,0.31600
1370880,0.37000,164.2500,157,78,0.31184
1370890,0.32000,164.3750,157,78,0.30672
1370900,0.25500,164.5625,157,78,0.29597
1370910,0.21500,164.5625,157,78,0.29060
1370920,0.13000,164.4375,157,78,0.28523
1370930,0.05000,164.2500,157,78,0.28010
1370940,0.00000,163.1875,157,78,0.27009
1370950,-0.04000,162.3125,157,78,0.26496
1370960,-0.07500,161.1875,157,78,0.25983
1370970,-0.09500,159.6250,157,78,0.25519
1370980,-0.11000,154.9375,157,78,0.25250
1370990,-0.12500,151.5625,157,78,0.25421
1371000,-0.12500,147.3750,160,80,0.26032
1371010,-0.12500,142.2500,160,80,0.27228
1371020,-0.11000,130.5000,160,80,0.31819
1371030,-0.08000,124.8750,160,80,0.35116
1371040,-0.03500,120.2500,160,80,0.38901
1371050,0.01000,116.8125,160,80,0.42955
1371060,0.05000,112.8125,160,80,0.51087
1371070,0.09000,111.6875,160,80,0.54383
1371080,0.10500,110.8125,160,80,0.57192
1371090,0.09000,110.0625,160,80,0.60024
1371100,0.04000,108.5000,160,80,0.65031
1371110,-0.00500,107.6250,160,80,0.67082
1371120,-0.07500,106.6250,160,80,0.68864
1371130,-0.12000,105.6250,160,80,0.70379
1371140,-0.14500,103.5000,160,80,0.72674
1371150,-0.15500,102.4375,160,80,0.73504
1371160,-0.15500,101.3750,160,80,0.74139
1371170,-0.15500,100.4375,160,80,0.74603
1371180,-0.15000,98.6250,160,80,0.74872
1371190,-0.14500,97.7500,160,80,0.74896
1371200,-0.13500,96.8750,160,80,0.74847
1371210,-0.13500,96.0000,160,80,0.74701
1371220,-0.12000,94.1875,160,80,0.73993
1371230,0.09000,93.3125,160,80,0.73358
1371240,0.62500,92.4375,160,80,0.72503
1371250,1.03500,91.6250,160,80,0.71404
1371260,0.68500,89.9375,160,80,0.68376
1371270,-0.01000,89.0625,160,80,0.66691
1371280,-0.37500,88.3125,160,80,0.64933
1371290,-0.41500,87.5000,160,80,0.62906
1371300,-0.30000,85.9375,160,80,0.58608
1371310,-0.20500,85.1250,160,80,0.56557
1371320,-0.19000,84.3125,160,80,0.54652
1371330,-0.18000,83.5000,160,80,0.52918
1371340,-0.17500,81.7500,160,80,0.49915
1371350,-0.17000,80.9375,160,80,0.48645
1371360,-0.16000,80.2500,160,80,0.47473
1371370,-0.14500,79.7500,160,80,0.46398
1371380,-0.13500,79.5000,160,80,0.44689
1371390,-0.12000,80.3125,160,80,0.43810
1371400,-0.10500,82.4375,160,80,0.42906
1371410,-0.09000,86.8750,160,80,0.41978
1371420,-0.06500,103.3750,160,80,0.40220
1371430,-0.03000,114.0000,160,80,0.39365
1371440,0.00500,124.6875,160,80,0.38559
1371450,0.05000,134.4375,160,80,0.37778
1371460,0.09500,149.2500,160,80,0.36313
1371470,0.13500,154.1250,160,80,0.35751
1371480,0.16500,157.5000,160,80,0.35263
1371490,0.18500,159.8125,160,80,0.34701
1371500,0.19000,162.2500,160,80,0.33455
1371510,0.19000,162.8125,160,80,0.32821
1371520,0.18500,163.1250,160,80,0.32210
1371530,0.17500,163.3125,160,80,0.31600
1371540,0.15000,163.3750,160,80,0.30427
1371550,0.11000,163.3125,160,80,0.29866
1371560,0.05500,163.2500,160,80,0.29328
1371570,0.00000,163.1250,160,80,0.28791
1371580,-0.04500,162.8125,160,80,0.28083
1371590,-0.08000,162.5000,160,80,0.27668
1371600,-0.10500,162.0000,160,80,0.27179
1371610,-0.12500,161.3125,160,80,0.26691
1371620,-0.14500,158.8750,160,80,0.25690
1371630,-0.15500,157.0000,160,80,0.25226
1371640,-0.16000,154.5000,160,80,0.24933
1371650,-0.16000,151.3125,160,80,0.24982
1371660,-0.15000,142.3125,160,80,0.26740
1371670,-0.13500,136.5000,160,80,0.28352
1371680,-0.11500,130.1875,160,80,0.30452
1371690,-0.08500,123.8125,160,80,0.33382
1371700,-0.04500,113.8750,160,80,0.40904
1371710,0.00000,111.0000,160,80,0.45031
1371720,0.05000,109.3750,160,80,0.49133
1371730,0.08000,108.6250,160,80,0.53016
1371740,0.09000,108.1250,160,80,0.59829
1371750,0.08500,107.9375,160,80,0.62686
1371760,0.05500,107.6250,160,80,0.65153
1371770,0.00000,107.1875,160,80,0.67277
1371780,-0.06500,105.6875,160,80,0.69988
1371790,-0.11500,104.8125,160,80,0.71111
1371800,-0.14500,103.8125,160,80,0.72112
1371810,-0.16000,102.7500,160,80,0.72943
1371820,-0.17500,100.5000,160,80,0.74115
1371830,-0.18500,99.3750,160,80,0.74481
1371840,-0.19000,98.3125,160,80,0.74725
1371850,-0.19000,97.2500,160,80,0.74847
1371860,-0.19000,95.0000,160,80,0.74676
1371870,-0.19500,93.8750,160,80,0.74359
1371880,-0.17500,92.7500,160,80,0.73895
1371890,0.08000,91.6875,160,80,0.73284
1371900,0.65000,89.6250,160,80,0.71477
1371910,1.01500,88.6250,160,80,0.70208
1371920,0.59000,87.7500,160,80,0.68645
1371930,-0.12500,86.9375,160,80,0.66789
1371940,-0.46000,85.5625,160,80,0.62466
1371950,-0.45500,85.0000,160,80,0.60122
1371960,-0.31500,84.4375,160,80,0.57802
1371970,-0.23000,83.8750,160,80,0.55604
1371980,-0.21500,82.8125,160,80,0.52283
1371990,-0.20000,82.1875,160,80,0.50818
1372000,-0.19500,81.6250,161,80,0.49499
1372010,-0.18000,80.3750,161,80,0.47277
1372020,-0.17000,79.8750,161,80,0.46325
1372030,-0.16000,79.5000,161,80,0.45421
1372040,-0.15500,79.4375,161,80,0.44567
1372050,-0.14500,79.9375,161,80,0.43712
1372060,-0.13500,85.5625,161,80,0.42051
1372070,-0.11000,92.1875,161,80,0.41343
1372080,-0.08000,101.3125,161,80,0.40708
1372090,-0.04500,112.0000,161,80,0.39951
1372100,0.00000,133.0000,161,80,0.38364
1372110,0.03500,141.6250,161,80,0.37534
1372120,0.07500,148.5000,161,80,0.36703
1372130,0.11500,153.6250,161,80,0.35897
1372140,0.14500,159.6250,161,80,0.34310
1372150,0.16500,161.1875,161,80,0.33529
1372160,0.17500,162.1875,161,80,0.32772
1372170,0.18000,162.8125,161,80,0.32039
1372180,0.17000,163.5000,161,80,0.31062
1372190,0.15500,163.6875,161,80,0.30525
1372200,0.13000,163.8125,161,80,0.29988
1372210,0.09000,163.9375,161,80,0.29475
1372220,0.03000,164.1250,161,80,0.28498
1372230,-0.02000,164.0625,161,80,0.28083
1372240,-0.06500,163.9375,161,80,0.27668
1372250,-0.10000,163.6250,161,80,0.27253
1372260,-0.12500,162.4375,161,80,0.26422
1372270,-0.14500,161.4375,161,80,0.26129
1372280,-0.15500,160.1250,161,80,0.25885
1372290,-0.17000,158.3750,161,80,0.25568
1372300,-0.19000,153.3750,161,80,0.25250
1372310,-0.20000,149.8750,161,80,0.25592
1372320,-0.20500,145.5625,161,80,0.26520
1372330,-0.20000,140.3750,161,80,0.28156
1372340,-0.19000,128.2500,161,80,0.33724
1372350,-0.16000,122.3125,161,80,0.37460
1372360,-0.13000,117.2500,161,80,0.41563
1372370,-0.09000,113.5000,161,80,0.45275
1372380,-0.05000,109.5625,161,80,0.52405
1372390,-0.01500,108.7500,161,80,0.56020
1372400,-0.00500,108.3125,161,80,0.59389
1372410,-0.00500,108.0000,161,80,0.62393
1372420,-0.03500,107.1250,161,80,0.67326
1372430,-0.09500,106.5000,161,80,0.69255
1372440,-0.16000,105.7500,161,80,0.70891
1372450,-0.20000,104.8125,161,80,0.72259
1372460,-0.22500,102.6875,161,80,0.74261
1372470,-0.23500,101.5625,161,80,0.74799
1372480,-0.24000,100.4375,161,80,0.75140
1372490,-0.24000,99.3750,161,80,0.75458
1372500,-0.24000,97.3125,161,80,0.75849
1372510,-0.25000,96.3750,161,80,0.75849
1372520,-0.26000,95.4375,161,80,0.75751
1372530,-0.29500,94.5000,161,80,0.75507
1372540,-0.31500,92.6875,161,80,0.74579
1372550,-0.09500,91.8125,161,80,0.73846
1372560,0.54000,90.9375,161,80,0.72894
1372570,1.02500,90.0625,161,80,0.71795
1372580,0.65000,88.3750,161,80,0.68962
1372590,-0.08000,87.5625,161,80,0.67082
1372600,-0.43000,86.7500,161,80,0.64982
1372610,-0.42000,85.9375,161,80,0.62711
1372620,-0.28500,84.4375,161,80,0.58071
1372630,-0.21000,83.7500,161,80,0.55897
1372640,-0.20000,83.0000,161,80,0.53895
1372650,-0.18500,82.2500,161,80,0.52112
1372660,-0.18000,80.8125,161,80,0.49231
1372670,-0.17000,80.1875,161,80,0.48156
1372680,-0.17000,79.6250,161,80,0.47277
1372690,-0.16500,79.1250,161,80,0.46374
1372700,-0.16000,78.8750,161,80,0.44567
1372710,-0.15500,79.9375,161,80,0.43663
1372720,-0.14500,82.7500,161,80,0.42759
1372730,-0.12500,88.3125,161,80,0.41856
1372740,-0.10500,107.3125,161,80,0.40073
1372750,-0.07500,118.6875,161,80,0.39219
1372760,-0.03500,129.6250,161,80,0.38388
1372770,0.01000,139.1875,161,80,0.37729
1372780,0.05000,152.7500,161,80,0.36508
1372790,0.09500,156.8125,161,80,0.35800
1372800,0.12500,159.5000,161,80,0.35092
1372810,0.14500,161.1875,161,80,0.34408
1372820,0.15500,162.8125,161,80,0.33089
1372830,0.16500,163.1875,161,80,0.32454
1372840,0.16500,163.3750,161,80,0.31819
1372850,0.15500,163.4375,161,80,0.31184
1372860,0.13000,163.5625,161,80,0.29988
1372870,0.08500,163.6250,161,80,0.29573
1372880,0.02500,163.6875,161,80,0.29231
1372890,-0.03500,163.6875,161,80,0.28816
1372900,-0.09000,163.3750,161,80,0.27888
1372910,-0.13000,162.9375,161,80,0.27399
1372920,-0.16000,162.3125,161,80,0.26911
1372930,-0.17500,161.3750,161,80,0.26422
1372940,-0.19000,158.6250,161,80,0.25421
1372950,-0.20000,156.5625,161,80,0.25006
1372960,-0.20500,153.9375,161,80,0.24835
1372970,-0.21000,150.6250,161,80,0.25006
1372980,-0.20000,141.6250,161,80,0.26813
1372990,-0.19500,135.9375,161,80,0.28767
1373000,-0.18000,129.8125,163,81,0.31502
1373010,-0.15000,123.7500,163,81,0.34945
1373020,-0.11000,114.1875,163,81,0.43175
1373030,-0.06500,111.1875,163,81,0.47497
1373040,-0.01500,109.3750,163,81,0.51697
1373050,0.03000,108.3750,163,81,0.55629
1373060,0.04500,107.5000,163,81,0.62295
1373070,0.05000,107.1250,163,81,0.64689
1373080,0.03000,106.6875,163,81,0.66593
1373090,-0.02500,106.1250,163,81,0.68425
1373100,-0.09500,104.5000,163,81,0.71526
1373110,-0.14000,103.5625,163,81,0.72723
1373120,-0.17000,102.5625,163,81,0.73724
1373130,-0.18000,101.4375,163,81,0.74505
1373140,-0.18000,99.1875,163,81,0.75580
1373150,-0.18000,98.1250,163,81,0.75897
1373160,-0.18000,97.1250,163,81,0.76068
1373170,-0.18500,96.1250,163,81,0.76020
1373180,-0.18000,94.1875,163,81,0.75531
1373190,-0.19000,93.2500,163,81,0.75165
1373200,-0.18000,92.3125,163,81,0.74676
1373210,0.06500,91.5000,163,81,0.74042
1373220,0.66000,89.8125,163,81,0.72112
1373230,1.08500,88.9375,163,81,0.70794
1373240,0.65000,88.0000,163,81,0.69182
1373250,-0.11500,87.1250,163,81,0.67302
1373260,-0.46000,85.4375,163,81,0.62930
1373270,-0.44000,84.6250,163,81,0.60830
1373280,-0.29500,83.8750,163,81,0.58852
1373290,-0.23000,83.1250,163,81,0.56777
1373300,-0.21000,81.5625,163,81,0.52869
1373310,-0.20000,80.8125,163,81,0.51184
1373320,-0.19000,80.0625,163,81,0.49719
1373330,-0.18500,79.3125,163,81,0.48425
1373340,-0.18000,78.0625,163,81,0.46227
1373350,-0.17000,77.6250,163,81,0.45226
1373360,-0.16500,77.4375,163,81,0.44298
1373370,-0.15500,77.8750,163,81,0.43516
1373380,-0.14500,83.3750,163,81,0.42027
1373390,-0.12500,90.0625,163,81,0.41197
1373400,-0.09500,99.3750,163,81,0.40342
1373410,-0.06500,110.2500,163,81,0.39487
1373420,-0.02000,131.7500,163,81,0.37802
1373430,0.03000,140.5625,163,81,0.36996
1373440,0.07500,147.4375,163,81,0.36190
1373450,0.11000,152.4375,163,81,0.35433
1373460,0.13500,158.0625,163,81,0.33993
1373470,0.14500,159.3750,163,81,0.33431
1373480,0.15000,160.1875,163,81,0.32967
1373490,0.14000,160.5625,163,81,0.32405
1373500,0.13000,160.9375,163,81,0.31184
1373510,0.12500,161.0000,163,81,0.30549
1373520,0.12000,161.0000,163,81,0.29939
1373530,0.10000,160.9375,163,81,0.29328
1373540,0.07500,160.8750,163,81,0.28181
1373550,0.03500,160.7500,163,81,0.27643
1373560,0.00000,160.5625,163,81,0.27131
1373570,-0.02500,160.2500,163,81,0.26764
1373580,-0.03500,159.0000,163,81,0.26056
1373590,-0.03000,157.9375,163,81,0.25568
1373600,-0.03500,156.5625,163,81,0.25055
1373610,-0.06000,154.6875,163,81,0.24542
1373620,-0.08500,149.1250,163,81,0.23980
1373630,-0.09500,145.1875,163,81,0.24249
1373640,-0.09500,140.4375,163,81,0.25128
1373650,-0.09500,134.9375,163,81,0.26764
1373660,-0.08000,123.0000,163,81,0.32967
1373670,-0.05000,117.8125,163,81,0.36313
1373680,-0.01000,113.7500,163,81,0.39683
1373690,0.02500,110.8750,163,81,0.43565
1373700,0.06000,107.8125,163,81,0.51575
1373710,0.08000,107.0625,163,81,0.55263
1373720,0.09500,106.5625,163,81,0.58584
1373730,0.09000,106.1250,163,81,0.61514
1373740,0.06500,105.0000,163,81,0.66203
1373750,0.01000,104.2500,163,81,0.68034
1373760,-0.04000,103.3750,163,81,0.69548
1373770,-0.08000,102.4375,163,81,0.70598
1373780,-0.10500,100.3750,163,81,0.72063
1373790,-0.12000,99.3750,163,81,0.72698
1373800,-0.12500,98.3750,163,81,0.73187
1373810,-0.13500,97.3750,163,81,0.73553
1373820,-0.14000,95.4375,163,81,0.73895
1373830,-0.13500,94.5000,163,81,0.73895
1373840,-0.13000,93.5625,163,81,0.73748
1373850,-0.14500,92.6875,163,81,0.73480
1373860,-0.12500,90.8750,163,81,0.72454
1373870,0.14000,89.9375,163,81,0.71697
1373880,0.71000,89.0625,163,81,0.70794
1373890,1.00000,88.1875,163,81,0.69621
1373900,0.54500,86.4375,163,81,0.66545
1373910,-0.14500,85.6250,163,81,0.64664
1373920,-0.46000,84.8125,163,81,0.62613
1373930,-0.41500,84.0000,163,81,0.60464
1373940,-0.27000,82.5000,163,81,0.56190
1373950,-0.18500,81.7500,163,81,0.54237
1373960,-0.16500,81.0000,163,81,0.52454
1373970,-0.16000,80.3125,163,81,0.51013
1373980,-0.15500,78.8750,163,81,0.48669
1373990,-0.14500,78.1875,163,81,0.47570
1374000,-0.13500,77.5625,163,82,0.46545
1374010,-0.12500,77.1250,163,82,0.45592
1374020,-0.10500,77.1250,163,82,0.43785
1374030,-0.08500,78.3125,163,82,0.42906
1374040,-0.06000,81.1250,163,82,0.42051
1374050,-0.04000,86.5000,163,82,0.41221
1374060,-0.02000,104.4375,163,82,0.39707
1374070,0.01000,115.2500,163,82,0.39121
1374080,0.04500,125.6250,163,82,0.38462
1374090,0.08000,134.6875,163,82,0.37753
1374100,0.12000,147.6875,163,82,0.36361
1374110,0.14500,151.5625,163,82,0.35678
1374120,0.16500,154.0625,163,82,0.34994
1374130,0.17500,155.6875,163,82,0.34335
1374140,0.18000,157.1875,163,82,0.33040
1374150,0.18500,157.5000,163,82,0.32430
1374160,0.19500,157.6875,163,82,0.31819
1374170,0.18500,157.8125,163,82,0.31355
1374180,0.16000,157.8750,163,82,0.30501
1374190,0.13500,157.8125,163,82,0.29988
1374200,0.09500,157.6250,163,82,0.29451
1374210,0.04500,157.3750,163,82,0.28938
1374220,0.00000,156.3750,163,82,0.27985
1374230,-0.04000,155.5625,163,82,0.27521
1374240,-0.07500,154.5625,163,82,0.27057
1374250,-0.09500,153.2500,163,82,0.26569
1374260,-0.11500,149.4375,163,82,0.25763
1374270,-0.12500,146.6875,163,82,0.25568
1374280,-0.12500,143.1250,163,82,0.25397
1374290,-0.12000,138.7500,163,82,0.25446
1374300,-0.11500,127.6875,163,82,0.27033
1374310,-0.10000,121.8125,163,82,0.28840
1374320,-0.06500,116.5000,163,82,0.31404
1374330,-0.01500,112.2500,163,82,0.34628
1374340,0.03000,107.3125,163,82,0.42393
1374350,0.07000,106.1875,163,82,0.46496
1374360,0.11000,105.5625,163,82,0.50476
1374370,0.12500,105.1875,163,82,0.53748
1374380,0.11500,104.5000,163,82,0.59341
1374390,0.08000,104.0625,163,82,0.61954
1374400,0.03500,103.5000,163,82,0.64274
1374410,-0.02500,102.8750,163,82,0.66300
1374420,-0.07000,101.1875,163,82,0.69451
1374430,-0.10000,100.1875,163,82,0.70647
1374440,-0.11500,99.1875,163,82,0.71600
1374450,-0.12500,98.1875,163,82,0.72332
1374460,-0.13000,96.2500,163,82,0.73114
1374470,-0.14000,95.2500,163,82,0.73162
1374480,-0.14000,94.2500,163,82,0.73162
1374490,-0.14000,93.2500,163,82,0.73089
1374500,-0.14500,91.1875,163,82,0.72601
1374510,-0.14500,90.1250,163,82,0.72137
1374520,0.05000,89.1250,163,82,0.71502
1374530,0.56500,87.2500,163,82,0.70647
1374540,1.01000,86.4375,163,82,0.68181
1374550,0.70000,85.5625,163,82,0.66520
1374560,-0.00500,84.7500,163,82,0.64640
1374570,-0.39000,83.9375,163,82,0.62833
1374580,-0.43500,82.4375,163,82,0.58999
1374590,-0.30500,81.7500,163,82,0.56923
1374600,-0.20000,81.1250,163,82,0.54945
1374610,-0.18000,79.7500,163,82,0.53114
1374620,-0.16500,79.1250,163,82,0.50061
1374630,-0.16000,78.4375,163,82,0.48816
1374640,-0.15500,77.8125,163,82,0.47741
1374650,-0.14500,77.1875,163,82,0.46764
1374660,-0.12500,76.4375,163,82,0.45153
1374670,-0.12000,76.4375,163,82,0.44518
1374680,-0.11500,77.0000,163,82,0.43810
1374690,-0.11000,78.6875,163,82,0.43077
1374700,-0.09500,88.6250,163,82,0.41563
1374710,-0.06500,97.4375,163,82,0.40781
1374720,-0.03500,107.8125,163,82,0.40024
1374730,0.00000,118.4375,163,82,0.39267
1374740,0.03500,136.7500,163,82,0.37778
1374750,0.07000,143.4375,163,82,0.37045
1374760,0.10000,148.3125,163,82,0.36313
1374770,0.12500,153.8125,163,82,0.35751
1374780,0.14000,155.1875,163,82,0.34676
1374790,0.14500,155.9375,163,82,0.34042
1374800,0.15000,156.3125,163,82,0.33382
1374810,0.14500,156.4375,163,82,0.32747
1374820,0.14000,156.3125,163,82,0.31502
1374830,0.12500,156.1875,163,82,0.30916
1374840,0.10000,155.9375,163,82,0.30330
1374850,0.06500,155.6875,163,82,0.29792
1374860,0.03000,155.1250,163,82,0.28938
1374870,-0.01500,154.6875,163,82,0.28669
1374880,-0.04500,154.0625,163,82,0.28303
1374890,-0.07000,153.3125,163,82,0.27888
1374900,-0.08500,151.0000,163,82,0.26984
1374910,-0.10500,149.2500,163,82,0.26520
1374920,-0.11000,146.8750,163,82,0.26081
1374930,-0.10500,143.8125,163,82,0.25763
1374940,-0.09500,135.1250,163,82,0.25983
1374950,-0.08500,129.5000,163,82,0.26838
1374960,-0.07000,123.5625,163,82,0.28400
1374970,-0.05000,117.8750,163,82,0.30305
1374980,-0.01000,109.5000,163,82,0.35824
1374990,0.03000,107.2500,163,82,0.39536
1375000,0.07000,105.9375,163,82,0.43541
1375010,0.11000,104.9375,163,82,0.51526
1375020,0.13500,104.6250,163,82,0.55214
1375030,0.14000,104.2500,163,82,0.58559
1375040,0.11500,103.6875,163,82,0.61514
1375050,0.06500,103.0000,163,82,0.64054
1375060,0.00500,101.1875,163,82,0.67814
1375070,-0.05500,100.1875,163,82,0.69011
1375080,-0.09500,99.1250,163,82,0.70159
1375090,-0.12500,98.1250,163,82,0.71160
1375100,-0.13500,96.0625,163,82,0.72625
1375110,-0.14000,95.1250,163,82,0.73089
1375120,-0.14500,94.2500,163,82,0.73407
1375130,-0.14500,93.3750,163,82,0.73578
1375140,-0.14000,91.8125,163,82,0.73504
1375150,-0.12500,91.0000,163,82,0.73284
1375160,-0.13000,90.1875,163,82,0.72894
1375170,-0.11000,89.3750,163,82,0.72357
1375180,0.12500,87.7500,163,82,0.70745
1375190,0.66500,86.8750,163,82,0.69597
1375200,1.02500,86.0625,163,82,0.68181
1375210,0.62500,85.2500,163,82,0.66471
1375220,-0.07000,83.6250,163,82,0.62442
1375230,-0.41500,82.8750,163,82,0.60269
1375240,-0.42500,82.1875,163,82,0.58120
1375250,-0.29500,81.4375,163,82,0.56068
1375260,-0.20500,80.0625,163,82,0.52674
1375270,-0.19000,79.3750,163,82,0.51404
1375280,-0.17500,78.6875,163,82,0.50208
1375290,-0.17000,78.0000,163,82,0.49109
1375300,-0.16000,76.6875,163,82,0.47106
1375310,-0.15000,76.1250,163,82,0.46178
1375320,-0.13500,75.7500,163,82,0.45275
