RelativeTimeMilliseconds,ECG,ART,ART (Sys),ART (Dia),PPG
1264590,0.04000,127.0625,196,99,0.43663
1264600,0.06000,125.4375,196,99,0.47985
1264610,0.07500,124.6875,196,99,0.51722
1264620,0.05000,124.0625,196,99,0.58266
1264630,0.00000,123.7500,196,99,0.61343
1264640,-0.05500,123.1875,196,99,0.64054
1264650,-0.09000,122.3750,196,99,0.66398
1264660,-0.11000,120.1250,196,99,0.69988
1264670,-0.12000,118.8125,196,99,0.71355
1264680,-0.12500,117.4375,196,99,0.72479
1264690,-0.13000,116.0000,196,99,0.73431
1264700,-0.13000,113.2500,196,99,0.74823
1264710,-0.13000,111.8125,196,99,0.75189
1264720,-0.15000,110.5000,196,99,0.75360
1264730,-0.18000,109.1250,196,99,0.75531
1264740,0.02000,106.6875,196,99,0.75556
1264750,0.59000,105.5000,196,99,0.75336
1264760,1.04500,104.3750,196,99,0.74896
1264770,0.70000,103.2500,196,99,0.74188
1264780,-0.07500,101.0625,196,99,0.71868
1264790,-0.47000,100.0625,196,99,0.70232
1264800,-0.45000,99.0625,196,99,0.68278
1264810,-0.29000,98.1250,196,99,0.66349
1264820,-0.19500,96.3750,196,99,0.62173
1264830,-0.17000,95.5000,196,99,0.59878
1264840,-0.16000,94.6250,196,99,0.57656
1264850,-0.15000,93.8125,196,99,0.55580
1264860,-0.14500,92.3125,196,99,0.52039
1264870,-0.14000,91.6250,196,99,0.50574
1264880,-0.13500,91.2500,196,99,0.49280
1264890,-0.12500,91.5625,196,99,0.48107
1264900,-0.11500,97.8125,196,99,0.46105
1264910,-0.09500,105.7500,196,99,0.45299
1264920,-0.08000,117.0625,196,99,0.44396
1264930,-0.06000,130.3750,196,99,0.43443
1264940,-0.03500,156.3125,196,99,0.41514
1264950,-0.01000,166.2500,196,99,0.40562
1264960,0.02000,173.3750,196,99,0.39609
1264970,0.05000,177.9375,196,99,0.38681
1264980,0.08000,181.3750,196,99,0.36874
1264990,0.09000,181.5625,196,99,0.35971
1265000,0.09500,181.3125,195,99,0.35092
1265010,0.10000,181.0625,195,99,0.34408
1265020,0.10000,180.7500,195,99,0.33138
1265030,0.10000,180.8125,195,99,0.32405
1265040,0.10000,181.0000,195,99,0.31673
1265050,0.09500,181.2500,195,99,0.30965
1265060,0.08000,181.7500,195,99,0.29646
1265070,0.05000,181.8125,195,99,0.29035
1265080,0.01000,181.5625,195,99,0.28449
1265090,-0.02500,180.8125,195,99,0.27863
1265100,-0.06500,177.5000,195,99,0.26862
1265110,-0.09500,174.4375,195,99,0.26593
1265120,-0.11500,170.3750,195,99,0.26227
1265130,-0.11500,158.7500,195,99,0.25836
1265140,-0.10500,151.6875,195,99,0.25763
1265150,-0.07500,144.3750,195,99,0.26471
1265160,-0.03500,137.6250,195,99,0.27863
1265170,0.01000,132.1250,195,99,0.30061
1265180,0.05000,125.6875,195,99,0.36679
1265190,0.08500,124.3125,195,99,0.40757
1265200,0.10000,123.6875,195,99,0.45006
1265210,0.10000,123.3750,195,99,0.48718
1265220,0.05500,122.6875,195,99,0.55360
1265230,-0.00500,122.0625,195,99,0.58486
1265240,-0.06000,121.1875,195,99,0.61245
1265250,-0.09500,120.0625,195,99,0.63614
1265260,-0.12500,117.4375,195,99,0.67302
1265270,-0.13500,116.0625,195,99,0.68694
1265280,-0.14500,114.6250,195,99,0.69841
1265290,-0.15000,113.2500,195,99,0.70794
1265300,-0.15500,110.6250,195,99,0.72088
1265310,-0.15500,109.3125,195,99,0.72405
1265320,-0.17500,108.0625,195,99,0.72698
1265330,-0.19000,106.8750,195,99,0.72918
1265340,0.06500,104.6250,195,99,0.72943
1265350,0.68000,103.5625,195,99,0.72674
1265360,1.02500,102.5625,195,99,0.72137
1265370,0.56500,101.5625,195,99,0.71306
1265380,-0.18000,99.5000,195,99,0.68694
1265390,-0.51000,98.5625,195,99,0.66935
1265400,-0.43500,97.6875,195,99,0.64908
1265410,-0.27500,96.8125,195,99,0.62979
1265420,-0.21000,95.1875,195,99,0.59048
1265430,-0.19000,94.3750,195,99,0.56996
1265440,-0.18500,93.6250,195,99,0.55067
1265450,-0.17000,92.8750,195,99,0.53309
1265460,-0.16000,91.5000,195,99,0.50379
1265470,-0.15500,90.9375,195,99,0.49133
1265480,-0.14000,90.6875,195,99,0.48010
1265490,-0.13000,91.3750,195,99,0.46960
1265500,-0.12500,99.1875,195,99,0.45079
1265510,-0.11500,108.0000,195,99,0.44322
1265520,-0.09500,119.8750,195,99,0.43468
1265530,-0.07000,133.3750,195,99,0.42564
1265540,-0.04500,158.5625,195,99,0.40708
1265550,-0.01500,167.8125,195,99,0.39805
1265560,0.02000,174.3750,195,99,0.38926
1265570,0.04000,178.4375,195,99,0.38046
1265580,0.06000,181.3125,195,99,0.36361
1265590,0.07000,181.3750,195,99,0.35556
1265600,0.08000,181.1250,195,99,0.34774
1265610,0.08000,180.8125,195,99,0.34164
1265620,0.08000,180.5625,195,99,0.33040
1265630,0.07500,180.6875,195,99,0.32381
1265640,0.07000,180.8750,195,99,0.31746
1265650,0.06500,181.1250,195,99,0.31111
1265660,0.04500,181.5000,195,99,0.29939
1265670,0.01500,181.5000,195,99,0.29402
1265680,-0.02000,181.0625,195,99,0.28889
1265690,-0.05500,180.2500,195,99,0.28400
1265700,-0.09500,176.5000,195,99,0.27570
1265710,-0.12000,173.3125,195,99,0.27302
1265720,-0.13000,168.9375,195,99,0.26935
1265730,-0.12500,163.4375,195,99,0.26593
1265740,-0.09500,149.7500,195,99,0.26740
1265750,-0.05500,142.5625,195,99,0.27595
1265760,-0.02000,136.1250,195,99,0.29182
1265770,0.02000,127.5625,195,99,0.31575
1265780,0.05500,125.5000,195,99,0.38535
1265790,0.07500,124.4375,195,99,0.42735
1265800,0.08000,123.9375,195,99,0.47057
1265810,0.07000,123.6875,195,99,0.50794
1265820,0.02500,122.9375,195,99,0.57363
1265830,-0.03000,122.1875,195,99,0.60440
1265840,-0.07500,121.2500,195,99,0.63175
1265850,-0.11000,120.1250,195,99,0.65519
1265860,-0.13500,117.5000,195,99,0.69158
1265870,-0.14500,116.1250,195,99,0.70525
1265880,-0.15500,114.7500,195,99,0.71648
1265890,-0.16000,113.3750,195,99,0.72576
1265900,-0.16000,110.7500,195,99,0.73748
1265910,-0.16500,109.5000,195,99,0.73993
1265920,-0.20000,108.2500,195,99,0.74237
1265930,-0.19000,105.9375,195,99,0.74408
1265940,0.24500,104.8750,195,99,0.74383
1265950,0.79000,103.8125,195,99,0.74066
1265960,1.02000,102.7500,195,99,0.73480
1265970,0.44500,101.7500,195,99,0.72601
1265980,-0.25000,99.8125,195,99,0.69866
1265990,-0.50500,98.9375,195,99,0.68034
1266000,-0.41500,98.0625,194,99,0.65983
1266010,-0.28000,97.1875,194,99,0.64029
1266020,-0.23000,95.5625,194,99,0.60098
1266030,-0.21500,94.7500,194,99,0.58071
1266040,-0.21000,94.0000,194,99,0.56190
1266050,-0.19500,93.2500,194,99,0.54505
1266060,-0.18000,91.8750,194,99,0.51624
1266070,-0.17000,91.3750,194,99,0.50403
1266080,-0.16500,91.3125,194,99,0.49304
1266090,-0.15500,92.3750,194,99,0.48254
1266100,-0.14500,101.9375,194,99,0.46398
1266110,-0.12500,111.8125,194,99,0.45641
1266120,-0.10500,124.5000,194,99,0.44762
1266130,-0.08000,138.2500,194,99,0.43858
1266140,-0.04500,162.5625,194,99,0.42002
1266150,-0.01500,171.0625,194,99,0.41074
1266160,0.02000,176.7500,194,99,0.40171
1266170,0.05000,180.0000,194,99,0.39267
1266180,0.07000,182.0000,194,99,0.37534
1266190,0.09000,181.8750,194,99,0.36703
1266200,0.09500,181.5625,194,99,0.35897
1266210,0.10000,181.2500,194,99,0.35287
1266220,0.09500,181.1250,194,99,0.34188
1266230,0.09500,181.3125,194,99,0.33553
1266240,0.09000,181.6250,194,99,0.32918
1266250,0.08000,182.0000,194,99,0.32308
1266260,0.06000,182.6250,194,99,0.31136
1266270,0.03000,182.5625,194,99,0.30574
1266280,-0.00500,182.1875,194,99,0.30061
1266290,-0.04000,181.3750,194,99,0.29548
1266300,-0.07500,177.6875,194,99,0.28645
1266310,-0.09500,174.5000,194,99,0.28352
1266320,-0.10500,170.3125,194,99,0.27961
1266330,-0.10500,165.0625,194,99,0.27668
1266340,-0.09000,151.6875,194,99,0.27985
1266350,-0.06500,144.3750,194,99,0.29011
1266360,-0.03500,137.3750,194,99,0.30794
1266370,0.00500,131.4375,194,99,0.33382
1266380,0.04000,124.1875,194,99,0.40586
1266390,0.06500,122.6250,194,99,0.44811
1266400,0.08000,122.0000,194,99,0.49084
1266410,0.06500,121.7500,194,99,0.52723
1266420,0.01500,121.4375,194,99,0.59048
1266430,-0.04000,121.0000,194,99,0.61978
1266440,-0.08500,120.3750,194,99,0.64542
1266450,-0.11500,119.4375,194,99,0.66740
1266460,-0.13500,117.0000,194,99,0.70085
1266470,-0.14500,115.6250,194,99,0.71331
1266480,-0.15000,114.2500,194,99,0.72381
1266490,-0.15000,112.8750,194,99,0.73236
1266500,-0.14000,110.1250,194,99,0.74335
1266510,-0.14000,108.7500,194,99,0.74554
1266520,-0.17000,107.5000,194,99,0.74774
1266530,-0.16500,106.2500,194,99,0.74921
1266540,0.10500,104.0000,194,99,0.74823
1266550,0.85500,102.9375,194,99,0.74481
1266560,1.02500,101.8750,194,99,0.73895
1266570,0.47000,100.8125,194,99,0.73016
1266580,-0.24000,98.7500,194,99,0.70305
1266590,-0.50000,97.7500,194,99,0.68474
1266600,-0.41500,96.8125,194,99,0.66374
1266610,-0.26000,95.0000,194,99,0.64347
1266620,-0.20000,94.1875,194,99,0.60147
1266630,-0.18500,93.3750,194,99,0.57949
1266640,-0.17000,92.6250,194,99,0.55849
1266650,-0.15500,91.8750,194,99,0.53944
1266660,-0.14500,90.5625,194,99,0.50794
1266670,-0.13500,90.0625,194,99,0.49499
1266680,-0.12500,90.0000,194,99,0.48352
1266690,-0.12000,91.0000,194,99,0.47302
1266700,-0.11000,100.0625,194,99,0.45421
1266710,-0.09500,109.6250,194,99,0.44640
1266720,-0.07500,121.9375,194,99,0.43761
1266730,-0.05500,135.4375,194,99,0.42833
1266740,-0.02500,159.5000,194,99,0.40952
1266750,-0.00500,167.9375,194,99,0.40024
1266760,0.02000,173.6250,194,99,0.39096
1266770,0.04000,177.0000,194,99,0.38193
1266780,0.05500,179.0000,194,99,0.36410
1266790,0.06000,178.8125,194,99,0.35556
1266800,0.06500,178.4375,194,99,0.34896
1266810,0.07000,178.0000,194,99,0.34335
1266820,0.07000,177.5625,194,99,0.32967
1266830,0.07500,177.5625,194,99,0.32259
1266840,0.07500,177.6875,194,99,0.31575
1266850,0.07000,177.8750,194,99,0.30916
1266860,0.06000,178.0625,194,99,0.29670
1266870,0.03000,177.7500,194,99,0.29084
1266880,0.00000,177.1250,194,99,0.28523
1266890,-0.03500,175.8750,194,99,0.27985
1266900,-0.07500,171.0000,194,99,0.27057
1266910,-0.09500,167.0000,194,99,0.26764
1266920,-0.10000,161.8125,194,99,0.26398
1266930,-0.09000,148.4375,194,99,0.26081
1266940,-0.06000,141.2500,194,99,0.26349
1266950,-0.02500,134.6875,194,99,0.27302
1266960,0.01000,129.3750,194,99,0.28987
1266970,0.05000,125.7500,194,99,0.31477
1266980,0.09000,122.3750,194,99,0.38559
1266990,0.12000,121.9375,194,99,0.42759
1267000,0.12000,121.7500,193,98,0.46520
1267010,0.09500,121.5625,193,98,0.49939
1267020,0.03500,120.5000,193,98,0.56996
1267030,-0.02500,119.6250,193,98,0.60098
1267040,-0.06500,118.5000,193,98,0.62759
1267050,-0.09500,117.2500,193,98,0.65031
1267060,-0.11500,114.5000,193,98,0.68474
1267070,-0.12500,113.0625,193,98,0.69744
1267080,-0.13000,111.6875,193,98,0.70794
1267090,-0.13500,109.0000,193,98,0.71648
1267100,-0.13000,107.7500,193,98,0.72772
1267110,-0.13500,106.5000,193,98,0.72991
1267120,-0.18000,105.3125,193,98,0.73211
1267130,-0.14000,104.1875,193,98,0.73333
1267140,0.23500,102.1250,193,98,0.73089
1267150,0.85500,101.1875,193,98,0.72625
1267160,0.93000,100.2500,193,98,0.71844
1267170,0.23500,99.3750,193,98,0.70720
1267180,-0.37500,97.5625,193,98,0.67546
1267190,-0.52500,96.6875,193,98,0.65568
1267200,-0.39500,95.8750,193,98,0.63639
1267210,-0.25500,95.0625,193,98,0.61758
1267220,-0.20500,93.5625,193,98,0.57607
1267230,-0.19500,92.7500,193,98,0.55653
1267240,-0.18500,92.0000,193,98,0.53895
1267250,-0.17000,91.3125,193,98,0.52332
1267260,-0.15500,90.0000,193,98,0.49719
1267270,-0.14000,89.6250,193,98,0.48620
1267280,-0.13000,89.8750,193,98,0.47595
1267290,-0.12500,91.4375,193,98,0.46593
1267300,-0.11000,102.8750,193,98,0.44786
1267310,-0.09500,113.5625,193,98,0.44029
1267320,-0.07500,126.5625,193,98,0.43175
1267330,-0.05500,140.1250,193,98,0.42271
1267340,-0.03000,162.7500,193,98,0.40415
1267350,0.00000,170.2500,193,98,0.39487
1267360,0.03000,175.0625,193,98,0.38584
1267370,0.05000,177.6875,193,98,0.37680
1267380,0.06000,178.9375,193,98,0.35971
1267390,0.06500,178.6250,193,98,0.35165
1267400,0.06500,178.1250,193,98,0.34554
1267410,0.06000,177.7500,193,98,0.34042
1267420,0.06000,177.4375,193,98,0.32821
1267430,0.06000,177.5000,193,98,0.32186
1267440,0.06500,177.6250,193,98,0.31575
1267450,0.06000,177.8125,193,98,0.31013
1267460,0.04000,177.9375,193,98,0.29939
1267470,0.00000,177.5625,193,98,0.29451
1267480,-0.03500,176.8125,193,98,0.28962
1267490,-0.07500,175.4375,193,98,0.28498
1267500,-0.10500,170.1875,193,98,0.27692
1267510,-0.12500,165.9375,193,98,0.27424
1267520,-0.12500,160.5000,193,98,0.27082
1267530,-0.11500,154.0000,193,98,0.26838
1267540,-0.08000,139.8125,193,98,0.27424
1267550,-0.04500,133.5000,193,98,0.28620
1267560,0.00000,128.6250,193,98,0.30598
1267570,0.04000,125.3750,193,98,0.33382
1267580,0.07500,122.6250,193,98,0.40928
1267590,0.09000,122.2500,193,98,0.45226
1267600,0.09000,122.1250,193,98,0.49035
1267610,0.06000,121.9375,193,98,0.52454
1267620,0.00000,120.7500,193,98,0.59341
1267630,-0.05500,119.7500,193,98,0.62320
1267640,-0.09000,118.6250,193,98,0.64884
1267650,-0.12000,117.3125,193,98,0.67033
1267660,-0.13500,114.4375,193,98,0.70281
1267670,-0.14500,113.0000,193,98,0.71502
1267680,-0.15000,111.6250,193,98,0.72479
1267690,-0.15000,110.2500,193,98,0.73284
1267700,-0.14500,107.6250,193,98,0.74286
1267710,-0.15500,106.4375,193,98,0.74457
1267720,-0.19000,105.3125,193,98,0.74628
1267730,-0.10500,104.2500,193,98,0.74701
1267740,0.33500,102.1875,193,98,0.74335
1267750,0.93500,101.1875,193,98,0.73797
1267760,0.91500,100.2500,193,98,0.72967
1267770,0.17500,99.3125,193,98,0.71795
1267780,-0.39000,97.5625,193,98,0.68498
1267790,-0.47500,96.7500,193,98,0.66447
1267800,-0.34000,95.9375,193,98,0.64493
1267810,-0.23500,94.4375,193,98,0.62589
1267820,-0.20500,93.6875,193,98,0.58462
1267830,-0.20000,92.9375,193,98,0.56557
1267840,-0.19000,92.2500,193,98,0.54847
1267850,-0.17500,91.5625,193,98,0.53333
1267860,-0.16000,90.4375,193,98,0.50794
1267870,-0.15500,90.1875,193,98,0.49719
1267880,-0.15000,90.6875,193,98,0.48718
1267890,-0.14500,92.7500,193,98,0.47717
1267900,-0.12500,106.1250,193,98,0.45861
1267910,-0.10500,117.7500,193,98,0.45079
1267920,-0.08500,131.3125,193,98,0.44200
1267930,-0.05500,144.8125,193,98,0.43248
1267940,-0.02500,166.3125,193,98,0.41343
1267950,0.00000,172.9375,193,98,0.40391
1267960,0.03000,177.0000,193,98,0.39463
1267970,0.05000,179.0000,193,98,0.38535
1267980,0.06000,179.5625,193,98,0.36801
1267990,0.06500,179.1875,193,98,0.35995
1268000,0.06500,178.8125,192,97,0.35360
1268010,0.06000,178.5000,192,97,0.34212
1268020,0.06000,178.5625,192,97,0.33553
1268030,0.05500,178.7500,192,97,0.32894
1268040,0.05000,179.0000,192,97,0.32259
1268050,0.03000,179.2500,192,97,0.31648
1268060,0.00000,179.2500,192,97,0.30549
1268070,-0.03500,178.8125,192,97,0.30037
1268080,-0.07000,177.9375,192,97,0.29548
1268090,-0.10500,176.3750,192,97,0.29060
1268100,-0.13000,170.9375,192,97,0.28181
1268110,-0.14500,166.6250,192,97,0.27912
1268120,-0.14000,161.2500,192,97,0.27595
1268130,-0.12500,147.8750,192,97,0.27399
1268140,-0.08500,140.6875,192,97,0.28205
1268150,-0.04500,134.1250,192,97,0.29573
1268160,-0.00500,128.8750,192,97,0.31746
1268170,0.03000,125.1250,192,97,0.34701
1268180,0.07000,121.7500,192,97,0.42442
1268190,0.09000,121.3125,192,97,0.46740
1268200,0.08000,121.2500,192,97,0.50476
1268210,0.04000,121.1250,192,97,0.53773
1268220,-0.01000,120.3125,192,97,0.60366
1268230,-0.06500,119.4375,192,97,0.63223
1268240,-0.09500,118.3750,192,97,0.65665
1268250,-0.12500,117.1250,192,97,0.67717
1268260,-0.14000,114.4375,192,97,0.70867
1268270,-0.15000,113.0625,192,97,0.72039
1268280,-0.15000,111.6875,192,97,0.73016
1268290,-0.15000,110.3750,192,97,0.73797
1268300,-0.14500,107.7500,192,97,0.74774
1268310,-0.16500,106.5000,192,97,0.74945
1268320,-0.21500,105.3750,192,97,0.75067
1268330,-0.10000,104.2500,192,97,0.75092
1268340,0.36500,102.2500,192,97,0.74652
1268350,0.89000,101.2500,192,97,0.74115
1268360,0.72500,100.1875,192,97,0.73284
1268370,-0.00500,99.1875,192,97,0.72137
1268380,-0.47000,97.0625,192,97,0.68889
1268390,-0.51000,96.0625,192,97,0.66838
1268400,-0.35500,95.1250,192,97,0.64884
1268410,-0.23500,94.1250,192,97,0.62955
1268420,-0.19500,92.3750,192,97,0.58706
1268430,-0.17500,91.5625,192,97,0.56703
1268440,-0.16000,90.8125,192,97,0.54896
1268450,-0.14500,90.1875,192,97,0.53284
1268460,-0.13500,89.3125,192,97,0.50623
1268470,-0.12500,89.1875,192,97,0.49475
1268480,-0.11500,89.6875,192,97,0.48425
1268490,-0.11500,91.6875,192,97,0.47399
1268500,-0.10000,104.0000,192,97,0.45788
1268510,-0.08500,115.0000,192,97,0.44933
1268520,-0.06500,127.8750,192,97,0.44005
1268530,-0.03500,141.0625,192,97,0.43077
1268540,-0.00500,162.3125,192,97,0.41221
1268550,0.01500,168.9375,192,97,0.40317
1268560,0.04000,173.0000,192,97,0.39438
1268570,0.05000,174.9375,192,97,0.38584
1268580,0.06000,175.3125,192,97,0.36947
1268590,0.06000,174.8125,192,97,0.36142
1268600,0.05500,174.2500,192,97,0.35507
1268610,0.04500,173.7500,192,97,0.34969
1268620,0.04000,173.2500,192,97,0.33651
1268630,0.04000,173.1250,192,97,0.32943
1268640,0.04000,173.1250,192,97,0.32234
1268650,0.03500,173.0000,192,97,0.31551
1268660,0.01500,172.4375,192,97,0.30232
1268670,-0.01500,171.6875,192,97,0.29621
1268680,-0.05000,170.5000,192,97,0.29084
1268690,-0.08000,168.6250,192,97,0.28571
1268700,-0.09500,162.0000,192,97,0.27937
1268710,-0.09500,156.9375,192,97,0.27570
1268720,-0.08500,150.8125,192,97,0.27228
1268730,-0.06000,144.0000,192,97,0.27033
1268740,-0.02000,130.9375,192,97,0.27692
1268750,0.02000,126.0625,192,97,0.28938
1268760,0.06000,122.7500,192,97,0.30940
1268770,0.09000,120.8125,192,97,0.33724
1268780,0.12000,119.6250,192,97,0.41099
1268790,0.13000,119.5000,192,97,0.45275
1268800,0.11000,119.3125,192,97,0.48962
1268810,0.05000,118.8750,192,97,0.52234
1268820,-0.02000,117.2500,192,97,0.58779
1268830,-0.08000,116.0625,192,97,0.61612
1268840,-0.11500,114.8125,192,97,0.64054
1268850,-0.13500,113.5000,192,97,0.66081
1268860,-0.14500,110.8750,192,97,0.69133
1268870,-0.15000,109.6250,192,97,0.70256
1268880,-0.15000,108.3750,192,97,0.71160
1268890,-0.15000,107.1875,192,97,0.71868
1268900,-0.14500,104.8750,192,97,0.72454
1268910,-0.16000,103.7500,192,97,0.72625
1268920,-0.20500,102.7500,192,97,0.72723
1268930,-0.05000,101.7500,192,97,0.72674
1268940,0.47000,99.8125,192,97,0.71941
1268950,0.94000,98.8125,192,97,0.71184
1268960,0.67000,97.8125,192,97,0.70110
1268970,-0.07500,96.7500,192,97,0.68718
1268980,-0.48500,94.6250,192,97,0.65079
1268990,-0.44500,93.6875,192,97,0.62955
1269000,-0.31500,92.7500,189,96,0.61001
1269010,-0.22000,91.0000,189,96,0.57241
1269020,-0.20000,90.1875,189,96,0.55385
1269030,-0.19500,89.5000,189,96,0.53675
1269040,-0.18500,88.8125,189,96,0.52137
1269050,-0.17000,88.2500,189,96,0.50769
1269060,-0.16000,87.2500,189,96,0.48425
1269070,-0.14500,87.1250,189,96,0.47350
1269080,-0.13500,87.8125,189,96,0.46325
1269090,-0.11500,90.1875,189,96,0.45324
1269100,-0.09500,103.5625,189,96,0.43712
1269110,-0.07500,114.9375,189,96,0.42833
1269120,-0.04500,128.0625,189,96,0.41929
1269130,-0.01500,141.1875,189,96,0.41026
1269140,0.01000,161.9375,189,96,0.39243
1269150,0.03500,168.3750,189,96,0.38388
1269160,0.06000,172.2500,189,96,0.37558
1269170,0.07000,174.1250,189,96,0.36752
1269180,0.08000,174.5000,189,96,0.35214
1269190,0.09000,173.8750,189,96,0.34457
1269200,0.09000,173.1875,189,96,0.33871
1269210,0.09000,172.5625,189,96,0.33016
1269220,0.09000,171.6250,189,96,0.30891
1269230,0.09000,171.3750,189,96,0.30061
1269240,0.09000,171.1875,189,96,0.29304
1269250,0.07500,171.0000,189,96,0.28620
1269260,0.04500,170.4375,189,96,0.27350
1269270,0.00500,169.6875,189,96,0.26789
1269280,-0.03000,168.3750,189,96,0.26252
1269290,-0.05500,166.2500,189,96,0.25714
1269300,-0.07000,158.9375,189,96,0.25031
1269310,-0.07000,153.5000,189,96,0.24615
1269320,-0.05500,147.0000,189,96,0.24225
1269330,-0.02500,139.9375,189,96,0.24005
1269340,0.02000,127.0625,189,96,0.24811
1269350,0.06000,122.6250,189,96,0.26203
1269360,0.09500,119.8750,189,96,0.28425
1269370,0.12500,118.5000,189,96,0.31453
1269380,0.14500,117.9375,189,96,0.39414
1269390,0.14500,118.0000,189,96,0.43907
1269400,0.12500,117.8750,189,96,0.47839
1269410,0.06000,117.5000,189,96,0.51331
1269420,-0.00500,115.8125,189,96,0.58315
1269430,-0.06000,114.6250,189,96,0.61343
1269440,-0.09500,113.3125,189,96,0.63932
1269450,-0.11500,111.9375,189,96,0.66081
1269460,-0.12500,109.3125,189,96,0.69304
1269470,-0.13000,108.0000,189,96,0.70476
1269480,-0.12500,106.6875,189,96,0.71404
1269490,-0.12500,104.3125,189,96,0.72137
1269500,-0.12500,103.1875,189,96,0.72796
1269510,-0.15500,102.1250,189,96,0.73016
1269520,-0.18500,101.0625,189,96,0.73138
1269530,0.01000,100.1250,189,96,0.73114
1269540,0.56500,98.3125,189,96,0.72381
1269550,0.98000,97.4375,189,96,0.71600
1269560,0.64500,96.5625,189,96,0.70476
1269570,-0.20000,94.8125,189,96,0.67228
1269580,-0.45500,94.0000,189,96,0.65177
1269590,-0.42500,93.1875,189,96,0.62955
1269600,-0.27000,92.3750,189,96,0.60928
1269610,-0.19000,91.6250,189,96,0.59048
1269620,-0.17500,90.1250,189,96,0.55189
1269630,-0.17000,89.3750,189,96,0.53480
1269640,-0.16000,88.7500,189,96,0.51966
1269650,-0.15500,88.0625,189,96,0.50623
1269660,-0.14500,86.9375,189,96,0.48352
1269670,-0.14000,86.7500,189,96,0.47326
1269680,-0.13500,87.3750,189,96,0.46325
1269690,-0.12000,89.8125,189,96,0.45348
1269700,-0.10500,104.1250,189,96,0.43712
1269710,-0.09000,116.0625,189,96,0.42808
1269720,-0.07000,129.5000,189,96,0.41856
1269730,-0.04500,142.6250,189,96,0.40879
1269740,-0.02000,162.8750,189,96,0.38950
1269750,0.00000,168.8750,189,96,0.37998
1269760,0.02000,172.4375,189,96,0.37070
1269770,0.03000,174.5625,189,96,0.36166
1269780,0.02500,174.3750,189,96,0.34457
1269790,0.02000,173.8750,189,96,0.33675
1269800,0.02500,173.3125,189,96,0.33065
1269810,0.03000,172.8125,189,96,0.32552
1269820,0.04500,172.1250,189,96,0.31306
1269830,0.06000,172.0000,189,96,0.30672
1269840,0.07000,171.9375,189,96,0.30037
1269850,0.06000,171.8750,189,96,0.29426
1269860,0.03500,171.3750,189,96,0.28278
1269870,-0.00500,170.6875,189,96,0.27741
1269880,-0.04500,169.4375,189,96,0.27228
1269890,-0.08500,167.4375,189,96,0.26716
1269900,-0.10500,160.3750,189,96,0.26056
1269910,-0.10500,155.1250,189,96,0.25665
1269920,-0.09500,148.8750,189,96,0.25275
1269930,-0.05500,142.0000,189,96,0.25055
1269940,-0.00500,129.3750,189,96,0.25910
1269950,0.04500,124.8750,189,96,0.27350
1269960,0.09000,121.8125,189,96,0.29621
1269970,0.12000,119.3125,189,96,0.32723
1269980,0.14500,119.0000,189,96,0.40781
1269990,0.14500,118.7500,189,96,0.45275
1270000,0.11500,118.4375,188,96,0.49206
1270010,0.05500,117.9375,188,96,0.52698
1270020,-0.01500,116.3750,188,96,0.59707
1270030,-0.06500,115.2500,188,96,0.62735
1270040,-0.09500,114.0000,188,96,0.65348
1270050,-0.11000,112.6875,188,96,0.67521
1270060,-0.12500,109.9375,188,96,0.70818
1270070,-0.13000,108.6250,188,96,0.72039
1270080,-0.13500,107.3750,188,96,0.73016
1270090,-0.13500,106.0625,188,96,0.73773
1270100,-0.13500,103.7500,188,96,0.74481
1270110,-0.17000,102.6875,188,96,0.74701
1270120,-0.20000,101.6250,188,96,0.74823
1270130,0.02000,100.6875,188,96,0.74799
1270140,0.60500,98.8750,188,96,0.74090
1270150,0.99000,98.0000,188,96,0.73333
1270160,0.60000,97.0625,188,96,0.72259
1270170,-0.13500,96.2500,188,96,0.70818
1270180,-0.48000,94.5000,188,96,0.67082
1270190,-0.42500,93.6875,188,96,0.64933
1270200,-0.27500,92.9375,188,96,0.62930
1270210,-0.20500,92.1250,188,96,0.61026
1270220,-0.18500,90.5625,188,96,0.57094
1270230,-0.17000,89.8750,188,96,0.55311
1270240,-0.16000,89.1875,188,96,0.53724
1270250,-0.14500,88.5625,188,96,0.52308
1270260,-0.12500,87.5625,188,96,0.49866
1270270,-0.12000,87.5000,188,96,0.48767
1270280,-0.11500,88.2500,188,96,0.47717
1270290,-0.11500,90.9375,188,96,0.46667
1270300,-0.10500,105.4375,188,96,0.44933
1270310,-0.08500,117.3125,188,96,0.43980
1270320,-0.06000,130.5625,188,96,0.43004
1270330,-0.03000,143.5000,188,96,0.42002
1270340,0.00000,163.3125,188,96,0.39976
1270350,0.02500,169.1875,188,96,0.39023
1270360,0.04000,172.6875,188,96,0.38071
1270370,0.05000,174.3125,188,96,0.37167
1270380,0.05000,174.3750,188,96,0.35433
1270390,0.05000,173.7500,188,96,0.34774
1270400,0.06000,173.1250,188,96,0.34212
1270410,0.07500,172.5625,188,96,0.33578
1270420,0.08500,171.8750,188,96,0.32210
1270430,0.09000,171.7500,188,96,0.31551
1270440,0.08500,171.6875,188,96,0.30891
1270450,0.07000,171.5625,188,96,0.30281
1270460,0.04500,171.0000,188,96,0.29109
1270470,0.00000,170.2500,188,96,0.28571
1270480,-0.03500,169.0000,188,96,0.28034
1270490,-0.07500,167.0000,188,96,0.27521
1270500,-0.09500,160.0000,188,96,0.26838
1270510,-0.10500,154.8125,188,96,0.26422
1270520,-0.09500,148.5625,188,96,0.26032
1270530,-0.06000,141.8125,188,96,0.25812
1270540,-0.01500,129.3750,188,96,0.26667
1270550,0.02500,125.0000,188,96,0.28107
1270560,0.05500,122.1250,188,96,0.30354
1270570,0.08500,120.4375,188,96,0.33431
1270580,0.11000,119.2500,188,96,0.41441
1270590,0.11000,119.0000,188,96,0.45324
1270600,0.08000,118.6250,188,96,0.48962
1270610,0.01500,118.1250,188,96,0.52894
1270620,-0.05000,116.3750,188,96,0.60147
1270630,-0.09500,115.3125,188,96,0.63175
1270640,-0.12500,114.0625,188,96,0.65739
1270650,-0.15500,112.7500,188,96,0.67863
1270660,-0.16500,110.1875,188,96,0.71013
1270670,-0.18000,108.9375,188,96,0.72137
1270680,-0.18000,107.6250,188,96,0.73040
1270690,-0.17500,106.4375,188,96,0.73748
1270700,-0.17500,104.1250,188,96,0.74359
1270710,-0.21000,103.0625,188,96,0.74554
1270720,-0.23000,102.0625,188,96,0.74652
1270730,0.02000,101.0625,188,96,0.74603
1270740,0.61500,99.1875,188,96,0.73895
1270750,0.93000,98.3125,188,96,0.73138
1270760,0.48500,97.4375,188,96,0.72063
1270770,-0.20500,96.5000,188,96,0.70647
1270780,-0.50500,94.7500,188,96,0.66935
1270790,-0.42500,93.8750,188,96,0.65006
1270800,-0.27000,93.0000,188,96,0.63126
1270810,-0.20500,92.1875,188,96,0.61074
1270820,-0.18500,90.5625,188,96,0.57045
1270830,-0.17500,89.8125,188,96,0.55238
1270840,-0.16500,89.5521,188,96,0.54591
1270850,-0.15000,89.1250,188,96,0.53626
1270860,-0.13500,87.8750,188,96,0.50867
1270870,-0.12000,87.3750,188,96,0.49670
1270880,-0.11500,87.2500,188,96,0.48547
1270890,-0.10500,88.0625,188,96,0.47448
1270900,-0.08500,96.5000,188,96,0.45470
1270910,-0.06500,105.5625,188,96,0.44664
1270920,-0.04500,117.4375,188,96,0.43736
1270930,-0.02000,130.6875,188,96,0.42759
1270940,0.00000,154.3750,188,96,0.40781
1270950,0.03000,162.7500,188,96,0.39805
1270960,0.04500,168.3750,188,96,0.38852
1270970,0.06000,171.6250,188,96,0.37924
1270980,0.06000,173.3750,188,96,0.36166
1270990,0.07000,173.0625,188,96,0.35336
1271000,0.07000,172.4375,186,95,0.34676
1271010,0.07500,171.8125,186,95,0.34115
1271020,0.08000,170.8750,186,95,0.32796
1271030,0.09000,170.6250,186,95,0.32112
1271040,0.09000,170.4375,186,95,0.31429
1271050,0.08000,170.3125,186,95,0.30769
1271060,0.05000,169.8750,186,95,0.29524
1271070,0.02000,169.3750,186,95,0.28938
1271080,-0.01500,168.5625,186,95,0.28376
1271090,-0.04500,167.1250,186,95,0.27839
1271100,-0.06000,161.7500,186,95,0.26886
1271110,-0.06000,157.5000,186,95,0.26545
1271120,-0.04500,152.1250,186,95,0.26105
1271130,-0.01500,145.8125,186,95,0.25665
1271140,0.02500,132.8125,186,95,0.25519
1271150,0.06000,127.5000,186,95,0.26178
1271160,0.08500,123.5000,186,95,0.27595
1271170,0.11500,120.8750,186,95,0.29817
1271180,0.14000,118.7500,186,95,0.36630
1271190,0.14000,118.5000,186,95,0.40855
1271200,0.10000,118.2500,186,95,0.44713
1271210,0.04000,117.8750,186,95,0.48303
1271220,-0.02000,116.5000,186,95,0.55946
1271230,-0.06500,115.5000,186,95,0.59365
1271240,-0.09500,114.3125,186,95,0.62344
1271250,-0.12000,113.0625,186,95,0.64884
1271260,-0.13500,110.5000,186,95,0.68742
1271270,-0.13500,109.1875,186,95,0.70183
1271280,-0.14500,107.8750,186,95,0.71306
1271290,-0.13500,106.6250,186,95,0.72186
1271300,-0.12000,104.1875,186,95,0.73260
1271310,-0.14500,103.1250,186,95,0.73480
1271320,-0.17000,102.0625,186,95,0.73651
1271330,0.05000,101.1250,186,95,0.73748
1271340,0.63000,99.3750,186,95,0.73455
1271350,0.92500,98.5000,186,95,0.72967
1271360,0.42000,97.6250,186,95,0.72186
1271370,-0.24500,96.6250,186,95,0.71087
1271380,-0.49500,94.7500,186,95,0.67937
1271390,-0.41500,93.8750,186,95,0.65983
1271400,-0.25000,93.0000,186,95,0.64103
1271410,-0.16500,92.1875,186,95,0.62247
1271420,-0.14500,90.6875,186,95,0.58266
1271430,-0.13000,89.9375,186,95,0.56410
1271440,-0.12000,89.1875,186,95,0.54725
1271450,-0.10500,88.5625,186,95,0.53211
1271460,-0.10500,87.3750,186,95,0.50647
1271470,-0.10000,86.9375,186,95,0.49524
1271480,-0.09000,86.8125,186,95,0.48474
1271490,-0.07500,87.5625,186,95,0.47424
1271500,-0.06500,95.0625,186,95,0.45519
1271510,-0.05000,103.5625,186,95,0.44713
1271520,-0.03000,114.8750,186,95,0.43810
1271530,0.00000,127.6875,186,95,0.42857
1271540,0.02000,151.1250,186,95,0.40952
1271550,0.04000,159.6250,186,95,0.40000
1271560,0.05500,165.4375,186,95,0.39096
1271570,0.06500,168.8125,186,95,0.38193
1271580,0.07000,170.5625,186,95,0.36508
1271590,0.07000,170.0000,186,95,0.35702
1271600,0.06500,169.1875,186,95,0.35092
1271610,0.07000,168.2500,186,95,0.34554
1271620,0.07000,166.6250,186,95,0.33284
1271630,0.08000,166.0625,186,95,0.32625
1271640,0.08000,165.6875,186,95,0.31990
1271650,0.06000,165.3125,186,95,0.31355
1271660,0.03000,164.4375,186,95,0.30159
1271670,-0.00500,163.5625,186,95,0.29597
1271680,-0.04000,162.2500,186,95,0.29084
1271690,-0.05500,160.2500,186,95,0.28571
1271700,-0.06000,153.0000,186,95,0.27717
1271710,-0.05000,147.5625,186,95,0.27424
1271720,-0.03000,141.3750,186,95,0.27057
1271730,0.01000,134.8750,186,95,0.26691
1271740,0.05000,123.8750,186,95,0.26569
1271750,0.09000,120.5000,186,95,0.27155
1271760,0.12000,118.6250,186,95,0.28425
1271770,0.14000,117.8750,186,95,0.30476
1271780,0.15000,117.8125,186,95,0.36850
1271790,0.14500,117.7500,186,95,0.40879
1271800,0.11000,117.3750,186,95,0.44591
1271810,0.04000,116.6875,186,95,0.48083
1271820,-0.03000,114.7500,186,95,0.55531
1271830,-0.07500,113.5000,186,95,0.58877
1271840,-0.10500,112.1875,186,95,0.61832
1271850,-0.12500,110.8750,186,95,0.64322
1271860,-0.13500,108.1250,186,95,0.68083
1271870,-0.14500,106.8750,186,95,0.69426
1271880,-0.15000,105.6875,186,95,0.70501
1271890,-0.15000,103.3750,186,95,0.71331
1271900,-0.15500,102.3125,186,95,0.72332
1271910,-0.19000,101.3750,186,95,0.72503
1271920,-0.19000,100.4375,186,95,0.72625
1271930,0.09000,99.5625,186,95,0.72625
1271940,0.70000,98.1250,186,95,0.71990
1271950,0.97000,97.3750,186,95,0.71258
1271960,0.43000,96.6250,186,95,0.70232
1271970,-0.25500,95.8125,186,95,0.68864
1271980,-0.49500,94.1875,186,95,0.65348
1271990,-0.40000,93.4375,186,95,0.63346
1272000,-0.25500,92.6875,184,94,0.61514
1272010,-0.20000,91.9375,184,94,0.59829
1272020,-0.18000,90.5000,184,94,0.56459
1272030,-0.17500,89.8125,184,94,0.54945
1272040,-0.16500,89.1250,184,94,0.53602
1272050,-0.14500,88.5000,184,94,0.52430
1272060,-0.13500,87.4375,184,94,0.50354
1272070,-0.13000,87.0625,184,94,0.49402
1272080,-0.12500,87.2500,184,94,0.48449
1272090,-0.11500,88.6875,184,94,0.47497
1272100,-0.09500,99.4375,184,94,0.45739
1272110,-0.07500,109.6875,184,94,0.44982
1272120,-0.05000,122.3125,184,94,0.44127
1272130,-0.02000,135.6250,184,94,0.43223
1272140,0.00000,158.0000,184,94,0.41416
1272150,0.02000,165.4375,184,94,0.40537
1272160,0.03000,170.1875,184,94,0.39683
1272170,0.04000,172.8750,184,94,0.38877
1272180,0.04000,174.0000,184,94,0.37314
1272190,0.04000,173.5625,184,94,0.36581
1272200,0.04000,173.0000,184,94,0.36020
1272210,0.04500,172.5000,184,94,0.35556
1272220,0.04500,171.6250,184,94,0.34457
1272230,0.04500,171.3750,184,94,0.33871
1272240,0.04000,171.3125,184,94,0.33309
1272250,0.02500,171.2500,184,94,0.32772
1272260,-0.00500,171.0625,184,94,0.31746
1272270,-0.04500,170.6875,184,94,0.31258
1272280,-0.08000,169.8125,184,94,0.30794
1272290,-0.10000,168.3125,184,94,0.30354
1272300,-0.10500,162.7500,184,94,0.29792
1272310,-0.10500,158.2500,184,94,0.29402
1272320,-0.09500,152.6875,184,94,0.28987
1272330,-0.05500,146.2500,184,94,0.28669
1272340,-0.00500,133.2500,184,94,0.28840
1272350,0.03000,128.0625,184,94,0.29719
1272360,0.06000,124.3750,184,94,0.31355
1272370,0.09000,122.1250,184,94,0.33822
1272380,0.11000,120.3750,184,94,0.40879
1272390,0.11500,120.1250,184,94,0.45104
1272400,0.08500,119.9375,184,94,0.48913
1272410,0.03000,119.5625,184,94,0.52405
1272420,-0.04000,118.1250,184,94,0.59731
1272430,-0.09000,117.1250,184,94,0.62979
1272440,-0.11500,115.9375,184,94,0.65812
1272450,-0.13000,114.6250,184,94,0.68205
1272460,-0.13500,111.9375,184,94,0.71844
1272470,-0.14500,110.6875,184,94,0.73187
1272480,-0.15500,109.3750,184,94,0.74261
1272490,-0.15500,108.1875,184,94,0.75140
1272500,-0.16000,105.8125,184,94,0.75946
1272510,-0.19000,104.6875,184,94,0.76239
1272520,-0.20500,103.5625,184,94,0.76459
1272530,0.03500,102.5625,184,94,0.76581
1272540,0.63000,100.6875,184,94,0.76264
1272550,0.97500,99.7500,184,94,0.75751
1272560,0.49500,98.8125,184,94,0.74945
1272570,-0.21000,97.8750,184,94,0.73822
1272580,-0.49500,96.0625,184,94,0.70623
1272590,-0.42500,95.1875,184,94,0.68645
1272600,-0.28000,94.4375,184,94,0.66740
1272610,-0.21500,93.6250,184,94,0.64908
1272620,-0.20000,92.0625,184,94,0.60977
1272630,-0.19000,91.2500,184,94,0.59145
1272640,-0.18500,90.5000,184,94,0.57485
1272650,-0.17000,89.7500,184,94,0.55971
1272660,-0.16000,88.3750,184,94,0.53407
1272670,-0.15000,87.9375,184,94,0.52283
1272680,-0.14000,88.0000,184,94,0.51209
1272690,-0.12500,89.1875,184,94,0.50159
1272700,-0.11000,99.1875,184,94,0.48425
1272710,-0.09000,109.2500,184,94,0.47497
1272720,-0.06500,121.8125,184,94,0.46520
1272730,-0.03500,135.1875,184,94,0.45519
1272740,-0.00500,158.0000,184,94,0.43541
1272750,0.02000,165.6875,184,94,0.42564
1272760,0.04000,170.6875,184,94,0.41612
1272770,0.05500,173.5000,184,94,0.40708
1272780,0.06000,174.8750,184,94,0.38974
1272790,0.06500,174.5000,184,94,0.38144
1272800,0.06000,173.9375,184,94,0.37485
1272810,0.06000,173.4375,184,94,0.36899
1272820,0.06000,172.8750,184,94,0.35556
1272830,0.06500,172.8750,184,94,0.34847
1272840,0.06000,172.9375,184,94,0.34164
1272850,0.04500,173.1250,184,94,0.33504
1272860,0.01000,173.1250,184,94,0.32259
1272870,-0.03500,172.8125,184,94,0.31673
1272880,-0.07000,172.1250,184,94,0.31111
1272890,-0.09500,170.9375,184,94,0.30574
1272900,-0.11500,166.0625,184,94,0.29866
1272910,-0.11500,162.1250,184,94,0.29402
1272920,-0.11500,157.1875,184,94,0.28913
1272930,-0.09000,151.2500,184,94,0.28474
1272940,-0.04500,138.0000,184,94,0.28425
1272950,-0.00500,131.9375,184,94,0.29158
1272960,0.02500,127.1250,184,94,0.30598
1272970,0.05500,123.8125,184,94,0.32845
1272980,0.07500,120.5625,184,94,0.39585
1272990,0.07500,120.0000,184,94,0.43687
1273000,0.04000,119.6875,182,93,0.47424
1273010,-0.01500,119.4375,182,93,0.50867
1273020,-0.07000,118.3125,182,93,0.58095
1273030,-0.11000,117.4375,182,93,0.61343
1273040,-0.13500,116.3750,182,93,0.64176
1273050,-0.14500,115.1875,182,93,0.66569
1273060,-0.15000,112.6250,182,93,0.70232
1273070,-0.15000,111.2500,182,93,0.71600
1273080,-0.15500,109.9375,182,93,0.72698
1273090,-0.15500,108.7500,182,93,0.73578
1273100,-0.15000,106.5000,182,93,0.74481
1273110,-0.17000,105.2500,182,93,0.74823
1273120,-0.20000,103.9375,182,93,0.75092
1273130,0.00000,102.8750,182,93,0.75263
1273140,0.56000,101.0000,182,93,0.75140
1273150,0.93000,99.8750,182,93,0.74774
1273160,0.50500,98.8125,182,93,0.74139
1273170,-0.18000,97.8750,182,93,0.73187
1273180,-0.49000,96.0625,182,93,0.70354
1273190,-0.52000,95.1875,182,93,0.68523
1273200,-0.51000,94.3125,182,93,0.66716
1273210,-0.42500,93.5000,182,93,0.64908
1273220,-0.25500,92.0000,182,93,0.60830
1273230,-0.16000,91.3125,182,93,0.58828
1273240,-0.14500,90.6875,182,93,0.56972
1273250,-0.13000,90.0000,182,93,0.55311
1273260,-0.11500,88.8125,182,93,0.52454
1273270,-0.10500,88.3750,182,93,0.51258
1273280,-0.10500,88.2500,182,93,0.50134
1273290,-0.09500,89.0625,182,93,0.49084
1273300,-0.07500,97.1250,182,93,0.47375
1273310,-0.06000,105.9375,182,93,0.46129
1273320,-0.04000,117.5000,182,93,0.44664
1273330,-0.01000,130.4375,182,93,0.43443
1273340,0.01500,153.6250,182,93,0.41368
1273350,0.04000,161.8750,182,93,0.40391
1273360,0.05500,167.4375,182,93,0.39463
1273370,0.06500,170.6250,182,93,0.38559
1273380,0.06500,172.2500,182,93,0.36825
1273390,0.06000,171.8125,182,93,0.35995
1273400,0.06000,171.0625,182,93,0.35336
1273410,0.06000,169.6250,182,93,0.34774
1273420,0.06000,169.0625,182,93,0.33431
1273430,0.06500,168.6875,182,93,0.32747
1273440,0.06000,168.3750,182,93,0.32063
1273450,0.04000,168.1875,182,93,0.31404
1273460,0.00000,167.7500,182,93,0.30159
1273470,-0.03500,167.2500,182,93,0.29597
1273480,-0.07000,166.3750,182,93,0.29060
1273490,-0.09500,164.9375,182,93,0.28547
1273500,-0.10000,159.2500,182,93,0.27912
1273510,-0.09500,154.6875,182,93,0.27521
1273520,-0.08000,149.0625,182,93,0.27082
1273530,-0.04000,142.6250,182,93,0.26667
1273540,0.00500,130.0000,182,93,0.26471
1273550,0.04500,125.2500,182,93,0.27033
1273560,0.07000,121.9375,182,93,0.28254
1273570,0.10000,120.0000,182,93,0.30232
1273580,0.12000,118.6875,182,93,0.36361
1273590,0.11500,118.5000,182,93,0.40220
1273600,0.08000,118.3125,182,93,0.43810
1273610,0.00000,117.2500,182,93,0.50842
1273620,-0.04500,116.3750,182,93,0.54408
1273630,-0.08500,115.3125,182,93,0.57680
1273640,-0.11000,114.1250,182,93,0.60562
1273650,-0.12000,112.8125,182,93,0.63004
1273660,-0.13000,110.1250,182,93,0.66691
1273670,-0.13500,108.8750,182,93,0.68034
1273680,-0.14500,107.6250,182,93,0.69109
1273690,-0.14000,106.4375,182,93,0.69963
1273700,-0.14000,104.0625,182,93,0.70818
1273710,-0.16000,102.9375,182,93,0.71136
1273720,-0.19000,101.8750,182,93,0.71355
1273730,-0.00500,100.9375,182,93,0.71477
1273740,0.54000,99.1250,182,93,0.71184
1273750,0.96500,98.2500,182,93,0.70720
1273760,0.62000,97.3750,182,93,0.69963
1273770,-0.07000,95.6250,182,93,0.68889
1273780,-0.41500,94.7500,182,93,0.65861
1273790,-0.38000,94.0000,182,93,0.64005
1273800,-0.22500,93.1875,182,93,0.62222
1273810,-0.15000,92.4375,182,93,0.60488
1273820,-0.14500,91.0000,182,93,0.56752
1273830,-0.14000,90.3125,182,93,0.55018
1273840,-0.14000,89.6875,182,93,0.53455
1273850,-0.13500,89.0625,182,93,0.52063
1273860,-0.12500,87.9375,182,93,0.49646
1273870,-0.12500,87.5000,182,93,0.48596
1273880,-0.12500,87.3750,182,93,0.47595
1273890,-0.11000,88.1250,182,93,0.46642
1273900,-0.09500,95.8125,182,93,0.45055
1273910,-0.07500,104.4375,182,93,0.44200
1273920,-0.05500,116.0000,182,93,0.43297
1273930,-0.03000,129.0000,182,93,0.42369
1273940,-0.00500,152.6875,182,93,0.40513
1273950,0.01500,161.1875,182,93,0.39585
1273960,0.03500,167.0000,182,93,0.38681
1273970,0.04500,170.3750,182,93,0.37802
1273980,0.05000,172.1875,182,93,0.36142
1273990,0.05000,171.8125,182,93,0.35507
1274000,0.04500,171.1875,181,92,0.34969
1274010,0.04500,170.4375,181,92,0.34335
1274020,0.05000,169.3125,181,92,0.33065
1274030,0.05000,168.9375,181,92,0.32430
1274040,0.04500,168.7500,181,92,0.31795
1274050,0.02500,168.5625,181,92,0.31184
1274060,-0.01000,168.1250,181,92,0.30037
1274070,-0.06000,167.6875,181,92,0.29524
1274080,-0.09000,166.8750,181,92,0.29011
1274090,-0.11000,165.5000,181,92,0.28547
1274100,-0.11500,160.3750,181,92,0.27961
1274110,-0.10500,156.1875,181,92,0.27595
1274120,-0.09000,150.8750,181,92,0.27179
1274130,-0.06000,144.6250,181,92,0.26789
1274140,-0.02000,131.8125,181,92,0.26569
1274150,0.02000,126.6875,181,92,0.27082
1274160,0.05500,123.0000,181,92,0.28254
1274170,0.08500,120.7500,181,92,0.30183
1274180,0.11000,119.0625,181,92,0.36264
1274190,0.11500,118.8125,181,92,0.39609
1274200,0.08000,118.6250,181,92,0.42979
1274210,0.02000,118.2500,181,92,0.46862
1274220,-0.04500,116.6875,181,92,0.54603
1274230,-0.08500,115.6250,181,92,0.58022
1274240,-0.11500,114.4375,181,92,0.61001
1274250,-0.13500,113.1875,181,92,0.63541
1274260,-0.15000,110.5625,181,92,0.67399
1274270,-0.15500,109.2500,181,92,0.68791
1274280,-0.15500,107.9375,181,92,0.69915
1274290,-0.15500,106.6875,181,92,0.70818
1274300,-0.15000,104.3125,181,92,0.71722
1274310,-0.16000,103.2500,181,92,0.72063
1274320,-0.20500,102.1875,181,92,0.72332
1274330,-0.08500,101.2500,181,92,0.72503
1274340,0.41000,99.5000,181,92,0.72332
1274350,0.93000,98.6250,181,92,0.71917
1274360,0.71000,97.6250,181,92,0.71233
1274370,0.00500,96.7500,181,92,0.70232
1274380,-0.41500,95.1875,181,92,0.67326
1274390,-0.44500,94.4375,181,92,0.65690
1274400,-0.30000,93.6875,181,92,0.64005
1274410,-0.20500,92.8125,181,92,0.62100
1274420,-0.18500,91.1250,181,92,0.58193
1274430,-0.17000,90.4375,181,92,0.56386
1274440,-0.16000,89.7500,181,92,0.54725
1274450,-0.14500,89.0625,181,92,0.53260
1274460,-0.13500,87.8125,181,92,0.50720
1274470,-0.12500,87.3750,181,92,0.49597
1274480,-0.12500,87.1250,181,92,0.48547
1274490,-0.11000,87.5000,181,92,0.47546
1274500,-0.10000,93.6250,181,92,0.45910
1274510,-0.08500,101.3125,181,92,0.45031
1274520,-0.07000,112.3125,181,92,0.44103
1274530,-0.04500,125.1875,181,92,0.43175
1274540,-0.01500,149.6875,181,92,0.41294
1274550,0.01000,158.8750,181,92,0.40366
1274560,0.02500,165.4375,181,92,0.39438
1274570,0.04000,169.4375,181,92,0.38510
1274580,0.04000,172.0000,181,92,0.36777
1274590,0.04000,171.8125,181,92,0.36117
1274600,0.04000,171.1875,181,92,0.35531
1274610,0.04500,170.4375,181,92,0.34872
1274620,0.05000,169.1250,181,92,0.33504
1274630,0.06000,168.6875,181,92,0.32845
1274640,0.05500,168.3750,181,92,0.32210
1274650,0.04000,168.1250,181,92,0.31575
1274660,0.01000,167.7500,181,92,0.30403
1274670,-0.02500,167.3750,181,92,0.29841
1274680,-0.06000,166.7500,181,92,0.29328
1274690,-0.08500,165.5625,181,92,0.28816
1274700,-0.09500,160.8750,181,92,0.28205
1274710,-0.09500,157.0625,181,92,0.27814
1274720,-0.08000,152.0625,181,92,0.27375
1274730,-0.05500,146.1250,181,92,0.26935
1274740,-0.01000,133.5000,181,92,0.26545
1274750,0.03500,128.1250,181,92,0.26911
1274760,0.06000,124.0625,181,92,0.27863
1274770,0.09000,121.3750,181,92,0.29524
1274780,0.11000,119.1250,181,92,0.35165
1274790,0.11500,118.7500,181,92,0.38364
1274800,0.09000,118.5000,181,92,0.41661
1274810,0.03000,118.1250,181,92,0.45519
1274820,-0.03500,116.8125,181,92,0.53358
1274830,-0.08500,115.8750,181,92,0.56899
1274840,-0.11500,114.7500,181,92,0.60024
1274850,-0.13000,113.5625,181,92,0.62711
1274860,-0.14500,111.0625,181,92,0.66789
1274870,-0.13500,109.7500,181,92,0.68278
1274880,-0.13500,108.5000,181,92,0.69475
1274890,-0.15500,107.2500,181,92,0.70452
1274900,-0.16500,104.8750,181,92,0.71453
1274910,-0.17500,103.7500,181,92,0.71844
1274920,-0.23000,102.6250,181,92,0.72137
1274930,-0.28000,101.6250,181,92,0.72332
1274940,-0.29000,99.6875,181,92,0.72259
1274950,0.04500,98.8125,181,92,0.71917
1274960,0.43000,97.8750,181,92,0.71331
1274970,0.14000,96.9375,181,92,0.70427
1274980,-0.33000,95.1250,181,92,0.67741
1274990,-0.41500,94.3125,181,92,0.66178
1275000,-0.27500,93.5000,178,91,0.64542
1275010,-0.16000,92.0000,178,91,0.60708
1275020,-0.13500,91.3125,178,91,0.58755
1275030,-0.13000,90.6250,178,91,0.56923
1275040,-0.12500,89.9375,178,91,0.55238
1275050,-0.11500,89.3125,178,91,0.53724
1275060,-0.10000,88.1875,178,91,0.51136
1275070,-0.09000,87.6875,178,91,0.49988
1275080,-0.08500,87.3750,178,91,0.48938
1275090,-0.08000,87.5625,178,91,0.47912
1275100,-0.07000,92.3750,178,91,0.46276
1275110,-0.05500,98.9375,178,91,0.45397
1275120,-0.03000,108.7500,178,91,0.44469
1275130,0.00000,121.0000,178,91,0.43516
1275140,0.03000,145.9375,178,91,0.41612
1275150,0.05500,155.8125,178,91,0.40659
1275160,0.07000,163.0000,178,91,0.39756
1275170,0.08500,167.6250,178,91,0.38852
1275180,0.08500,170.8750,178,91,0.37143
1275190,0.08000,170.7500,178,91,0.36484
1275200,0.08000,170.0625,178,91,0.35897
1275210,0.08000,169.1875,178,91,0.35214
1275220,0.08000,167.7500,178,91,0.33797
1275230,0.09000,167.2500,178,91,0.33114
1275240,0.09000,166.9375,178,91,0.32454
1275250,0.08500,166.5625,178,91,0.31819
1275260,0.06000,166.3750,178,91,0.30623
1275270,0.02500,166.0000,178,91,0.30061
1275280,-0.01000,165.3750,178,91,0.29524
1275290,-0.04000,164.3125,178,91,0.29011
1275300,-0.05500,159.9375,178,91,0.28400
1275310,-0.05500,156.1875,178,91,0.28034
1275320,-0.04500,151.3750,178,91,0.27595
1275330,-0.03000,145.5625,178,91,0.27179
1275340,0.00500,132.6875,178,91,0.26642
1275350,0.05000,127.1250,178,91,0.26838
1275360,0.08000,122.8750,178,91,0.27350
1275370,0.10500,120.0625,178,91,0.28474
1275380,0.13500,117.8125,178,91,0.33675
1275390,0.15000,117.5625,178,91,0.36899
1275400,0.14500,117.3750,178,91,0.40293
1275410,0.10500,117.1250,178,91,0.44347
1275420,0.04000,116.0000,178,91,0.52845
1275430,-0.02000,115.0625,178,91,0.56728
1275440,-0.06500,113.9375,178,91,0.60195
1275450,-0.09500,111.5000,178,91,0.63175
1275460,-0.10500,110.1875,178,91,0.67717
1275470,-0.11500,108.9375,178,91,0.69402
1275480,-0.12500,107.6250,178,91,0.70745
1275490,-0.12500,106.3750,178,91,0.71819
1275500,-0.11500,104.0000,178,91,0.72967
1275510,-0.12000,102.8125,178,91,0.73382
1275520,-0.15500,101.8125,178,91,0.73724
1275530,-0.18500,100.8125,178,91,0.73968
1275540,0.01500,99.0000,178,91,0.73993
1275550,0.57500,98.1250,178,91,0.73675
1275560,0.93500,97.3125,178,91,0.73089
1275570,0.51500,96.4375,178,91,0.72186
1275580,-0.15500,94.6875,178,91,0.69426
1275590,-0.45000,93.8125,178,91,0.67790
1275600,-0.39500,93.0000,178,91,0.66056
1275610,-0.24500,92.1875,178,91,0.64054
1275620,-0.18000,90.6875,178,91,0.59805
1275630,-0.16000,89.9375,178,91,0.57802
1275640,-0.15000,89.2500,178,91,0.55946
1275650,-0.14000,88.6250,178,91,0.54286
1275660,-0.12500,87.4375,178,91,0.51477
1275670,-0.11000,86.8750,178,91,0.50281
1275680,-0.10000,86.5000,178,91,0.49182
1275690,-0.09500,86.3750,178,91,0.48107
1275700,-0.08500,89.2500,178,91,0.46374
1275710,-0.07000,94.1875,178,91,0.45446
1275720,-0.04500,102.5000,178,91,0.44469
1275730,-0.02500,113.7500,178,91,0.43468
1275740,0.00500,139.1875,178,91,0.41416
1275750,0.03000,150.1250,178,91,0.40415
1275760,0.04500,158.6250,178,91,0.39463
1275770,0.05500,164.4375,178,91,0.38510
1275780,0.06000,169.3750,178,91,0.36703
1275790,0.06000,169.5625,178,91,0.35995
1275800,0.05500,169.0000,178,91,0.35385
1275810,0.05500,168.1875,178,91,0.34676
1275820,0.06500,166.4375,178,91,0.33211
1275830,0.07000,165.8125,178,91,0.32503
1275840,0.08000,165.3125,178,91,0.31795
1275850,0.08000,164.9375,178,91,0.31111
1275860,0.06000,164.3125,178,91,0.29817
1275870,0.02000,163.8750,178,91,0.29206
1275880,-0.01500,163.3125,178,91,0.28645
1275890,-0.04500,162.3750,178,91,0.28230
1275900,-0.06000,158.6250,178,91,0.27497
1275910,-0.06000,155.2500,178,91,0.27033
1275920,-0.05500,150.8125,178,91,0.26545
1275930,-0.04000,145.3750,178,91,0.26056
1275940,-0.00500,132.8125,178,91,0.25299
1275950,0.03000,127.0625,178,91,0.25299
1275960,0.05000,122.4375,178,91,0.25788
1275970,0.06000,119.3750,178,91,0.26935
1275980,0.09000,116.8125,178,91,0.31624
1275990,0.12500,116.5000,178,91,0.34579
1276000,0.13500,116.3750,177,91,0.37827
1276010,0.11000,116.1250,177,91,0.41807
1276020,0.05000,115.1875,177,91,0.50427
1276030,-0.01500,114.4375,177,91,0.54530
1276040,-0.06500,113.4375,177,91,0.58242
1276050,-0.09500,112.3125,177,91,0.61490
1276060,-0.11500,109.6250,177,91,0.66545
1276070,-0.13500,108.3125,177,91,0.68425
1276080,-0.14500,107.0000,177,91,0.69915
1276090,-0.14500,105.6875,177,91,0.70916
1276100,-0.14000,103.3750,177,91,0.72283
1276110,-0.13500,102.2500,177,91,0.72845
1276120,-0.15500,101.1250,177,91,0.73284
1276130,-0.20000,100.0625,177,91,0.73578
1276140,-0.12500,98.1875,177,91,0.73700
1276150,0.30500,97.3750,177,91,0.73455
1276160,0.85500,96.5625,177,91,0.72943
1276170,0.76500,95.7500,177,91,0.72161
1276180,0.10000,94.1250,177,91,0.69597
1276190,-0.36500,93.2500,177,91,0.68059
1276200,-0.44500,92.5000,177,91,0.66398
1276210,-0.30000,91.7500,177,91,0.64444
1276220,-0.19000,90.1875,177,91,0.60220
1276230,-0.17000,89.3750,177,91,0.58193
1276240,-0.15500,88.7500,177,91,0.56313
1276250,-0.15000,88.1875,177,91,0.54628
1276260,-0.13500,87.0625,177,91,0.51770
1276270,-0.12500,86.4375,177,91,0.50574
1276280,-0.11500,86.0000,177,91,0.49451
1276290,-0.11000,85.7500,177,91,0.48523
1276300,-0.10000,86.8125,177,91,0.46740
1276310,-0.08500,89.8125,177,91,0.45788
1276320,-0.07000,95.8125,177,91,0.44811
1276330,-0.05000,105.1875,177,91,0.43810
1276340,-0.02500,130.0625,177,91,0.41807
1276350,-0.00500,142.1250,177,91,0.40806
1276360,0.02000,152.1875,177,91,0.39805
1276370,0.03000,159.6250,177,91,0.38828
1276380,0.04500,167.0000,177,91,0.36996
1276390,0.05000,167.8750,177,91,0.36264
1276400,0.05000,167.6250,177,91,0.35653
1276410,0.04500,166.8750,177,91,0.34921
1276420,0.04500,164.8750,177,91,0.33431
1276430,0.05000,163.9375,177,91,0.32698
1276440,0.06000,163.1250,177,91,0.31990
1276450,0.06500,162.5000,177,91,0.31306
1276460,0.05000,161.6250,177,91,0.29988
1276470,0.02500,161.1875,177,91,0.29377
1276480,-0.00500,160.6875,177,91,0.28791
1276490,-0.03500,160.0000,177,91,0.28376
1276500,-0.05500,156.9375,177,91,0.27668
1276510,-0.06500,154.1875,177,91,0.27228
1276520,-0.06500,150.3750,177,91,0.26789
1276530,-0.06000,145.4375,177,91,0.26325
1276540,-0.03500,133.6250,177,91,0.25446
1276550,-0.00500,127.7500,177,91,0.25226
1276560,0.03000,122.9375,177,91,0.25348
1276570,0.06000,119.4375,177,91,0.26032
1276580,0.09000,116.0000,177,91,0.29597
1276590,0.11000,115.5000,177,91,0.32112
1276600,0.12500,115.1875,177,91,0.35043
1276610,0.11000,114.9375,177,91,0.38803
1276620,0.07000,113.8750,177,91,0.47448
1276630,0.00000,113.0625,177,91,0.51770
1276640,-0.06000,112.0625,177,91,0.55775
1276650,-0.10000,109.8750,177,91,0.59341
1276660,-0.12000,108.6875,177,91,0.65006
1276670,-0.13500,107.5000,177,91,0.67131
1276680,-0.14000,106.3125,177,91,0.68840
1276690,-0.15000,105.0625,177,91,0.70012
1276700,-0.15500,102.5625,177,91,0.71575
1276710,-0.15500,101.4375,177,91,0.72210
1276720,-0.15000,100.3750,177,91,0.72698
1276730,-0.18000,99.4375,177,91,0.73065
1276740,-0.21000,97.6250,177,91,0.73309
1276750,0.00000,96.7500,177,91,0.73162
1276760,0.56000,95.8750,177,91,0.72772
1276770,0.89000,95.0000,177,91,0.72137
1276780,0.50500,93.3125,177,91,0.69915
1276790,-0.16000,92.5000,177,91,0.68523
1276800,-0.46000,91.6875,177,91,0.66984
1276810,-0.39500,90.9375,177,91,0.65128
1276820,-0.24500,89.4375,177,91,0.61026
1276830,-0.18500,88.7500,177,91,0.58974
1276840,-0.17000,88.1250,177,91,0.57070
1276850,-0.17000,87.5000,177,91,0.55336
1276860,-0.16000,86.3125,177,91,0.52357
1276870,-0.13500,85.7500,177,91,0.51062
1276880,-0.11500,85.2500,177,91,0.49890
1276890,-0.10500,84.8125,177,91,0.48889
1276900,-0.09000,84.6875,177,91,0.47057
1276910,-0.08000,86.0625,177,91,0.46056
1276920,-0.07000,89.6250,177,91,0.45055
1276930,-0.05500,96.3125,177,91,0.44029
1276940,-0.03500,118.2500,177,91,0.42027
1276950,-0.01500,130.8750,177,91,0.41050
1276960,0.00500,142.5000,177,91,0.40073
1276970,0.02500,152.0000,177,91,0.39121
1276980,0.04000,163.3125,177,91,0.37241
1276990,0.04500,165.5000,177,91,0.36508
1277000,0.04000,166.1250,177,91,0.35849
1277010,0.04000,165.7500,177,91,0.35116
1277020,0.03500,163.8125,177,91,0.33578
1277030,0.03500,162.7500,177,91,0.32821
1277040,0.04500,161.8750,177,91,0.32088
1277050,0.05000,161.1250,177,91,0.31380
1277060,0.05000,160.0000,177,91,0.30085
1277070,0.03500,159.5000,177,91,0.29475
1277080,0.00500,159.0625,177,91,0.28889
1277090,-0.02500,158.4375,177,91,0.28474
1277100,-0.05000,156.0625,177,91,0.27741
1277110,-0.06000,153.8750,177,91,0.27302
1277120,-0.06500,150.8125,177,91,0.26862
1277130,-0.06500,146.6875,177,91,0.26398
1277140,-0.05500,135.6875,177,91,0.25421
1277150,-0.03500,129.6875,177,91,0.25031
1277160,0.00000,124.1875,177,91,0.24860
1277170,0.04000,119.7500,177,91,0.25055
1277180,0.06500,114.9375,177,91,0.27350
1277190,0.08500,114.1250,177,91,0.29280
1277200,0.10500,113.7500,177,91,0.31722
1277210,0.10500,113.6250,177,91,0.35092
1277220,0.08000,113.1250,177,91,0.43492
1277230,0.03000,112.5000,177,91,0.47961
1277240,-0.03500,111.6875,177,91,0.52283
1277250,-0.08500,110.6250,177,91,0.56239
1277260,-0.11500,108.3125,177,91,0.62784
1277270,-0.13000,107.1250,177,91,0.65324
1277280,-0.13500,105.8750,177,91,0.67399
1277290,-0.13500,104.6875,177,91,0.68864
1277300,-0.13500,102.3125,177,91,0.70842
1277310,-0.13500,101.1875,177,91,0.71624
1277320,-0.13000,100.1250,177,91,0.72259
1277330,-0.13500,99.1250,177,91,0.72723
1277340,-0.18000,97.1875,177,91,0.73187
1277350,-0.16000,96.3750,177,91,0.73187
1277360,0.16500,95.5625,177,91,0.72967
1277370,0.74500,94.7500,177,91,0.72503
1277380,0.86000,93.1250,177,91,0.70745
1277390,0.24500,92.3125,177,91,0.69548
1277400,-0.32500,91.5000,177,91,0.68156
1277410,-0.47000,90.6875,177,91,0.66593
1277420,-0.35500,89.1875,177,91,0.62930
1277430,-0.23000,88.4375,177,91,0.60879
1277440,-0.19000,87.7500,177,91,0.58877
1277450,-0.17000,87.0625,177,91,0.56996
1277460,-0.16000,85.8125,177,91,0.53797
1277470,-0.15500,85.2500,177,91,0.52454
1277480,-0.14500,84.7500,177,91,0.51233
1277490,-0.13500,84.2500,177,91,0.50232
1277500,-0.12500,83.5625,177,91,0.48425
1277510,-0.11000,83.8750,177,91,0.47448
1277520,-0.09500,85.5000,177,91,0.46447
1277530,-0.07000,89.4375,177,91,0.45421
1277540,-0.04500,106.6250,177,91,0.43394
1277550,-0.02000,118.8750,177,91,0.42393
1277560,0.01000,131.5000,177,91,0.41392
1277570,0.03000,142.8125,177,91,0.40415
1277580,0.04000,158.4375,177,91,0.38681
1277590,0.04000,162.3750,177,91,0.38022
1277600,0.03500,164.2500,177,91,0.37265
1277610,0.03000,164.5625,177,91,0.36484
1277620,0.02500,162.8750,177,91,0.34921
1277630,0.03000,161.6875,177,91,0.34164
1277640,0.04000,160.5000,177,91,0.33431
1277650,0.06000,159.5000,177,91,0.32723
1277660,0.08500,158.0625,177,91,0.31355
1277670,0.09000,157.5000,177,91,0.30720
1277680,0.06500,157.0625,177,91,0.30110
1277690,0.00500,155.9375,177,91,0.29670
1277700,-0.04000,154.9375,177,91,0.28889
1277710,-0.07000,153.4375,177,91,0.28425
1277720,-0.07500,151.1250,177,91,0.27961
1277730,-0.06500,147.8125,177,91,0.27473
1277740,-0.04500,138.2500,177,91,0.26496
1277750,-0.02500,132.4375,177,91,0.26032
1277760,0.00000,126.5625,177,91,0.25665
1277770,0.04000,121.3750,177,91,0.25543
1277780,0.07000,114.6250,177,91,0.26545
1277790,0.08500,113.1250,177,91,0.27790
1277800,0.11000,112.5000,177,91,0.29841
1277810,0.12500,112.3750,177,91,0.32723
1277820,0.12000,112.1875,177,91,0.40537
1277830,0.09500,111.8125,177,91,0.45031
1277840,0.04000,111.2500,177,91,0.49548
1277850,-0.02000,110.3750,177,91,0.53871
1277860,-0.06500,108.1250,177,91,0.61319
1277870,-0.09500,106.8750,177,91,0.64298
1277880,-0.11500,105.5625,177,91,0.66789
1277890,-0.13000,104.3125,177,91,0.68571
1277900,-0.13500,101.8125,177,91,0.71038
1277910,-0.13500,100.6250,177,91,0.72015
1277920,-0.13500,99.5000,177,91,0.72821
1277930,-0.13500,98.4375,177,91,0.73431
1277940,-0.14500,96.5000,177,91,0.74164
1277950,-0.19500,95.6250,177,91,0.74286
1277960,-0.10500,94.8125,177,91,0.74212
1277970,0.35500,94.1250,177,91,0.73944
1277980,0.88000,92.6875,177,91,0.72650
1277990,0.70500,91.9375,177,91,0.71648
1278000,0.02000,91.1250,175,90,0.70354
1278010,-0.40500,90.3125,175,90,0.68767
1278020,-0.44000,88.7500,175,90,0.64884
1278030,-0.30500,87.9375,175,90,0.62759
1278040,-0.21000,87.1875,175,90,0.60659
1278050,-0.18000,86.5000,175,90,0.58657
1278060,-0.16500,85.1875,175,90,0.55189
1278070,-0.15500,84.5625,175,90,0.53724
1278080,-0.13500,84.0000,175,90,0.52430
1278090,-0.11500,83.5000,175,90,0.51380
1278100,-0.10500,82.6250,175,90,0.49524
1278110,-0.10500,82.3750,175,90,0.48547
1278120,-0.09500,82.6875,175,90,0.47570
1278130,-0.07500,84.3125,175,90,0.46545
1278140,-0.05500,95.5000,175,90,0.44518
1278150,-0.03500,105.8125,175,90,0.43492
1278160,-0.01500,118.0625,175,90,0.42466
1278170,0.00000,141.6250,175,90,0.41441
1278180,0.02000,150.4375,175,90,0.39609
1278190,0.04000,156.6250,175,90,0.38901
1278200,0.05000,160.2500,175,90,0.38095
1278210,0.06000,161.9375,175,90,0.37241
1278220,0.06500,161.4375,175,90,0.35604
1278230,0.06000,160.3750,175,90,0.34847
1278240,0.05500,159.1250,175,90,0.34115
1278250,0.06000,157.9375,175,90,0.33407
1278260,0.07000,156.0000,175,90,0.32063
1278270,0.08000,155.3125,175,90,0.31429
1278280,0.07000,154.6875,175,90,0.30818
1278290,0.04500,154.1250,175,90,0.30354
1278300,0.01500,152.6250,175,90,0.29524
1278310,-0.01500,151.4375,175,90,0.29011
1278320,-0.04000,149.7500,175,90,0.28523
1278330,-0.04500,147.3125,175,90,0.28034
1278340,-0.04500,139.5625,175,90,0.27057
1278350,-0.03000,134.3125,175,90,0.26569
1278360,-0.01000,128.5625,175,90,0.26105
1278370,0.02000,123.0000,175,90,0.25739
1278380,0.06500,114.5625,175,90,0.25836
1278390,0.09500,112.2500,175,90,0.26496
1278400,0.12000,111.0625,175,90,0.27814
1278410,0.14500,110.5625,175,90,0.29915
1278420,0.15500,110.3750,175,90,0.36484
1278430,0.14500,110.1875,175,90,0.40684
1278440,0.10500,109.7500,175,90,0.45153
1278450,0.04000,109.1250,175,90,0.49646
1278460,-0.02500,107.1875,175,90,0.57827
1278470,-0.06500,106.0000,175,90,0.61270
1278480,-0.09500,104.7500,175,90,0.64200
1278490,-0.10500,103.5000,175,90,0.66349
1278500,-0.11000,100.9375,175,90,0.69402
1278510,-0.12000,99.7500,175,90,0.70647
1278520,-0.12500,98.5625,175,90,0.71648
1278530,-0.13000,97.4375,175,90,0.72430
1278540,-0.13000,95.3750,175,90,0.73407
1278550,-0.15000,94.4375,175,90,0.73626
1278560,-0.19000,93.6250,175,90,0.73675
1278570,-0.03500,92.8750,175,90,0.73529
1278580,0.49000,91.2500,175,90,0.72601
1278590,0.88500,90.5625,175,90,0.71795
1278600,0.56500,90.0000,175,90,0.70720
1278610,-0.10500,89.3750,175,90,0.69353
1278620,-0.44000,87.5625,175,90,0.65836
1278630,-0.41500,86.6875,175,90,0.63810
1278640,-0.25000,86.0000,175,90,0.61734
1278650,-0.15500,85.3750,175,90,0.59683
1278660,-0.12500,84.1250,175,90,0.55946
1278670,-0.10500,83.5000,175,90,0.54359
1278680,-0.08500,82.9375,175,90,0.52943
1278690,-0.08500,82.3750,175,90,0.51795
1278700,-0.07500,81.0625,175,90,0.49792
1278710,-0.06500,80.5625,175,90,0.48791
1278720,-0.05500,80.1875,175,90,0.47790
1278730,-0.04000,81.2500,175,90,0.46764
1278740,-0.02000,84.1875,175,90,0.44713
1278750,0.00000,90.0000,175,90,0.43687
1278760,0.02000,98.8125,175,90,0.42662
1278770,0.03000,109.9375,175,90,0.41636
1278780,0.04500,133.1875,175,90,0.39780
1278790,0.06000,142.6250,175,90,0.39023
1278800,0.07500,149.7500,175,90,0.38169
1278810,0.08000,154.3125,175,90,0.37289
1278820,0.08500,157.3125,175,90,0.35531
1278830,0.08000,156.8750,175,90,0.34701
1278840,0.08000,155.6875,175,90,0.33919
1278850,0.08000,154.3125,175,90,0.33187
1278860,0.10000,151.7500,175,90,0.31819
1278870,0.11000,150.7500,175,90,0.31160
1278880,0.11500,149.8125,175,90,0.30525
1278890,0.10000,148.8750,175,90,0.30061
1278900,0.08000,146.9375,175,90,0.29182
1278910,0.04500,145.9375,175,90,0.28645
1278920,0.01500,144.6250,175,90,0.28083
1278930,-0.00500,142.7500,175,90,0.27546
1278940,-0.01500,136.1250,175,90,0.26471
1278950,-0.01500,131.5625,175,90,0.25958
1278960,-0.00500,126.4375,175,90,0.25446
1278970,0.02000,121.2500,175,90,0.24957
1278980,0.05000,112.7500,175,90,0.24371
1278990,0.09000,110.0625,175,90,0.24469
1279000,0.12000,108.5625,174,90,0.24884
1279010,0.14500,107.9375,174,90,0.25861
1279020,0.16500,108.0000,174,90,0.30110
1279030,0.16500,107.9375,174,90,0.33407
1279040,0.15500,107.6250,174,90,0.37338
1279050,0.10500,107.0625,174,90,0.41685
1279060,0.03000,105.2500,174,90,0.50549
1279070,-0.03500,104.1875,174,90,0.54652
1279080,-0.09000,103.0625,174,90,0.58315
1279090,-0.11500,101.8750,174,90,0.61148
1279100,-0.12500,99.3125,174,90,0.65397
1279110,-0.12500,98.1250,174,90,0.67179
1279120,-0.13000,96.9375,174,90,0.68620
1279130,-0.13500,95.8125,174,90,0.69744
1279140,-0.12500,93.7500,174,90,0.71184
1279150,-0.12500,92.8125,174,90,0.71551
1279160,-0.15000,91.9375,174,90,0.71746
1279170,-0.17000,91.1250,174,90,0.71746
1279180,0.03500,89.5625,174,90,0.71136
1279190,0.60000,89.0625,174,90,0.70501
1279200,0.94000,88.7500,174,90,0.69621
1279210,0.49000,88.3125,174,90,0.68474
1279220,-0.17000,86.8750,174,90,0.65372
1279230,-0.45000,85.8750,174,90,0.63492
1279240,-0.40500,85.0000,174,90,0.61514
1279250,-0.24000,84.3125,174,90,0.59536
1279260,-0.14500,83.2500,174,90,0.55873
1279270,-0.12500,82.5000,174,90,0.54310
1279280,-0.11000,81.6250,174,90,0.52918
1279290,-0.10500,80.8125,174,90,0.51795
1279300,-0.09500,79.8125,174,90,0.49915
1279310,-0.07500,79.4375,174,90,0.48962
1279320,-0.06500,79.0000,174,90,0.48010
1279330,-0.05500,78.6875,174,90,0.47057
1279340,-0.03500,79.7500,174,90,0.45104
1279350,-0.02000,82.5625,174,90,0.44103
1279360,-0.00500,88.1250,174,90,0.43101
1279370,0.00500,96.6875,174,90,0.42125
1279380,0.02000,119.6875,174,90,0.40342
1279390,0.03000,131.1250,174,90,0.39609
1279400,0.04000,140.6250,174,90,0.38803
1279410,0.05000,147.6875,174,90,0.37949
1279420,0.06000,154.9375,174,90,0.36239
1279430,0.06000,156.0000,174,90,0.35409
1279440,0.06000,156.0625,174,90,0.34603
1279450,0.06000,155.3750,174,90,0.33846
1279460,0.06000,153.0000,174,90,0.33016
1279470,0.07500,151.8125,174,90,0.32552
1279480,0.09000,150.8125,174,90,0.32161
1279490,0.10000,149.2500,174,90,0.31819
1279500,0.08500,148.5000,174,90,0.30916
1279510,0.05500,147.6250,174,90,0.30427
1279520,0.02500,146.6875,174,90,0.29939
1279530,-0.00500,145.4375,174,90,0.29475
1279540,-0.02500,141.6250,174,90,0.28547
1279550,-0.02500,138.6250,174,90,0.28083
1279560,-0.02000,134.7500,174,90,0.27619
1279570,-0.00500,130.1250,174,90,0.27155
1279580,0.02000,120.0000,174,90,0.26398
1279590,0.05000,115.5625,174,90,0.26252
1279600,0.08000,112.1250,174,90,0.26227
1279610,0.10000,109.8125,174,90,0.26545
1279620,0.13000,108.0000,174,90,0.29084
1279630,0.14500,107.8750,174,90,0.31551
1279640,0.15000,107.8750,174,90,0.34823
1279650,0.13000,107.6875,174,90,0.38755
1279660,0.08500,106.5000,174,90,0.47668
1279670,0.02000,105.5000,174,90,0.52137
1279680,-0.04000,104.3125,174,90,0.55849
1279690,-0.08000,103.1250,174,90,0.58999
1279700,-0.10500,100.5625,174,90,0.64908
1279710,-0.12000,99.3750,174,90,0.67350
1279720,-0.12500,98.3125,174,90,0.69353
1279730,-0.13000,97.1875,174,90,0.70965
1279740,-0.13000,95.0625,174,90,0.73187
1279750,-0.13000,94.0000,174,90,0.73871
1279760,-0.12500,93.0625,174,90,0.74310
1279770,-0.14500,92.2500,174,90,0.74579
1279780,-0.15500,90.6875,174,90,0.74505
1279790,0.08000,90.0000,174,90,0.74164
1279800,0.65000,89.3750,174,90,0.73675
1279810,0.98000,88.8125,174,90,0.72967
1279820,0.67000,87.5625,174,90,0.70720
1279830,-0.05500,86.8125,174,90,0.69182
1279840,-0.44500,86.0000,174,90,0.67399
1279850,-0.47000,85.2500,174,90,0.65470
1279860,-0.30500,83.7500,174,90,0.61490
1279870,-0.18500,83.0000,174,90,0.59609
1279880,-0.15500,82.3125,174,90,0.58022
1279890,-0.14500,81.6875,174,90,0.56679
1279900,-0.13500,80.4375,174,90,0.54139
1279910,-0.12500,79.8125,174,90,0.52991
1279920,-0.11000,79.2500,174,90,0.51917
1279930,-0.09000,78.7500,174,90,0.50891
1279940,-0.07500,78.5625,174,90,0.48913
1279950,-0.05000,79.4375,174,90,0.47912
1279960,-0.03500,82.0000,174,90,0.46886
1279970,-0.02500,87.1875,174,90,0.45861
1279980,-0.01500,106.4375,174,90,0.43956
1279990,-0.00500,118.5000,174,90,0.43175
1280000,0.00000,130.1875,173,89,0.42271
1280010,0.01500,140.2500,173,89,0.41343
1280020,0.02000,153.3125,173,89,0.39536
1280030,0.03000,156.3125,173,89,0.38657
1280040,0.03000,157.7500,173,89,0.37802
1280050,0.02500,158.0000,173,89,0.36996
1280060,0.02000,156.9375,173,89,0.35433
1280070,0.02500,156.0625,173,89,0.34725
1280080,0.03000,155.1250,173,89,0.34188
1280090,0.04000,154.2500,173,89,0.33748
1280100,0.04000,152.7500,173,89,0.32698
1280110,0.03000,152.1250,173,89,0.32161
1280120,0.00500,151.5625,173,89,0.31624
1280130,-0.03000,150.9375,173,89,0.31111
1280140,-0.06000,149.3125,173,89,0.30134
1280150,-0.08000,148.0000,173,89,0.29670
1280160,-0.08500,146.0000,173,89,0.29182
1280170,-0.07500,143.1250,173,89,0.28694
1280180,-0.06500,134.4375,173,89,0.27766
1280190,-0.04000,128.8750,173,89,0.27473
1280200,0.00000,123.2500,173,89,0.27131
1280210,0.05000,118.0625,173,89,0.26960
1280220,0.10000,111.2500,173,89,0.27985
1280230,0.13500,109.6875,173,89,0.29573
1280240,0.15500,109.1250,173,89,0.31990
1280250,0.16000,109.0000,173,89,0.35238
1280260,0.15000,109.1250,173,89,0.43565
1280270,0.11500,108.6875,173,89,0.48156
1280280,0.04500,107.6250,173,89,0.52161
1280290,-0.02000,105.8750,173,89,0.55702
1280300,-0.07000,102.1875,173,89,0.62882
1280310,-0.10500,101.0625,173,89,0.65983
1280320,-0.12500,100.5000,173,89,0.68645
1280330,-0.13500,99.9375,173,89,0.70867
1280340,-0.13500,97.2500,173,89,0.74115
1280350,-0.12500,95.7500,173,89,0.75214
1280360,-0.11500,94.6875,173,89,0.76044
1280370,-0.10500,94.1250,173,89,0.76654
1280380,-0.10500,92.6250,173,89,0.77241
1280390,-0.12500,91.6875,173,89,0.77167
1280400,0.00000,91.1875,173,89,0.77045
1280410,0.45500,90.8750,173,89,0.76801
1280420,0.96500,89.2500,173,89,0.75726
1280430,0.80000,88.1875,173,89,0.74799
1280440,0.06000,87.3125,173,89,0.73553
1280450,-0.43500,86.7500,173,89,0.72039
1280460,-0.50000,85.2500,173,89,0.68278
1280470,-0.35000,84.3125,173,89,0.66178
1280480,-0.21000,83.5625,173,89,0.64249
1280490,-0.17000,82.9375,173,89,0.62442
1280500,-0.15500,81.4375,173,89,0.58681
1280510,-0.13500,80.6250,173,89,0.56947
1280520,-0.13000,79.8750,173,89,0.55385
1280530,-0.12000,79.3750,173,89,0.53993
1280540,-0.11500,78.4375,173,89,0.51600
1280550,-0.10500,78.3750,173,89,0.50525
1280560,-0.09000,79.1250,173,89,0.49451
1280570,-0.07500,81.3750,173,89,0.48376
1280580,-0.06500,94.0625,173,89,0.46325
1280590,-0.05000,104.7500,173,89,0.45446
1280600,-0.03000,117.0000,173,89,0.44469
1280610,-0.00500,129.1250,173,89,0.43468
1280620,0.01000,148.0000,173,89,0.41490
1280630,0.03500,153.8750,173,89,0.40513
1280640,0.04500,157.6250,173,89,0.39560
1280650,0.05000,159.5625,173,89,0.38657
1280660,0.05000,160.0625,173,89,0.36947
1280670,0.05000,159.7500,173,89,0.36142
1280680,0.05000,159.3125,173,89,0.35531
1280690,0.06000,158.8750,173,89,0.35018
1280700,0.07000,157.5625,173,89,0.33797
1280710,0.07000,156.8750,173,89,0.33162
1280720,0.05500,156.3750,173,89,0.32527
1280730,0.03000,156.1250,173,89,0.31917
1280740,-0.00500,155.2500,173,89,0.30696
1280750,-0.04500,154.4375,173,89,0.30110
1280760,-0.07500,153.3750,173,89,0.29548
1280770,-0.09500,152.1875,173,89,0.28987
1280780,-0.09500,148.1875,173,89,0.28034
1280790,-0.09000,144.7500,173,89,0.27692
1280800,-0.06500,140.1875,173,89,0.27253
1280810,-0.02500,128.8125,173,89,0.26813
1280820,0.02000,122.9375,173,89,0.26642
1280830,0.06500,117.7500,173,89,0.27302
1280840,0.11000,113.7500,173,89,0.28718
1280850,0.14000,111.1250,173,89,0.30989
1280860,0.14500,109.1875,173,89,0.37973
1280870,0.14000,109.0625,173,89,0.42344
1280880,0.10500,108.9375,173,89,0.46398
1280890,0.04000,108.7500,173,89,0.50208
1280900,-0.02500,107.5625,173,89,0.58388
1280910,-0.08000,106.5625,173,89,0.62125
1280920,-0.11500,105.3750,173,89,0.65446
1280930,-0.13000,104.1875,173,89,0.68327
1280940,-0.14000,101.7500,173,89,0.72723
1280950,-0.14500,100.5625,173,89,0.74335
1280960,-0.14500,99.3750,173,89,0.75629
1280970,-0.14500,98.2500,173,89,0.76606
1280980,-0.14000,96.1250,173,89,0.77729
1280990,-0.13500,95.0000,173,89,0.77875
1281000,-0.15500,94.0000,173,89,0.77998
1281010,-0.05500,93.0625,173,89,0.78046
1281020,0.36000,91.2500,173,89,0.77705
1281030,0.93000,90.3750,173,89,0.77265
1281040,0.87000,89.5625,173,89,0.76606
1281050,0.16500,88.8125,173,89,0.75678
1281060,-0.38000,87.2500,173,89,0.72943
1281070,-0.52000,86.4375,173,89,0.71136
1281080,-0.38500,85.7500,173,89,0.69304
1281090,-0.23500,85.0000,173,89,0.67424
1281100,-0.19000,83.5000,173,89,0.63150
1281110,-0.17000,82.6875,173,89,0.61026
1281120,-0.15000,81.9375,173,89,0.59023
1281130,-0.13000,81.1250,173,89,0.57216
1281140,-0.12000,79.7500,173,89,0.54164
1281150,-0.11000,79.3125,173,89,0.52845
1281160,-0.10500,79.0625,173,89,0.51624
1281170,-0.10000,79.4375,173,89,0.50501
1281180,-0.08500,84.9375,173,89,0.48474
1281190,-0.06000,92.0000,173,89,0.47619
1281200,-0.03500,102.1250,173,89,0.46642
1281210,-0.01000,114.3125,173,89,0.45617
1281220,0.01500,138.0000,173,89,0.43565
1281230,0.04500,147.1250,173,89,0.42540
1281240,0.07000,153.8125,173,89,0.41514
1281250,0.08500,158.1875,173,89,0.40513
1281260,0.09500,161.8750,173,89,0.38584
1281270,0.09500,162.3125,173,89,0.37680
1281280,0.09500,162.3125,173,89,0.36947
1281290,0.08500,162.0625,173,89,0.36337
1281300,0.08000,161.5000,173,89,0.34847
1281310,0.08000,161.2500,173,89,0.34115
1281320,0.07500,161.0625,173,89,0.33382
1281330,0.06000,160.8750,173,89,0.32674
1281340,0.03000,160.5000,173,89,0.31331
1281350,0.00000,160.3125,173,89,0.30672
1281360,-0.03500,159.8750,173,89,0.30061
1281370,-0.06500,159.1875,173,89,0.29451
1281380,-0.09000,156.9375,173,89,0.28645
1281390,-0.09500,155.1250,173,89,0.28156
1281400,-0.10000,152.6250,173,89,0.27595
1281410,-0.08500,149.2500,173,89,0.27009
1281420,-0.04500,139.6250,173,89,0.26105
1281430,0.01500,133.6250,173,89,0.26056
1281440,0.06000,127.4375,173,89,0.26545
1281450,0.09000,121.6875,173,89,0.27741
1281460,0.11500,113.6875,173,89,0.32674
1281470,0.12500,111.6250,173,89,0.36337
1281480,0.12000,110.5000,173,89,0.40000
1281490,0.10000,109.9375,173,89,0.43687
1281500,0.04500,109.2500,173,89,0.51770
1281510,-0.01500,108.8125,173,89,0.55092
1281520,-0.07500,108.1875,173,89,0.58486
1281530,-0.11000,107.4375,173,89,0.61636
1281540,-0.13000,105.4375,173,89,0.66886
1281550,-0.14500,104.3750,173,89,0.68938
1281560,-0.14500,103.3125,173,89,0.70647
1281570,-0.13500,102.2500,173,89,0.72039
1281580,-0.12500,100.0625,173,89,0.73602
1281590,-0.11500,98.9375,173,89,0.74212
1281600,-0.11500,97.8125,173,89,0.74701
1281610,-0.12500,96.7500,173,89,0.75092
1281620,-0.04000,94.6875,173,89,0.75433
1281630,0.32500,93.6875,173,89,0.75385
1281640,0.89000,92.6875,173,89,0.75165
1281650,0.95000,91.7500,173,89,0.74774
1281660,0.28500,89.8125,173,89,0.73284
1281670,-0.31000,88.9375,173,89,0.72137
1281680,-0.48000,88.0625,173,89,0.70867
1281690,-0.36500,87.2500,173,89,0.69402
1281700,-0.21000,85.6250,173,89,0.65641
1281710,-0.14500,84.8125,173,89,0.63492
1281720,-0.12500,83.9375,173,89,0.61294
1281730,-0.11000,83.1250,173,89,0.59121
1281740,-0.11000,81.5625,173,89,0.55189
1281750,-0.11000,80.8750,173,89,0.53504
1281760,-0.10500,80.3750,173,89,0.51990
1281770,-0.10000,80.1250,173,89,0.50598
1281780,-0.09000,81.8125,173,89,0.48523
1281790,-0.07500,85.1875,173,89,0.47521
1281800,-0.04500,91.5000,173,89,0.46496
1281810,-0.02500,100.8750,173,89,0.45495
1281820,0.00500,124.9375,173,89,0.43516
1281830,0.03000,136.4375,173,89,0.42540
1281840,0.05000,146.1875,173,89,0.41587
1281850,0.08000,153.5625,173,89,0.40659
1281860,0.09500,161.6250,173,89,0.38828
1281870,0.11000,163.1875,173,89,0.37949
1281880,0.11000,163.8125,173,89,0.37216
1281890,0.11000,163.8125,173,89,0.36581
1281900,0.10000,163.6250,173,89,0.35067
1281910,0.08500,163.5625,173,89,0.34286
1281920,0.07000,163.5625,173,89,0.33504
1281930,0.05500,163.6250,173,89,0.32747
1281940,0.03000,163.8750,173,89,0.31258
1281950,0.00000,164.0000,173,89,0.30574
1281960,-0.04500,164.0000,173,89,0.29915
1281970,-0.08000,163.8750,173,89,0.29280
1281980,-0.11500,162.9375,173,89,0.28425
1281990,-0.14500,161.9375,173,89,0.27937
1282000,-0.15500,160.5000,171,89,0.27375
1282010,-0.15500,158.4375,171,89,0.26789
1282020,-0.14000,152.0625,171,89,0.25617
1282030,-0.10500,147.5625,171,89,0.25201
1282040,-0.07500,142.0625,171,89,0.25079
1282050,-0.02500,135.8750,171,89,0.25421
1282060,0.01000,123.2500,171,89,0.28156
1282070,0.05000,118.2500,171,89,0.30720
1282080,0.07000,114.6250,171,89,0.33529
1282090,0.07000,112.3750,171,89,0.36630
1282100,0.04500,110.5000,171,89,0.44689
1282110,0.00000,110.1875,171,89,0.48962
1282120,-0.04500,109.9375,171,89,0.53089
1282130,-0.09000,109.5625,171,89,0.56899
1282140,-0.11500,108.2500,171,89,0.63272
1282150,-0.13500,107.3750,171,89,0.65836
1282160,-0.14500,106.3750,171,89,0.67985
1282170,-0.14500,105.3125,171,89,0.69768
1282180,-0.14500,103.0625,171,89,0.71941
1282190,-0.14000,101.8750,171,89,0.72845
1282200,-0.13000,100.6875,171,89,0.73626
1282210,-0.12000,99.5000,171,89,0.74286
1282220,-0.13000,97.2500,171,89,0.75165
1282230,-0.04500,96.1250,171,89,0.75385
1282240,0.33000,95.1250,171,89,0.75458
1282250,0.90000,94.0625,171,89,0.75385
1282260,0.92000,92.0000,171,89,0.74750
1282270,0.26500,91.0000,171,89,0.74090
1282280,-0.32500,90.1250,171,89,0.73260
1282290,-0.49500,88.4375,171,89,0.70916
1282300,-0.39500,87.6250,171,89,0.69280
1282310,-0.25000,86.8125,171,89,0.67375
1282320,-0.19000,86.0000,171,89,0.65275
1282330,-0.17500,85.1875,171,89,0.63028
1282340,-0.16500,83.5000,171,89,0.58510
1282350,-0.15500,82.6875,171,89,0.56386
1282360,-0.14000,81.9375,171,89,0.54457
1282370,-0.13000,81.3750,171,89,0.52723
1282380,-0.12000,81.3125,171,89,0.50159
1282390,-0.10500,82.5625,171,89,0.48987
1282400,-0.09000,85.6250,171,89,0.47863
1282410,-0.06500,91.3750,171,89,0.46789
1282420,-0.03500,111.5625,171,89,0.44713
1282430,0.00000,123.8125,171,89,0.43712
1282440,0.03000,135.4375,171,89,0.42735
1282450,0.07000,145.3750,171,89,0.41758
1282460,0.11000,158.5000,171,89,0.39829
1282470,0.13000,161.8750,171,89,0.38877
1282480,0.14000,163.7500,171,89,0.38095
1282490,0.14500,164.6875,171,89,0.37411
1282500,0.14500,165.2500,171,89,0.35824
1282510,0.14000,165.3750,171,89,0.35018
1282520,0.12500,165.4375,171,89,0.34212
1282530,0.11500,165.5625,171,89,0.33431
1282540,0.09500,165.9375,171,89,0.31917
1282550,0.07000,166.1250,171,89,0.31209
1282560,0.02500,166.2500,171,89,0.30501
1282570,-0.02000,166.3125,171,89,0.29817
1282580,-0.04000,165.8750,171,89,0.28889
1282590,-0.03500,165.3125,171,89,0.28376
1282600,-0.07000,164.3750,171,89,0.27814
1282610,-0.11500,163.0000,171,89,0.27228
1282620,-0.13000,158.7500,171,89,0.26007
1282630,-0.12000,155.6250,171,89,0.25446
1282640,-0.09500,151.6250,171,89,0.25006
1282650,-0.05000,146.7500,171,89,0.24835
1282660,-0.00500,134.7500,171,89,0.25983
1282670,0.03000,128.4375,171,89,0.27595
1282680,0.06000,122.7500,171,89,0.29597
1282690,0.07000,118.2500,171,89,0.32088
1282700,0.06500,113.0625,171,89,0.39316
1282710,0.04500,112.0000,171,89,0.43541
1282720,0.00000,111.4375,171,89,0.47839
1282730,-0.05500,111.0625,171,89,0.51990
1282740,-0.09500,110.2500,171,89,0.59267
1282750,-0.12500,109.6250,171,89,0.62295
1282760,-0.14500,108.8750,171,89,0.64884
1282770,-0.15500,107.9375,171,89,0.67082
1282780,-0.16000,105.7500,171,89,0.69866
1282790,-0.16000,104.5625,171,89,0.71038
1282800,-0.15500,103.3125,171,89,0.72088
1282810,-0.14500,102.0000,171,89,0.72967
1282820,-0.14500,99.4375,171,89,0.74286
1282830,-0.15000,98.2500,171,89,0.74701
1282840,-0.06000,97.0625,171,89,0.74969
1282850,0.31000,96.0000,171,89,0.75092
1282860,0.87000,93.8750,171,89,0.74896
1282870,0.90000,92.8750,171,89,0.74554
1282880,0.22000,91.9375,171,89,0.74017
1282890,-0.37000,91.0000,171,89,0.73284
1282900,-0.53500,89.3125,171,89,0.71184
1282910,-0.44000,88.4375,171,89,0.69719
1282920,-0.30000,87.6250,171,89,0.67961
1282930,-0.25000,86.8125,171,89,0.65958
1282940,-0.23500,85.0625,171,89,0.61514
1282950,-0.22000,84.1875,171,89,0.59267
1282960,-0.20500,83.3750,171,89,0.57094
1282970,-0.19000,82.6250,171,89,0.55043
1282980,-0.17000,81.6875,171,89,0.51941
1282990,-0.15500,81.8125,171,89,0.50549
1283000,-0.14500,82.7500,168,87,0.49231
1283010,-0.12500,85.3125,168,87,0.48034
1283020,-0.10500,99.0000,168,87,0.45836
1283030,-0.07500,110.0000,168,87,0.44786
1283040,-0.03500,122.1250,168,87,0.43785
1283050,0.00000,133.8750,168,87,0.42784
1283060,0.04000,152.0625,168,87,0.40781
1283070,0.07000,157.8125,168,87,0.39951
1283080,0.09000,161.5000,168,87,0.39219
1283090,0.10500,163.6250,168,87,0.38388
1283100,0.11000,165.3750,168,87,0.36630
1283110,0.10500,165.6875,168,87,0.35751
1283120,0.10000,165.8750,168,87,0.34872
1283130,0.10000,166.1250,168,87,0.34017
1283140,0.09000,166.7500,168,87,0.32405
1283150,0.07500,167.0000,168,87,0.31648
1283160,0.04000,167.3125,168,87,0.30916
1283170,0.00000,167.5000,168,87,0.30208
1283180,-0.04500,167.6250,168,87,0.29231
1283190,-0.08000,167.3750,168,87,0.28694
1283200,-0.11500,166.8750,168,87,0.28107
1283210,-0.13500,166.0625,168,87,0.27521
1283220,-0.15000,163.1875,168,87,0.26276
1283230,-0.15500,160.9375,168,87,0.25641
1283240,-0.15500,158.1250,168,87,0.25055
1283250,-0.13500,154.3750,168,87,0.24567
1283260,-0.09500,144.2500,168,87,0.24567
1283270,-0.04500,137.9375,168,87,0.25201
1283280,-0.00500,131.3125,168,87,0.26349
1283290,0.01000,124.8750,168,87,0.28254
1283300,0.02000,115.3750,168,87,0.34261
1283310,0.02000,112.7500,168,87,0.38144
1283320,-0.00500,111.3750,168,87,0.42295
1283330,-0.04000,110.7500,168,87,0.46545
1283340,-0.09000,110.3125,168,87,0.54505
1283350,-0.13000,110.0000,168,87,0.57973
1283360,-0.15500,109.5625,168,87,0.61050
1283370,-0.17000,108.9375,168,87,0.63687
1283380,-0.17000,107.1250,168,87,0.67204
1283390,-0.17000,106.0000,168,87,0.68694
1283400,-0.17000,104.7500,168,87,0.70037
1283410,-0.16500,103.5000,168,87,0.71184
1283420,-0.16500,101.0000,168,87,0.72967
1283430,-0.16000,99.7500,168,87,0.73626
1283440,-0.17000,98.5000,168,87,0.74115
1283450,-0.10000,97.3125,168,87,0.74457
1283460,0.24000,95.0625,168,87,0.74701
1283470,0.81000,94.0000,168,87,0.74530
1283480,0.91500,93.0000,168,87,0.74188
1283490,0.31000,92.0625,168,87,0.73748
1283500,-0.30500,90.2500,168,87,0.72308
1283510,-0.53000,89.4375,168,87,0.71209
1283520,-0.44500,88.5625,168,87,0.69841
1283530,-0.30000,87.7500,168,87,0.68181
1283540,-0.23000,86.0000,168,87,0.64103
1283550,-0.21500,85.1250,168,87,0.61783
1283560,-0.20000,84.2500,168,87,0.59414
1283570,-0.19500,83.4375,168,87,0.57143
1283580,-0.18000,82.1250,168,87,0.53578
1283590,-0.17000,81.7500,168,87,0.51941
1283600,-0.16000,81.8125,168,87,0.50403
1283610,-0.14500,82.5000,168,87,0.49035
1283620,-0.12000,88.8125,168,87,0.46667
1283630,-0.09500,96.0625,168,87,0.45617
1283640,-0.06500,106.0000,168,87,0.44640
1283650,-0.03000,117.6875,168,87,0.43687
1283660,0.00000,140.2500,168,87,0.41783
1283670,0.04000,149.0625,168,87,0.41001
1283680,0.06500,155.6250,168,87,0.40293
1283690,0.09000,160.1250,168,87,0.39463
1283700,0.11000,164.4375,168,87,0.37729
1283710,0.12000,165.3125,168,87,0.36850
1283720,0.13000,165.7500,168,87,0.35971
1283730,0.13000,166.0625,168,87,0.35116
1283740,0.12000,166.5625,168,87,0.33504
1283750,0.11000,166.8750,168,87,0.32747
1283760,0.08500,167.1875,168,87,0.32015
1283770,0.05000,167.5000,168,87,0.31306
1283780,0.00500,168.0625,168,87,0.30305
1283790,-0.03500,168.2500,168,87,0.29768
1283800,-0.07500,168.1875,168,87,0.29182
1283810,-0.10500,167.8750,168,87,0.28571
1283820,-0.13000,166.2500,168,87,0.27399
1283830,-0.14000,164.7500,168,87,0.26789
1283840,-0.14500,162.6875,168,87,0.26203
1283850,-0.14500,160.0000,168,87,0.25641
1283860,-0.11500,152.3125,168,87,0.24933
1283870,-0.08000,147.1875,168,87,0.24982
1283880,-0.03500,141.2500,168,87,0.25446
1283890,0.00000,134.8125,168,87,0.26398
1283900,0.03500,122.5625,168,87,0.30403
1283910,0.05000,117.9375,168,87,0.33431
1283920,0.05000,114.7500,168,87,0.37021
1283930,0.03000,112.7500,168,87,0.40977
1283940,-0.01000,111.0000,168,87,0.49133
1283950,-0.06500,110.5625,168,87,0.52943
1283960,-0.10500,110.2500,168,87,0.56435
1283970,-0.13000,109.8125,168,87,0.59536
1283980,-0.14500,108.4375,168,87,0.63834
1283990,-0.15500,107.5625,168,87,0.65690
1284000,-0.15500,106.5625,166,86,0.67375
1284010,-0.15500,105.5000,166,86,0.68840
1284020,-0.15500,103.0000,166,86,0.71160
1284030,-0.14500,101.7500,166,86,0.72015
1284040,-0.14500,100.5000,166,86,0.72723
1284050,-0.15000,99.3125,166,86,0.73260
1284060,-0.08500,97.0625,166,86,0.73895
1284070,0.23500,95.9375,166,86,0.73919
1284080,0.79500,94.8750,166,86,0.73773
1284090,0.96000,93.8750,166,86,0.73578
1284100,0.37000,91.8750,166,86,0.72747
1284110,-0.28000,90.9375,166,86,0.72039
1284120,-0.50500,90.0625,166,86,0.71111
1284130,-0.44000,89.1875,166,86,0.69890
1284140,-0.29500,87.3750,166,86,0.66642
1284150,-0.22000,86.4375,166,86,0.64664
1284160,-0.19917,85.5625,166,86,0.62515
1284170,-0.20000,84.6250,166,86,0.60293
1284180,-0.19000,82.9375,166,86,0.56484
1284190,-0.18000,82.3125,166,86,0.54603
1284200,-0.16000,81.8750,166,86,0.52772
1284210,-0.15000,81.8125,166,86,0.51111
1284220,-0.13500,83.8125,166,86,0.48254
1284230,-0.11500,87.3125,166,86,0.47033
1284240,-0.10000,93.6250,166,86,0.45910
1284250,-0.08000,102.8125,166,86,0.44860
1284260,-0.04500,126.0000,166,86,0.42882
1284270,-0.00500,137.1875,166,86,0.42076
1284280,0.03000,146.6250,166,86,0.41368
1284290,0.06000,159.0625,166,86,0.40562
1284300,0.09000,162.3125,166,86,0.38852
1284310,0.11000,164.2500,166,86,0.37973
1284320,0.12000,165.2500,166,86,0.37094
1284330,0.12500,165.8125,166,86,0.36239
1284340,0.12500,166.3125,166,86,0.34579
1284350,0.12000,166.5625,166,86,0.33773
1284360,0.11000,166.8750,166,86,0.32991
1284370,0.09000,167.1875,166,86,0.32259
1284380,0.06000,168.0000,166,86,0.31184
1284390,0.01000,168.3125,166,86,0.30598
1284400,-0.03500,168.5000,166,86,0.29988
1284410,-0.07500,168.4375,166,86,0.29353
1284420,-0.10000,167.7500,166,86,0.28107
1284430,-0.11500,166.8750,166,86,0.27497
1284440,-0.13000,165.6250,166,86,0.26886
1284450,-0.14500,163.8125,166,86,0.26276
1284460,-0.14500,158.3125,166,86,0.25153
1284470,-0.13500,154.3750,166,86,0.24884
1284480,-0.09500,149.6250,166,86,0.24884
1284490,-0.04500,144.0625,166,86,0.25153
1284500,-0.00500,131.5000,166,86,0.27302
1284510,0.02000,125.5625,166,86,0.29426
1284520,0.04000,120.6250,166,86,0.32283
1284530,0.04000,116.9375,166,86,0.35726
1284540,0.03000,112.8750,166,86,0.43663
1284550,-0.00500,112.0000,166,86,0.47717
1284560,-0.05000,111.3750,166,86,0.51600
1284570,-0.10000,110.8750,166,86,0.55214
1284580,-0.12500,109.6875,166,86,0.60391
1284590,-0.14500,109.0000,166,86,0.62686
1284600,-0.15500,108.1875,166,86,0.64762
1284610,-0.16500,107.1875,166,86,0.66593
1284620,-0.16500,104.9375,166,86,0.69524
1284630,-0.16000,103.7500,166,86,0.70647
1284640,-0.15500,102.5000,166,86,0.71551
1284650,-0.15000,101.1875,166,86,0.72283
1284660,-0.15000,98.7500,166,86,0.73284
1284670,-0.12500,97.6250,166,86,0.73455
1284680,0.09500,96.5625,166,86,0.73455
1284690,0.62000,95.5000,166,86,0.73431
1284700,1.00500,93.4375,166,86,0.73089
1284710,0.62000,92.5000,166,86,0.72674
1284720,-0.10000,91.5625,166,86,0.72063
1284730,-0.47000,89.8125,166,86,0.71209
1284740,-0.49000,88.8750,166,86,0.68742
1284750,-0.35500,87.9375,166,86,0.67131
1284760,-0.25000,87.0625,166,86,0.65275
1284770,-0.22000,86.1250,166,86,0.63223
1284780,-0.21000,84.3125,166,86,0.59414
1284790,-0.20000,83.4375,166,86,0.57411
1284800,-0.19000,82.6875,166,86,0.55385
1284810,-0.18000,82.1875,166,86,0.53480
1284820,-0.16000,82.1250,166,86,0.50110
1284830,-0.14500,83.1250,166,86,0.48694
1284840,-0.12500,85.6875,166,86,0.47399
1284850,-0.10000,90.7500,166,86,0.46227
1284860,-0.07000,109.4375,166,86,0.44103
1284870,-0.04000,121.2500,166,86,0.43272
1284880,-0.00500,132.7500,166,86,0.42515
1284890,0.03000,142.8750,166,86,0.41661
1284900,0.07000,156.8125,166,86,0.39878
1284910,0.09500,160.7500,166,86,0.38974
1284920,0.12000,163.1875,166,86,0.38071
1284930,0.13000,164.6250,166,86,0.37192
1284940,0.13500,165.8125,166,86,0.35482
1284950,0.13500,166.1250,166,86,0.34676
1284960,0.13000,166.4375,166,86,0.33871
1284970,0.12500,166.8750,166,86,0.33236
1284980,0.11000,167.7500,166,86,0.32088
1284990,0.07500,168.1875,166,86,0.31429
1285000,0.03000,168.5625,165,85,0.30769
1285010,-0.02000,168.8125,165,85,0.30110
1285020,-0.06500,168.8750,165,85,0.28840
1285030,-0.10500,168.5000,165,85,0.28230
1285040,-0.12500,167.8125,165,85,0.27619
1285050,-0.14000,166.7500,165,85,0.27009
1285060,-0.14500,163.0625,165,85,0.25788
1285070,-0.15500,160.3125,165,85,0.25372
1285080,-0.14500,156.8125,165,85,0.25104
1285090,-0.12000,152.5000,165,85,0.24908
1285100,-0.07000,141.4375,165,85,0.25470
1285110,-0.02500,135.0000,165,85,0.26593
1285120,0.01000,128.7500,165,85,0.28425
1285130,0.02500,123.1875,165,85,0.30989
1285140,0.03500,115.7500,165,85,0.37900
1285150,0.02500,113.8125,165,85,0.41880
1285160,0.00000,112.5625,165,85,0.45934
1285170,-0.04500,111.7500,165,85,0.49426
1285180,-0.09000,110.6250,165,85,0.55604
1285190,-0.12500,110.0625,165,85,0.58584
1285200,-0.14500,109.3125,165,85,0.61245
1285210,-0.15500,108.5000,165,85,0.63590
1285220,-0.16000,106.5625,165,85,0.67350
1285230,-0.16000,105.4375,165,85,0.68791
1285240,-0.16000,104.2500,165,85,0.70012
1285250,-0.16000,103.0000,165,85,0.71013
1285260,-0.15000,100.5625,165,85,0.72503
1285270,-0.15000,99.3125,165,85,0.72869
1285280,-0.15000,98.1875,165,85,0.73040
1285290,0.00500,97.0625,165,85,0.73211
1285300,0.45500,94.9375,165,85,0.73284
1285310,0.95500,93.9375,165,85,0.73138
1285320,0.81000,92.9375,165,85,0.72796
1285330,0.09000,91.9375,165,85,0.72283
1285340,-0.40500,90.0625,165,85,0.70574
1285350,-0.50000,89.1875,165,85,0.69304
1285360,-0.38500,88.2500,165,85,0.67766
1285370,-0.26000,87.3125,165,85,0.66203
1285380,-0.21500,85.5000,165,85,0.62589
1285390,-0.20500,84.5625,165,85,0.60464
1285400,-0.19500,83.6250,165,85,0.58315
1285410,-0.19000,82.8750,165,85,0.56190
1285420,-0.17000,81.8750,165,85,0.52332
1285430,-0.16000,81.8125,165,85,0.50647
1285440,-0.14500,82.3750,165,85,0.49158
1285450,-0.13500,84.0625,165,85,0.47814
1285460,-0.11500,93.9375,165,85,0.45470
1285470,-0.08500,103.1250,165,85,0.44567
1285480,-0.06000,114.3125,165,85,0.43761
1285490,-0.02500,126.0625,165,85,0.42882
1285500,0.01000,146.3750,165,85,0.41050
1285510,0.05000,153.5625,165,85,0.40122
1285520,0.09000,158.6250,165,85,0.39194
1285530,0.11500,161.8750,165,85,0.38291
1285540,0.13000,165.0000,165,85,0.36508
1285550,0.14000,165.6875,165,85,0.35653
1285560,0.14500,166.1250,165,85,0.34847
1285570,0.14000,166.5000,165,85,0.34212
1285580,0.13500,167.3125,165,85,0.32991
1285590,0.11000,167.8125,165,85,0.32283
1285600,0.08000,168.2500,165,85,0.31722
1285610,0.03000,168.6875,165,85,0.31233
1285620,-0.01500,169.1250,165,85,0.30037
1285630,-0.06000,169.1250,165,85,0.29402
1285640,-0.09000,168.8750,165,85,0.28791
1285650,-0.12000,168.3750,165,85,0.28181
1285660,-0.14000,166.2500,165,85,0.26960
1285670,-0.15500,164.5000,165,85,0.26496
1285680,-0.16000,162.1250,165,85,0.26129
1285690,-0.15000,159.1875,165,85,0.25690
1285700,-0.12500,150.8750,165,85,0.25128
1285710,-0.08500,145.4375,165,85,0.25348
1285720,-0.04500,139.3125,165,85,0.26129
1285730,-0.01500,132.9375,165,85,0.27595
1285740,0.01000,121.6250,165,85,0.32674
1285750,0.02000,117.6250,165,85,0.36166
1285760,0.01500,114.9375,165,85,0.40073
1285770,0.00000,113.2500,165,85,0.43639
1285780,-0.03500,111.5000,165,85,0.50598
1285790,-0.08000,111.0000,165,85,0.54164
1285800,-0.12000,110.5000,165,85,0.57460
1285810,-0.14500,109.8750,165,85,0.60440
1285820,-0.16000,108.1875,165,85,0.65299
1285830,-0.16500,107.1875,165,85,0.67204
1285840,-0.16500,106.1250,165,85,0.68816
1285850,-0.17000,104.9375,165,85,0.70183
1285860,-0.17000,102.5000,165,85,0.72234
1285870,-0.16500,101.1875,165,85,0.72821
1285880,-0.15500,100.0000,165,85,0.73211
1285890,-0.16000,98.7500,165,85,0.73578
1285900,-0.06000,96.4375,165,85,0.74066
1285910,0.33000,95.3750,165,85,0.74139
1285920,0.89500,94.3125,165,85,0.74090
1285930,0.89500,93.3125,165,85,0.73871
1285940,0.24500,91.4375,165,85,0.72869
1285950,-0.32500,90.5000,165,85,0.72039
1285960,-0.50500,89.6250,165,85,0.70940
1285970,-0.41000,88.7500,165,85,0.69719
1285980,-0.27500,86.9375,165,85,0.66642
1285990,-0.22500,86.0000,165,85,0.64689
1286000,-0.21000,85.0625,164,84,0.62589
1286010,-0.20500,84.1250,164,84,0.60391
1286020,-0.20000,82.5625,164,84,0.56117
1286030,-0.19000,82.0000,164,84,0.54139
1286040,-0.17000,81.7500,164,84,0.52332
1286050,-0.15500,81.8750,164,84,0.50720
1286060,-0.14000,85.1250,164,84,0.47961
1286070,-0.12500,89.8750,164,84,0.46911
1286080,-0.09500,97.6250,164,84,0.46007
1286090,-0.06500,107.9375,164,84,0.45031
1286100,-0.02500,131.1250,164,84,0.43101
1286110,0.01000,141.3750,164,84,0.42149
1286120,0.06000,149.6875,164,84,0.41197
1286130,0.09500,155.8750,164,84,0.40269
1286140,0.12000,162.6250,164,84,0.38437
1286150,0.14000,164.1875,164,84,0.37558
1286160,0.14500,165.0625,164,84,0.36679
1286170,0.14500,165.6250,164,84,0.35971
1286180,0.14500,166.3750,164,84,0.34652
1286190,0.13000,166.7500,164,84,0.33919
1286200,0.11500,167.1875,164,84,0.33187
1286210,0.09000,167.6875,164,84,0.32454
1286220,0.04500,168.5625,164,84,0.31013
1286230,0.00000,168.8750,164,84,0.30330
1286240,-0.05000,169.0625,164,84,0.29670
1286250,-0.08500,169.0625,164,84,0.29011
1286260,-0.11000,168.1250,164,84,0.27766
1286270,-0.13000,167.1250,164,84,0.27326
1286280,-0.14500,165.5625,164,84,0.26960
1286290,-0.15000,163.5625,164,84,0.26471
1286300,-0.15500,157.6250,164,84,0.25446
1286310,-0.14000,153.5000,164,84,0.25128
1286320,-0.11000,148.5000,164,84,0.25128
1286330,-0.07000,142.7500,164,84,0.25592
1286340,-0.03000,129.9375,164,84,0.28474
1286350,0.00000,124.0000,164,84,0.31013
1286360,0.02000,119.1250,164,84,0.34212
1286370,0.02000,115.5625,164,84,0.37411
1286380,0.01000,111.7500,164,84,0.44396
1286390,-0.02000,110.9375,164,84,0.48278
1286400,-0.06500,110.3750,164,84,0.52063
1286410,-0.11500,109.8750,164,84,0.55604
1286420,-0.13500,108.6250,164,84,0.61587
1286430,-0.15500,107.8125,164,84,0.64029
1286440,-0.16000,106.9375,164,84,0.66105
1286450,-0.16500,106.0000,164,84,0.67888
1286460,-0.16000,103.8125,164,84,0.70623
1286470,-0.16000,102.6250,164,84,0.71477
1286480,-0.15000,101.4375,164,84,0.72088
1286490,-0.14500,100.2500,164,84,0.72698
1286500,-0.13500,97.8125,164,84,0.73651
1286510,-0.10500,96.6875,164,84,0.73944
1286520,0.13000,95.5625,164,84,0.74115
1286530,0.66000,94.5000,164,84,0.74139
1286540,1.01500,92.4375,164,84,0.73724
1286550,0.60000,91.4375,164,84,0.73236
1286560,-0.11500,90.4375,164,84,0.72527
1286570,-0.46500,89.5625,164,84,0.71673
1286580,-0.46500,87.6875,164,84,0.69280
1286590,-0.32500,86.7500,164,84,0.67668
1286600,-0.24000,85.8125,164,84,0.65788
1286610,-0.22000,84.8750,164,84,0.63712
1286620,-0.20500,83.1250,164,84,0.59267
1286630,-0.20000,82.3125,164,84,0.57070
1286640,-0.19000,81.6875,164,84,0.54969
1286650,-0.18000,81.1875,164,84,0.53040
1286660,-0.16000,81.3125,164,84,0.49719
1286670,-0.15000,82.5000,164,84,0.48449
1286680,-0.13500,85.3125,164,84,0.47375
1286690,-0.10500,90.6250,164,84,0.46276
1286700,-0.07500,109.6250,164,84,0.44200
1286710,-0.03500,121.3750,164,84,0.43223
1286720,0.00000,132.7500,164,84,0.42271
1286730,0.04000,142.7500,164,84,0.41319
1286740,0.08000,156.5000,164,84,0.39463
1286750,0.11500,160.3750,164,84,0.38559
1286760,0.14000,162.8125,164,84,0.37656
1286770,0.15500,164.1875,164,84,0.36923
1286780,0.16500,165.5625,164,84,0.35531
1286790,0.17000,165.9375,164,84,0.34774
1286800,0.17000,166.2500,164,84,0.33993
1286810,0.16000,166.6250,164,84,0.33236
1286820,0.14000,167.4375,164,84,0.31746
1286830,0.10000,167.8125,164,84,0.31038
1286840,0.04500,168.1875,164,84,0.30330
1286850,-0.01000,168.3750,164,84,0.29646
1286860,-0.05500,168.3125,164,84,0.28449
1286870,-0.08500,167.9375,164,84,0.28034
1286880,-0.09500,167.2500,164,84,0.27521
1286890,-0.10500,166.1875,164,84,0.26960
1286900,-0.11500,162.4375,164,84,0.25763
1286910,-0.12500,159.7500,164,84,0.25201
1286920,-0.12500,156.2500,164,84,0.24737
1286930,-0.10500,152.0000,164,84,0.24493
1286940,-0.05500,141.0625,164,84,0.25226
1286950,-0.01500,134.6875,164,84,0.26520
1286960,0.02500,128.1875,164,84,0.28547
1286970,0.05500,122.2500,164,84,0.30867
1286980,0.08000,114.1250,164,84,0.36996
1286990,0.08000,112.0625,164,84,0.40904
1287000,0.06000,110.9375,165,84,0.44982
1287010,-0.00500,110.3125,165,84,0.49035
1287020,-0.07500,109.4375,165,84,0.56435
1287030,-0.12500,108.8750,165,84,0.59585
1287040,-0.15500,108.1875,165,84,0.62344
1287050,-0.17000,107.3750,165,84,0.64737
1287060,-0.17500,105.3125,165,84,0.68230
1287070,-0.19000,104.1875,165,84,0.69353
1287080,-0.19000,103.0000,165,84,0.70452
1287090,-0.18500,101.6875,165,84,0.71453
1287100,-0.17500,99.0625,165,84,0.73016
1287110,-0.17000,97.8125,165,84,0.73578
1287120,-0.16000,96.5625,165,84,0.73993
1287130,-0.06000,95.4375,165,84,0.74286
1287140,0.31000,93.3125,165,84,0.74383
1287150,0.87000,92.3750,165,84,0.74212
1287160,0.93000,91.5000,165,84,0.73871
1287170,0.26500,90.6875,165,84,0.73333
1287180,-0.34500,89.1250,165,84,0.71722
1287190,-0.51500,88.3125,165,84,0.70574
1287200,-0.42500,87.5000,165,84,0.69158
1287210,-0.29000,86.6875,165,84,0.67473
1287220,-0.24000,84.8125,165,84,0.63443
1287230,-0.23000,83.8750,165,84,0.61221
1287240,-0.21500,83.0000,165,84,0.58974
1287250,-0.20000,82.1250,165,84,0.56777
1287260,-0.18500,80.8125,165,84,0.52991
1287270,-0.17000,80.6250,165,84,0.51551
1287280,-0.16000,80.8750,165,84,0.50110
1287290,-0.15500,82.0625,165,84,0.48791
1287300,-0.15000,90.3125,165,84,0.46398
1287310,-0.13500,98.6250,165,84,0.45348
1287320,-0.09500,109.3125,165,84,0.44322
1287330,-0.06000,121.0000,165,84,0.43321
1287340,-0.02500,142.1250,165,84,0.41368
1287350,0.01000,150.0000,165,84,0.40415
1287360,0.04000,155.6875,165,84,0.39438
1287370,0.06000,159.5000,165,84,0.38632
1287380,0.08000,163.1875,165,84,0.37118
1287390,0.09500,164.0000,165,84,0.36264
1287400,0.10000,164.5000,165,84,0.35385
1287410,0.09500,164.9375,165,84,0.34530
1287420,0.10000,165.8125,165,84,0.32894
1287430,0.10500,166.3125,165,84,0.32137
1287440,0.10500,166.8750,165,84,0.31404
1287450,0.07000,167.3750,165,84,0.30720
1287460,0.02000,168.0625,165,84,0.29573
1287470,-0.02000,168.1875,165,84,0.29158
1287480,-0.05000,168.0000,165,84,0.28645
1287490,-0.08000,167.6250,165,84,0.28107
1287500,-0.10000,165.7500,165,84,0.26935
1287510,-0.11500,164.2500,165,84,0.26325
1287520,-0.12500,162.1250,165,84,0.25714
1287530,-0.13500,159.4375,165,84,0.25128
1287540,-0.13000,151.7500,165,84,0.24371
1287550,-0.10000,146.6250,165,84,0.24493
1287560,-0.05500,140.8125,165,84,0.25128
1287570,-0.00500,134.4375,165,84,0.26203
1287580,0.02500,122.1250,165,84,0.30183
1287590,0.04500,117.4375,165,84,0.33284
1287600,0.05000,114.0625,165,84,0.36947
1287610,0.04000,111.8125,165,84,0.40952
1287620,0.02000,109.6875,165,84,0.49182
1287630,-0.02000,109.1875,165,84,0.53040
1287640,-0.06500,108.7500,165,84,0.56557
1287650,-0.09500,108.2500,165,84,0.59829
1287660,-0.11500,106.8750,165,84,0.64933
1287670,-0.12000,106.0000,165,84,0.66618
1287680,-0.11500,105.0625,165,84,0.68230
1287690,-0.11500,104.0000,165,84,0.69670
1287700,-0.11500,101.6250,165,84,0.72015
1287710,-0.11500,100.3750,165,84,0.72918
1287720,-0.10000,99.1875,165,84,0.73651
1287730,-0.09500,97.9375,165,84,0.74237
1287740,-0.09500,95.6875,165,84,0.74945
1287750,0.07000,94.5625,165,84,0.75092
1287760,0.53500,93.5000,165,84,0.75092
1287770,1.01000,92.4375,165,84,0.74872
1287780,0.81500,90.5000,165,84,0.74017
1287790,0.08000,89.6250,165,84,0.73333
1287800,-0.40000,88.6875,165,84,0.72430
1287810,-0.48000,87.8125,165,84,0.71282
1287820,-0.36500,86.0625,165,84,0.68181
1287830,-0.25500,85.1250,165,84,0.66276
1287840,-0.22000,84.1875,165,84,0.64176
1287850,-0.20000,83.3125,165,84,0.61954
1287860,-0.18500,81.5625,165,84,0.57705
1287870,-0.17500,80.8125,165,84,0.55946
1287880,-0.16000,80.3125,165,84,0.54139
1287890,-0.15000,80.0000,165,84,0.52430
1287900,-0.13500,81.1875,165,84,0.49451
1287910,-0.12500,83.6875,165,84,0.48156
1287920,-0.10500,88.6250,165,84,0.46984
1287930,-0.07500,96.5000,165,84,0.45910
1287940,-0.04000,118.4375,165,84,0.43907
1287950,-0.00500,129.8750,165,84,0.42955
1287960,0.03000,139.9375,165,84,0.42027
1287970,0.07000,154.1875,165,84,0.41270
1287980,0.10000,158.3750,165,84,0.39805
1287990,0.12500,161.0000,165,84,0.38974
1288000,0.14000,162.6250,165,84,0.38144
1288010,0.14500,163.5625,165,84,0.37314
1288020,0.14500,164.6250,165,84,0.35702
1288030,0.14000,165.0000,165,84,0.34921
1288040,0.13500,165.3750,165,84,0.34164
1288050,0.11500,165.8125,165,84,0.33455
1288060,0.08000,166.6250,165,84,0.32210
1288070,0.03500,167.0000,165,84,0.31746
1288080,-0.01500,167.3125,165,84,0.31184
1288090,-0.06000,167.4375,165,84,0.30574
1288100,-0.09500,167.0000,165,84,0.29353
1288110,-0.12000,166.3750,165,84,0.28742
1288120,-0.13500,165.3750,165,84,0.28156
1288130,-0.15000,163.9375,165,84,0.27546
1288140,-0.16000,159.2500,165,84,0.26374
1288150,-0.17000,155.8750,165,84,0.25885
1288160,-0.15500,151.7500,165,84,0.25592
1288170,-0.12000,146.8125,165,84,0.25641
1288180,-0.07500,134.8125,165,84,0.27009
1288190,-0.04000,128.5000,165,84,0.28596
1288200,-0.01000,122.6875,165,84,0.30916
1288210,0.00000,117.9375,165,84,0.33944
1288220,0.01000,112.1250,165,84,0.41490
1288230,0.00000,110.6875,165,84,0.45568
1288240,-0.02000,109.8125,165,84,0.49597
1288250,-0.06000,109.1875,165,84,0.53431
1288260,-0.10500,108.0625,165,84,0.59756
1288270,-0.13000,107.3750,165,84,0.62027
1288280,-0.15000,106.6250,165,84,0.64274
1288290,-0.16000,105.7500,165,84,0.66325
1288300,-0.17000,103.6250,165,84,0.69695
1288310,-0.17000,102.5000,165,84,0.71013
1288320,-0.17000,101.3750,165,84,0.72112
1288330,-0.17000,100.1875,165,84,0.73016
1288340,-0.16500,97.8750,165,84,0.74335
1288350,-0.17000,96.7500,165,84,0.74774
1288360,-0.15000,95.6250,165,84,0.75067
1288370,0.08000,94.5000,165,84,0.75116
1288380,0.61000,92.3125,165,84,0.74847
1288390,0.99000,91.2500,165,84,0.74579
1288400,0.66000,90.2500,165,84,0.74139
1288410,-0.06500,89.3125,165,84,0.73480
1288420,-0.47000,87.5625,165,84,0.71477
1288430,-0.48500,86.6875,165,84,0.70085
1288440,-0.34500,85.7500,165,84,0.68425
1288450,-0.25000,84.8750,165,84,0.66520
1288460,-0.22500,83.0625,165,84,0.62491
1288470,-0.21500,82.2500,165,84,0.60635
1288480,-0.20000,81.4375,165,84,0.58608
1288490,-0.19000,80.7500,165,84,0.56581
1288500,-0.17500,79.8125,165,84,0.52845
1288510,-0.16000,79.8750,165,84,0.51209
1288520,-0.15000,80.5000,165,84,0.49744
1288530,-0.13500,82.4375,165,84,0.48425
1288540,-0.11000,93.4375,165,84,0.46105
1288550,-0.08500,103.1250,165,84,0.45031
1288560,-0.04500,114.3750,165,84,0.44151
1288570,-0.00500,125.8750,165,84,0.43370
1288580,0.04000,145.1875,165,84,0.41636
1288590,0.08000,151.9375,165,84,0.40757
1288600,0.11000,156.6250,165,84,0.39878
1288610,0.13000,159.6250,165,84,0.38999
1288620,0.14500,162.4375,165,84,0.37265
1288630,0.15500,163.0625,165,84,0.36435
1288640,0.15500,163.4375,165,84,0.35604
1288650,0.14500,163.7500,165,84,0.34799
1288660,0.13000,164.5000,165,84,0.33407
1288670,0.10500,165.0000,165,84,0.32894
1288680,0.07000,165.4375,165,84,0.32283
1288690,0.02000,166.1250,165,84,0.31624
1288700,-0.02500,166.3125,165,84,0.30305
1288710,-0.07000,166.2500,165,84,0.29646
1288720,-0.10500,166.0000,165,84,0.29011
1288730,-0.12500,165.3750,165,84,0.28400
1288740,-0.14500,163.1250,165,84,0.27179
1288750,-0.15500,161.2500,165,84,0.26593
1288760,-0.16000,158.8125,165,84,0.26178
1288770,-0.16166,155.6563,165,84,0.25824
1288780,-0.15000,151.7500,165,84,0.25568
1288790,-0.11500,147.0625,165,84,0.25446
1288800,-0.07500,141.5625,165,84,0.25665
1288810,-0.03000,135.3750,165,84,0.26422
1288820,0.00000,122.9375,165,84,0.29939
1288830,0.02500,117.9375,165,84,0.32796
1288840,0.03500,114.2500,165,84,0.36239
1288850,0.02500,111.7500,165,84,0.40122
1288860,-0.00500,109.1875,165,84,0.48303
1288870,-0.04500,108.5000,165,84,0.51770
1288880,-0.09500,108.0000,165,84,0.54774
1288890,-0.13500,107.4375,165,84,0.57827
1288900,-0.15500,105.9375,165,84,0.63297
1288910,-0.17000,105.0625,165,84,0.65568
1288920,-0.18000,104.0625,165,84,0.67546
1288930,-0.18000,103.0000,165,84,0.69206
1288940,-0.18000,100.7500,165,84,0.71795
1288950,-0.16500,99.6250,165,84,0.72772
1288960,-0.15500,98.4375,165,84,0.73553
1288970,-0.15000,97.2500,165,84,0.74017
1288980,-0.14500,95.0000,165,84,0.74530
1288990,0.00000,93.9375,165,84,0.74701
1289000,0.45000,92.8750,166,84,0.74774
1289010,0.97000,91.8750,166,84,0.74701
1289020,0.82000,89.8750,166,84,0.74115
1289030,0.11000,88.9375,166,84,0.73529
1289040,-0.39000,88.0000,166,84,0.72723
1289050,-0.50500,87.1250,166,84,0.71648
1289060,-0.39000,85.4375,166,84,0.68694
1289070,-0.26500,84.5000,166,84,0.67057
1289080,-0.23000,83.6250,166,84,0.65348
1289090,-0.21500,82.6875,166,84,0.63346
1289100,-0.20000,80.9375,166,84,0.58999
1289110,-0.19000,80.1250,166,84,0.56874
1289120,-0.18000,79.5625,166,84,0.54872
1289130,-0.16500,79.1250,166,84,0.53016
1289140,-0.15000,79.2500,166,84,0.49866
1289150,-0.13500,80.3750,166,84,0.48523
1289160,-0.11500,83.1250,166,84,0.47302
1289170,-0.09000,88.3125,166,84,0.46300
1289180,-0.05500,106.6875,166,84,0.44518
1289190,-0.02000,118.1250,166,84,0.43565
1289200,0.01500,129.2500,166,84,0.42613
1289210,0.05000,139.1250,166,84,0.41661
1289220,0.09000,152.8750,166,84,0.39805
1289230,0.11500,156.9375,166,84,0.38901
1289240,0.13000,159.5000,166,84,0.38022
1289250,0.14000,161.0000,166,84,0.37167
1289260,0.14500,162.4375,166,84,0.35507
1289270,0.14000,162.8750,166,84,0.34847
1289280,0.13000,163.2500,166,84,0.34286
1289290,0.12000,163.6250,166,84,0.33651
1289300,0.08000,164.3750,166,84,0.32259
1289310,0.03000,164.7500,166,84,0.31575
1289320,-0.01500,165.0000,166,84,0.30916
1289330,-0.06000,165.1875,166,84,0.30256
1289340,-0.09500,165.0625,166,84,0.28962
1289350,-0.11500,164.6875,166,84,0.28327
1289360,-0.12500,164.0000,166,84,0.27717
1289370,-0.13500,162.9375,166,84,0.27277
1289380,-0.14000,159.3750,166,84,0.26422
1289390,-0.14500,156.7500,166,84,0.25910
1289400,-0.13500,153.3750,166,84,0.25446
1289410,-0.10500,149.2500,166,84,0.25128
1289420,-0.05500,138.5000,166,84,0.25543
1289430,-0.00500,132.2500,166,84,0.26593
1289440,0.02500,125.9375,166,84,0.28327
1289450,0.05000,120.2500,166,84,0.30818
1289460,0.06000,112.3750,166,84,0.37656
1289470,0.05000,110.1875,166,84,0.41148
1289480,0.02500,108.8750,166,84,0.44518
1289490,-0.01500,108.0625,166,84,0.48278
1289500,-0.06500,106.9375,166,84,0.55678
1289510,-0.10500,106.3750,166,84,0.58974
1289520,-0.12500,105.6875,166,84,0.61905
1289530,-0.14000,104.8750,166,84,0.64469
1289540,-0.15500,102.9375,166,84,0.68523
1289550,-0.15500,101.8750,166,84,0.70085
1289560,-0.15500,100.7500,166,84,0.71404
1289570,-0.14500,98.5000,166,84,0.72308
1289580,-0.14500,97.3125,166,84,0.73553
1289590,-0.13500,96.1875,166,84,0.74090
1289600,-0.13500,95.0625,166,84,0.74505
1289610,-0.05500,93.9375,166,84,0.74799
1289620,0.30500,91.7500,166,84,0.74994
1289630,0.88000,90.6875,166,84,0.74872
1289640,0.95500,89.6875,166,84,0.74603
1289650,0.33000,88.7500,166,84,0.74139
1289660,-0.29000,86.9375,166,84,0.72503
1289670,-0.50000,86.0625,166,84,0.71429
1289680,-0.41500,85.2500,166,84,0.70183
1289690,-0.27500,84.3750,166,84,0.68645
1289700,-0.22000,82.6250,166,84,0.64713
1289710,-0.20000,81.6875,166,84,0.62442
1289720,-0.19500,80.8125,166,84,0.60171
1289730,-0.18000,80.0000,166,84,0.57949
1289740,-0.16500,78.6875,166,84,0.53919
1289750,-0.15000,78.2500,166,84,0.52161
1289760,-0.14000,78.0625,166,84,0.50574
1289770,-0.12500,78.3750,166,84,0.49304
1289780,-0.10500,82.4375,166,84,0.47131
1289790,-0.08000,87.8750,166,84,0.46056
1289800,-0.05500,96.3125,166,84,0.45031
1289810,-0.01500,107.0000,166,84,0.44029
1289820,0.02000,129.6875,166,84,0.42100
1289830,0.06000,139.3125,166,84,0.41172
1289840,0.10000,147.0000,166,84,0.40244
1289850,0.12500,152.6250,166,84,0.39341
1289860,0.14500,158.8125,166,84,0.37582
1289870,0.15500,160.2500,166,84,0.36899
1289880,0.15500,161.1250,166,84,0.36288
1289890,0.15500,161.6875,166,84,0.35580
1289900,0.14500,162.3750,166,84,0.34042
1289910,0.13000,162.7500,166,84,0.33284
1289920,0.10000,163.0625,166,84,0.32552
1289930,0.05500,163.3750,166,84,0.31844
1289940,0.00000,164.0000,166,84,0.30452
1289950,-0.05000,164.1875,166,84,0.29792
1289960,-0.09500,164.2500,166,84,0.29158
1289970,-0.12500,164.0625,166,84,0.28694
1289980,-0.14500,162.8750,166,84,0.27839
1289990,-0.16000,161.8125,166,84,0.27277
1290000,-0.17500,160.2500,167,84,0.26716
1290010,-0.18500,155.5000,167,84,0.25568
1290020,-0.18000,152.0625,167,84,0.25104
1290030,-0.15500,147.8125,167,84,0.24811
1290040,-0.11000,142.7500,167,84,0.24860
1290050,-0.06000,136.9375,167,84,0.25397
1290060,-0.02000,124.5625,167,84,0.28449
1290070,0.01500,119.1250,167,84,0.30647
1290080,0.03000,114.7500,167,84,0.33236
1290090,0.03000,111.5625,167,84,0.36606
1290100,0.00000,108.1875,167,84,0.44518
1290110,-0.03500,107.3125,167,84,0.48571
1290120,-0.08500,106.6875,167,84,0.52479
1290130,-0.12500,106.0625,167,84,0.56093
1290140,-0.12500,104.7500,167,84,0.62198
1290150,-0.13000,104.0000,167,84,0.64689
1290160,-0.16000,103.1250,167,84,0.66813
1290170,-0.18500,102.1250,167,84,0.68400
1290180,-0.18000,100.1250,167,84,0.70745
1290190,-0.17000,99.0625,167,84,0.71770
1290200,-0.16000,98.0000,167,84,0.72650
1290210,-0.15000,96.8750,167,84,0.73382
1290220,-0.15000,94.5625,167,84,0.74383
1290230,-0.10500,93.4375,167,84,0.74676
1290240,0.18500,92.3125,167,84,0.74823
1290250,0.74500,91.2500,167,84,0.74823
1290260,0.97500,89.1875,167,84,0.74335
1290270,0.47500,88.1875,167,84,0.73822
1290280,-0.20500,87.2500,167,84,0.73138
1290290,-0.51000,86.3750,167,84,0.72259
1290300,-0.46500,84.6250,167,84,0.69768
1290310,-0.31500,83.7500,167,84,0.68156
1290320,-0.23500,82.8750,167,84,0.66276
1290330,-0.21500,82.0000,167,84,0.64225
1290340,-0.20000,80.3125,167,84,0.59853
1290350,-0.18500,79.5000,167,84,0.57680
1290360,-0.17000,78.8125,167,84,0.55604
1290370,-0.15000,78.2500,167,84,0.53871
1290380,-0.13000,77.8125,167,84,0.50891
1290390,-0.11500,78.2500,167,84,0.49475
1290400,-0.10000,79.6875,167,84,0.48181
1290410,-0.07000,83.0000,167,84,0.46984
1290420,-0.04500,97.5625,167,84,0.44811
1290430,-0.00500,108.1875,167,84,0.43785
1290440,0.03500,119.5000,167,84,0.42808
1290450,0.07500,130.2500,167,84,0.41856
1290460,0.11000,146.8750,167,84,0.40171
1290470,0.14500,152.2500,167,84,0.39512
1290480,0.16500,155.8125,167,84,0.38755
1290490,0.17000,158.0625,167,84,0.37949
1290500,0.17500,160.2500,167,84,0.36288
1290510,0.16500,160.6875,167,84,0.35482
1290520,0.15500,161.0000,167,84,0.34676
1290530,0.13500,161.3125,167,84,0.33895
1290540,0.10000,161.8750,167,84,0.32381
1290550,0.05500,162.2500,167,84,0.31648
1290560,-0.00500,162.5625,167,84,0.30940
1290570,-0.05500,162.8750,167,84,0.30403
1290580,-0.10000,163.0625,167,84,0.29426
1290590,-0.13500,162.8125,167,84,0.28840
1290600,-0.17000,162.2500,167,84,0.28254
1290610,-0.19500,161.3750,167,84,0.27668
1290620,-0.21000,158.4375,167,84,0.26496
1290630,-0.20500,156.1875,167,84,0.25910
1290640,-0.20000,153.3750,167,84,0.25372
1290650,-0.18500,149.7500,167,84,0.24957
1290660,-0.14500,140.0625,167,84,0.24860
1290670,-0.08500,134.0000,167,84,0.25397
1290680,-0.04000,127.5625,167,84,0.26447
1290690,0.00000,121.2500,167,84,0.28156
1290700,0.02500,111.5625,167,84,0.33700
1290710,0.03000,108.7500,167,84,0.37338
1290720,0.01500,107.0000,167,84,0.41294
1290730,-0.01500,106.0000,167,84,0.45397
1290740,-0.07000,105.0000,167,84,0.53284
1290750,-0.12000,104.5625,167,84,0.56825
1290760,-0.15500,104.0000,167,84,0.60000
1290770,-0.17000,103.3125,167,84,0.62466
1290780,-0.18500,101.6250,167,84,0.66349
1290790,-0.19000,100.6875,167,84,0.68083
1290800,-0.18500,99.6875,167,84,0.69621
1290810,-0.17500,98.6250,167,84,0.70940
1290820,-0.16500,96.5000,167,84,0.72918
1290830,-0.15000,95.3750,167,84,0.73626
1290840,-0.14000,94.2500,167,84,0.74188
1290850,-0.11500,93.1250,167,84,0.74579
1290860,0.09000,90.9375,167,84,0.74847
1290870,0.58500,89.9375,167,84,0.74676
1290880,1.03000,88.8750,167,84,0.74457
1290890,0.78500,87.8750,167,84,0.74115
1290900,0.06000,86.0625,167,84,0.72918
1290910,-0.38000,85.1875,167,84,0.71990
1290920,-0.43000,84.3750,167,84,0.70794
1290930,-0.30000,83.5000,167,84,0.69328
1290940,-0.18500,81.8125,167,84,0.65592
1290950,-0.15500,81.0000,167,84,0.63443
1290960,-0.14500,80.1250,167,84,0.61197
1290970,-0.14000,79.3125,167,84,0.59170
1290980,-0.14000,77.8125,167,84,0.55336
1290990,-0.13500,77.3125,167,84,0.53431
1291000,-0.13000,76.9375,167,83,0.51673
1291010,-0.12000,76.8750,167,83,0.50085
1291020,-0.10500,78.8750,167,83,0.47375
1291030,-0.08500,82.3125,167,83,0.46203
1291040,-0.06000,88.2500,167,83,0.45104
1291050,-0.02500,97.0000,167,83,0.44078
1291060,0.01000,118.8125,167,83,0.42295
1291070,0.05000,129.5000,167,83,0.41587
1291080,0.09000,138.6250,167,83,0.40781
1291090,0.11500,145.8750,167,83,0.39951
1291100,0.13000,154.6875,167,83,0.38242
1291110,0.13500,156.9375,167,83,0.37387
1291120,0.14000,158.3125,167,83,0.36557
1291130,0.14000,159.1250,167,83,0.35726
1291140,0.14000,160.0000,167,83,0.34090
1291150,0.13000,160.3125,167,83,0.33333
1291160,0.11500,160.6250,167,83,0.32576
1291170,0.08500,160.9375,167,83,0.32015
1291180,0.03500,161.5000,167,83,0.30940
1291190,-0.01500,161.6875,167,83,0.30330
1291200,-0.06000,161.7500,167,83,0.29695
1291210,-0.09000,161.7500,167,83,0.29084
1291220,-0.11500,160.9375,167,83,0.27863
1291230,-0.13000,160.1250,167,83,0.27277
1291240,-0.14500,158.8750,167,83,0.26691
1291250,-0.15500,157.1875,167,83,0.26105
1291260,-0.16000,152.1250,167,83,0.25153
1291270,-0.15000,148.5000,167,83,0.24933
1291280,-0.11500,144.1250,167,83,0.24737
1291290,-0.06500,138.8750,167,83,0.24786
1291300,-0.02000,126.6875,167,83,0.26325
1291310,0.02000,120.6250,167,83,0.28083
1291320,0.04000,115.3750,167,83,0.30598
1291330,0.05000,111.3750,167,83,0.33773
1291340,0.04500,106.8125,167,83,0.41538
1291350,0.02000,105.7500,167,83,0.45690
1291360,-0.02500,105.0625,167,83,0.49768
1291370,-0.08000,104.5625,167,83,0.53187
1291380,-0.11500,103.5000,167,83,0.59096
1291390,-0.14000,102.8125,167,83,0.61880
1291400,-0.15500,102.0000,167,83,0.64371
1291410,-0.16000,101.1250,167,83,0.66545
1291420,-0.16000,99.1250,167,83,0.69988
1291430,-0.16000,98.0625,167,83,0.71331
1291440,-0.15500,97.0625,167,83,0.72430
1291450,-0.14500,96.0000,167,83,0.73333
1291460,-0.14500,93.8125,167,83,0.74432
1291470,-0.14500,92.7500,167,83,0.74628
1291480,-0.03000,91.6875,167,83,0.74799
1291490,0.36500,90.6875,167,83,0.74896
1291500,0.91000,88.6875,167,83,0.74750
1291510,0.93000,87.6875,167,83,0.74432
1291520,0.24500,86.7500,167,83,0.73919
1291530,-0.33500,85.8125,167,83,0.73211
1291540,-0.48500,84.1250,167,83,0.71013
1291550,-0.38500,83.2500,167,83,0.69524
1291560,-0.25500,82.3750,167,83,0.67766
1291570,-0.20500,81.5000,167,83,0.66007
1291580,-0.20000,79.6875,167,83,0.62149
1291590,-0.19000,78.8125,167,83,0.59976
1291600,-0.18000,78.0625,167,83,0.57778
1291610,-0.16500,77.3750,167,83,0.55678
1291620,-0.14500,76.5000,167,83,0.51941
1291630,-0.13500,76.4375,167,83,0.50330
1291640,-0.12000,76.8750,167,83,0.48889
1291650,-0.10500,78.3125,167,83,0.47595
1291660,-0.08500,87.6875,167,83,0.45470
1291670,-0.05500,96.5000,167,83,0.44640
1291680,-0.01500,107.2500,167,83,0.43761
1291690,0.02500,118.5625,167,83,0.42833
1291700,0.07000,138.3125,167,83,0.41001
1291710,0.11000,145.4375,167,83,0.40098
1291720,0.14000,150.6250,167,83,0.39219
1291730,0.15500,154.1250,167,83,0.38364
1291740,0.16000,157.6250,167,83,0.36654
1291750,0.16000,158.3125,167,83,0.35946
1291760,0.15500,158.7500,167,83,0.35311
1291770,0.14500,159.1250,167,83,0.34750
1291780,0.13000,159.6250,167,83,0.33626
1291790,0.10500,159.8750,167,83,0.32967
1291800,0.06000,160.0625,167,83,0.32308
1291810,0.01000,160.3125,167,83,0.31624
1291820,-0.03500,160.4375,167,83,0.30305
1291830,-0.07500,160.3125,167,83,0.29670
1291840,-0.10500,160.0625,167,83,0.29035
1291850,-0.12500,159.5625,167,83,0.28425
1291860,-0.14500,157.4375,167,83,0.27375
1291870,-0.15000,155.6875,167,83,0.27009
1291880,-0.15500,153.3750,167,83,0.26545
1291890,-0.15000,150.4375,167,83,0.26032
1291900,-0.12500,142.1875,167,83,0.25275
1291910,-0.07500,136.8750,167,83,0.25324
1291920,-0.02000,130.8125,167,83,0.25836
1291930,0.02000,124.5625,167,83,0.26960
1291940,0.05000,113.5000,167,83,0.31331
1291950,0.07000,109.6875,167,83,0.34530
1291960,0.07000,107.1875,167,83,0.38242
1291970,0.05500,105.6250,167,83,0.41758
1291980,0.02000,104.1875,167,83,0.48816
1291990,-0.03000,103.7500,167,83,0.52552
1292000,-0.08500,103.2500,167,83,0.56093
1292010,-0.11500,102.6875,167,83,0.59341
1292020,-0.14000,101.1250,167,83,0.64713
1292030,-0.14500,100.1875,167,83,0.66862
1292040,-0.15000,99.1875,167,83,0.68718
1292050,-0.14500,98.1875,167,83,0.70281
1292060,-0.13500,96.0625,167,83,0.72405
1292070,-0.12500,95.0000,167,83,0.72991
1292080,-0.12500,93.9375,167,83,0.73578
1292090,-0.12500,92.8750,167,83,0.74066
1292100,-0.10500,90.8125,167,83,0.74701
1292110,0.11000,89.8125,167,83,0.74823
1292120,0.63000,88.8125,167,83,0.74799
1292130,1.02500,87.8125,167,83,0.74628
1292140,0.67500,85.9375,167,83,0.73724
1292150,-0.04500,85.1250,167,83,0.72967
1292160,-0.43500,84.3125,167,83,0.72039
1292170,-0.46000,83.5000,167,83,0.70940
1292180,-0.32000,81.8125,167,83,0.67912
1292190,-0.22000,81.0000,167,83,0.66007
1292200,-0.20000,80.1250,167,83,0.63907
1292210,-0.18500,79.3125,167,83,0.61709
1292220,-0.17500,77.6250,167,83,0.57314
1292230,-0.16000,76.8750,167,83,0.55263
1292240,-0.15000,76.3125,167,83,0.53382
1292250,-0.13500,75.9375,167,83,0.51673
1292260,-0.12500,76.1875,167,83,0.48938
1292270,-0.11500,77.4375,167,83,0.47912
1292280,-0.09500,80.3750,167,83,0.46862
1292290,-0.06500,85.7500,167,83,0.45836
1292300,-0.03500,104.2500,167,83,0.43858
1292310,0.00500,115.3750,167,83,0.42906
1292320,0.04500,126.1250,167,83,0.41978
1292330,0.09000,135.5625,167,83,0.41074
1292340,0.12000,148.7500,167,83,0.39341
1292350,0.14500,152.5625,167,83,0.38486
1292360,0.15500,155.0000,167,83,0.37802
1292370,0.16500,156.4375,167,83,0.37216
1292380,0.16500,157.8125,167,83,0.35800
1292390,0.16500,158.1250,167,83,0.35043
1292400,0.15500,158.3750,167,83,0.34286
1292410,0.13000,158.6250,167,83,0.33553
1292420,0.09000,159.1875,167,83,0.32137
1292430,0.04000,159.5000,167,83,0.31453
1292440,-0.01500,159.7500,167,83,0.30794
1292450,-0.05500,159.8750,167,83,0.30159
1292460,-0.09000,159.6250,167,83,0.29060
1292470,-0.11500,159.1875,167,83,0.28694
1292480,-0.13000,158.3750,167,83,0.28230
1292490,-0.14500,157.2500,167,83,0.27692
1292500,-0.15000,153.5000,167,83,0.26569
1292510,-0.15500,150.7500,167,83,0.26007
1292520,-0.14000,147.3125,167,83,0.25519
1292530,-0.11000,143.0625,167,83,0.25201
1292540,-0.07000,132.1875,167,83,0.25592
1292550,-0.02500,125.9375,167,83,0.27033
1292560,0.01000,119.8750,167,83,0.28669
1292570,0.05000,114.5000,167,83,0.30281
1292580,0.06500,107.5625,167,83,0.36142
1292590,0.07000,105.7500,167,83,0.39927
1292600,0.05000,104.6250,167,83,0.43980
1292610,0.01000,104.0000,167,83,0.48083
1292620,-0.04500,103.0000,167,83,0.55751
1292630,-0.09500,102.4375,167,83,0.59096
1292640,-0.13000,101.7500,167,83,0.62051
1292650,-0.14500,100.9375,167,83,0.64640
1292660,-0.15500,99.0625,167,83,0.68498
1292670,-0.16000,98.0625,167,83,0.69768
1292680,-0.15500,97.0625,167,83,0.70989
1292690,-0.15500,96.0000,167,83,0.72088
1292700,-0.14500,93.9375,167,83,0.73797
1292710,-0.14000,92.8750,167,83,0.74408
1292720,-0.14000,91.8750,167,83,0.74847
1292730,-0.10500,90.8125,167,83,0.75140
1292740,0.17000,88.8125,167,83,0.75311
1292750,0.72000,87.8125,167,83,0.75165
1292760,1.01000,86.8125,167,83,0.74823
1292770,0.57500,85.8750,167,83,0.74310
1292780,-0.12500,84.0625,167,83,0.72796
1292790,-0.45500,83.2500,167,83,0.71697
1292800,-0.43500,82.4375,167,83,0.70330
1292810,-0.29000,81.5625,167,83,0.68718
1292820,-0.21000,79.9375,167,83,0.64811
1292830,-0.19000,79.1250,167,83,0.62613
1292840,-0.18000,78.3125,167,83,0.60391
1292850,-0.17500,77.5000,167,83,0.58193
1292860,-0.16000,76.1250,167,83,0.54383
1292870,-0.15000,75.6250,167,83,0.52894
1292880,-0.13500,75.3125,167,83,0.51404
1292890,-0.12500,75.3750,167,83,0.49988
1292900,-0.11000,77.8125,167,83,0.47473
1292910,-0.08500,81.6250,167,83,0.46349
1292920,-0.06000,88.0625,167,83,0.45275
1292930,-0.02500,97.1875,167,83,0.44249
1292940,0.01000,118.9375,167,83,0.42344
1292950,0.06000,129.2500,167,83,0.41441
1292960,0.10000,137.8750,167,83,0.40684
1292970,0.14000,144.6875,167,83,0.40024
1292980,0.16500,152.8125,167,83,0.38486
1292990,0.17500,154.8125,167,83,0.37680
1293000,0.17500,156.0625,167,83,0.36874
1293010,0.17500,156.7500,167,83,0.36068
1293020,0.16500,157.5000,167,83,0.34505
1293030,0.15500,157.7500,167,83,0.33748
1293040,0.13000,158.0625,167,83,0.32991
1293050,0.09000,158.3125,167,83,0.32259
1293060,0.04000,158.6875,167,83,0.31013
1293070,-0.01000,158.8125,167,83,0.30574
1293080,-0.05500,158.8125,167,83,0.30037
1293090,-0.09000,158.6875,167,83,0.29475
1293100,-0.11500,157.8125,167,83,0.28327
1293110,-0.13000,156.9375,167,83,0.27766
1293120,-0.14500,155.5625,167,83,0.27204
1293130,-0.15500,153.7500,167,83,0.26618
1293140,-0.15500,148.4375,167,83,0.25495
1293150,-0.15000,144.6875,167,83,0.25055
1293160,-0.12500,140.1250,167,83,0.24908
1293170,-0.08000,134.7500,167,83,0.25079
1293180,-0.03500,122.6250,167,83,0.26667
1293190,0.00000,116.8125,167,83,0.28425
1293200,0.04000,111.9375,167,83,0.30916
1293210,0.06000,108.2500,167,83,0.34066
1293220,0.06500,104.3750,167,83,0.41783
1293230,0.04000,103.5000,167,83,0.45934
1293240,0.00000,102.9375,167,83,0.50012
1293250,-0.05500,102.4375,167,83,0.53895
1293260,-0.10000,101.3750,167,83,0.60293
1293270,-0.12500,100.6875,167,83,0.62589
1293280,-0.14500,99.8750,167,83,0.64860
1293290,-0.15500,99.0000,167,83,0.66960
1293300,-0.16000,97.0000,167,83,0.70379
1293310,-0.16000,96.0000,167,83,0.71722
1293320,-0.15500,95.0000,167,83,0.72821
1293330,-0.15000,94.0000,167,83,0.73724
1293340,-0.14000,91.9375,167,83,0.74945
1293350,-0.13500,90.8750,167,83,0.75311
1293360,-0.11500,89.8750,167,83,0.75433
1293370,0.13000,88.8125,167,83,0.75385
1293380,0.66000,86.8750,167,83,0.75092
1293390,1.01500,85.8750,167,83,0.74725
1293400,0.66000,84.9375,167,83,0.74188
1293410,-0.06500,84.0625,167,83,0.73455
1293420,-0.45500,82.4375,167,83,0.71282
1293430,-0.46500,81.6250,167,83,0.69792
1293440,-0.32500,80.8125,167,83,0.68034
1293450,-0.22500,80.0000,167,83,0.66032
1293460,-0.20000,78.4375,167,83,0.61880
1293470,-0.19000,77.6250,167,83,0.59976
1293480,-0.18000,76.8750,167,83,0.57949
1293490,-0.16500,76.1250,167,83,0.55922
1293500,-0.15500,75.0625,167,83,0.52283
1293510,-0.14500,74.8750,167,83,0.50720
1293520,-0.13500,75.0000,167,83,0.49328
1293530,-0.11500,75.8125,167,83,0.48059
1293540,-0.09500,82.5625,167,83,0.45788
1293550,-0.06500,89.8750,167,83,0.44762
1293560,-0.03500,99.6875,167,83,0.43932
1293570,0.00000,110.7500,167,83,0.43199
1293580,0.04500,131.6250,167,83,0.41172
1293590,0.08000,139.6875,167,83,0.40464
1293600,0.11500,145.8750,167,83,0.39658
1293610,0.14000,150.1250,167,83,0.38852
1293620,0.15500,154.5000,167,83,0.37192
1293630,0.16000,155.5000,167,83,0.36386
1293640,0.16000,156.0625,167,83,0.35604
1293650,0.15000,156.3750,167,83,0.34823
1293660,0.14000,156.9375,167,83,0.33455
1293670,0.11000,157.1875,167,83,0.32943
1293680,0.07000,157.4375,167,83,0.32332
1293690,0.01000,157.7500,167,83,0.31697
1293700,-0.04500,158.0625,167,83,0.30427
1293710,-0.09500,158.0625,167,83,0.29792
1293720,-0.12000,157.8750,167,83,0.29182
1293730,-0.13500,157.3750,167,83,0.28571
1293740,-0.14500,155.5625,167,83,0.27399
1293750,-0.15500,154.0625,167,83,0.26838
1293760,-0.16500,152.1250,167,83,0.26422
1293770,-0.17500,149.6250,167,83,0.26105
1293780,-0.17000,142.4375,167,83,0.25348
1293790,-0.14500,137.6875,167,83,0.25177
1293800,-0.10000,132.1875,167,83,0.25446
1293810,-0.05000,126.1875,167,83,0.26276
1293820,-0.00500,114.8750,167,83,0.29695
1293830,0.03000,110.5625,167,83,0.32405
1293840,0.05000,107.4375,167,83,0.35726
1293850,0.05000,105.3750,167,83,0.39487
1293860,0.03000,103.1875,167,83,0.47033
1293870,0.00000,102.6250,167,83,0.50256
1293880,-0.05000,102.0625,167,83,0.53675
1293890,-0.09500,101.5000,167,83,0.56996
1293900,-0.12500,100.0625,167,83,0.62808
1293910,-0.14500,99.1875,167,83,0.65201
1293920,-0.15500,98.3125,167,83,0.67253
1293930,-0.16500,97.3750,167,83,0.69011
1293940,-0.17000,95.5000,167,83,0.71722
1293950,-0.17000,94.5000,167,83,0.72723
1293960,-0.16000,93.5000,167,83,0.73358
1293970,-0.16000,92.5000,167,83,0.73773
1293980,-0.15500,90.5000,167,83,0.74481
1293990,-0.12000,89.5000,167,83,0.74676
1294000,0.13000,88.5000,166,82,0.74725
1294010,0.68000,87.5000,166,82,0.74628
1294020,1.02500,85.5000,166,82,0.73993
1294030,0.60000,84.6250,166,82,0.73382
1294040,-0.10500,83.7500,166,82,0.72576
1294050,-0.44000,82.8750,166,82,0.71502
1294060,-0.43500,81.1875,166,82,0.69011
1294070,-0.29500,80.3125,166,82,0.67375
1294080,-0.20500,79.5000,166,82,0.65519
1294090,-0.18500,78.6250,166,82,0.63468
1294100,-0.17000,77.0000,166,82,0.59219
1294110,-0.16500,76.2500,166,82,0.57143
1294120,-0.15500,75.5625,166,82,0.55189
1294130,-0.14000,75.0000,166,82,0.53382
1294140,-0.12500,74.5625,166,82,0.50281
1294150,-0.11500,74.9375,166,82,0.48938
1294160,-0.09500,76.1250,166,82,0.47863
1294170,-0.07500,79.0000,166,82,0.46935
1294180,-0.04500,92.1875,166,82,0.45006
1294190,-0.01000,102.1875,166,82,0.44054
1294200,0.02500,113.1250,166,82,0.43126
1294210,0.06000,123.6875,166,82,0.42222
1294220,0.10000,140.6250,166,82,0.40488
1294230,0.14000,146.2500,166,82,0.39634
1294240,0.16000,150.1250,166,82,0.38828
1294250,0.17500,152.6250,166,82,0.38022
1294260,0.18500,155.0000,166,82,0.36825
1294270,0.18500,155.5625,166,82,0.36142
1294280,0.18000,155.8750,166,82,0.35433
1294290,0.16500,156.1250,166,82,0.34701
1294300,0.14500,156.6250,166,82,0.33236
1294310,0.10500,156.8750,166,82,0.32527
1294320,0.05500,157.0625,166,82,0.31819
1294330,0.00000,157.1875,166,82,0.31160
1294340,-0.04500,157.0000,166,82,0.29866
1294350,-0.08500,156.6875,166,82,0.29255
