RelativeTimeMilliseconds,ECG,ART,ART (Sys),ART (Dia),PPG
1911180,0.03000,58.5625,100,47,0.40781
1911190,0.01000,58.1875,100,47,0.43932
1911200,-0.01500,57.8750,100,47,0.47179
1911210,-0.04500,57.3125,100,47,0.53578
1911220,-0.05500,57.0625,100,47,0.56606
1911230,-0.07500,56.8750,100,47,0.59438
1911240,-0.09500,56.5625,100,47,0.62051
1911250,-0.11000,56.3750,100,47,0.64444
1911260,-0.10500,55.9375,100,47,0.68156
1911270,-0.10500,55.6875,100,47,0.69402
1911280,-0.10500,55.5000,100,47,0.70623
1911290,-0.10500,55.3125,100,47,0.71722
1911300,-0.10500,54.9375,100,47,0.73284
1911310,-0.10500,54.7500,100,47,0.73748
1911320,-0.11500,54.5000,100,47,0.74017
1911330,-0.03500,54.3125,100,47,0.74090
1911340,0.31000,53.6875,100,47,0.73602
1911350,0.84000,53.3125,100,47,0.73089
1911360,0.91000,52.9375,100,47,0.72405
1911370,0.31500,52.5625,100,47,0.71624
1911380,-0.25000,51.6875,100,47,0.69597
1911390,-0.45000,51.2500,100,47,0.68376
1911400,-0.39000,50.8125,100,47,0.67057
1911410,-0.27000,50.3750,100,47,0.65665
1911420,-0.23000,49.5000,100,47,0.62784
1911430,-0.22500,49.0000,100,47,0.61319
1911440,-0.21000,48.5000,100,47,0.59878
1911450,-0.20000,48.0000,100,47,0.58437
1911460,-0.19000,47.1250,100,47,0.55800
1911470,-0.18000,46.6875,100,47,0.54676
1911480,-0.17000,46.3125,100,47,0.53480
1911490,-0.16000,46.0000,100,47,0.52259
1911500,-0.15500,46.4375,100,47,0.49963
1911510,-0.15000,47.8125,100,47,0.48889
1911520,-0.14000,50.5625,100,47,0.47839
1911530,-0.12500,54.8750,100,47,0.46813
1911540,-0.10000,66.1875,100,47,0.44835
1911550,-0.07500,72.0000,100,47,0.43907
1911560,-0.10500,56.1250,100,47,0.64371
1911570,-0.10500,56.1250,100,47,0.64371
1911580,-0.10500,56.1250,100,47,0.64371
1911590,-0.10500,56.1250,100,47,0.64371
1911600,-0.10500,56.1250,100,47,0.64371
1911610,-0.10500,56.1250,100,47,0.64371
1911620,-0.10500,56.1250,100,47,0.64371
1911630,-0.10500,56.1250,100,47,0.64371
1911640,-0.10500,56.1250,100,47,0.64371
1911650,-0.10500,56.1250,100,47,0.64371
1911660,-0.10500,56.1250,100,47,0.64371
1911670,-0.10500,56.1250,100,47,0.64371
1911680,-0.11000,55.8750,100,47,0.66447
1911690,-0.10500,54.6875,100,47,0.73065
1911700,-0.10500,54.6875,100,47,0.73065
1911710,-0.10500,54.6875,100,47,0.73065
1911720,-0.10500,54.6875,100,47,0.73065
1911730,-0.10500,54.6875,100,47,0.73065
1911740,-0.10500,54.6875,100,47,0.73065
1911750,-0.10500,54.6875,100,47,0.73065
1911760,-0.10500,54.6875,100,47,0.73065
1911770,-0.10500,54.6875,100,47,0.73065
1911780,-0.10500,54.6875,100,47,0.73065
1911790,-0.10500,54.6875,100,47,0.73065
1911800,-0.10500,54.6875,100,47,0.73065
1911810,-0.12000,54.3125,100,47,0.73455
1911820,-0.12000,54.3125,100,47,0.73455
1911830,-0.12000,54.3125,100,47,0.73455
1911840,-0.12000,54.3125,100,47,0.73455
1911850,-0.12000,54.3125,100,47,0.73455
1911860,-0.12000,54.3125,100,47,0.73455
1911870,-0.12000,54.3125,100,47,0.73455
1911880,-0.12000,54.3125,100,47,0.73455
1911890,-0.12000,54.3125,100,47,0.73455
1911900,-0.12000,54.3125,100,47,0.73455
1911910,-0.12000,54.3125,100,47,0.73455
1911920,-0.12000,54.3125,100,47,0.73455
1911930,-0.12000,54.3125,100,47,0.73455
1911940,-0.12000,54.3125,100,47,0.73455
1911950,-0.12000,54.3125,100,47,0.73455
1911960,-0.12000,54.3125,100,47,0.73455
1911970,-0.12000,54.3125,100,47,0.73455
1911980,-0.12000,54.3125,100,47,0.73455
1911990,-0.03000,54.0000,100,47,0.73431
1912000,0.33000,53.7500,100,47,0.73211
1912010,0.86000,53.3750,100,47,0.72821
1912020,0.89000,52.6250,100,47,0.71551
1912030,0.26500,52.2500,100,47,0.70696
1912040,-0.28500,51.8750,100,47,0.69695
1912050,-0.45500,51.4375,100,47,0.68571
1912060,-0.38500,50.5625,100,47,0.66105
1912070,-0.27000,50.1250,100,47,0.64884
1912080,-0.23000,49.6250,100,47,0.63541
1912090,-0.23000,49.1875,100,47,0.62149
1912100,-0.22000,48.1875,100,47,0.59292
1912110,-0.21000,47.6875,100,47,0.57875
1912120,-0.19000,47.2500,100,47,0.56484
1912130,-0.17500,46.8125,100,47,0.55165
1912140,-0.16500,46.1250,100,47,0.52625
1912150,-0.15500,46.0000,100,47,0.51429
1912160,-0.14500,46.1875,100,47,0.50403
1912170,-0.13500,47.1250,100,47,0.49499
1912180,-0.12500,53.0625,100,47,0.47521
1912190,-0.11500,58.1250,100,47,0.46545
1912200,-0.09500,63.8750,100,47,0.45568
1912210,-0.07500,69.8125,100,47,0.44615
1912220,-0.05500,81.0000,100,47,0.42784
1912230,-0.03500,85.8750,100,47,0.41929
1912240,-0.01000,90.1875,100,47,0.41099
1912250,0.00500,93.7500,100,47,0.40293
1912260,0.02500,98.5000,100,47,0.39048
1912270,0.04000,99.7500,100,47,0.38535
1912280,0.05000,100.3125,100,47,0.37900
1912290,0.05500,99.7500,100,47,0.37216
1912300,0.07000,98.8750,100,47,0.35800
1912310,0.07500,97.6875,100,47,0.35092
1912320,0.08500,96.2500,100,47,0.34383
1912330,0.09000,94.6875,100,47,0.33675
1912340,0.08000,91.2500,100,47,0.32210
1912350,0.05000,89.4375,100,47,0.31477
1912360,0.02000,87.6875,100,47,0.30916
1912370,-0.01500,85.8750,100,47,0.30427
1912380,-0.03500,82.4375,100,47,0.29109
1912390,-0.05000,80.6875,100,47,0.28352
1912400,-0.05500,78.8750,100,47,0.27595
1912410,-0.04750,76.9271,100,47,0.26838
1912420,-0.03500,74.8125,100,47,0.26154
1912430,-0.02500,72.5000,100,47,0.25617
1912440,-0.02500,70.1250,100,47,0.25372
1912450,-0.01500,67.7500,100,47,0.25495
1912460,-0.00500,63.8750,100,47,0.27106
1912470,0.01000,62.4375,100,47,0.28425
1912480,0.02000,61.3125,100,47,0.30061
1912490,0.04000,60.4375,100,47,0.32210
1912500,0.04000,59.1250,100,47,0.37656
1912510,0.02500,58.6250,100,47,0.40781
1912520,-0.01000,58.2500,100,47,0.44029
1912530,-0.04000,57.9375,100,47,0.47350
1912540,-0.06000,57.4375,100,47,0.53846
1912550,-0.08000,57.1875,100,47,0.56923
1912560,-0.10500,57.0000,100,47,0.59805
1912570,-0.12000,56.7500,100,47,0.62125
1912580,-0.12500,56.3125,100,47,0.66056
1912590,-0.13000,56.1250,100,47,0.67937
1912600,-0.12500,55.8750,100,47,0.69621
1912610,-0.12000,55.6250,100,47,0.71062
1912620,-0.11500,55.1875,100,47,0.73187
1912630,-0.11000,55.0000,100,47,0.73871
1912640,-0.12500,54.8125,100,47,0.74359
1912650,-0.08000,54.5625,100,47,0.74628
1912660,0.23500,54.0000,100,47,0.74579
1912670,0.79500,53.6875,100,47,0.74237
1912680,0.96000,53.3125,100,47,0.73700
1912690,0.43000,52.9375,100,47,0.73040
1912700,-0.21500,52.2500,100,47,0.71258
1912710,-0.48500,51.8125,100,47,0.70159
1912720,-0.42500,51.4375,100,47,0.68962
1912730,-0.29000,50.9375,100,47,0.67643
1912740,-0.24500,50.0000,100,47,0.64811
1912750,-0.24500,49.5000,100,47,0.63346
1912760,-0.25000,49.0625,100,47,0.61856
1912770,-0.24500,48.6250,100,47,0.60537
1912780,-0.23000,47.7500,100,47,0.57973
1912790,-0.20500,47.3125,100,47,0.56654
1912800,-0.16500,46.9375,100,47,0.55385
1912810,-0.14000,46.5000,100,47,0.54115
1912820,-0.13500,46.1875,100,47,0.51697
1912830,-0.13500,46.7500,100,47,0.50549
1912840,-0.13500,48.3750,100,47,0.49451
1912850,-0.12000,56.1250,100,47,0.48376
1912860,-0.10500,61.7500,100,47,0.46349
1912870,-0.08000,67.8125,100,47,0.45495
1912880,-0.06000,73.8750,100,47,0.44737
1912890,-0.03500,79.6875,100,47,0.43907
1912900,-0.01500,89.6250,100,47,0.42222
1912910,0.00500,93.5000,100,47,0.41416
1912920,0.02000,96.6250,100,47,0.40635
1912930,0.03500,99.0000,100,47,0.39878
1912940,0.04500,101.4375,100,47,0.38413
1912950,0.05500,101.6875,100,47,0.37705
1912960,0.06000,101.5000,100,47,0.36996
1912970,0.07500,99.8125,100,47,0.35946
1912980,0.08000,98.5000,100,47,0.35336
1912990,0.08500,97.0000,100,47,0.34676
1913000,0.07000,95.3125,100,47,0.33993
1913010,0.05000,93.5625,100,47,0.33260
1913020,0.02000,89.9375,100,47,0.31697
1913030,-0.00500,88.0625,100,47,0.30867
1913040,-0.03500,86.2500,100,47,0.30037
1913050,-0.04500,84.4375,100,47,0.29231
1913060,-0.05000,80.7500,100,47,0.27912
1913070,-0.04500,78.8750,100,47,0.27448
1913080,-0.04500,76.8125,100,47,0.26886
1913090,-0.04500,74.6875,100,47,0.26398
1913100,-0.04500,70.1250,100,47,0.25958
1913110,-0.03500,67.9375,100,47,0.26252
1913120,-0.02500,66.0000,100,47,0.27009
1913130,-0.01000,64.3750,100,47,0.28230
1913140,0.01000,62.0000,100,47,0.32112
1913150,0.03000,61.1250,100,47,0.34701
1913160,0.04000,60.3750,100,47,0.37607
1913170,0.04000,59.8125,100,47,0.40342
1913180,0.01500,59.0000,100,47,0.46154
1913190,-0.01500,58.6875,100,47,0.49402
1913200,-0.03500,58.5000,100,47,0.52698
1913210,-0.05500,58.2500,100,47,0.55946
1913220,-0.08000,57.8125,100,47,0.61954
1913230,-0.09500,57.5625,100,47,0.64615
1913240,-0.10500,57.3125,100,47,0.67009
1913250,-0.10500,57.0625,100,47,0.69109
1913260,-0.10500,56.5000,100,47,0.72234
1913270,-0.11000,56.2500,100,47,0.73162
1913280,-0.11500,56.0000,100,47,0.74066
1913290,-0.11500,55.8125,100,47,0.74823
1913300,-0.12500,55.3125,100,47,0.75775
1913310,-0.11500,55.0625,100,47,0.75946
1913320,0.11500,54.7500,100,47,0.75922
1913330,0.64000,54.4375,100,47,0.75726
1913340,0.97000,53.6875,100,47,0.74774
1913350,0.60000,53.3125,100,47,0.74066
1913360,-0.08500,52.9375,100,47,0.73211
1913370,-0.44500,52.5000,100,47,0.72283
1913380,-0.43500,51.6250,100,47,0.70134
1913390,-0.30000,51.1250,100,47,0.68864
1913400,-0.23000,50.6250,100,47,0.67521
1913410,-0.23000,50.1250,100,47,0.66105
1913420,-0.23000,49.1875,100,47,0.63150
1913430,-0.22000,48.7500,100,47,0.61685
1913440,-0.20500,48.3125,100,47,0.60244
1913450,-0.19000,47.8750,100,47,0.58828
1913460,-0.17500,47.0000,100,47,0.56288
1913470,-0.16000,46.6250,100,47,0.55238
1913480,-0.15500,46.3750,100,47,0.54164
1913490,-0.14500,46.3750,100,47,0.53065
1913500,-0.13500,48.7500,100,47,0.50891
1913510,-0.12000,52.0000,100,47,0.49817
1913520,-0.10500,56.6875,100,47,0.48767
1913530,-0.08500,62.3750,100,47,0.47766
1913540,-0.06500,74.4375,100,47,0.45836
1913550,-0.03500,80.0625,100,47,0.44908
1913560,-0.01500,85.2500,100,47,0.43980
1913570,0.00500,89.7500,100,47,0.43223
1913580,0.02500,96.5625,100,47,0.41783
1913590,0.04500,98.8125,100,47,0.41026
1913600,0.06500,100.3125,100,47,0.40244
1913610,0.08000,101.0625,100,47,0.39487
1913620,0.08500,100.8125,100,47,0.37998
1913630,0.09500,100.0000,100,47,0.37265
1913640,0.10000,98.8750,100,47,0.36532
1913650,0.10500,97.5000,100,47,0.35800
1913660,0.09500,94.2500,100,47,0.34432
1913670,0.07000,92.5000,100,47,0.33919
1913680,0.04000,90.6875,100,47,0.33260
1913690,0.01000,88.8125,100,47,0.32527
1913700,-0.01500,85.1250,100,47,0.30989
1913710,-0.03500,83.3125,100,47,0.30183
1913720,-0.04500,81.4375,100,47,0.29353
1913730,-0.03500,79.5000,100,47,0.28547
1913740,-0.02500,75.3750,100,47,0.27033
1913750,-0.01500,73.1250,100,47,0.26447
1913760,-0.00500,70.8125,100,47,0.26105
1913770,0.00000,68.5000,100,47,0.26105
1913780,0.00000,64.7500,100,47,0.27204
1913790,0.01000,63.3125,100,47,0.28376
1913800,0.03000,62.1875,100,47,0.30012
1913810,0.05000,61.2500,100,47,0.32112
1913820,0.06000,59.8750,100,47,0.37411
1913830,0.05500,59.3750,100,47,0.40464
1913840,0.02000,58.9375,100,47,0.43687
1913850,-0.01000,58.6250,100,47,0.46984
1913860,-0.03500,58.1250,100,47,0.53114
1913870,-0.05500,57.8750,100,47,0.55653
1913880,-0.08500,57.6250,100,47,0.58388
1913890,-0.09500,57.4375,100,47,0.61074
1913900,-0.10500,56.9375,100,47,0.65910
1913910,-0.10500,56.6875,100,47,0.67937
1913920,-0.10000,56.4375,100,47,0.69695
1913930,-0.10000,56.1875,100,47,0.71160
1913940,-0.09500,55.8125,100,47,0.73309
1913950,-0.09500,55.5625,100,47,0.74017
1913960,-0.11000,55.3125,100,47,0.74505
1913970,-0.07500,55.1250,100,47,0.74676
1913980,0.21500,54.6250,100,47,0.74530
1913990,0.76500,54.2500,100,47,0.74261
1914000,0.96500,53.8750,100,47,0.73846
1914010,0.47500,53.5000,100,47,0.73236
1914020,-0.14500,52.6875,100,47,0.71551
1914030,-0.43000,52.2500,100,47,0.70476
1914040,-0.39500,51.8125,100,47,0.69280
1914050,-0.26000,51.3750,100,47,0.67985
1914060,-0.20000,50.3750,100,47,0.65324
1914070,-0.18500,49.8750,100,47,0.64078
1914080,-0.17500,49.3750,100,47,0.62735
1914090,-0.16000,48.8750,100,47,0.61343
1914100,-0.15500,47.9375,100,47,0.58559
1914110,-0.14000,47.5000,100,47,0.57192
1914120,-0.13000,47.0625,100,47,0.55849
1914130,-0.12000,46.6875,100,47,0.54579
1914140,-0.11000,46.2500,100,47,0.52161
1914150,-0.10000,46.5625,100,47,0.50989
1914160,-0.09500,47.8125,100,47,0.49866
1914170,-0.07500,50.5000,100,47,0.48913
1914180,-0.05500,60.1250,100,47,0.47131
1914190,-0.03500,66.0625,100,47,0.46178
1914200,-0.01500,72.0000,100,47,0.45226
1914210,0.01000,77.6250,100,47,0.44298
1914220,0.02000,87.5000,100,47,0.42564
1914230,0.04000,91.4375,100,47,0.41734
1914240,0.05500,94.6250,100,47,0.40928
1914250,0.07000,97.0000,100,47,0.40171
1914260,0.08000,99.5000,100,47,0.38803
1914270,0.09000,99.7500,100,47,0.38242
1914280,0.10000,99.5000,100,47,0.37582
1914290,0.11000,98.7500,100,47,0.36899
1914300,0.11000,96.2500,100,47,0.35409
1914310,0.11500,94.6875,100,47,0.34579
1914320,0.10500,92.9375,100,47,0.33724
1914330,0.08500,91.1250,100,47,0.32918
1914340,0.05000,87.5625,100,47,0.31380
1914350,0.01500,85.7500,100,47,0.30647
1914360,-0.01000,83.9375,100,47,0.29890
1914370,-0.02500,82.1250,100,47,0.29304
1914380,-0.03000,78.4375,100,47,0.28156
1914390,-0.03500,76.5000,100,47,0.27448
1914400,-0.03500,74.3750,100,47,0.26740
1914410,-0.02500,72.1250,100,47,0.26129
1914420,-0.02000,67.4375,100,47,0.25470
1914430,-0.00500,65.2500,100,47,0.25617
1914440,0.00500,63.4375,100,47,0.26178
1914450,0.02000,62.0000,100,47,0.27204
1914460,0.04000,60.0000,100,47,0.30403
1914470,0.05000,59.3125,100,47,0.32308
1914480,0.05000,58.8125,100,47,0.34676
1914490,0.03500,58.3750,100,47,0.37411
1914500,0.00000,57.6875,100,47,0.43492
1914510,-0.03500,57.4375,100,47,0.46667
1914520,-0.06000,57.2500,100,47,0.49841
1914530,-0.08500,57.0000,100,47,0.52918
1914540,-0.10500,56.5625,100,47,0.58584
1914550,-0.11500,56.3125,100,47,0.61099
1914560,-0.11500,56.1250,100,47,0.63370
1914570,-0.10500,55.6250,100,47,0.65128
1914580,-0.10500,55.4375,100,47,0.67839
1914590,-0.09500,55.2500,100,47,0.69035
1914600,-0.09500,55.1250,100,47,0.70012
1914610,-0.09500,54.9375,100,47,0.70794
1914620,-0.11000,54.5625,100,47,0.71722
1914630,-0.07500,54.3750,100,47,0.71893
1914640,0.22500,54.1250,100,47,0.71868
1914650,0.76500,53.8125,100,47,0.71648
1914660,0.93000,53.0625,100,47,0.70696
1914670,0.43000,52.6250,100,47,0.69988
1914680,-0.18000,52.2500,100,47,0.69133
1914690,-0.45000,51.8125,100,47,0.68132
1914700,-0.41500,50.8750,100,47,0.65763
1914710,-0.29000,50.4375,100,47,0.64444
1914720,-0.23500,49.9375,100,47,0.63053
1914730,-0.23000,49.4375,100,47,0.61612
1914740,-0.23000,48.5000,100,47,0.58706
1914750,-0.21000,48.0000,100,47,0.57314
1914760,-0.19500,47.5625,100,47,0.56093
1914770,-0.18000,47.1250,100,47,0.54969
1914780,-0.17500,46.3125,100,47,0.52674
1914790,-0.16500,46.0000,100,47,0.51526
1914800,-0.16000,45.7500,100,47,0.50427
1914810,-0.15500,45.8125,100,47,0.49353
1914820,-0.14500,48.5000,100,47,0.47302
1914830,-0.12500,51.8750,100,47,0.46325
1914840,-0.10500,56.6875,100,47,0.45372
1914850,-0.08000,62.3125,100,47,0.44444
1914860,-0.06500,73.9375,100,47,0.42808
1914870,-0.04000,79.3125,100,47,0.42149
1914880,-0.02000,84.2500,100,47,0.41441
1914890,-0.00500,88.5000,100,47,0.40708
1914900,0.01000,94.9375,100,47,0.39243
1914910,0.02500,97.0000,100,47,0.38510
1914920,0.03000,98.3125,100,47,0.37802
1914930,0.04500,98.9375,100,47,0.37094
1914940,0.06000,98.5625,100,47,0.35678
1914950,0.08000,97.7500,100,47,0.34969
1914960,0.09500,96.5625,100,47,0.34383
1914970,0.10500,95.1875,100,47,0.33895
1914980,0.09500,91.8750,100,47,0.32601
1914990,0.06500,90.0625,100,47,0.31893
1915000,0.02500,88.2500,100,47,0.31184
1915010,-0.00500,86.3750,100,47,0.30501
1915020,-0.03000,82.8125,100,47,0.29084
1915030,-0.04500,81.0000,100,47,0.28400
1915040,-0.04500,79.1875,100,47,0.27692
1915050,-0.04500,77.3125,100,47,0.26935
1915060,-0.03500,73.1875,100,47,0.25714
1915070,-0.03000,70.8750,100,47,0.25372
1915080,-0.02500,68.5625,100,47,0.25055
1915090,-0.01500,66.3750,100,47,0.24957
1915100,-0.00500,62.9375,100,47,0.25910
1915110,0.00500,61.6250,100,47,0.27082
1915120,0.02000,60.6250,100,47,0.28742
1915130,0.03000,59.8125,100,47,0.30818
1915140,0.03000,58.5000,100,47,0.36044
1915150,0.01500,58.0625,100,47,0.39023
1915160,-0.01500,57.6250,100,47,0.41734
1915170,-0.03500,57.3125,100,47,0.44322
1915180,-0.05500,56.8125,100,47,0.50208
1915190,-0.07000,56.5625,100,47,0.53187
1915200,-0.09000,56.3750,100,47,0.56068
1915210,-0.10000,56.1875,100,47,0.58779
1915220,-0.10500,55.7500,100,47,0.63492
1915230,-0.10500,55.5000,100,47,0.65470
1915240,-0.10500,55.3125,100,47,0.67179
1915250,-0.10500,55.1250,100,47,0.68596
1915260,-0.11000,54.7500,100,47,0.70476
1915270,-0.11000,54.6250,100,47,0.70940
1915280,-0.12500,54.4375,100,47,0.71355
1915290,-0.06500,54.2500,100,47,0.71624
1915300,0.25500,53.7500,100,47,0.71575
1915310,0.80500,53.4375,100,47,0.71258
1915320,0.94500,53.1250,100,47,0.70769
1915330,0.41000,52.7500,100,47,0.70110
1915340,-0.20000,52.0000,100,47,0.68376
1915350,-0.45000,51.6250,100,47,0.67350
1915360,-0.40500,51.1875,100,47,0.66300
1915370,-0.27500,50.7500,100,47,0.65226
1915380,-0.22000,49.8125,100,47,0.62759
1915390,-0.20500,49.3750,100,47,0.61441
1915400,-0.19000,48.8750,100,47,0.60098
1915410,-0.18000,48.4375,100,47,0.58755
1915420,-0.17000,47.5625,100,47,0.56117
1915430,-0.16000,47.1875,100,47,0.54847
1915440,-0.16000,46.8125,100,47,0.53626
1915450,-0.15500,46.4375,100,47,0.52430
1915460,-0.15500,46.1250,100,47,0.50305
1915470,-0.14500,46.6875,100,47,0.49426
1915480,-0.13000,48.2500,100,47,0.48474
1915490,-0.11000,51.3125,100,47,0.47497
1915500,-0.09500,61.3125,100,47,0.45568
1915510,-0.07500,67.2500,100,47,0.44664
1915520,-0.05500,73.1250,100,47,0.43810
1915530,-0.03500,78.6875,100,47,0.43004
1915540,-0.01500,88.2500,100,47,0.41441
1915550,0.00000,92.0625,100,47,0.40684
1915560,0.01000,95.1250,100,47,0.40073
1915570,0.03000,97.4375,100,47,0.39512
1915580,0.04000,99.8750,100,47,0.38193
1915590,0.05000,100.1250,100,47,0.37485
1915600,0.06000,99.8750,100,47,0.36777
1915610,0.07000,99.1875,100,47,0.36044
1915620,0.08000,96.8750,100,47,0.34579
1915630,0.09000,95.3750,100,47,0.33871
1915640,0.08500,93.7500,100,47,0.33138
1915650,0.06500,92.0625,100,47,0.32430
1915660,0.04000,88.5625,100,47,0.31136
1915670,0.01000,86.8125,100,47,0.30647
1915680,-0.00500,85.1250,100,47,0.30012
1915690,-0.02000,83.4375,100,47,0.29328
1915700,-0.02500,79.9375,100,47,0.27839
1915710,-0.02500,78.1250,100,47,0.27082
1915720,-0.02500,76.1250,100,47,0.26374
1915730,-0.01500,73.8750,100,47,0.25763
1915740,-0.00500,69.2500,100,47,0.25250
1915750,0.01000,67.0625,100,47,0.25543
1915760,0.02000,65.2500,100,47,0.26154
1915770,0.03500,63.6875,100,47,0.27155
1915780,0.05000,61.5000,100,47,0.30525
1915790,0.06000,60.6875,100,47,0.32845
1915800,0.06000,60.0000,100,47,0.35531
1915810,0.04000,59.0000,100,47,0.38462
1915820,0.00000,58.6250,100,47,0.44786
1915830,-0.03000,58.2500,100,47,0.48034
1915840,-0.05500,57.9375,100,47,0.51258
1915850,-0.07500,57.6875,100,47,0.54408
1915860,-0.09500,57.2500,100,47,0.59878
1915870,-0.10500,56.9375,100,47,0.61954
1915880,-0.10500,56.6875,100,47,0.64103
1915890,-0.10500,56.1250,100,47,0.66154
1915900,-0.10000,55.8750,100,47,0.69621
1915910,-0.09500,55.6250,100,47,0.71013
1915920,-0.09500,55.4375,100,47,0.72137
1915930,-0.09000,55.2500,100,47,0.73040
1915940,-0.10500,54.8750,100,47,0.74115
1915950,-0.03000,54.6250,100,47,0.74310
1915960,0.34000,54.3750,100,47,0.74237
1915970,0.88000,54.0625,100,47,0.73968
1915980,0.90000,53.3750,100,47,0.73089
1915990,0.29000,53.0625,100,47,0.72405
1916000,-0.26000,52.6250,100,47,0.71575
1916010,-0.45000,52.2500,100,47,0.70623
1916020,-0.38000,51.3750,100,47,0.68327
1916030,-0.26500,50.9375,100,47,0.67033
1916040,-0.23000,50.4375,100,47,0.65665
1916050,-0.22000,50.0000,100,47,0.64274
1916060,-0.21500,49.0625,100,47,0.61538
1916070,-0.20000,48.5625,100,47,0.60317
1916080,-0.19000,48.0625,100,47,0.59023
1916090,-0.18000,47.6250,100,47,0.57680
1916100,-0.18000,47.6250,100,47,0.57680
1916110,-0.18000,47.6250,100,47,0.57680
1916120,-0.15000,46.6875,100,47,0.51477
1916130,-0.15000,46.6875,100,47,0.51477
1916140,-0.13500,50.3125,100,47,0.49280
1916150,-0.12000,54.3750,100,47,0.48254
1916160,-0.09500,59.6875,100,47,0.47375
1916170,-0.07500,65.6250,100,47,0.46618
1916180,-0.05000,77.3125,100,47,0.44957
1916190,-0.02500,82.6875,100,47,0.44127
1916200,-0.00500,87.4375,100,47,0.43321
1916210,0.00500,91.5000,100,47,0.42515
1916220,0.02000,97.5000,100,47,0.40904
1916230,0.03000,99.3750,100,47,0.40122
1916240,0.04000,100.4375,100,47,0.39365
1916250,0.05000,100.8125,100,47,0.38608
1916260,0.06000,100.0625,100,47,0.37338
1916270,0.08000,99.1250,100,47,0.36825
1916280,0.09500,97.8750,100,47,0.36215
1916290,0.10000,96.4375,100,47,0.35556
1916300,0.09000,93.1875,100,47,0.34115
1916310,0.06500,91.4375,100,47,0.33382
1916320,0.03000,89.6250,100,47,0.32650
1916330,0.01000,87.8750,100,47,0.31893
1916340,-0.00500,84.3750,100,47,0.30281
1916350,0.00000,82.6875,100,47,0.29451
1916360,0.00500,80.9375,100,47,0.28889
1916370,0.01000,77.1250,100,47,0.28474
1916380,0.00500,74.9375,100,47,0.27277
1916390,0.00500,72.6250,100,47,0.26789
1916400,0.01000,70.1875,100,47,0.26545
1916410,0.02000,67.8750,100,47,0.26618
1916420,0.03000,64.0625,100,47,0.28059
1916430,0.03000,62.6875,100,47,0.29499
1916440,0.03000,61.5625,100,47,0.31380
1916450,0.03000,60.6875,100,47,0.33675
1916460,0.01500,59.3750,100,47,0.38828
1916470,-0.01500,58.9375,100,47,0.41343
1916480,-0.07500,58.5625,100,47,0.44249
1916490,-0.12000,58.2500,100,47,0.47326
1916500,-0.15000,57.8125,100,47,0.53578
1916510,-0.16000,57.5625,100,47,0.56581
1916520,-0.16500,57.3750,100,47,0.59438
1916530,-0.16000,57.1250,100,47,0.62100
1916540,-0.14000,56.5625,100,47,0.66667
1916550,-0.12500,56.3125,100,47,0.68571
1916560,-0.11000,56.0625,100,47,0.69963
1916570,-0.09500,55.8125,100,47,0.70989
1916580,-0.08500,55.2500,100,47,0.72772
1916590,-0.07500,55.0000,100,47,0.73407
1916600,-0.09500,54.6875,100,47,0.73846
1916610,-0.01000,54.3750,100,47,0.74090
1916620,0.35000,53.7500,100,47,0.73944
1916630,0.88000,53.4375,100,47,0.73602
1916640,0.90000,53.0625,100,47,0.73065
1916650,0.30000,52.7500,100,47,0.72357
1916660,-0.26000,52.0000,100,47,0.70598
1916670,-0.46000,51.5625,100,47,0.69548
1916680,-0.38500,51.1875,100,47,0.68376
1916690,-0.26500,50.7500,100,47,0.67082
1916700,-0.23000,49.9375,100,47,0.64298
1916710,-0.23000,49.5000,100,47,0.62833
1916720,-0.22000,49.1250,100,47,0.61343
1916730,-0.21000,48.6875,100,47,0.59853
1916740,-0.20000,47.9375,100,47,0.57021
1916750,-0.18500,47.5625,100,47,0.55702
1916760,-0.17000,47.2500,100,47,0.54579
1916770,-0.16000,46.9375,100,47,0.53602
1916780,-0.15000,46.8125,100,47,0.51600
1916790,-0.13500,47.6250,100,47,0.50623
1916800,-0.12000,49.5000,100,47,0.49695
1916810,-0.10500,52.9375,100,47,0.48791
1916820,-0.08500,63.3750,100,47,0.47057
1916830,-0.06500,69.3125,100,47,0.46227
1916840,-0.03500,75.1875,100,47,0.45421
1916850,-0.02000,80.6875,100,47,0.44640
1916860,-0.00500,90.1250,100,47,0.43394
1916870,0.00500,93.8125,100,47,0.42735
1916880,0.02000,96.8125,100,47,0.42027
1916890,0.03000,99.0000,100,47,0.41270
1916900,0.04000,101.2500,100,47,0.39756
1916910,0.05000,101.3750,100,47,0.38999
1916920,0.06000,101.0000,100,47,0.38217
1916930,0.07000,100.1250,100,47,0.37460
1916940,0.09000,97.6875,100,47,0.35946
1916950,0.09500,96.1875,100,47,0.35214
1916960,0.09000,94.5625,100,47,0.34628
1916970,0.07000,92.8125,100,47,0.34090
1916980,0.04000,89.2500,100,47,0.32747
1916990,0.00500,87.5000,100,47,0.32015
1917000,-0.01500,85.7500,100,47,0.31233
1917010,-0.03500,84.0625,100,47,0.30427
1917020,-0.03500,80.5000,100,47,0.28742
1917030,-0.03500,78.6250,100,47,0.27912
1917040,-0.03000,76.5625,100,47,0.27106
1917050,-0.03000,74.3125,100,47,0.26447
1917060,-0.02000,69.6875,100,47,0.26007
1917070,-0.01500,67.6250,100,47,0.26203
1917080,-0.00500,65.8125,100,47,0.26789
1917090,0.01000,63.1875,100,47,0.27839
1917100,0.03500,62.1875,100,47,0.31380
1917110,0.05000,61.3750,100,47,0.33773
1917120,0.05500,60.6875,100,47,0.36532
1917130,0.04000,60.1250,100,47,0.39536
1917140,0.01000,59.2500,100,47,0.45958
1917150,-0.02000,58.8750,100,47,0.49231
1917160,-0.04500,58.5625,100,47,0.52063
1917170,-0.07000,58.2500,100,47,0.54628
1917180,-0.09000,57.7500,100,47,0.60098
1917190,-0.10500,57.5000,100,47,0.62637
1917200,-0.11000,57.2500,100,47,0.64957
1917210,-0.11500,56.9375,100,47,0.67033
1917220,-0.11500,56.5000,100,47,0.70427
1917230,-0.11500,56.2500,100,47,0.71746
1917240,-0.11500,56.0625,100,47,0.72796
1917250,-0.11000,55.8125,100,47,0.73626
1917260,-0.12500,55.3750,100,47,0.74286
1917270,-0.06500,55.1250,100,47,0.74408
1917280,0.24500,54.8125,100,47,0.74408
1917290,0.79500,54.5000,100,47,0.74237
1917300,0.96000,53.7500,100,47,0.73358
1917310,0.39000,53.3750,100,47,0.72650
1917320,-0.23500,53.0000,100,47,0.71795
1917330,-0.47000,52.5625,100,47,0.70818
1917340,-0.41000,51.6875,100,47,0.68523
1917350,-0.28500,51.2500,100,47,0.67228
1917360,-0.23000,50.7500,100,47,0.65983
1917370,-0.23000,50.3125,100,47,0.64762
1917380,-0.22000,49.3750,100,47,0.62027
1917390,-0.21500,48.9375,100,47,0.60635
1917400,-0.20000,48.5000,100,47,0.59243
1917410,-0.19000,48.0000,100,47,0.57900
1917420,-0.18000,47.2500,100,47,0.55311
1917430,-0.17000,46.9375,100,47,0.54090
1917440,-0.16500,46.8750,100,47,0.52894
1917450,-0.16000,47.2500,100,47,0.51722
1917460,-0.15500,51.4375,100,47,0.49866
1917470,-0.14000,55.7500,100,47,0.48913
1917480,-0.11500,61.2500,100,47,0.47912
1917490,-0.09500,67.3125,100,47,0.46935
1917500,-0.07000,79.2500,100,47,0.45055
1917510,-0.05000,84.6250,100,47,0.44176
1917520,-0.02500,89.3750,100,47,0.43321
1917530,-0.00500,93.4375,100,47,0.42515
1917540,0.01000,99.1875,100,47,0.40977
1917550,0.02500,100.8750,100,47,0.40244
1917560,0.04000,101.8750,100,47,0.39634
1917570,0.04000,102.1875,100,47,0.39096
1917580,0.05000,101.4375,100,47,0.37827
1917590,0.06000,100.4375,100,47,0.37143
1917600,0.07500,99.2500,100,47,0.36410
1917610,0.08500,97.7500,100,47,0.35678
1917620,0.08000,94.4375,100,47,0.34188
1917630,0.05500,92.6250,100,47,0.33431
1917640,0.02500,90.7500,100,47,0.32674
1917650,-0.00500,88.9375,100,47,0.31941
1917660,-0.03000,85.3125,100,47,0.30867
1917670,-0.05000,83.5000,100,47,0.30232
1917680,-0.05500,81.7500,100,47,0.29524
1917690,-0.05500,79.8750,100,47,0.28767
1917700,-0.05500,75.6875,100,47,0.27375
1917710,-0.05000,73.3750,100,47,0.26886
1917720,-0.04500,70.9375,100,47,0.26667
1917730,-0.04000,68.6250,100,47,0.26813
1917740,-0.03000,64.7500,100,47,0.28425
1917750,-0.01500,63.3750,100,47,0.29939
1917760,0.00500,62.3125,100,47,0.31624
1917770,0.02500,61.4375,100,47,0.33529
1917780,0.03000,60.2500,100,47,0.38755
1917790,0.03000,59.8125,100,47,0.41807
1917800,0.01000,59.5000,100,47,0.44982
1917810,-0.03000,59.1875,100,47,0.48254
1917820,-0.05500,58.7500,100,47,0.54750
1917830,-0.07500,58.5625,100,47,0.57802
1917840,-0.09500,58.3125,100,47,0.60684
1917850,-0.11500,58.1250,100,47,0.63321
1917860,-0.11500,57.6250,100,47,0.67082
1917870,-0.11500,57.3750,100,47,0.68767
1917880,-0.11500,57.1250,100,47,0.70330
1917890,-0.11500,56.8750,100,47,0.71673
1917900,-0.11500,56.3750,100,47,0.73700
1917910,-0.11000,56.1250,100,47,0.74383
1917920,-0.12500,55.8750,100,47,0.74847
1917930,-0.11000,55.5625,100,47,0.75092
1917940,0.14500,55.0000,100,47,0.74994
1917950,0.70000,54.6875,100,47,0.74652
1917960,1.00000,54.3750,100,47,0.74164
1917970,0.52500,53.6250,100,47,0.73504
1917980,-0.17000,53.1875,100,47,0.71795
1917990,-0.48000,52.8125,100,47,0.70745
1918000,-0.44500,52.3750,100,47,0.69597
1918010,-0.30500,52.0000,100,47,0.68352
1918020,-0.24000,51.0625,100,47,0.65592
1918030,-0.23500,50.5625,100,47,0.64127
1918040,-0.23000,50.1250,100,47,0.62637
1918050,-0.22000,49.6250,100,47,0.61172
1918060,-0.20500,48.6875,100,47,0.58657
1918070,-0.18500,48.3125,100,47,0.57411
1918080,-0.17500,47.8750,100,47,0.56166
1918090,-0.17000,47.5000,100,47,0.54921
1918100,-0.18000,47.1875,100,47,0.52576
1918110,-0.18000,47.7500,100,47,0.51477
1918120,-0.18000,49.3750,100,47,0.50403
1918130,-0.17000,52.6250,100,47,0.49377
1918140,-0.15500,63.4375,100,47,0.47424
1918150,-0.13000,69.7500,100,47,0.46496
1918160,-0.10000,76.0000,100,47,0.45714
1918170,-0.07000,81.9375,100,47,0.45006
1918180,-0.03500,91.9375,100,47,0.43419
1918190,-0.01000,95.8125,100,47,0.42589
1918200,0.01500,98.9375,100,47,0.41783
1918210,0.03500,101.1250,100,47,0.41001
1918220,0.05000,103.3125,100,47,0.39487
1918230,0.05000,103.3750,100,47,0.38755
1918240,0.05000,103.0000,100,47,0.38046
1918250,0.05500,102.1875,100,47,0.37338
1918260,0.06000,99.6875,100,47,0.36239
1918270,0.07500,98.1875,100,47,0.35653
1918280,0.08000,96.5000,100,47,0.35018
1918290,0.07000,94.7500,100,47,0.34335
1918300,0.04000,91.1250,100,47,0.32918
1918310,0.01000,89.3125,100,47,0.32186
1918320,-0.01500,87.5000,100,47,0.31404
1918330,-0.04500,83.9375,100,47,0.30623
1918340,-0.06500,82.1250,100,47,0.29060
1918350,-0.07500,80.1875,100,47,0.28303
1918360,-0.07500,78.1250,100,47,0.27741
1918370,-0.06500,75.8750,100,47,0.27350
1918380,-0.05500,71.1875,100,47,0.26838
1918390,-0.05500,69.0000,100,47,0.27009
1918400,-0.04500,67.0625,100,47,0.27619
1918410,-0.03500,65.4375,100,47,0.28571
1918420,-0.02000,63.0625,100,47,0.31868
1918430,0.00000,62.2500,100,47,0.34286
1918440,0.01000,61.5625,100,47,0.37070
1918450,0.01000,61.0625,100,47,0.40147
1918460,-0.00500,60.3125,100,47,0.45714
1918470,-0.03500,60.0625,100,47,0.48791
1918480,-0.05500,59.8125,100,47,0.51990
1918490,-0.07500,59.5625,100,47,0.55189
1918500,-0.10000,59.1250,100,47,0.61123
1918510,-0.12000,58.8750,100,47,0.63736
1918520,-0.12500,58.6250,100,47,0.66081
1918530,-0.12500,58.3750,100,47,0.68156
1918540,-0.12500,57.8125,100,47,0.71453
1918550,-0.12000,57.5000,100,47,0.72527
1918560,-0.12000,57.1875,100,47,0.73260
1918570,-0.12500,56.8750,100,47,0.73968
1918580,-0.13500,56.3750,100,47,0.74945
1918590,-0.14500,56.0625,100,47,0.75140
1918600,0.05000,55.8125,100,47,0.75140
1918610,0.55500,55.5000,100,47,0.74945
1918620,0.94500,54.8125,100,47,0.74017
1918630,0.59500,54.5000,100,47,0.73309
1918640,-0.11500,54.0625,100,47,0.72430
1918650,-0.47000,53.1875,100,47,0.71404
1918660,-0.45000,52.7500,100,47,0.69255
1918670,-0.29000,52.3125,100,47,0.68034
1918680,-0.20000,51.7500,100,47,0.66716
1918690,-0.18000,51.2500,100,47,0.65348
1918700,-0.17000,50.2500,100,47,0.62491
1918710,-0.16000,49.7500,100,47,0.61074
1918720,-0.14500,49.3125,100,47,0.59683
1918730,-0.12500,48.8125,100,47,0.58364
1918740,-0.11500,48.0000,100,47,0.55824
1918750,-0.11500,47.6250,100,47,0.54750
1918760,-0.11000,47.3125,100,47,0.53748
1918770,-0.11000,47.3750,100,47,0.52698
1918780,-0.11500,50.0625,100,47,0.50549
1918790,-0.11500,53.5625,100,47,0.49499
1918800,-0.10500,58.5625,100,47,0.48498
1918810,-0.09500,64.5000,100,47,0.47521
1918820,-0.07500,76.8750,100,47,0.45592
1918830,-0.05500,82.6250,100,47,0.44664
1918840,-0.03500,87.8125,100,47,0.43761
1918850,-0.01500,92.2500,100,47,0.42906
1918860,0.01500,98.8125,100,47,0.41587
1918870,0.04000,100.8125,100,47,0.40904
1918880,0.06000,102.0000,100,47,0.40171
1918890,0.07000,102.5000,100,47,0.39463
1918900,0.08000,101.8750,100,47,0.37998
1918910,0.08500,100.9375,100,47,0.37289
1918920,0.10000,99.6875,100,47,0.36606
1918930,0.11500,98.1875,100,47,0.35922
1918940,0.12000,94.9375,100,47,0.34554
1918950,0.10000,93.1875,100,47,0.34017
1918960,0.07000,91.4375,100,47,0.33529
1918970,0.03500,89.6250,100,47,0.32894
1918980,0.00500,86.0625,100,47,0.31453
1918990,-0.01500,84.2500,100,47,0.30647
1919000,-0.02500,82.4375,100,47,0.29841
1919010,-0.02500,80.5625,100,47,0.29011
1919020,-0.02000,76.3750,100,47,0.27424
1919030,-0.02000,74.0000,100,47,0.26764
1919040,-0.02000,71.6250,100,47,0.26325
1919050,-0.01500,69.3125,100,47,0.26154
1919060,-0.01500,65.5625,100,47,0.26838
1919070,-0.01000,64.1875,100,47,0.27790
1919080,0.00500,63.0000,100,47,0.29231
1919090,0.02000,62.0625,100,47,0.31136
1919100,0.03000,60.7500,100,47,0.36190
1919110,0.03000,60.3125,100,47,0.39194
1919120,0.02000,59.8750,100,47,0.42369
1919130,-0.00500,59.6250,100,47,0.45641
1919140,-0.02500,59.1250,100,47,0.52234
1919150,-0.04000,58.8750,100,47,0.54969
1919160,-0.05500,58.6250,100,47,0.57363
1919170,-0.07500,58.3750,100,47,0.59853
1919180,-0.07500,57.9375,100,47,0.64469
1919190,-0.07500,57.6250,100,47,0.66471
1919200,-0.08000,57.3750,100,47,0.68205
1919210,-0.09000,57.1250,100,47,0.69695
1919220,-0.09500,56.6875,100,47,0.71966
1919230,-0.10000,56.4375,100,47,0.72698
1919240,-0.11500,56.2500,100,47,0.73211
1919250,-0.09500,56.0625,100,47,0.73480
1919260,0.13500,55.4375,100,47,0.73260
1919270,0.66500,55.1250,100,47,0.72943
1919280,0.99000,54.7500,100,47,0.72503
1919290,0.57500,53.9375,100,47,0.71917
1919300,-0.18000,53.5000,100,47,0.70256
1919310,-0.41500,53.1250,100,47,0.69206
1919320,-0.42500,52.6250,100,47,0.68034
1919330,-0.30000,52.1875,100,47,0.66764
1919340,-0.22000,51.2500,100,47,0.64029
1919350,-0.21000,50.7500,100,47,0.62735
1919360,-0.20000,50.2500,100,47,0.61514
1919370,-0.20000,49.7500,100,47,0.60220
1919380,-0.19000,48.8750,100,47,0.57656
1919390,-0.19000,48.4375,100,47,0.56386
1919400,-0.18000,47.9375,100,47,0.55140
1919410,-0.17500,47.5625,100,47,0.53944
1919420,-0.17000,47.0625,100,47,0.51624
1919430,-0.17000,47.3750,100,47,0.50501
1919440,-0.15500,48.5625,100,47,0.49451
1919450,-0.11000,51.0000,100,47,0.48425
1919460,-0.06500,60.2500,100,47,0.46764
1919470,-0.04500,66.1250,100,47,0.45934
1919480,-0.03500,72.1250,100,47,0.45079
1919490,-0.02500,77.8750,100,47,0.44225
1919500,-0.00500,87.9375,100,47,0.42515
1919510,0.01000,91.9375,100,47,0.41685
1919520,0.03000,95.1250,100,47,0.40855
1919530,0.06000,97.5625,100,47,0.40049
1919540,0.08000,100.1250,100,47,0.38510
1919550,0.09500,100.3750,100,47,0.37924
1919560,0.11000,100.0625,100,47,0.37411
1919570,0.11500,99.3125,100,47,0.36801
1919580,0.13000,96.7500,100,47,0.35409
1919590,0.13500,95.1250,100,47,0.34701
1919600,0.13000,93.3125,100,47,0.33968
1919610,0.10000,91.5000,100,47,0.33211
1919620,0.05500,87.6875,100,47,0.31673
1919630,0.01000,85.7500,100,47,0.30916
1919640,-0.02500,83.8750,100,47,0.30159
1919650,-0.04500,82.0625,100,47,0.29402
1919660,-0.06000,78.2500,100,47,0.28303
1919670,-0.06500,76.1875,100,47,0.27643
1919680,-0.06500,74.0000,100,47,0.26935
1919690,-0.06500,71.7500,100,47,0.26276
1919700,-0.06000,67.2500,100,47,0.25372
1919710,-0.05500,65.3750,100,47,0.25372
1919720,-0.04500,63.8125,100,47,0.25763
1919730,-0.02000,62.5625,100,47,0.26593
1919740,0.01500,60.8125,100,47,0.29646
1919750,0.05000,60.1875,100,47,0.31526
1919760,0.07000,59.6875,100,47,0.33578
1919770,0.09000,59.3125,100,47,0.36093
1919780,0.09000,58.7500,100,47,0.41978
1919790,0.07000,58.5000,100,47,0.45128
1919800,0.04500,58.3125,100,47,0.48278
1919810,0.00500,58.1250,100,47,0.51380
1919820,-0.04000,57.6875,100,47,0.57167
1919830,-0.08000,57.4375,100,47,0.59756
1919840,-0.10500,57.1250,100,47,0.62076
1919850,-0.10500,56.8750,100,47,0.64103
1919860,-0.08500,56.3750,100,47,0.66789
1919870,-0.06500,56.1250,100,47,0.67937
1919880,-0.05500,55.8750,100,47,0.68913
1919890,-0.04500,55.6875,100,47,0.69695
1919900,-0.05000,55.2500,100,47,0.70598
1919910,-0.02500,55.0000,100,47,0.70745
1919920,0.21500,54.6875,100,47,0.70696
1919930,0.74500,54.3750,100,47,0.70476
1919940,1.01500,53.7500,100,47,0.69499
1919950,0.56500,53.3750,100,47,0.68816
1919960,-0.08500,52.9375,100,47,0.68034
1919970,-0.38500,52.5000,100,47,0.67106
1919980,-0.37500,51.6250,100,47,0.64908
1919990,-0.24500,51.1875,100,47,0.63687
1920000,-0.16500,50.7500,100,47,0.62393
1920010,-0.15500,50.3125,100,47,0.61050
1920020,-0.14500,49.3750,100,47,0.58339
1920030,-0.12500,48.9375,100,47,0.57021
1920040,-0.11500,48.4375,100,47,0.55727
1920050,-0.11000,48.0000,100,47,0.54457
1920060,-0.11500,47.1875,100,47,0.52332
1920070,-0.11000,46.8750,100,47,0.51258
1920080,-0.10500,46.6250,100,47,0.50183
1920090,-0.11500,46.6875,100,47,0.49133
1920100,-0.13500,49.4375,100,47,0.47082
1920110,-0.14500,53.0000,100,47,0.46105
1920120,-0.14000,57.9375,100,47,0.45177
1920130,-0.13000,63.6875,100,47,0.44298
1920140,-0.11500,75.6875,100,47,0.42613
1920150,-0.08500,81.2500,100,47,0.41954
1920160,-0.05500,86.2500,100,47,0.41368
1920170,-0.03500,90.6250,100,47,0.40708
1920180,-0.01500,97.1250,100,47,0.39292
1920190,0.00500,99.1250,100,47,0.38584
1920200,0.03000,100.2500,100,47,0.37875
1920210,0.06000,100.6875,100,47,0.37167
1920220,0.09000,99.8750,100,47,0.35775
1920230,0.13000,98.8750,100,47,0.35092
1920240,0.15500,97.5000,100,47,0.34408
1920250,0.17500,95.9375,100,47,0.33895
1920260,0.18500,92.4375,100,47,0.32869
1920270,0.16500,90.5625,100,47,0.32234
1920280,0.13000,88.6875,100,47,0.31575
1920290,0.09500,84.9375,100,47,0.30916
1920300,0.07500,83.1250,100,47,0.29548
1920310,0.07000,81.3125,100,47,0.28840
1920320,0.08000,79.4375,100,47,0.28132
1920330,0.09000,77.5625,100,47,0.27399
1920340,0.10000,73.2500,100,47,0.25958
1920350,0.10500,70.9375,100,47,0.25495
1920360,0.09500,68.6250,100,47,0.25250
1920370,0.07000,66.5000,100,47,0.25128
1920380,0.05000,63.1250,100,47,0.25812
1920390,0.02000,62.0000,100,47,0.26838
1920400,0.00000,61.0625,100,47,0.28303
1920410,-0.01500,60.3125,100,47,0.30208
1920420,-0.02500,59.3125,100,47,0.35140
1920430,-0.04500,58.9375,100,47,0.38046
1920440,-0.07500,58.6875,100,47,0.41123
1920450,-0.12500,58.5000,100,47,0.43907
1920460,-0.15500,58.0625,100,47,0.49328
1920470,-0.17000,57.8750,100,47,0.52259
1920480,-0.19000,57.6875,100,47,0.55140
1920490,-0.20500,57.5000,100,47,0.57851
1920500,-0.21000,57.0625,100,47,0.62662
1920510,-0.21000,56.8125,100,47,0.64689
1920520,-0.20000,56.5625,100,47,0.66447
1920530,-0.19000,56.3125,100,47,0.67961
1920540,-0.17000,55.8125,100,47,0.70208
1920550,-0.15500,55.6250,100,47,0.70842
1920560,-0.14500,55.4375,100,47,0.71209
1920570,-0.13500,55.2500,100,47,0.71477
1920580,0.06000,54.7500,100,47,0.71551
1920590,0.55500,54.4375,100,47,0.71331
1920600,0.97000,54.0625,100,47,0.70916
1920610,0.69000,53.6875,100,47,0.70354
1920620,0.02000,52.9375,100,47,0.68718
1920630,-0.38500,52.4375,100,47,0.67692
1920640,-0.45000,52.0000,100,47,0.66569
1920650,-0.34000,51.5000,100,47,0.65446
1920660,-0.25000,50.5000,100,47,0.63053
1920670,-0.24000,50.0000,100,47,0.61709
1920680,-0.24000,49.5000,100,47,0.60293
1920690,-0.23000,49.0000,100,47,0.58877
1920700,-0.22000,48.0625,100,47,0.56093
1920710,-0.20500,47.6875,100,47,0.54750
1920720,-0.19000,47.2500,100,47,0.53455
1920730,-0.17000,46.8750,100,47,0.52234
1920740,-0.14500,46.4375,100,47,0.49939
1920750,-0.11500,46.6875,100,47,0.48987
1920760,-0.08500,47.8125,100,47,0.48156
1920770,-0.05500,54.3125,100,47,0.46374
1920780,-0.03500,59.6250,100,47,0.45495
1920790,-0.01000,65.5625,100,47,0.44640
1920800,0.01500,71.6250,100,47,0.43785
1920810,0.03000,77.4375,100,47,0.42930
1920820,0.04000,87.7500,100,47,0.41270
1920830,0.04000,91.9375,100,47,0.40464
1920840,0.04500,95.4375,100,47,0.39683
1920850,0.06000,98.0625,100,47,0.39072
1920860,0.07500,101.0625,100,47,0.37900
1920870,0.09000,101.4375,100,47,0.37241
1920880,0.10000,101.2500,100,47,0.36581
1920890,0.11000,100.6250,100,47,0.35922
1920900,0.12500,98.3125,100,47,0.34676
1920910,0.13000,96.8125,100,47,0.34042
1920920,0.13000,95.1250,100,47,0.33407
1920930,0.11000,93.3125,100,47,0.32772
1920940,0.08000,89.6875,100,47,0.31453
1920950,0.04000,87.8750,100,47,0.30940
1920960,0.00500,86.0625,100,47,0.30476
1920970,-0.02500,84.2500,100,47,0.29915
1920980,-0.04500,80.6250,100,47,0.28596
1920990,-0.06500,78.7500,100,47,0.27912
1921000,-0.08500,76.6875,100,47,0.27228
1921010,-0.08500,74.5000,100,47,0.26593
1921020,-0.08000,69.7500,100,47,0.25812
1921030,-0.07000,67.5000,100,47,0.25812
1921040,-0.05500,65.5625,100,47,0.26203
1921050,-0.03500,63.9375,100,47,0.26911
1921060,-0.00500,61.6875,100,47,0.29499
1921070,0.02000,60.9375,100,47,0.31477
1921080,0.03000,60.3750,100,47,0.33822
1921090,0.04000,59.8750,100,47,0.36508
1921100,0.04000,59.1875,100,47,0.42540
1921110,0.02000,59.0000,100,47,0.45763
1921120,0.01000,58.7500,100,47,0.49011
1921130,0.01000,58.5625,100,47,0.52234
1921140,0.01500,58.1250,100,47,0.58315
1921150,0.02000,57.8750,100,47,0.60708
1921160,0.02000,57.6250,100,47,0.62711
1921170,0.02000,57.3750,100,47,0.64737
1921180,0.01000,56.8125,100,47,0.68376
1921190,-0.01500,56.5000,100,47,0.69817
1921200,-0.05500,56.1875,100,47,0.70989
1921210,-0.10000,55.9375,100,47,0.71917
1921220,-0.14500,55.4375,100,47,0.73065
1921230,-0.17000,55.1875,100,47,0.73284
1921240,-0.00500,54.8750,100,47,0.73309
1921250,0.48500,54.5625,100,47,0.73114
1921260,0.89500,53.8125,100,47,0.72283
1921270,0.60500,53.4375,100,47,0.71648
1921280,-0.05500,53.0625,100,47,0.70867
1921290,-0.43500,52.3125,100,47,0.69963
1921300,-0.48500,51.9375,100,47,0.67790
1921310,-0.35500,51.5000,100,47,0.66520
1921320,-0.26000,51.0000,100,47,0.65177
1921330,-0.24000,50.5625,100,47,0.63785
1921340,-0.24000,49.6250,100,47,0.60879
1921350,-0.22500,49.1875,100,47,0.59560
1921360,-0.21000,48.7500,100,47,0.58339
1921370,-0.20000,48.3125,100,47,0.57045
1921380,-0.19000,47.5000,100,47,0.54481
1921390,-0.18500,47.1250,100,47,0.53236
1921400,-0.18500,46.9375,100,47,0.52039
1921410,-0.19000,47.0000,100,47,0.50891
1921420,-0.19500,49.4375,100,47,0.48742
1921430,-0.19500,52.6875,100,47,0.47766
1921440,-0.18500,57.4375,100,47,0.46813
1921450,-0.17000,63.0625,100,47,0.46007
1921460,-0.15500,75.0625,100,47,0.44518
1921470,-0.14000,80.6875,100,47,0.43736
1921480,-0.12000,85.9375,100,47,0.42955
1921490,-0.08500,90.5000,100,47,0.42173
1921500,-0.05000,97.5000,100,47,0.40659
1921510,-0.01000,99.7500,100,47,0.39951
1921520,0.02500,101.2500,100,47,0.39243
1921530,0.05000,102.0000,100,47,0.38510
1921540,0.06000,101.6250,100,47,0.37118
1921550,0.06000,100.7500,100,47,0.36557
1921560,0.06000,99.5000,100,47,0.36068
1921570,0.06500,98.0625,100,47,0.35482
1921580,0.07000,94.6875,100,47,0.34139
1921590,0.06500,92.8750,100,47,0.33455
1921600,0.05000,91.0625,100,47,0.32747
1921610,0.03000,89.2500,100,47,0.32015
1921620,0.01000,85.6250,100,47,0.30525
1921630,0.00000,83.8750,100,47,0.29744
1921640,-0.00500,82.1875,100,47,0.28962
1921650,-0.00500,80.3750,100,47,0.28352
1921660,-0.01000,76.4375,100,47,0.27228
1921670,-0.01000,74.2500,100,47,0.26593
1921680,-0.01500,71.9375,100,47,0.26105
1921690,-0.01500,69.7500,100,47,0.25836
1921700,-0.01000,66.0000,100,47,0.26398
1921710,0.00000,64.6250,100,47,0.27326
1921720,0.01500,63.5000,100,47,0.28767
1921730,0.04500,62.5625,100,47,0.30647
1921740,0.06500,61.1875,100,47,0.35580
1921750,0.07500,60.6875,100,47,0.38095
1921760,0.07000,60.2500,100,47,0.40610
1921770,0.04000,59.9375,100,47,0.43516
1921780,0.00500,59.3750,100,47,0.49866
1921790,-0.01500,59.1250,100,47,0.53040
1921800,-0.03000,58.8750,100,47,0.56117
1921810,-0.04500,58.6875,100,47,0.58999
1921820,-0.05000,58.2500,100,47,0.64103
1921830,-0.04000,58.0000,100,47,0.66252
1921840,-0.03000,57.8125,100,47,0.68132
1921850,-0.01500,57.5625,100,47,0.69499
1921860,-0.01000,57.0625,100,47,0.71502
1921870,-0.00500,56.8125,100,47,0.72332
1921880,-0.00500,56.5625,100,47,0.72967
1921890,-0.01500,56.3125,100,47,0.73382
1921900,0.11000,55.6875,100,47,0.73602
1921910,0.52000,55.3125,100,47,0.73431
1921920,1.00000,54.9375,100,47,0.73089
1921930,0.92000,54.5625,100,47,0.72576
1921940,0.25500,53.6875,100,47,0.71038
1921950,-0.26500,53.2500,100,47,0.70134
1921960,-0.40500,52.7500,100,47,0.69133
1921970,-0.31500,52.3125,100,47,0.67985
1921980,-0.20000,51.3750,100,47,0.65421
1921990,-0.17500,50.8750,100,47,0.64029
1922000,-0.18000,50.3750,100,47,0.62637
1922010,-0.19000,49.8750,100,47,0.61245
1922020,-0.20500,48.6875,100,47,0.58462
1922030,-0.22000,48.1875,100,47,0.57070
1922040,-0.23500,47.6875,100,47,0.55702
1922050,-0.24000,47.2500,100,47,0.54530
1922060,-0.23000,46.6875,100,47,0.52332
1922070,-0.21500,47.0000,100,47,0.51209
1922080,-0.20000,48.1250,100,47,0.50110
1922090,-0.18500,54.8125,100,47,0.49035
1922100,-0.17000,60.1875,100,47,0.46935
1922110,-0.15000,66.2500,100,47,0.45934
1922120,-0.12500,72.4375,100,47,0.44957
1922130,-0.09500,78.3750,100,47,0.44005
1922140,-0.07000,88.9375,100,47,0.42369
1922150,-0.04500,93.1875,100,47,0.41709
1922160,-0.02500,96.7500,100,47,0.40977
1922170,-0.00500,99.5000,100,47,0.40220
1922180,0.00500,102.5000,100,47,0.38681
1922190,0.02000,102.9375,100,47,0.37949
1922200,0.02500,102.7500,100,47,0.37241
1922210,0.03000,102.1250,100,47,0.36557
1922220,0.04000,99.9375,100,47,0.35214
1922230,0.05000,98.4375,100,47,0.34554
1922240,0.06000,96.8125,100,47,0.33895
1922250,0.05500,95.0625,100,47,0.33382
1922260,0.03000,91.5000,100,47,0.32381
1922270,0.00000,89.6875,100,47,0.31746
1922280,-0.02500,87.9375,100,47,0.31087
1922290,-0.04500,84.3750,100,47,0.30427
1922300,-0.06500,82.5000,100,47,0.29084
1922310,-0.06500,80.6250,100,47,0.28400
1922320,-0.06500,78.5625,100,47,0.27717
1922330,-0.05500,76.4375,100,47,0.27082
1922340,-0.05500,71.6875,100,47,0.26374
1922350,-0.05000,69.3750,100,47,0.26422
1922360,-0.04500,67.3125,100,47,0.26716
1922370,-0.03500,64.2500,100,47,0.27399
1922380,-0.02000,63.1250,100,47,0.30134
1922390,0.00000,62.2500,100,47,0.32161
1922400,0.02000,61.5000,100,47,0.34579
1922410,0.02000,60.8750,100,47,0.37314
1922420,0.00000,60.0000,100,47,0.43468
1922430,-0.02000,59.6875,100,47,0.46691
1922440,-0.04500,59.3750,100,47,0.49915
1922450,-0.06000,59.1250,100,47,0.52674
1922460,-0.07500,58.6250,100,47,0.57802
1922470,-0.09500,58.3750,100,47,0.60391
1922480,-0.11500,58.1250,100,47,0.62833
1922490,-0.12500,57.9375,100,47,0.65055
1922500,-0.11500,57.3750,100,47,0.68962
1922510,-0.10500,57.1875,100,47,0.70794
1922520,-0.10500,56.9375,100,47,0.72210
1922530,-0.11000,56.6875,100,47,0.73284
1922540,-0.10500,56.3125,100,47,0.74457
1922550,-0.12000,56.0625,100,47,0.74603
1922560,-0.08500,55.8750,100,47,0.74652
1922570,0.20500,55.5625,100,47,0.74579
1922580,0.75500,54.8750,100,47,0.73919
1922590,0.94500,54.5000,100,47,0.73358
1922600,0.37500,54.1250,100,47,0.72625
1922610,-0.27000,53.6875,100,47,0.71746
1922620,-0.51000,52.8125,100,47,0.69573
1922630,-0.44500,52.3750,100,47,0.68303
1922640,-0.30000,51.8750,100,47,0.66935
1922650,-0.22000,51.3750,100,47,0.65665
1922660,-0.20500,50.4375,100,47,0.63028
1922670,-0.19000,50.0000,100,47,0.61636
1922680,-0.17000,49.5625,100,47,0.60244
1922690,-0.14500,49.0625,100,47,0.58877
1922700,-0.13000,48.2500,100,47,0.56215
1922710,-0.12500,47.8125,100,47,0.54921
1922720,-0.13500,47.5000,100,47,0.53675
1922730,-0.14500,47.3125,100,47,0.52479
1922740,-0.15500,48.6875,100,47,0.50354
1922750,-0.17000,51.3750,100,47,0.49475
1922760,-0.17000,55.6875,100,47,0.48547
1922770,-0.16000,61.3750,100,47,0.47595
1922780,-0.13500,74.0000,100,47,0.45665
1922790,-0.10500,80.0625,100,47,0.44737
1922800,-0.07000,85.7500,100,47,0.43810
1922810,-0.03500,90.6875,100,47,0.42906
1922820,-0.01000,98.3750,100,47,0.41172
1922830,0.01000,100.9375,100,47,0.40342
1922840,0.03500,102.6875,100,47,0.39536
1922850,0.05500,103.6875,100,47,0.38901
1922860,0.06500,103.7500,100,47,0.37705
1922870,0.07000,103.0000,100,47,0.36996
1922880,0.07000,101.9375,100,47,0.36264
1922890,0.07000,100.5625,100,47,0.35531
1922900,0.07000,97.3750,100,47,0.34042
1922910,0.05500,95.6250,100,47,0.33284
1922920,0.03000,93.8125,100,47,0.32527
1922930,-0.01000,92.0000,100,47,0.31770
1922940,-0.04500,88.3750,100,47,0.30427
1922950,-0.07500,86.6250,100,47,0.29915
1922960,-0.09500,84.8125,100,47,0.29255
1922970,-0.09500,83.0625,100,47,0.28523
1922980,-0.08500,79.1250,100,47,0.27009
1922990,-0.07500,76.9375,100,47,0.26300
1923000,-0.06500,74.6250,101,47,0.25714
1923010,-0.05500,72.2500,101,47,0.25348
1923020,-0.04500,67.9375,101,47,0.25690
1923030,-0.03500,66.2500,101,47,0.26569
1923040,-0.02000,64.8750,101,47,0.27961
1923050,0.00000,63.7500,101,47,0.29573
1923060,0.02000,62.1875,101,47,0.33871
1923070,0.03000,61.6250,101,47,0.36679
1923080,0.02000,61.1875,101,47,0.39780
1923090,-0.00500,60.8125,101,47,0.43077
1923100,-0.04500,60.3125,101,47,0.49890
1923110,-0.06500,60.0625,101,47,0.53260
1923120,-0.09000,59.8125,101,47,0.56508
1923130,-0.11500,59.5625,101,47,0.59560
1923140,-0.13500,59.1250,101,47,0.64591
1923150,-0.13500,58.8750,101,47,0.66422
1923160,-0.13500,58.6250,101,47,0.68278
1923170,-0.13000,58.3750,101,47,0.70012
1923180,-0.12500,57.8125,101,47,0.72821
1923190,-0.11500,57.5000,101,47,0.73871
1923200,-0.11000,57.2500,101,47,0.74676
1923210,-0.13000,57.0000,101,47,0.75238
1923220,-0.11000,56.4375,101,47,0.75702
1923230,0.15500,56.1250,101,47,0.75604
1923240,0.72000,55.8125,101,47,0.75336
1923250,1.01000,55.5000,101,47,0.74872
1923260,0.51000,54.6875,101,47,0.73480
1923270,-0.20500,54.3125,101,47,0.72552
1923280,-0.51000,53.8750,101,47,0.71502
1923290,-0.45500,53.0000,101,47,0.70305
1923300,-0.30500,52.5625,101,47,0.67692
1923310,-0.24500,52.0625,101,47,0.66276
1923320,-0.24000,51.5000,101,47,0.64811
1923330,-0.23000,51.0000,101,47,0.63346
1923340,-0.21500,50.0000,101,47,0.60562
1923350,-0.19500,49.5625,101,47,0.59365
1923360,-0.17500,49.1250,101,47,0.58120
1923370,-0.16000,48.6875,101,47,0.56874
1923380,-0.16000,48.0625,101,47,0.54383
1923390,-0.15500,48.0000,101,47,0.53187
1923400,-0.15500,48.5625,101,47,0.52015
1923410,-0.15500,50.3125,101,47,0.50891
1923420,-0.14000,58.5000,101,47,0.48767
1923430,-0.12500,64.5000,101,47,0.47766
1923440,-0.10500,71.0000,101,47,0.46789
1923450,-0.08000,77.3750,101,47,0.45958
1923460,-0.06000,88.8750,101,47,0.44420
1923470,-0.03500,93.5625,101,47,0.43614
1923480,-0.01500,97.5000,101,47,0.42784
1923490,0.00000,100.5000,101,47,0.41954
1923500,0.02000,104.0000,101,47,0.40342
1923510,0.03500,104.5625,101,47,0.39536
1923520,0.05000,104.5625,101,47,0.38755
1923530,0.06000,104.0000,101,47,0.37998
1923540,0.08000,101.8125,101,47,0.36606
1923550,0.09000,100.3750,101,47,0.36068
1923560,0.10000,98.7500,101,47,0.35433
1923570,0.10000,97.0625,101,47,0.34725
1923580,0.08000,93.4375,101,47,0.33260
1923590,0.05000,91.6250,101,47,0.32527
1923600,0.01000,89.8125,101,47,0.31795
1923610,-0.02000,88.0625,101,47,0.31062
1923620,-0.04000,84.5000,101,47,0.29573
1923630,-0.05000,82.6250,101,47,0.28791
1923640,-0.05000,80.6250,101,47,0.28010
1923650,-0.04500,78.5000,101,47,0.27424
1923660,-0.04000,73.8125,101,47,0.26496
1923670,-0.04500,71.3750,101,47,0.26203
1923680,-0.04500,69.1250,101,47,0.26203
1923690,-0.04500,67.1250,101,47,0.26642
1923700,-0.04500,64.1875,101,47,0.28987
1923710,-0.03500,63.1875,101,47,0.30916
1923720,-0.01500,62.3750,101,47,0.33309
1923730,0.00000,61.7500,101,47,0.36068
1923740,-0.00500,60.9375,101,47,0.42002
1923750,-0.03000,60.6875,101,47,0.44762
1923760,-0.07500,60.5000,101,47,0.47912
1923770,-0.11000,60.3125,101,47,0.51233
1923780,-0.11500,60.0000,101,47,0.57753
1923790,-0.11000,59.8125,101,47,0.60757
1923800,-0.11500,59.5625,101,47,0.63541
1923810,-0.12000,59.3125,101,47,0.66032
1923820,-0.11500,58.7500,101,47,0.70134
1923830,-0.11000,58.4375,101,47,0.71746
1923840,-0.10500,58.1250,101,47,0.72869
1923850,-0.09500,57.8125,101,47,0.73675
1923860,-0.09000,57.1875,101,47,0.75043
1923870,-0.10000,56.8750,101,47,0.75482
1923880,-0.10500,56.5625,101,47,0.75726
1923890,0.08000,56.2500,101,47,0.75775
1923900,0.59500,55.5625,101,47,0.75287
1923910,1.00500,55.1875,101,47,0.74750
1923920,0.65000,54.8125,101,47,0.74042
1923930,-0.09500,54.5000,101,47,0.73162
1923940,-0.48000,53.6875,101,47,0.71013
1923950,-0.46000,53.2500,101,47,0.69866
1923960,-0.30000,52.7500,101,47,0.68571
1923970,-0.21000,52.2500,101,47,0.67204
1923980,-0.20000,51.2500,101,47,0.64274
1923990,-0.19000,50.6875,101,47,0.62759
1924000,-0.18500,50.1875,100,47,0.61270
1924010,-0.17500,49.7500,100,47,0.59805
1924020,-0.16000,48.8125,100,47,0.57021
1924030,-0.14500,48.3750,100,47,0.55702
1924040,-0.13500,48.0000,100,47,0.54554
1924050,-0.12500,47.6875,100,47,0.53529
1924060,-0.12000,48.4375,100,47,0.51380
1924070,-0.11500,50.3750,100,47,0.50305
1924080,-0.11500,53.9375,100,47,0.49255
1924090,-0.10500,59.0625,100,47,0.48254
1924100,-0.08500,71.5625,100,47,0.46325
1924110,-0.06000,77.8750,100,47,0.45397
1924120,-0.03500,83.7500,100,47,0.44493
1924130,-0.00500,93.5625,100,47,0.43614
1924140,0.02000,97.3125,100,47,0.42100
1924150,0.04000,100.1875,100,47,0.41465
1924160,0.06500,102.1875,100,47,0.40733
1924170,0.08000,103.3750,100,47,0.39976
1924180,0.09000,103.6250,100,47,0.38437
1924190,0.09500,103.0000,100,47,0.37705
1924200,0.10000,101.9375,100,47,0.36972
1924210,0.11000,99.1250,100,47,0.36239
1924220,0.12500,97.5000,100,47,0.34725
1924230,0.13000,95.6875,100,47,0.33944
1924240,0.11000,93.8750,100,47,0.33333
1924250,0.07500,92.0625,100,47,0.32772
1924260,0.03000,88.3750,100,47,0.31355
1924270,0.00000,86.5625,100,47,0.30549
1924280,-0.02500,84.7500,100,47,0.29744
1924290,-0.03500,82.8750,100,47,0.28938
1924300,-0.03500,78.8750,100,47,0.27302
1924310,-0.02500,76.6250,100,47,0.26545
1924320,-0.01500,74.2500,100,47,0.25885
1924330,-0.01000,71.8750,100,47,0.25397
1924340,-0.00500,67.5625,100,47,0.25324
1924350,0.00000,65.8750,100,47,0.25812
1924360,0.01000,64.5000,100,47,0.26740
1924370,0.03000,63.4375,100,47,0.28132
1924380,0.04500,61.8125,100,47,0.32357
1924390,0.06000,61.3125,100,47,0.35067
1924400,0.07000,60.9375,100,47,0.38095
1924410,0.06000,60.6250,100,47,0.41319
1924420,0.03500,60.1250,100,47,0.48059
1924430,0.01000,59.9375,100,47,0.51429
1924440,-0.00500,59.7500,100,47,0.54286
1924450,-0.03000,59.5000,100,47,0.56801
1924460,-0.05500,59.0625,100,47,0.62002
1924470,-0.06500,58.8125,100,47,0.64396
1924480,-0.06500,58.5000,100,47,0.66545
1924490,-0.06500,58.1875,100,47,0.68425
1924500,-0.07000,57.5625,100,47,0.71380
1924510,-0.07000,57.2500,100,47,0.72430
1924520,-0.07000,57.0000,100,47,0.73236
1924530,-0.08000,56.6875,100,47,0.73773
1924540,-0.09000,56.1875,100,47,0.74164
1924550,0.08000,55.8750,100,47,0.73724
1924560,0.56500,55.5625,100,47,0.73089
1924570,0.98000,55.1875,100,47,0.72503
1924580,0.69000,54.4375,100,47,0.71062
1924590,0.00500,54.0625,100,47,0.70159
1924600,-0.39500,53.6250,100,47,0.69109
1924610,-0.45000,53.1250,100,47,0.67937
1924620,-0.32000,52.1250,100,47,0.65372
1924630,-0.23000,51.6875,100,47,0.63980
1924640,-0.22500,51.1875,100,47,0.62711
1924650,-0.22500,50.6875,100,47,0.61490
1924660,-0.21000,49.7500,100,47,0.58852
1924670,-0.18000,49.2500,100,47,0.57534
1924680,-0.15500,48.8125,100,47,0.56264
1924690,-0.12500,48.3125,100,47,0.55018
1924700,-0.11500,47.5625,100,47,0.52650
1924710,-0.10500,47.3125,100,47,0.51526
1924720,-0.10500,47.3750,100,47,0.50427
1924730,-0.10000,48.1875,100,47,0.49377
1924740,-0.09500,53.9375,100,47,0.47448
1924750,-0.08500,59.1250,100,47,0.46667
1924760,-0.07000,65.1250,100,47,0.45812
1924770,-0.04500,71.2500,100,47,0.44933
1924780,-0.02000,82.7500,100,47,0.43175
1924790,0.00000,87.6250,100,47,0.42320
1924800,0.02000,91.8750,100,47,0.41490
1924810,0.04000,95.3125,100,47,0.40684
1924820,0.05500,99.6250,100,47,0.39121
1924830,0.07500,100.6250,100,47,0.38364
1924840,0.09500,100.8750,100,47,0.37753
1924850,0.11500,100.5625,100,47,0.37216
1924860,0.13000,98.5625,100,47,0.35897
1924870,0.14500,97.0625,100,47,0.35189
1924880,0.15000,95.4375,100,47,0.34457
1924890,0.14000,93.6250,100,47,0.33724
1924900,0.11500,89.8125,100,47,0.32308
1924910,0.08000,87.8750,100,47,0.31575
1924920,0.04500,85.9375,100,47,0.30818
1924930,0.01500,84.0000,100,47,0.30061
1924940,0.00000,80.3125,100,47,0.28669
1924950,0.00000,78.3750,100,47,0.28132
1924960,0.00000,76.3750,100,47,0.27448
1924970,0.00000,74.2500,100,47,0.26716
1924980,0.00000,69.7500,100,47,0.25348
1924990,0.00500,67.6250,100,47,0.24860
1925000,0.01000,65.8125,100,47,0.24640
1925010,0.00500,64.2500,100,47,0.24786
1925020,0.01000,62.0625,100,47,0.26447
1925030,0.02000,61.3750,100,47,0.27985
1925040,0.04000,60.7500,100,47,0.29695
1925050,0.06000,60.3125,100,47,0.31648
1925060,0.07000,59.6250,100,47,0.36850
1925070,0.07000,59.4375,100,47,0.39853
1925080,0.04000,59.1875,100,47,0.43004
1925090,0.01000,59.0000,100,47,0.46178
1925100,-0.02000,58.5625,100,47,0.52332
1925110,-0.04500,58.3125,100,47,0.55189
1925120,-0.07500,58.0625,100,47,0.57827
1925130,-0.09500,57.8750,100,47,0.60244
1925140,-0.09500,57.3750,100,47,0.64054
1925150,-0.09500,57.1250,100,47,0.65348
1925160,-0.08500,56.9375,100,47,0.66618
1925170,-0.08500,56.7500,100,47,0.67741
1925180,-0.08000,56.3750,100,47,0.69328
1925190,-0.08500,56.1875,100,47,0.69792
1925200,-0.10000,55.9375,100,47,0.70037
1925210,0.02000,55.6875,100,47,0.70061
1925220,0.45000,55.0625,100,47,0.69548
1925230,0.94000,54.6875,100,47,0.69035
1925240,0.80500,54.2500,100,47,0.68400
1925250,0.15500,53.8125,100,47,0.67668
1925260,-0.32500,52.9375,100,47,0.65763
1925270,-0.45000,52.4375,100,47,0.64664
1925280,-0.35500,51.9375,100,47,0.63468
1925290,-0.24500,51.3750,100,47,0.62222
1925300,-0.22000,50.2500,100,47,0.59609
1925310,-0.21000,49.6875,100,47,0.58315
1925320,-0.20000,49.1250,100,47,0.56996
1925330,-0.18000,48.5625,100,47,0.55727
1925340,-0.16000,47.5625,100,47,0.53455
1925350,-0.13500,47.1250,100,47,0.52479
1925360,-0.12500,46.6875,100,47,0.51429
1925370,-0.11500,46.3750,100,47,0.50379
1925380,-0.11500,46.5000,100,47,0.48352
1925390,-0.12000,47.7500,100,47,0.47375
1925400,-0.12500,50.3125,100,47,0.46422
1925410,-0.11500,54.5000,100,47,0.45519
1925420,-0.10500,66.0000,100,47,0.43785
1925430,-0.08500,72.1250,100,47,0.42930
1925440,-0.06500,77.9375,100,47,0.42198
1925450,-0.04000,83.3125,100,47,0.41563
1925460,-0.00500,92.1250,100,47,0.40098
1925470,0.02000,95.4375,100,47,0.39365
1925480,0.05000,97.8125,100,47,0.38608
1925490,0.07000,99.4375,100,47,0.37851
1925500,0.08500,100.4375,100,47,0.36386
1925510,0.10000,100.0625,100,47,0.35653
1925520,0.11000,99.1875,100,47,0.34921
1925530,0.12000,98.0625,100,47,0.34212
1925540,0.13000,95.0000,100,47,0.32943
1925550,0.13000,93.2500,100,47,0.32454
1925560,0.11000,91.3750,100,47,0.31844
1925570,0.08500,89.4375,100,47,0.31160
1925580,0.04500,85.6250,100,47,0.29719
1925590,0.02000,83.7500,100,47,0.28987
1925600,-0.00500,81.9375,100,47,0.28254
1925610,-0.01500,80.0000,100,47,0.27521
1925620,-0.01500,76.0625,100,47,0.26032
1925630,-0.01500,73.8750,100,47,0.25324
1925640,-0.01500,71.5625,100,47,0.24835
1925650,-0.01500,69.1875,100,47,0.24518
1925660,-0.01000,64.9375,100,47,0.24127
1925670,0.00000,63.3125,100,47,0.24347
1925680,0.01000,62.1250,100,47,0.24982
1925690,0.02000,61.1250,100,47,0.26081
1925700,0.03500,59.7500,100,47,0.29621
1925710,0.05000,59.3125,100,47,0.31990
1925720,0.04500,58.9375,100,47,0.34676
1925730,0.03500,58.6875,100,47,0.37631
1925740,0.00500,58.3125,100,47,0.43004
1925750,-0.03000,58.1875,100,47,0.45958
1925760,-0.05500,58.0000,100,47,0.49035
1925770,-0.07500,57.8125,100,47,0.52088
1925780,-0.09500,57.4375,100,47,0.57656
1925790,-0.11000,57.1875,100,47,0.60098
1925800,-0.10500,57.0000,100,47,0.62295
1925810,-0.10500,56.7500,100,47,0.64200
1925820,-0.10500,56.2500,100,47,0.67253
1925830,-0.10500,56.0000,100,47,0.68376
1925840,-0.09500,55.7500,100,47,0.69109
1925850,-0.09500,55.5625,100,47,0.69524
1925860,-0.11500,55.1250,100,47,0.70037
1925870,-0.05500,54.8125,100,47,0.70037
1925880,0.26500,54.5000,100,47,0.69866
1925890,0.80500,54.1250,100,47,0.69524
1925900,0.92500,53.3750,100,47,0.68352
1925910,0.35500,52.9375,100,47,0.67521
1925920,-0.23000,52.5625,100,47,0.66545
1925930,-0.44500,52.1250,100,47,0.65446
1925940,-0.39500,51.1875,100,47,0.63272
1925950,-0.27000,50.7500,100,47,0.62051
1925960,-0.22000,50.3125,100,47,0.60733
1925970,-0.22000,49.8125,100,47,0.59365
1925980,-0.21000,48.8750,100,47,0.56630
1925990,-0.20000,48.4375,100,47,0.55287
1926000,-0.18000,48.0000,101,47,0.53968
1926010,-0.17000,47.5625,101,47,0.52723
1926020,-0.15500,46.8750,101,47,0.50379
1926030,-0.14500,46.6250,101,47,0.49304
1926040,-0.13500,46.6875,101,47,0.48376
1926050,-0.13500,47.3750,101,47,0.47570
1926060,-0.13500,52.5625,101,47,0.45788
1926070,-0.12500,57.3750,101,47,0.44908
1926080,-0.10500,63.1250,101,47,0.44054
1926090,-0.08000,69.1875,101,47,0.43199
1926100,-0.06000,80.8125,101,47,0.41563
1926110,-0.04000,85.9375,101,47,0.40757
1926120,-0.02000,90.4375,101,47,0.39976
1926130,0.00000,94.2500,101,47,0.39219
1926140,0.02500,99.3125,101,47,0.38071
1926150,0.05000,100.6250,101,47,0.37460
1926160,0.06000,101.1875,101,47,0.36850
1926170,0.07500,101.1875,101,47,0.36215
1926180,0.09000,99.7500,101,47,0.34945
1926190,0.10000,98.5000,101,47,0.34335
1926200,0.11500,97.0000,101,47,0.33700
1926210,0.11000,95.3125,101,47,0.33040
1926220,0.10000,91.7500,101,47,0.31648
1926230,0.07500,89.9375,101,47,0.30940
1926240,0.04000,88.0625,101,47,0.30379
1926250,0.01000,86.2500,101,47,0.29890
1926260,-0.01500,82.6875,101,47,0.28571
1926270,-0.03500,80.8125,101,47,0.27814
1926280,-0.04000,78.9375,101,47,0.27057
1926290,-0.04000,76.9375,101,47,0.26300
1926300,-0.03500,72.6250,101,47,0.24933
1926310,-0.03500,70.3125,101,47,0.24444
1926320,-0.02500,68.1250,101,47,0.24200
1926330,-0.02000,66.1875,101,47,0.24298
1926340,-0.01500,63.1875,101,47,0.25592
1926350,0.00000,62.1250,101,47,0.26862
1926360,0.01500,61.3125,101,47,0.28596
1926370,0.03000,60.6250,101,47,0.30769
1926380,0.04000,59.6250,101,47,0.36166
1926390,0.04000,59.3125,101,47,0.39243
1926400,0.02000,59.0625,101,47,0.42466
1926410,-0.02500,58.8125,101,47,0.45763
1926420,-0.04500,58.4375,101,47,0.52283
1926430,-0.06500,58.2500,101,47,0.55360
1926440,-0.08500,58.0625,101,47,0.57875
1926450,-0.10500,57.8125,101,47,0.60049
1926460,-0.11000,57.3750,101,47,0.64371
1926470,-0.10500,57.1250,101,47,0.66276
1926480,-0.10500,56.8750,101,47,0.67937
1926490,-0.10000,56.6250,101,47,0.69353
1926500,-0.10500,56.0625,101,47,0.71404
1926510,-0.10500,55.8750,101,47,0.72088
1926520,-0.11500,55.6875,101,47,0.72527
1926530,-0.11500,55.4375,101,47,0.72747
1926540,0.07000,54.7500,101,47,0.72454
1926550,0.55500,54.3750,101,47,0.72112
1926560,0.96000,54.0000,101,47,0.71600
1926570,0.66500,53.5625,101,47,0.70916
1926580,-0.00500,52.6875,101,47,0.69109
1926590,-0.40500,52.2500,101,47,0.68010
1926600,-0.46000,51.7500,101,47,0.67253
1926610,-0.33500,51.2500,101,47,0.66618
1926620,-0.24500,50.2500,101,47,0.64371
1926630,-0.23000,49.7500,101,47,0.63028
1926640,-0.22000,49.2500,101,47,0.61783
1926650,-0.21000,48.7500,101,47,0.60586
1926660,-0.19500,47.8750,101,47,0.58022
1926670,-0.19000,47.4375,101,47,0.56728
1926680,-0.17500,47.0625,101,47,0.55458
1926690,-0.16500,46.6875,101,47,0.54237
1926700,-0.15500,46.5625,101,47,0.51941
1926710,-0.14500,47.3125,101,47,0.50842
1926720,-0.13500,49.2500,101,47,0.49792
1926730,-0.12500,52.7500,101,47,0.48767
1926740,-0.10500,63.8125,101,47,0.47106
1926750,-0.08500,70.0625,101,47,0.46252
1926760,-0.05500,76.1875,101,47,0.45397
1926770,-0.03500,81.9375,101,47,0.44518
1926780,-0.02000,91.7500,101,47,0.42882
1926790,0.00000,95.5625,101,47,0.42100
1926800,0.02000,98.6250,101,47,0.41343
1926810,0.04000,100.8125,101,47,0.40586
1926820,0.05000,102.7500,101,47,0.39096
1926830,0.06000,102.8125,101,47,0.38364
1926840,0.07500,102.3125,101,47,0.37778
1926850,0.08000,101.4375,101,47,0.37265
1926860,0.09000,98.7500,101,47,0.35995
1926870,0.10000,97.0625,101,47,0.35287
1926880,0.11000,95.3750,101,47,0.34579
1926890,0.09000,93.5000,101,47,0.33895
1926900,0.06000,89.7500,101,47,0.32552
1926910,0.02500,87.8750,101,47,0.31868
1926920,0.00000,86.0000,101,47,0.31184
1926930,-0.02500,84.1875,101,47,0.30476
1926940,-0.03500,80.4375,101,47,0.29402
1926950,-0.03500,78.5000,101,47,0.28767
1926960,-0.03500,76.3750,101,47,0.28083
1926970,-0.02500,71.6875,101,47,0.27424
1926980,-0.01500,69.3750,101,47,0.26569
1926990,-0.01500,67.1875,101,47,0.26593
1927000,-0.00500,65.3750,101,47,0.27057
1927010,0.00000,63.9375,101,47,0.27985
1927020,0.01500,61.9375,101,47,0.31355
1927030,0.03500,61.1875,101,47,0.33700
1927040,0.05000,60.6250,101,47,0.36068
1927050,0.05000,60.1875,101,47,0.38535
1927060,0.04000,59.5625,101,47,0.44689
1927070,0.00500,59.3750,101,47,0.48034
1927080,-0.02500,59.1250,101,47,0.51429
1927090,-0.04500,58.9375,101,47,0.54774
1927100,-0.06500,58.5000,101,47,0.61001
1927110,-0.09000,58.3125,101,47,0.63761
1927120,-0.10500,58.0625,101,47,0.66252
1927130,-0.10500,57.8125,101,47,0.68474
1927140,-0.10500,57.3125,101,47,0.71453
1927150,-0.09500,57.0625,101,47,0.72723
1927160,-0.09500,56.8125,101,47,0.73846
1927170,-0.09500,56.5625,101,47,0.74774
1927180,-0.09500,56.0625,101,47,0.75971
1927190,-0.11000,55.8125,101,47,0.76264
1927200,0.00000,55.5000,101,47,0.76361
1927210,0.42000,55.1250,101,47,0.76239
1927220,0.93000,54.3125,101,47,0.75433
1927230,0.82500,53.8750,101,47,0.74750
1927240,0.16500,53.5000,101,47,0.73944
1927250,-0.33500,53.0625,101,47,0.73016
1927260,-0.47500,52.1250,101,47,0.70745
1927270,-0.37000,51.6250,101,47,0.69451
1927280,-0.25000,51.1250,101,47,0.68083
1927290,-0.22500,50.6250,101,47,0.66642
1927300,-0.21500,49.6875,101,47,0.63712
1927310,-0.20500,49.1875,101,47,0.62247
1927320,-0.19000,48.7500,101,47,0.60830
1927330,-0.17500,48.3125,101,47,0.59438
1927340,-0.16500,47.5000,101,47,0.57094
1927350,-0.16000,47.1875,101,47,0.55922
1927360,-0.15500,47.0000,101,47,0.54725
1927370,-0.14500,47.1250,101,47,0.53529
1927380,-0.14000,50.3125,101,47,0.51258
1927390,-0.13500,54.1875,101,47,0.50183
1927400,-0.12500,59.5000,101,47,0.49133
1927410,-0.11000,65.6250,101,47,0.48132
1927420,-0.08500,78.0625,101,47,0.46178
1927430,-0.06500,83.8125,101,47,0.45275
1927440,-0.04000,88.9375,101,47,0.44542
1927450,-0.01500,93.3750,101,47,0.43907
1927460,0.00000,99.8750,101,47,0.42442
1927470,0.02000,101.8125,101,47,0.41661
1927480,0.03500,103.0625,101,47,0.40904
1927490,0.04500,103.5625,101,47,0.40147
1927500,0.05500,102.8750,101,47,0.38657
1927510,0.06500,101.8750,101,47,0.37924
1927520,0.07500,100.5625,101,47,0.37167
1927530,0.08000,99.0000,101,47,0.36410
1927540,0.08500,95.5000,101,47,0.35311
1927550,0.07000,93.6250,101,47,0.34676
1927560,0.04000,91.7500,101,47,0.33993
1927570,0.01000,89.8125,101,47,0.33260
1927580,-0.02500,86.0625,101,47,0.31770
1927590,-0.04500,84.2500,101,47,0.31013
1927600,-0.05000,82.4375,101,47,0.30232
1927610,-0.05000,80.6250,101,47,0.29426
1927620,-0.04500,76.5625,101,47,0.27888
1927630,-0.04000,74.3125,101,47,0.27375
1927640,-0.03500,71.9375,101,47,0.27057
1927650,-0.03500,69.6875,101,47,0.26862
1927660,-0.03500,65.8750,101,47,0.27350
1927670,-0.03500,64.4375,101,47,0.28254
1927680,-0.02500,63.2500,101,47,0.29670
1927690,-0.00500,62.3750,101,47,0.31575
1927700,0.02000,61.0625,101,47,0.36654
1927710,0.03000,60.6250,101,47,0.39658
1927720,0.02500,60.2500,101,47,0.42906
1927730,0.00000,59.9375,101,47,0.46252
1927740,-0.03500,59.4375,101,47,0.51941
1927750,-0.06000,59.2500,101,47,0.54921
1927760,-0.08500,59.0625,101,47,0.57949
1927770,-0.11000,58.8125,101,47,0.60855
1927780,-0.12500,58.3125,101,47,0.66032
1927790,-0.12500,58.0625,101,47,0.68254
1927800,-0.12000,57.8125,101,47,0.70208
1927810,-0.12000,57.5000,101,47,0.71893
1927820,-0.11500,57.0000,101,47,0.74481
1927830,-0.10500,56.7500,101,47,0.75214
1927840,-0.10500,56.4375,101,47,0.75653
1927850,-0.12000,56.1875,101,47,0.75995
1927860,-0.09500,55.6250,101,47,0.76190
1927870,0.19500,55.3750,101,47,0.76020
1927880,0.75500,55.0000,101,47,0.75653
1927890,0.98500,54.6250,101,47,0.75116
1927900,0.48000,53.9375,101,47,0.73602
1927910,-0.20000,53.5625,101,47,0.72625
1927920,-0.49000,53.1250,101,47,0.71526
1927930,-0.43000,52.6875,101,47,0.70305
1927940,-0.29000,51.7500,101,47,0.67912
1927950,-0.23000,51.2500,101,47,0.66593
1927960,-0.22000,50.7500,101,47,0.65201
1927970,-0.22000,50.1875,101,47,0.63785
1927980,-0.21000,49.2500,101,47,0.60928
1927990,-0.19000,48.8125,101,47,0.59536
1928000,-0.18000,48.3750,102,48,0.58193
1928010,-0.18000,48.0000,102,48,0.56874
1928020,-0.18000,47.4375,102,48,0.54359
1928030,-0.18000,47.6250,102,48,0.53284
1928040,-0.17000,48.5625,102,48,0.52332
1928050,-0.16500,50.9375,102,48,0.51331
1928060,-0.15500,60.3750,102,48,0.49353
1928070,-0.14000,66.6250,102,48,0.48376
1928080,-0.11500,73.1250,102,48,0.47448
1928090,-0.08500,79.4375,102,48,0.46520
1928100,-0.05500,90.5000,102,48,0.44664
1928110,-0.03500,95.0000,102,48,0.43761
1928120,-0.01000,98.6875,102,48,0.42906
1928130,0.00500,101.5000,102,48,0.42051
1928140,0.02000,104.5000,102,48,0.40781
1928150,0.03000,104.8750,102,48,0.40098
1928160,0.04500,104.6875,102,48,0.39390
1928170,0.05500,104.0000,102,48,0.38657
1928180,0.06500,101.5625,102,48,0.37167
1928190,0.08000,100.0625,102,48,0.36410
1928200,0.09000,98.3750,102,48,0.35653
1928210,0.08000,96.5625,102,48,0.34896
1928220,0.06000,92.8750,102,48,0.33407
1928230,0.03000,91.0000,102,48,0.32845
1928240,-0.00500,89.1875,102,48,0.32332
1928250,-0.03500,87.3750,102,48,0.31673
1928260,-0.05500,83.7500,102,48,0.30208
1928270,-0.06500,81.8125,102,48,0.29426
1928280,-0.06000,79.8750,102,48,0.28645
1928290,-0.05500,75.5000,102,48,0.27228
1928300,-0.05000,73.1250,102,48,0.26740
1928310,-0.04500,70.8125,102,48,0.26545
1928320,-0.04500,68.7500,102,48,0.26716
1928330,-0.04500,66.9375,102,48,0.27350
1928340,-0.04000,64.3750,102,48,0.29670
1928350,-0.02500,63.4375,102,48,0.31551
1928360,-0.00500,62.6875,102,48,0.33895
1928370,0.01000,62.0625,102,48,0.36630
1928380,0.01500,61.2500,102,48,0.42979
1928390,0.00500,60.9375,102,48,0.46398
1928400,-0.01500,60.6875,102,48,0.49890
1928410,-0.05000,60.4375,102,48,0.53358
1928420,-0.07000,60.0000,102,48,0.59951
1928430,-0.09500,59.6875,102,48,0.62589
1928440,-0.12000,59.4375,102,48,0.64786
1928450,-0.13500,59.1875,102,48,0.67033
1928460,-0.13500,58.6250,102,48,0.71111
1928470,-0.13000,58.3125,102,48,0.72796
1928480,-0.12500,58.0000,102,48,0.74212
1928490,-0.12000,57.6250,102,48,0.75360
1928500,-0.11000,57.0000,102,48,0.76899
1928510,-0.11000,56.7500,102,48,0.77314
1928520,-0.13500,56.4375,102,48,0.77509
1928530,-0.03500,56.1250,102,48,0.77509
1928540,0.38000,55.5625,102,48,0.76825
1928550,0.92500,55.2500,102,48,0.76264
1928560,0.88500,54.9375,102,48,0.75580
1928570,0.16000,54.5625,102,48,0.74750
1928580,-0.41500,53.7500,102,48,0.72723
1928590,-0.52500,53.3750,102,48,0.71526
1928600,-0.38500,52.9375,102,48,0.70232
1928610,-0.27000,52.4375,102,48,0.68864
1928620,-0.24000,51.4375,102,48,0.65983
1928630,-0.24000,51.0000,102,48,0.64664
1928640,-0.22500,50.5000,102,48,0.63394
1928650,-0.20500,50.0625,102,48,0.61490
1928660,-0.18000,49.1875,102,48,0.57607
1928670,-0.16500,48.7500,102,48,0.56166
1928680,-0.15500,48.3750,102,48,0.54847
1928690,-0.15000,48.1250,102,48,0.53602
1928700,-0.14500,48.6875,102,48,0.51306
1928710,-0.14500,50.4375,102,48,0.50208
1928720,-0.14000,53.8750,102,48,0.49133
1928730,-0.13500,58.8750,102,48,0.48132
1928740,-0.11500,71.5000,102,48,0.46520
1928750,-0.09500,77.9375,102,48,0.45690
1928760,-0.07000,83.8750,102,48,0.44835
1928770,-0.04500,93.9375,102,48,0.43956
1928780,-0.02000,97.7500,102,48,0.42222
1928790,0.00000,100.7500,102,48,0.41392
1928800,0.02000,102.8125,102,48,0.40586
1928810,0.03500,104.0625,102,48,0.39780
1928820,0.05000,104.4375,102,48,0.38266
1928830,0.06000,103.8125,102,48,0.37680
1928840,0.08000,102.7500,102,48,0.37167
1928850,0.10000,101.4375,102,48,0.36557
1928860,0.11000,98.1875,102,48,0.35189
1928870,0.12000,96.3750,102,48,0.34457
1928880,0.11000,94.5625,102,48,0.33700
1928890,0.08500,92.7500,102,48,0.32943
1928900,0.05000,89.0000,102,48,0.31380
1928910,0.02000,87.1250,102,48,0.30623
1928920,-0.00500,85.3125,102,48,0.29890
1928930,-0.02500,83.5000,102,48,0.29158
1928940,-0.03000,79.5625,102,48,0.28083
1928950,-0.03000,77.3750,102,48,0.27424
1928960,-0.03000,75.0625,102,48,0.26764
1928970,-0.03000,72.6250,102,48,0.26203
1928980,-0.03000,67.9375,102,48,0.25763
1928990,-0.03000,66.0625,102,48,0.26081
1929000,-0.02500,64.5000,101,48,0.26886
1929010,-0.01500,63.3125,101,48,0.28205
1929020,0.00000,61.6250,101,48,0.32283
1929030,0.02000,61.1250,101,48,0.34579
1929040,0.03000,60.7500,101,48,0.36972
1929050,0.03000,60.5000,101,48,0.39829
1929060,0.00000,60.1250,101,48,0.46252
1929070,-0.03500,60.0000,101,48,0.49597
1929080,-0.06000,59.8750,101,48,0.52894
1929090,-0.08000,59.6875,101,48,0.56044
1929100,-0.10500,59.1875,101,48,0.61734
1929110,-0.12000,58.9375,101,48,0.64200
1929120,-0.12500,58.6875,101,48,0.66398
1929130,-0.12500,58.3750,101,48,0.68303
1929140,-0.12000,57.7500,101,48,0.70647
1929150,-0.11500,57.3750,101,48,0.71575
1929160,-0.10500,57.0625,101,48,0.72357
1929170,-0.10000,56.8125,101,48,0.72967
1929180,-0.12000,56.1875,101,48,0.73578
1929190,-0.09500,55.8750,101,48,0.73578
1929200,0.17500,55.5000,101,48,0.73407
1929210,0.73500,55.1875,101,48,0.73040
1929220,0.99000,54.4375,101,48,0.71819
1929230,0.46500,54.0625,101,48,0.71038
1929240,-0.21500,53.6250,101,48,0.70134
1929250,-0.48500,53.1875,101,48,0.69060
1929260,-0.42500,52.3125,101,48,0.66593
1929270,-0.27500,51.8125,101,48,0.65226
1929280,-0.21000,51.3125,101,48,0.63785
1929290,-0.20500,50.7500,101,48,0.62344
1929300,-0.20000,49.8125,101,48,0.59414
1929310,-0.19000,49.3125,101,48,0.57973
1929320,-0.17000,48.8750,101,48,0.56581
1929330,-0.15500,48.4375,101,48,0.55360
1929340,-0.14500,47.5625,101,48,0.53114
1929350,-0.13500,47.2500,101,48,0.51990
1929360,-0.12500,47.1875,101,48,0.50891
1929370,-0.12000,47.6250,101,48,0.49841
1929380,-0.11000,52.2500,101,48,0.47814
1929390,-0.09500,57.0000,101,48,0.46838
1929400,-0.06500,62.8125,101,48,0.45885
1929410,-0.03500,69.1875,101,48,0.44957
1929420,-0.00500,81.4375,101,48,0.43199
1929430,0.02000,86.8125,101,48,0.42491
1929440,0.04500,91.5000,101,48,0.41856
1929450,0.06000,95.4375,101,48,0.41123
1929460,0.08000,100.7500,101,48,0.39585
1929470,0.09000,102.0625,101,48,0.38828
1929480,0.11000,102.6875,101,48,0.38095
1929490,0.13000,102.6250,101,48,0.37363
1929500,0.14500,101.0000,101,48,0.35922
1929510,0.15500,99.6250,101,48,0.35214
1929520,0.16500,98.0625,101,48,0.34505
1929530,0.17500,96.3125,101,48,0.33944
1929540,0.16500,92.6875,101,48,0.32821
1929550,0.14000,90.8125,101,48,0.32161
1929560,0.10500,88.9375,101,48,0.31453
1929570,0.06500,85.1875,101,48,0.30720
1929580,0.03500,83.3125,101,48,0.29280
1929590,0.01000,81.4375,101,48,0.28523
1929600,0.00000,79.4375,101,48,0.27741
1929610,0.00000,77.3750,101,48,0.26935
1929620,0.00500,72.8750,101,48,0.25421
1929630,0.00500,70.6250,101,48,0.24957
1929640,0.00500,68.5000,101,48,0.24737
1929650,0.01000,66.5625,101,48,0.24689
1929660,0.01000,63.6250,101,48,0.25592
1929670,0.02000,62.5625,101,48,0.26716
1929680,0.03500,61.6875,101,48,0.28327
1929690,0.05000,61.0000,101,48,0.30403
1929700,0.06000,60.0625,101,48,0.35629
1929710,0.06000,59.7500,101,48,0.38608
1929720,0.05000,59.5000,101,48,0.41758
1929730,0.01500,59.2500,101,48,0.44591
1929740,-0.01000,58.8750,101,48,0.50110
1929750,-0.02500,58.6875,101,48,0.53040
1929760,-0.04500,58.4375,101,48,0.55897
1929770,-0.06500,58.1875,101,48,0.58584
1929780,-0.07500,57.6250,101,48,0.63272
1929790,-0.08000,57.3750,101,48,0.65226
1929800,-0.08000,57.0625,101,48,0.66886
1929810,-0.08000,56.8125,101,48,0.68254
1929820,-0.07500,56.2500,101,48,0.70183
1929830,-0.07500,56.0625,101,48,0.70647
1929840,-0.07500,55.8125,101,48,0.70867
1929850,-0.09500,55.5625,101,48,0.70989
1929860,0.02500,55.0625,101,48,0.70794
1929870,0.45500,54.7500,101,48,0.70452
1929880,0.94000,54.3750,101,48,0.69939
1929890,0.80000,54.0000,101,48,0.69255
1929900,0.14500,53.1875,101,48,0.67424
1929910,-0.33500,52.7500,101,48,0.66349
1929920,-0.45000,52.3125,101,48,0.65177
1929930,-0.33500,51.8750,101,48,0.64054
1929940,-0.22000,50.8750,101,48,0.61685
1929950,-0.19500,50.3750,101,48,0.60391
1929960,-0.19000,49.9375,101,48,0.59072
1929970,-0.18000,49.4375,101,48,0.57753
1929980,-0.17500,48.5000,101,48,0.55165
1929990,-0.16500,48.0625,101,48,0.53944
1930000,-0.14500,47.6250,101,48,0.52772
1930010,-0.13500,47.2500,101,48,0.51648
1930020,-0.12500,46.8125,101,48,0.49499
1930030,-0.11500,47.1250,101,48,0.48571
1930040,-0.10500,48.2500,101,48,0.47717
1930050,-0.10500,50.8125,101,48,0.46813
1930060,-0.10000,60.2500,101,48,0.44982
1930070,-0.08500,66.3125,101,48,0.44103
1930080,-0.06500,68.5208,101,48,0.43789
1930090,-0.04500,72.4375,101,48,0.43223
1930100,-0.02500,83.6250,101,48,0.41587
1930110,-0.00500,88.3750,101,48,0.40781
1930120,0.02000,92.3750,101,48,0.40000
1930130,0.05000,95.5625,101,48,0.39243
1930140,0.07000,99.5000,101,48,0.38095
1930150,0.08500,100.2500,101,48,0.37460
1930160,0.10000,100.3125,101,48,0.36777
1930170,0.12000,99.8125,101,48,0.36093
1930180,0.13000,97.6250,101,48,0.34652
1930190,0.14000,96.1250,101,48,0.33944
1930200,0.14000,94.3750,101,48,0.33236
1930210,0.12000,92.5625,101,48,0.32527
1930220,0.08500,88.7500,101,48,0.31087
1930230,0.05000,86.8125,101,48,0.30354
1930240,0.02000,84.8750,101,48,0.29768
1930250,0.00000,82.9375,101,48,0.29255
1930260,-0.01500,79.1875,101,48,0.27961
1930270,-0.01500,77.1875,101,48,0.27253
1930280,-0.01000,75.1250,101,48,0.26520
1930290,-0.00500,72.9375,101,48,0.25788
1930300,0.00000,68.1250,101,48,0.24444
1930310,0.00500,65.7500,101,48,0.24005
1930320,0.01000,63.6250,101,48,0.23810
1930330,0.01500,61.8750,101,48,0.23980
1930340,0.02500,59.6250,101,48,0.25372
1930350,0.04000,58.9375,101,48,0.26716
1930360,0.06000,58.5000,101,48,0.28523
1930370,0.07000,58.1250,101,48,0.30769
1930380,0.06000,57.6875,101,48,0.36264
1930390,0.04000,57.5625,101,48,0.39365
1930400,0.00000,57.4375,101,48,0.42564
1930410,-0.02500,57.3750,101,48,0.45763
1930420,-0.04500,57.1875,101,48,0.51941
1930430,-0.06500,57.0625,101,48,0.54799
1930440,-0.08000,56.8750,101,48,0.57118
1930450,-0.08500,56.6875,101,48,0.59072
1930460,-0.08500,56.2500,101,48,0.62906
1930470,-0.08500,56.0000,101,48,0.64542
1930480,-0.08500,55.7500,101,48,0.65958
1930490,-0.08500,55.4375,101,48,0.67131
1930500,-0.08500,55.0000,101,48,0.68718
1930510,-0.09500,54.8125,101,48,0.69182
1930520,-0.11000,54.6250,101,48,0.69426
1930530,0.06000,54.3750,101,48,0.69475
1930540,0.55500,53.7500,101,48,0.68913
1930550,0.98000,53.3750,101,48,0.68400
1930560,0.69500,53.0000,101,48,0.67741
1930570,0.02000,52.6250,101,48,0.66911
1930580,-0.37500,51.8125,101,48,0.64786
1930590,-0.44500,51.3125,101,48,0.63541
1930600,-0.32000,50.8750,101,48,0.62173
1930610,-0.23000,50.4375,101,48,0.60757
1930620,-0.21500,49.4375,101,48,0.57802
1930630,-0.21000,49.0000,101,48,0.56313
1930640,-0.20000,48.5000,101,48,0.55043
1930650,-0.18500,48.0625,101,48,0.53895
1930660,-0.17500,47.1250,101,48,0.51453
1930670,-0.16000,46.7500,101,48,0.50256
1930680,-0.15500,46.3750,101,48,0.49109
1930690,-0.14500,46.0625,101,48,0.48034
1930700,-0.14000,46.1250,101,48,0.46349
1930710,-0.13500,47.2500,101,48,0.45885
1930720,-0.12000,49.6875,101,48,0.45226
1930730,-0.10500,53.7500,101,48,0.44493
1930740,-0.09000,65.1875,101,48,0.43248
1930750,-0.06500,71.3125,101,48,0.42564
1930760,-0.04500,77.2500,101,48,0.41856
1930770,-0.02000,82.6875,101,48,0.41123
1930780,0.00000,91.8125,101,48,0.39707
1930790,0.02000,95.1875,101,48,0.39023
1930800,0.04000,97.8125,101,48,0.38364
1930810,0.06000,99.5625,101,48,0.37705
1930820,0.07000,100.8750,101,48,0.36386
1930830,0.08000,100.5625,101,48,0.35751
1930840,0.09000,99.8750,101,48,0.35238
1930850,0.10000,98.7500,101,48,0.34799
1930860,0.10500,95.7500,101,48,0.33675
1930870,0.10500,94.0000,101,48,0.33065
1930880,0.08500,92.1875,101,48,0.32430
1930890,0.05500,90.3125,101,48,0.31770
1930900,0.02000,86.5625,101,48,0.30403
1930910,-0.00500,84.6875,101,48,0.29719
1930920,-0.02000,82.8125,101,48,0.29011
1930930,-0.03000,81.0000,101,48,0.28303
1930940,-0.03500,77.1875,101,48,0.27326
1930950,-0.03000,75.1250,101,48,0.26740
1930960,-0.02500,72.9375,101,48,0.26105
1930970,-0.01500,70.6875,101,48,0.25495
1930980,-0.01500,66.5000,101,48,0.24762
1930990,-0.01000,64.7500,101,48,0.24860
1931000,-0.00500,63.3750,101,48,0.25372
1931010,0.00500,62.2500,101,48,0.26374
1931020,0.02000,60.5625,101,48,0.29841
1931030,0.03500,60.0000,101,48,0.32259
1931040,0.04000,59.5625,101,48,0.34676
1931050,0.04000,59.1875,101,48,0.37143
1931060,0.02000,58.5625,101,48,0.43150
1931070,-0.01000,58.3750,101,48,0.46398
1931080,-0.03500,58.1250,101,48,0.49646
1931090,-0.05500,57.9375,101,48,0.52821
1931100,-0.08000,57.5000,101,48,0.58730
1931110,-0.09500,57.2500,101,48,0.61368
1931120,-0.09500,56.9375,101,48,0.63736
1931130,-0.09500,56.6875,101,48,0.65836
1931140,-0.09500,56.1875,101,48,0.68596
1931150,-0.09500,55.9375,101,48,0.69768
1931160,-0.09000,55.6875,101,48,0.70769
1931170,-0.08500,55.4375,101,48,0.71575
1931180,-0.10000,55.0625,101,48,0.72552
1931190,-0.09500,54.8125,101,48,0.72747
1931200,0.13000,54.5000,101,48,0.72723
1931210,0.64500,54.1875,101,48,0.72527
1931220,0.98000,53.5000,101,48,0.71575
1931230,0.63000,53.0625,101,48,0.70916
1931240,-0.04500,52.6875,101,48,0.70134
1931250,-0.41000,52.2500,101,48,0.69231
1931260,-0.42500,51.3750,101,48,0.67057
1931270,-0.30000,50.9375,101,48,0.65836
1931280,-0.22000,50.5000,101,48,0.64542
1931290,-0.20500,50.0000,101,48,0.63223
1931300,-0.20000,49.0625,101,48,0.60513
1931310,-0.19000,48.5625,101,48,0.59194
1931320,-0.18500,48.0625,101,48,0.57900
1931330,-0.17500,47.6250,101,48,0.56630
1931340,-0.16000,46.8125,101,48,0.54530
1931350,-0.15500,46.4375,101,48,0.53455
1931360,-0.14500,46.1875,101,48,0.52357
1931370,-0.13500,46.1875,101,48,0.51258
1931380,-0.13500,48.1875,101,48,0.49182
1931390,-0.12000,51.3125,101,48,0.48181
1931400,-0.10000,56.0625,101,48,0.47228
1931410,-0.08500,61.8750,101,48,0.46300
1931420,-0.06500,74.2500,101,48,0.44542
1931430,-0.04500,80.0625,101,48,0.43834
1931440,-0.02500,85.3750,101,48,0.43223
1931450,0.00000,90.0625,101,48,0.42515
1931460,0.02000,97.0625,101,48,0.41050
1931470,0.03500,99.2500,101,48,0.40317
1931480,0.05000,100.6875,101,48,0.39609
1931490,0.06000,101.3125,101,48,0.38901
1931500,0.07000,100.9375,101,48,0.37534
1931510,0.08000,100.0625,101,48,0.36850
1931520,0.08500,98.8750,101,48,0.36166
1931530,0.09500,97.3750,101,48,0.35458
1931540,0.09000,93.9375,101,48,0.34457
1931550,0.07500,92.0625,101,48,0.33871
1931560,0.04500,90.1875,101,48,0.33211
1931570,0.01000,86.3750,101,48,0.32527
1931580,-0.01500,84.5000,101,48,0.31136
1931590,-0.03500,82.7500,101,48,0.30427
1931600,-0.04500,80.9375,101,48,0.29695
1931610,-0.04500,79.0625,101,48,0.28938
1931620,-0.04500,75.0625,101,48,0.27448
1931630,-0.03500,72.8125,101,48,0.26911
1931640,-0.03500,70.4375,101,48,0.26545
1931650,-0.02500,68.0000,101,48,0.26203
1931660,-0.02500,63.8750,101,48,0.26276
1931670,-0.01500,62.3750,101,48,0.26935
1931680,-0.00500,61.2500,101,48,0.28083
1931690,0.01500,60.3750,101,48,0.29719
1931700,0.03000,59.1875,101,48,0.34261
1931710,0.03500,58.8125,101,48,0.37045
1931720,0.02500,58.5000,101,48,0.40049
1931730,0.00000,58.2500,101,48,0.43199
1931740,-0.02500,57.9375,101,48,0.48669
1931750,-0.04500,57.8125,101,48,0.51600
1931760,-0.06500,57.6250,101,48,0.54603
1931770,-0.09000,57.5000,101,48,0.57534
1931780,-0.10500,57.0625,101,48,0.62882
1931790,-0.11000,56.8125,101,48,0.65177
1931800,-0.10500,56.5625,101,48,0.67204
1931810,-0.11000,56.3125,101,48,0.68962
1931820,-0.11000,55.8750,101,48,0.71673
1931830,-0.10500,55.6250,101,48,0.72454
1931840,-0.10000,55.3750,101,48,0.72943
1931850,-0.11500,55.1875,101,48,0.73358
1931860,-0.07500,54.6875,101,48,0.73822
1931870,0.20500,54.3750,101,48,0.73797
1931880,0.84500,54.0000,101,48,0.73578
1931890,0.96500,53.2500,101,48,0.73138
1931900,0.46500,52.8750,101,48,0.71746
1931910,-0.16500,52.4375,101,48,0.70794
1931920,-0.44500,52.0000,101,48,0.69695
1931930,-0.42000,51.5625,101,48,0.68474
1931940,-0.29500,50.6250,101,48,0.66056
1931950,-0.23000,50.1875,101,48,0.64713
1931960,-0.22000,49.6875,101,48,0.63297
1931970,-0.21000,49.1875,101,48,0.61856
1931980,-0.20500,48.2500,101,48,0.58999
1931990,-0.19500,47.8125,101,48,0.57631
1932000,-0.19000,47.3750,102,48,0.56337
1932010,-0.18000,47.0000,102,48,0.55092
1932020,-0.17000,46.3125,102,48,0.52698
1932030,-0.16000,46.1875,102,48,0.51697
1932040,-0.15500,46.5000,102,48,0.50794
1932050,-0.14000,47.7500,102,48,0.49841
1932060,-0.12500,54.5625,102,48,0.47937
1932070,-0.10500,60.1250,102,48,0.46984
1932080,-0.08500,66.2500,102,48,0.46056
1932090,-0.07000,72.4375,102,48,0.45153
1932100,-0.04500,83.8750,102,48,0.43443
1932110,-0.02500,88.8125,102,48,0.42637
1932120,0.00000,93.0625,102,48,0.41880
1932130,0.02000,99.1875,102,48,0.41123
1932140,0.03000,101.0000,102,48,0.39951
1932150,0.04000,102.0625,102,48,0.39316
1932160,0.05000,102.4375,102,48,0.38657
1932170,0.06000,102.2500,102,48,0.37973
1932180,0.07000,100.6250,102,48,0.36581
1932190,0.08000,99.3125,102,48,0.35873
1932200,0.08500,97.8125,102,48,0.35165
1932210,0.08000,96.1250,102,48,0.34481
1932220,0.06000,92.5625,102,48,0.33065
1932230,0.04000,90.6875,102,48,0.32527
1932240,0.00500,88.8125,102,48,0.32088
1932250,-0.02500,87.0000,102,48,0.31502
1932260,-0.04500,83.4375,102,48,0.30159
1932270,-0.04500,81.6250,102,48,0.29426
1932280,-0.04500,79.8125,102,48,0.28694
1932290,-0.04500,77.8750,102,48,0.27937
1932300,-0.04000,73.5000,102,48,0.26593
1932310,-0.03500,71.1250,102,48,0.26129
1932320,-0.02500,68.8750,102,48,0.25958
1932330,-0.02000,66.8125,102,48,0.26129
1932340,-0.01500,63.6875,102,48,0.27546
1932350,0.00000,62.5625,102,48,0.28913
1932360,0.01000,61.6875,102,48,0.30745
1932370,0.02000,61.0000,102,48,0.32991
1932380,0.02000,60.0000,102,48,0.38510
1932390,0.01000,59.6250,102,48,0.41661
1932400,-0.02000,59.3125,102,48,0.44933
1932410,-0.05500,59.0625,102,48,0.48254
1932420,-0.07500,58.5000,102,48,0.54823
1932430,-0.09500,58.3125,102,48,0.57509
1932440,-0.11500,58.0625,102,48,0.59853
1932450,-0.12500,57.5625,102,48,0.62295
1932460,-0.12500,57.2500,102,48,0.66838
1932470,-0.12500,57.0000,102,48,0.68767
1932480,-0.13000,56.6875,102,48,0.70403
1932490,-0.12500,56.4375,102,48,0.71795
1932500,-0.12500,55.9375,102,48,0.73797
1932510,-0.12500,55.6875,102,48,0.74457
1932520,-0.14500,55.4375,102,48,0.74872
1932530,-0.03000,54.9375,102,48,0.75067
1932540,0.27500,54.6250,102,48,0.74847
1932550,0.83500,54.2500,102,48,0.74530
1932560,0.90000,53.8750,102,48,0.74066
1932570,0.30000,53.5000,102,48,0.73455
1932580,-0.29500,52.6875,102,48,0.71770
1932590,-0.50500,52.3125,102,48,0.70720
1932600,-0.41500,51.8750,102,48,0.69548
1932610,-0.28500,51.4375,102,48,0.68278
1932620,-0.24500,50.5000,102,48,0.65543
1932630,-0.24000,50.0625,102,48,0.64249
1932640,-0.24000,49.5625,102,48,0.63004
1932650,-0.23000,49.1250,102,48,0.61685
1932660,-0.21500,48.1875,102,48,0.58974
1932670,-0.20000,47.8125,102,48,0.57656
1932680,-0.19500,47.3750,102,48,0.56386
1932690,-0.18000,47.0000,102,48,0.55165
1932700,-0.17000,46.8750,102,48,0.52845
1932710,-0.16000,47.5625,102,48,0.51770
1932720,-0.15000,49.4375,102,48,0.50720
1932730,-0.13500,52.9375,102,48,0.49695
1932740,-0.11500,64.1250,102,48,0.48010
1932750,-0.09500,70.5625,102,48,0.47179
1932760,-0.07500,76.8750,102,48,0.46349
1932770,-0.05000,82.8125,102,48,0.45519
1932780,-0.03000,92.8125,102,48,0.43883
1932790,-0.01000,96.6875,102,48,0.43101
1932800,0.00500,99.6875,102,48,0.42320
1932810,0.02000,101.8125,102,48,0.41563
1932820,0.03000,103.8125,102,48,0.40098
1932830,0.04500,103.8125,102,48,0.39487
1932840,0.05500,103.2500,102,48,0.38950
1932850,0.07000,102.3750,102,48,0.38315
1932860,0.08500,99.7500,102,48,0.36972
1932870,0.09000,98.1250,102,48,0.36264
1932880,0.08500,96.3750,102,48,0.35556
1932890,0.06000,94.6250,102,48,0.34872
1932900,0.03000,90.8750,102,48,0.33431
1932910,-0.00500,88.9375,102,48,0.32698
1932920,-0.02500,87.1250,102,48,0.31990
1932930,-0.04500,85.3125,102,48,0.31429
1932940,-0.05000,81.6250,102,48,0.30330
1932950,-0.05000,79.6250,102,48,0.29670
1932960,-0.04500,77.5625,102,48,0.28987
1932970,-0.04000,75.4375,102,48,0.28327
1932980,-0.03500,70.8125,102,48,0.27375
1932990,-0.03000,68.6875,102,48,0.27302
1933000,-0.03000,66.8750,102,48,0.27595
1933010,-0.02500,65.3750,102,48,0.28352
1933020,-0.01000,63.1875,102,48,0.31306
1933030,0.00500,62.3750,102,48,0.33162
1933040,0.02000,61.7500,102,48,0.35238
1933050,0.02000,61.1875,102,48,0.37802
1933060,0.00000,60.4375,102,48,0.43883
1933070,-0.03500,60.1875,102,48,0.47131
1933080,-0.06000,59.9375,102,48,0.50427
1933090,-0.07500,59.6875,102,48,0.53675
1933100,-0.10000,59.1875,102,48,0.59756
1933110,-0.12000,58.9375,102,48,0.62515
1933120,-0.13500,58.6875,102,48,0.65031
1933130,-0.13500,58.3750,102,48,0.66984
1933140,-0.13500,57.8125,102,48,0.70061
1933150,-0.13500,57.5000,102,48,0.71477
1933160,-0.13500,57.2500,102,48,0.72698
1933170,-0.12500,57.0000,102,48,0.73700
1933180,-0.12500,56.3750,102,48,0.75043
1933190,-0.15000,56.1250,102,48,0.75385
1933200,-0.04500,55.8750,102,48,0.75507
1933210,0.36000,55.5625,102,48,0.75433
1933220,0.92500,54.8750,102,48,0.74725
1933230,0.89500,54.5625,102,48,0.74115
1933240,0.17000,54.1875,102,48,0.73382
1933250,-0.40500,53.8125,102,48,0.72527
1933260,-0.51500,53.0000,102,48,0.70476
1933270,-0.38500,52.5625,102,48,0.69304
1933280,-0.26500,52.0625,102,48,0.68083
1933290,-0.24000,51.0625,102,48,0.66789
1933300,-0.24000,50.5625,102,48,0.64103
1933310,-0.22500,50.1250,102,48,0.62759
1933320,-0.21000,49.6250,102,48,0.61416
1933330,-0.19000,49.1875,102,48,0.60244
1933340,-0.17500,48.3125,102,48,0.57998
1933350,-0.17000,47.8750,102,48,0.56850
1933360,-0.16500,47.5625,102,48,0.55702
1933370,-0.16000,47.6875,102,48,0.54554
1933380,-0.15500,48.9375,102,48,0.52332
1933390,-0.14500,51.6875,102,48,0.51306
1933400,-0.13000,56.1250,102,48,0.50305
1933410,-0.11000,62.0000,102,48,0.49328
1933420,-0.08500,75.0625,102,48,0.47497
1933430,-0.06000,81.3125,102,48,0.46716
1933440,-0.04000,87.0625,102,48,0.46032
1933450,-0.02500,92.0625,102,48,0.45275
1933460,-0.00500,99.6250,102,48,0.43687
1933470,0.01000,102.0625,102,48,0.42930
1933480,0.02000,103.6875,102,48,0.42173
1933490,0.03500,104.5000,102,48,0.41416
1933500,0.05000,104.2500,102,48,0.39902
1933510,0.06000,103.3750,102,48,0.39170
1933520,0.07000,102.1875,102,48,0.38437
1933530,0.08500,100.7500,102,48,0.37851
1933540,0.09000,97.5000,102,48,0.36728
1933550,0.08000,95.7500,102,48,0.36068
1933560,0.06000,93.9375,102,48,0.35360
1933570,0.02500,92.0625,102,48,0.34628
1933580,-0.01000,88.4375,102,48,0.33162
1933590,-0.03500,86.6250,102,48,0.32430
1933600,-0.05000,84.8750,102,48,0.31722
1933610,-0.05000,81.1875,102,48,0.30256
1933620,-0.04500,79.1250,102,48,0.29524
1933630,-0.04000,77.0000,102,48,0.28962
1933640,-0.03500,74.6875,102,48,0.28547
1933650,-0.03500,72.3750,102,48,0.28132
1933660,-0.03000,68.2500,102,48,0.27912
1933670,-0.03000,66.5625,102,48,0.28352
1933680,-0.02500,65.1875,102,48,0.29255
1933690,-0.01500,64.0625,102,48,0.30647
1933700,-0.00500,62.4375,102,48,0.34847
1933710,0.01000,61.8750,102,48,0.37558
1933720,0.01000,61.4375,102,48,0.40537
1933730,0.00000,61.1250,102,48,0.43297
1933740,-0.02500,60.6250,102,48,0.49011
1933750,-0.05500,60.4375,102,48,0.52186
1933760,-0.07500,60.1875,102,48,0.55360
1933770,-0.09500,59.9375,102,48,0.58413
1933780,-0.12500,59.4375,102,48,0.63907
1933790,-0.14000,59.0625,102,48,0.66300
1933800,-0.14500,58.7500,102,48,0.68425
1933810,-0.14500,58.4375,102,48,0.70256
1933820,-0.14000,57.7500,102,48,0.73089
1933830,-0.13000,57.3750,102,48,0.73944
1933840,-0.12000,57.0000,102,48,0.74481
1933850,-0.11500,56.6875,102,48,0.74969
1933860,-0.13500,56.0625,102,48,0.75531
1933870,-0.06000,55.7500,102,48,0.75531
1933880,0.33000,55.4375,102,48,0.75360
1933890,0.91000,55.0625,102,48,0.75043
1933900,0.93000,54.4375,102,48,0.73871
1933910,0.23500,54.0625,102,48,0.73040
1933920,-0.37500,53.6875,102,48,0.72063
1933930,-0.52500,53.2500,102,48,0.71062
1933940,-0.39000,52.4375,102,48,0.68816
1933950,-0.25500,52.0000,102,48,0.67546
1933960,-0.22500,51.5000,102,48,0.66227
1933970,-0.22500,51.0000,102,48,0.64884
1933980,-0.22000,50.0000,102,48,0.62173
1933990,-0.20000,49.4375,102,48,0.60806
1934000,-0.18000,48.9375,102,48,0.59487
1934010,-0.16000,48.4375,102,48,0.58217
1934020,-0.15000,47.6250,102,48,0.55775
1934030,-0.14500,47.2500,102,48,0.54725
1934040,-0.14000,47.0625,102,48,0.53773
1934050,-0.13500,47.3125,102,48,0.52772
1934060,-0.12500,50.9375,102,48,0.50720
1934070,-0.11500,55.1875,102,48,0.49719
1934080,-0.09500,60.8125,102,48,0.48742
1934090,-0.06500,67.1875,102,48,0.47814
1934100,-0.04000,79.9375,102,48,0.45983
1934110,-0.00500,85.6250,102,48,0.45104
1934120,0.01500,90.6250,102,48,0.44249
1934130,0.04000,94.8750,102,48,0.43541
1934140,0.05000,100.6875,102,48,0.42198
1934150,0.07000,102.3125,102,48,0.41441
1934160,0.08500,103.1250,102,48,0.40684
1934170,0.10000,103.2500,102,48,0.39951
1934180,0.11000,101.8750,102,48,0.38462
1934190,0.12000,100.6250,102,48,0.37729
1934200,0.13500,99.1250,102,48,0.36996
1934210,0.14000,97.4375,102,48,0.36264
1934220,0.13000,93.8125,102,48,0.34774
1934230,0.10000,91.8750,102,48,0.34212
1934240,0.06000,90.0000,102,48,0.33724
1934250,0.02500,88.0625,102,48,0.33114
1934260,0.00000,84.3750,102,48,0.31746
1934270,-0.01500,82.5000,102,48,0.31038
1934280,-0.02000,80.5000,102,48,0.30305
1934290,-0.01500,78.5000,102,48,0.29548
1934300,-0.01500,74.0625,102,48,0.28034
1934310,-0.01000,71.6250,102,48,0.27350
1934320,-0.01000,69.2500,102,48,0.26838
1934330,-0.00500,67.0625,102,48,0.26642
1934340,-0.00500,63.6250,102,48,0.27155
1934350,0.00000,62.3750,102,48,0.27961
1934360,0.01000,61.4375,102,48,0.29255
1934370,0.02500,60.7500,102,48,0.31013
1934380,0.03500,59.8750,102,48,0.35824
1934390,0.04000,59.6250,102,48,0.38706
1934400,0.03500,59.3750,102,48,0.41807
1934410,0.01000,59.2500,102,48,0.45006
1934420,-0.02000,59.0000,102,48,0.51429
1934430,-0.03500,58.8125,102,48,0.54139
1934440,-0.05500,58.6250,102,48,0.56557
1934450,-0.08000,58.3750,102,48,0.59096
1934460,-0.09000,57.8750,102,48,0.63858
1934470,-0.09000,57.5625,102,48,0.65910
1934480,-0.08500,57.2500,102,48,0.67692
1934490,-0.08500,56.9375,102,48,0.69206
1934500,-0.08500,56.3125,102,48,0.71429
1934510,-0.08500,56.0625,102,48,0.72186
1934520,-0.08500,55.7500,102,48,0.72698
1934530,-0.10000,55.5000,102,48,0.72918
1934540,-0.00500,55.0000,102,48,0.72821
1934550,0.37000,54.6875,102,48,0.72576
1934560,0.89000,54.3750,102,48,0.72186
1934570,0.89000,54.0625,102,48,0.71624
1934580,0.22500,53.2500,102,48,0.70061
1934590,-0.32500,52.8125,102,48,0.69060
1934600,-0.47000,52.3750,102,48,0.67937
1934610,-0.36500,51.9375,102,48,0.66716
1934620,-0.24000,51.0000,102,48,0.64078
1934630,-0.20500,50.5000,102,48,0.62808
1934640,-0.20500,50.0000,102,48,0.61563
1934650,-0.19500,49.5000,102,48,0.60220
1934660,-0.19000,48.5625,102,48,0.57460
1934670,-0.17000,48.1250,102,48,0.56142
1934680,-0.15000,47.6875,102,48,0.54896
1934690,-0.14500,47.3125,102,48,0.53700
1934700,-0.13500,46.5625,102,48,0.51526
1934710,-0.13500,46.4375,102,48,0.50501
1934720,-0.13000,46.8125,102,48,0.49524
1934730,-0.12500,48.1250,102,48,0.48718
1934740,-0.11000,55.3125,102,48,0.47155
1934750,-0.09500,60.9375,102,48,0.46325
1934760,-0.07500,67.0625,102,48,0.45470
1934770,-0.05500,73.2500,102,48,0.44615
1934780,-0.02500,84.4375,102,48,0.42979
1934790,-0.00500,89.1250,102,48,0.42198
1934800,0.01500,93.0625,102,48,0.41148
1934810,0.04000,96.1250,102,48,0.39976
1934820,0.06000,99.7500,102,48,0.38339
1934830,0.08000,100.3750,102,48,0.37778
1934840,0.09500,100.3750,102,48,0.37167
1934850,0.11000,99.8125,102,48,0.36532
1934860,0.12000,97.5000,102,48,0.35238
1934870,0.13000,95.9375,102,48,0.34579
1934880,0.13000,94.1875,102,48,0.33895
1934890,0.11500,92.3125,102,48,0.33187
1934900,0.09000,88.4375,102,48,0.31770
1934910,0.06000,86.4375,102,48,0.31062
1934920,0.03000,84.5000,102,48,0.30330
1934930,0.00000,82.6250,102,48,0.29744
1934940,-0.01500,78.9375,102,48,0.28596
1934950,-0.02500,77.0625,102,48,0.27912
1934960,-0.03000,75.0625,102,48,0.27179
1934970,-0.02500,72.8750,102,48,0.26422
1934980,-0.02500,68.2500,102,48,0.25079
1934990,-0.02500,66.1250,102,48,0.24615
1935000,-0.02000,64.3125,102,48,0.24396
1935010,-0.01500,62.7500,102,48,0.24518
1935020,-0.00500,60.6250,102,48,0.25934
1935030,0.00500,59.9375,102,48,0.27131
1935040,0.02500,59.3750,102,48,0.28816
1935050,0.04000,58.9375,102,48,0.30940
1935060,0.05000,58.3125,102,48,0.36264
1935070,0.03000,58.1250,102,48,0.39292
1935080,0.00000,58.0000,102,48,0.42442
1935090,-0.02500,57.8750,102,48,0.45617
1935100,-0.04000,57.5000,102,48,0.51868
1935110,-0.06500,57.3125,102,48,0.54774
1935120,-0.08000,57.0625,102,48,0.57460
1935130,-0.09500,56.8750,102,48,0.59609
1935140,-0.09500,56.3750,102,48,0.63199
1935150,-0.09500,56.1250,102,48,0.64835
1935160,-0.09500,55.8125,102,48,0.66252
1935170,-0.09500,55.5000,102,48,0.67424
1935180,-0.09000,55.0000,102,48,0.69084
1935190,-0.09500,54.8125,102,48,0.69548
1935200,-0.12500,54.5625,102,48,0.69792
1935210,-0.00500,54.3125,102,48,0.69841
1935220,0.40000,53.7500,102,48,0.69377
1935230,0.89500,53.4375,102,48,0.68889
1935240,0.82000,53.0000,102,48,0.68278
1935250,0.16500,52.6250,102,48,0.67521
1935260,-0.33500,51.7500,102,48,0.65592
1935270,-0.46500,51.3125,102,48,0.64469
1935280,-0.36500,50.8750,102,48,0.63248
1935290,-0.25000,50.4375,102,48,0.61954
1935300,-0.21000,49.5000,102,48,0.59267
1935310,-0.21000,49.0000,102,48,0.57900
1935320,-0.19500,48.5625,102,48,0.56557
1935330,-0.18000,48.1250,102,48,0.55385
1935340,-0.17000,47.1875,102,48,0.53236
1935350,-0.16000,46.7500,102,48,0.52112
1935360,-0.15000,46.3750,102,48,0.51013
1935370,-0.14500,46.0625,102,48,0.49939
1935380,-0.13500,46.0625,102,48,0.47961
1935390,-0.12500,46.9375,102,48,0.47033
1935400,-0.11500,49.1250,102,48,0.46129
1935410,-0.10500,52.9375,102,48,0.45250
1935420,-0.08500,64.1250,102,48,0.43639
1935430,-0.06500,70.3125,102,48,0.42979
1935440,-0.04500,76.2500,102,48,0.42222
1935450,-0.02500,81.7500,102,48,0.41465
1935460,0.00000,90.8125,102,48,0.39927
1935470,0.02000,94.1875,102,48,0.39194
1935480,0.05000,96.7500,102,48,0.38486
1935490,0.06000,98.5000,102,48,0.37778
1935500,0.07500,99.7500,102,48,0.36410
1935510,0.09000,99.4375,102,48,0.35751
1935520,0.11000,98.6250,102,48,0.35067
1935530,0.11500,97.5000,102,48,0.34554
1935540,0.12500,94.4375,102,48,0.33553
1935550,0.13000,92.6250,102,48,0.32943
1935560,0.11500,90.8125,102,48,0.32308
1935570,0.09000,88.8750,102,48,0.31648
1935580,0.05500,85.0000,102,48,0.30281
1935590,0.02000,83.1250,102,48,0.29597
1935600,0.00000,81.3125,102,48,0.28913
1935610,-0.01500,79.4375,102,48,0.28205
1935620,-0.02000,75.6875,102,48,0.26960
1935630,-0.01500,73.6250,102,48,0.26496
1935640,-0.00500,71.3750,102,48,0.25885
1935650,-0.00500,69.0000,102,48,0.25275
1935660,0.00000,64.5000,102,48,0.24347
1935670,0.00500,62.6250,102,48,0.24249
1935680,0.01000,61.1250,102,48,0.24542
1935690,0.01000,60.0625,102,48,0.25299
1935700,0.03000,58.6250,102,48,0.28230
1935710,0.04000,58.1875,102,48,0.30379
1935720,0.05000,57.8750,102,48,0.32894
1935730,0.05000,57.6250,102,48,0.35360
1935740,0.03000,57.2500,102,48,0.40781
1935750,0.00000,57.1875,102,48,0.43883
1935760,-0.02500,57.0625,102,48,0.47057
1935770,-0.04500,56.9375,102,48,0.50183
1935780,-0.06500,56.6875,102,48,0.56068
1935790,-0.08500,56.4375,102,48,0.58706
1935800,-0.09500,56.2500,102,48,0.61099
1935810,-0.10000,56.0000,102,48,0.63199
1935820,-0.10500,55.4375,102,48,0.66398
1935830,-0.11000,55.1875,102,48,0.67399
1935840,-0.11000,54.9375,102,48,0.68352
1935850,-0.10500,54.6875,102,48,0.69158
1935860,-0.11000,54.2500,102,48,0.70208
1935870,-0.12500,54.0625,102,48,0.70427
1935880,0.02000,53.8125,102,48,0.70452
1935890,0.47500,53.5000,102,48,0.70281
1935900,0.96000,52.7500,102,48,0.69426
1935910,0.77000,52.3750,102,48,0.68718
1935920,0.10500,52.0000,102,48,0.67839
1935930,-0.34500,51.5625,102,48,0.66911
1935940,-0.45500,50.6875,102,48,0.64713
1935950,-0.34000,50.2500,102,48,0.63419
1935960,-0.23000,49.8125,102,48,0.62051
1935970,-0.21000,49.3750,102,48,0.60635
1935980,-0.20500,48.4375,102,48,0.57851
1935990,-0.19000,47.9375,102,48,0.56508
1936000,-0.17000,47.5000,102,48,0.55214
1936010,-0.15500,47.0625,102,48,0.53944
1936020,-0.14500,46.2500,102,48,0.51673
1936030,-0.14000,45.8750,102,48,0.50720
1936040,-0.13000,45.6250,102,48,0.49719
1936050,-0.12500,45.5625,102,48,0.48718
1936060,-0.10500,47.6250,102,48,0.46764
1936070,-0.09500,50.7500,102,48,0.45812
1936080,-0.07500,55.4375,102,48,0.44908
1936090,-0.06000,61.1875,102,48,0.44029
1936100,-0.03500,73.4375,102,48,0.42393
1936110,-0.01500,79.1875,102,48,0.41587
1936120,0.00500,84.4375,102,48,0.40830
1936130,0.02000,89.1250,102,48,0.40220
1936140,0.04000,96.1875,102,48,0.39048
1936150,0.06000,98.5000,102,48,0.38388
1936160,0.08000,99.9375,102,48,0.37729
1936170,0.09000,100.6875,102,48,0.37070
1936180,0.09500,100.3750,102,48,0.35751
1936190,0.11000,99.5000,102,48,0.35067
1936200,0.13000,98.3125,102,48,0.34408
1936210,0.13500,96.8750,102,48,0.33748
1936220,0.14000,93.4375,102,48,0.32576
1936230,0.12000,91.5625,102,48,0.32112
1936240,0.09000,89.6875,102,48,0.31526
1936250,0.05000,87.8125,102,48,0.30891
1936260,0.01000,84.0625,102,48,0.29573
1936270,-0.02000,82.2500,102,48,0.28913
1936280,-0.03500,80.5000,102,48,0.28230
1936290,-0.04000,78.6250,102,48,0.27546
1936300,-0.03500,74.6875,102,48,0.26129
1936310,-0.03500,72.4375,102,48,0.25446
1936320,-0.03500,70.1250,102,48,0.24860
1936330,-0.03000,67.8125,102,48,0.24542
1936340,-0.02500,63.8750,102,48,0.24615
1936350,-0.02500,62.4375,102,48,0.25104
1936360,-0.01000,61.3750,102,48,0.26056
1936370,0.00500,60.5000,102,48,0.27497
1936380,0.02000,59.3125,102,48,0.31746
1936390,0.02000,58.8750,102,48,0.34432
1936400,0.02000,58.5625,102,48,0.37387
1936410,0.00000,58.2500,102,48,0.40537
1936420,-0.02500,57.8125,102,48,0.46691
1936430,-0.04500,57.5625,102,48,0.49377
1936440,-0.06500,57.3750,102,48,0.52308
1936450,-0.09000,57.1875,102,48,0.55238
1936460,-0.10500,56.6875,102,48,0.60733
1936470,-0.11500,56.4375,102,48,0.63150
1936480,-0.11500,56.1875,102,48,0.65299
1936490,-0.11000,55.8750,102,48,0.67179
1936500,-0.10500,55.3750,102,48,0.70061
1936510,-0.10500,55.1250,102,48,0.71087
1936520,-0.10500,54.8750,102,48,0.71868
1936530,-0.11500,54.6875,102,48,0.72283
1936540,-0.13500,54.2500,102,48,0.72576
1936550,0.01000,53.9375,102,48,0.72552
1936560,0.46500,53.6875,102,48,0.72381
1936570,0.93500,53.3125,102,48,0.72039
1936580,0.77500,52.5625,102,48,0.70891
1936590,0.10000,52.1875,102,48,0.70061
1936600,-0.36000,51.8125,102,48,0.69060
1936610,-0.45000,51.3750,102,48,0.67937
1936620,-0.34500,50.5000,102,48,0.65470
1936630,-0.24000,50.0625,102,48,0.64274
1936640,-0.21500,49.6250,102,48,0.62955
1936650,-0.21000,49.1250,102,48,0.61587
1936660,-0.20000,48.1875,102,48,0.58852
1936670,-0.19000,47.6875,102,48,0.57534
1936680,-0.18000,47.2500,102,48,0.56239
1936690,-0.17500,46.8750,102,48,0.54969
1936700,-0.16500,46.1250,102,48,0.52552
1936710,-0.16000,45.9375,102,48,0.51404
1936720,-0.14500,46.0625,102,48,0.50427
1936730,-0.14000,46.8125,102,48,0.49573
1936740,-0.13000,52.3125,102,48,0.47546
1936750,-0.11500,57.3125,102,48,0.46520
1936760,-0.09500,63.1875,102,48,0.45788
1936770,-0.07500,69.3125,102,48,0.45006
1936780,-0.06500,81.0000,102,48,0.43346
1936790,-0.05000,86.1250,102,48,0.42540
1936800,-0.03000,90.5625,102,48,0.41758
1936810,-0.00500,94.3125,102,48,0.41001
1936820,0.02000,99.3125,102,48,0.39634
1936830,0.03500,100.6250,102,48,0.39096
1936840,0.04500,101.2500,102,48,0.38486
1936850,0.06000,101.1875,102,48,0.38169
1936860,0.07000,99.6875,102,48,0.37509
1936870,0.08000,98.4375,102,48,0.36923
1936880,0.09000,96.9375,102,48,0.36288
1936890,0.10000,95.2500,102,48,0.35604
1936900,0.08500,91.6875,102,48,0.34237
1936910,0.06000,89.8125,102,48,0.33553
1936920,0.03000,87.9375,102,48,0.33016
1936930,0.00000,86.0000,102,48,0.32527
1936940,-0.01500,82.3750,102,48,0.31233
1936950,-0.03000,80.5625,102,48,0.30501
1936960,-0.03500,78.6875,102,48,0.29744
1936970,-0.03500,76.7500,102,48,0.28987
1936980,-0.02500,72.5000,102,48,0.27497
1936990,-0.02500,70.1875,102,48,0.26886
1937000,-0.02500,68.0000,102,48,0.26471
1937010,-0.02500,66.0625,102,48,0.26349
1937020,-0.01500,63.1250,102,48,0.27277
1937030,-0.00500,62.0000,102,48,0.28278
1937040,0.01000,61.1250,102,48,0.29744
1937050,0.03000,60.4375,102,48,0.31697
1937060,0.03500,59.3750,102,48,0.36850
1937070,0.03000,59.0000,102,48,0.39853
1937080,0.00500,58.6875,102,48,0.43053
1937090,-0.02500,58.3750,102,48,0.46349
1937100,-0.05000,57.8750,102,48,0.53016
1937110,-0.06500,57.6250,102,48,0.56215
1937120,-0.08500,57.3125,102,48,0.58852
1937130,-0.10500,57.0625,102,48,0.61148
1937140,-0.11500,56.5625,102,48,0.65812
1937150,-0.12500,56.3125,102,48,0.67912
1937160,-0.12500,56.0000,102,48,0.69768
1937170,-0.12500,55.7500,102,48,0.71355
1937180,-0.12500,55.3125,102,48,0.73748
1937190,-0.12500,55.0625,102,48,0.74530
1937200,-0.13500,54.8125,102,48,0.75092
1937210,-0.13500,54.6250,102,48,0.75433
1937220,0.05000,54.0625,102,48,0.75409
1937230,0.55000,53.7500,102,48,0.75092
1937240,0.96000,53.3750,102,48,0.74652
1937250,0.66500,52.9375,102,48,0.74090
1937260,-0.13000,52.1875,102,48,0.72479
1937270,-0.42500,51.8125,102,48,0.71477
1937280,-0.47500,51.3750,102,48,0.70379
1937290,-0.35000,50.9375,102,48,0.69182
1937300,-0.25500,50.0625,102,48,0.66545
1937310,-0.24000,49.5625,102,48,0.65153
1937320,-0.23000,49.1250,102,48,0.63858
1937330,-0.21500,48.6875,102,48,0.62613
1937340,-0.20000,47.8125,102,48,0.59951
1937350,-0.19000,47.3750,102,48,0.58608
1937360,-0.18000,47.0000,102,48,0.57314
1937370,-0.17500,46.6250,102,48,0.56068
1937380,-0.17000,46.2500,102,48,0.53748
1937390,-0.16000,46.6250,102,48,0.52625
1937400,-0.15500,48.0000,102,48,0.51526
1937410,-0.14000,50.8125,102,48,0.50452
1937420,-0.12500,60.9375,102,48,0.48571
1937430,-0.10500,67.1875,102,48,0.47790
1937440,-0.07500,73.3750,102,48,0.46935
1937450,-0.05500,79.3750,102,48,0.46081
1937460,-0.03500,89.6250,102,48,0.44420
1937470,-0.02000,93.7500,102,48,0.43590
1937480,-0.00500,97.0625,102,48,0.42784
1937490,0.01500,99.5625,102,48,0.42002
1937500,0.03500,102.1250,102,48,0.40488
1937510,0.05000,102.3750,102,48,0.39731
1937520,0.06000,102.0625,102,48,0.39096
1937530,0.07500,101.3125,102,48,0.38559
1937540,0.09000,98.8125,102,48,0.37241
1937550,0.09000,97.2500,102,48,0.36532
1937560,0.08500,95.5625,102,48,0.35824
1937570,0.06000,93.7500,102,48,0.35092
1937580,0.03500,90.0000,102,48,0.33626
1937590,0.00000,88.1250,102,48,0.32918
1937600,-0.02500,86.2500,102,48,0.32234
1937610,-0.05000,84.4375,102,48,0.31526
1937620,-0.06500,80.8125,102,48,0.30281
1937630,-0.06000,79.0000,102,48,0.29792
1937640,-0.04500,77.0625,102,48,0.29133
1937650,-0.04000,75.0000,102,48,0.28425
1937660,-0.03000,70.5625,102,48,0.27179
1937670,-0.03000,68.3750,102,48,0.26838
1937680,-0.02500,66.4375,102,48,0.26838
1937690,-0.02500,64.8125,102,48,0.27277
1937700,-0.02000,62.5000,102,48,0.29646
1937710,-0.00500,61.6875,102,48,0.31575
1937720,0.01500,61.0000,102,48,0.33651
1937730,0.03000,60.4375,102,48,0.35897
1937740,0.03000,59.5625,102,48,0.41709
1937750,0.02000,59.2500,102,48,0.44957
1937760,-0.00500,58.9375,102,48,0.48303
1937770,-0.03500,58.6250,102,48,0.52454
1937780,-0.05500,58.1250,102,48,0.58706
1937790,-0.08000,57.8750,102,48,0.61392
1937800,-0.10500,57.5625,102,48,0.64005
1937810,-0.11500,57.3125,102,48,0.66422
1937820,-0.11500,56.7500,102,48,0.70256
1937830,-0.11500,56.5000,102,48,0.71526
1937840,-0.11500,56.2500,102,48,0.72796
1937850,-0.11500,56.0000,102,48,0.73919
1937860,-0.11500,55.4375,102,48,0.75507
1937870,-0.12500,55.1875,102,48,0.75995
1937880,-0.15000,55.0000,102,48,0.76264
1937890,-0.06000,54.7500,102,48,0.76337
1937900,0.32000,54.2500,102,48,0.75922
1937910,0.88000,53.8750,102,48,0.75433
1937920,0.93000,53.5625,102,48,0.74799
1937930,0.25000,53.1250,102,48,0.74042
1937940,-0.35500,52.3125,102,48,0.72161
1937950,-0.51500,51.8750,102,48,0.71038
1937960,-0.40500,51.3750,102,48,0.69792
1937970,-0.28500,50.9375,102,48,0.68474
1937980,-0.25000,50.0000,102,48,0.65641
1937990,-0.25500,49.5625,102,48,0.64200
1938000,-0.25000,49.1250,102,48,0.62759
1938010,-0.23000,48.6875,102,48,0.61343
1938020,-0.21500,47.8125,102,48,0.58803
1938030,-0.20000,47.3750,102,48,0.57729
1938040,-0.19000,47.0000,102,48,0.56606
1938050,-0.19000,46.6875,102,48,0.55458
1938060,-0.18000,46.8125,102,48,0.53236
1938070,-0.17500,47.8750,102,48,0.52161
1938080,-0.16500,50.4375,102,48,0.51111
1938090,-0.15500,54.7500,102,48,0.50085
1938100,-0.13500,66.9375,102,48,0.48107
1938110,-0.11500,73.4375,102,48,0.47131
1938120,-0.08500,79.6250,102,48,0.46300
1938130,-0.06000,85.3750,102,48,0.45568
1938140,-0.04000,94.8125,102,48,0.43932
1938150,-0.02500,98.3125,102,48,0.43101
1938160,-0.00500,101.0000,102,48,0.42295
1938170,0.01000,102.7500,102,48,0.41514
1938180,0.02000,104.0000,102,48,0.40024
1938190,0.03500,103.6875,102,48,0.39292
1938200,0.05000,103.0000,102,48,0.38559
1938210,0.06500,101.8750,102,48,0.37827
1938220,0.08000,99.0000,102,48,0.36557
1938230,0.08000,97.3750,102,48,0.36068
1938240,0.07500,95.6250,102,48,0.35458
1938250,0.07000,93.8125,102,48,0.34774
1938260,0.04500,90.1250,102,48,0.33309
1938270,0.01500,88.2500,102,48,0.32552
1938280,-0.02000,86.4375,102,48,0.31819
1938290,-0.05000,84.6875,102,48,0.31087
1938300,-0.06500,81.0625,102,48,0.29597
1938310,-0.06500,79.1875,102,48,0.28840
1938320,-0.05000,77.1250,102,48,0.28303
1938330,-0.03500,74.9375,102,48,0.27863
1938340,-0.02500,70.1875,102,48,0.27082
1938350,-0.02000,68.0000,102,48,0.27033
1938360,-0.02000,66.1250,102,48,0.27350
1938370,-0.01500,64.6250,102,48,0.28156
1938380,-0.00500,62.4375,102,48,0.31306
1938390,0.01500,61.6875,102,48,0.33578
1938400,0.03000,61.1250,102,48,0.36288
1938410,0.02000,60.6875,102,48,0.39316
1938420,0.01000,60.0625,102,48,0.44957
1938430,-0.02000,59.8750,102,48,0.48132
1938440,-0.05500,59.6875,102,48,0.51453
1938450,-0.07500,59.5000,102,48,0.54799
1938460,-0.09500,59.1250,102,48,0.61148
1938470,-0.12500,58.8750,102,48,0.64029
1938480,-0.14500,58.5625,102,48,0.66642
1938490,-0.15000,58.3125,102,48,0.68987
1938500,-0.15000,57.6875,102,48,0.72821
1938510,-0.15000,57.3125,102,48,0.74286
1938520,-0.14500,57.0625,102,48,0.75287
1938530,-0.14000,56.4375,102,48,0.75971
1938540,-0.13500,56.1250,102,48,0.77045
1938550,-0.15500,55.8125,102,48,0.77338
1938560,-0.13000,55.5000,102,48,0.77436
1938570,0.15500,55.1875,102,48,0.77363
1938580,0.74000,54.5625,102,48,0.76679
1938590,1.00000,54.2500,102,48,0.76093
1938600,0.47500,53.8750,102,48,0.75360
1938610,-0.26000,53.5000,102,48,0.74457
1938620,-0.56000,52.7500,102,48,0.72430
1938630,-0.47000,52.3125,102,48,0.71233
1938640,-0.30500,51.8750,102,48,0.69939
1938650,-0.25000,51.3750,102,48,0.68571
1938660,-0.24500,50.4375,102,48,0.65714
1938670,-0.24000,49.9375,102,48,0.64274
1938680,-0.22000,49.5000,102,48,0.62833
1938690,-0.20000,49.0625,102,48,0.61416
1938700,-0.18000,48.2500,102,48,0.58755
1938710,-0.17000,47.8750,102,48,0.57485
1938720,-0.16500,47.5000,102,48,0.56386
1938730,-0.16500,47.3750,102,48,0.55385
1938740,-0.17000,48.4375,102,48,0.53260
1938750,-0.17000,50.7500,102,48,0.52210
1938760,-0.15000,54.6875,102,48,0.51160
1938770,-0.13000,60.1250,102,48,0.50134
1938780,-0.11500,73.0625,102,48,0.48205
1938790,-0.09500,79.3750,102,48,0.47057
1938800,-0.06500,85.3125,102,48,0.46032
1938810,-0.03000,90.5000,102,48,0.45299
1938820,0.00000,98.5625,102,48,0.44029
1938830,0.03000,101.1875,102,48,0.43297
1938840,0.05000,103.0000,102,48,0.42515
1938850,0.06500,103.9375,102,48,0.41734
1938860,0.07500,103.8750,102,48,0.40220
1938870,0.08000,103.0625,102,48,0.39463
1938880,0.09000,101.9375,102,48,0.38706
1938890,0.10000,100.5000,102,48,0.37973
1938900,0.10000,97.2500,102,48,0.35678
1938910,0.09500,95.5000,102,48,0.34725
1938920,0.06500,93.6250,102,48,0.34042
1938930,0.02500,89.8750,102,48,0.32869
1938940,-0.01000,88.0000,102,48,0.32186
1938950,-0.04500,86.1250,102,48,0.31502
1938960,-0.06500,84.2500,102,48,0.30794
1938970,-0.07500,82.4375,102,48,0.30061
1938980,-0.07500,78.4375,102,48,0.28547
1938990,-0.06500,76.2500,102,48,0.27814
1939000,-0.05500,74.0000,102,48,0.27131
1939010,-0.04500,71.6250,102,48,0.26569
1939020,-0.04500,67.3750,102,48,0.26300
1939030,-0.04000,65.6875,102,48,0.26545
1939040,-0.02500,64.2500,102,48,0.27179
1939050,-0.01500,63.1250,102,48,0.28278
1939060,0.00000,61.5000,102,48,0.31917
1939070,0.02000,61.0000,102,48,0.34383
1939080,0.03500,60.5625,102,48,0.37167
1939090,0.04000,60.2500,102,48,0.40220
1939100,0.02000,59.8125,102,48,0.46764
1939110,-0.01000,59.6250,102,48,0.50061
1939120,-0.04000,59.3750,102,48,0.52894
1939130,-0.06000,59.1875,102,48,0.55433
1939140,-0.08500,58.6875,102,48,0.60806
1939150,-0.10500,58.4375,102,48,0.63297
1939160,-0.11500,58.1250,102,48,0.65543
1939170,-0.11500,57.8750,102,48,0.67521
1939180,-0.11000,57.2500,102,48,0.70672
1939190,-0.10500,56.9375,102,48,0.71819
1939200,-0.10500,56.5625,102,48,0.72747
1939210,-0.09500,56.2500,102,48,0.73455
1939220,-0.10000,55.6250,102,48,0.73919
1939230,-0.11500,55.3750,102,48,0.73944
1939240,0.04000,55.0625,102,48,0.73846
1939250,0.52500,54.7500,102,48,0.73578
1939260,0.97500,54.0625,102,48,0.72552
1939270,0.75500,53.6875,102,48,0.71795
1939280,0.02000,53.3125,102,48,0.70867
1939290,-0.43500,52.9375,102,48,0.69817
1939300,-0.45500,52.1250,102,48,0.67424
1939310,-0.30500,51.6875,102,48,0.66105
1939320,-0.21000,51.1875,102,48,0.64884
1939330,-0.19000,50.6875,102,48,0.63687
1939340,-0.18500,49.6250,102,48,0.61050
1939350,-0.18000,49.1250,102,48,0.59683
1939360,-0.16500,48.6250,102,48,0.58339
1939370,-0.14500,48.1250,102,48,0.57045
1939380,-0.13500,47.3125,102,48,0.54530
1939390,-0.13000,46.9375,102,48,0.53309
1939400,-0.13500,46.6875,102,48,0.52137
1939410,-0.13500,46.6875,102,48,0.51013
1939420,-0.14500,49.1875,102,48,0.49182
1939430,-0.14500,52.6875,102,48,0.48278
1939440,-0.13500,57.6875,102,48,0.47375
1939450,-0.12000,63.7500,102,48,0.46471
1939460,-0.09500,76.3750,102,48,0.44689
1939470,-0.06500,82.1875,102,48,0.43834
1939480,-0.03000,87.3750,102,48,0.42979
1939490,0.00000,91.7500,102,48,0.42149
1939500,0.03000,98.1250,102,48,0.40513
1939510,0.05500,100.0625,102,48,0.39731
1939520,0.07500,101.1250,102,48,0.39096
1939530,0.09500,101.4375,102,48,0.38535
1939540,0.11000,100.3750,102,48,0.37216
1939550,0.12000,99.1875,102,48,0.36508
1939560,0.13000,97.8125,102,48,0.35775
1939570,0.14000,96.1250,102,48,0.35043
1939580,0.13000,92.5000,102,48,0.33651
1939590,0.12000,90.6250,102,48,0.32967
1939600,0.09000,88.6875,102,48,0.32259
1939610,0.05000,86.7500,102,48,0.31551
1939620,0.01500,82.8750,102,48,0.30501
1939630,-0.01000,81.0000,102,48,0.29866
1939640,-0.02500,79.1875,102,48,0.29158
1939650,-0.03000,77.2500,102,48,0.28400
1939660,-0.03000,73.0625,102,48,0.26886
1939670,-0.02000,70.7500,102,48,0.26178
1939680,-0.01500,68.4375,102,48,0.25543
1939690,-0.00500,66.3750,102,48,0.25104
1939700,0.00000,63.1250,102,48,0.25079
1939710,0.00000,61.9375,102,48,0.25665
1939720,0.01000,61.0000,102,48,0.26593
1939730,0.03000,60.2500,102,48,0.27863
1939740,0.05500,59.1875,102,48,0.31844
1939750,0.06500,58.8750,102,48,0.34432
1939760,0.06000,58.6250,102,48,0.37289
1939770,0.03500,58.4375,102,48,0.40342
1939780,0.00000,58.1250,102,48,0.46716
1939790,-0.01500,57.9375,102,48,0.49866
1939800,-0.03500,57.7500,102,48,0.52894
1939810,-0.05000,57.5625,102,48,0.55751
1939820,-0.07000,57.0625,102,48,0.60855
1939830,-0.07500,56.7500,102,48,0.62442
1939840,-0.08000,56.4375,102,48,0.64103
1939850,-0.08500,56.1875,102,48,0.65665
1939860,-0.08500,55.5625,102,48,0.68205
1939870,-0.08500,55.3125,102,48,0.69109
1939880,-0.08500,55.0000,102,48,0.69792
1939890,-0.09500,54.8125,102,48,0.70232
1939900,-0.10500,54.3750,102,48,0.70452
1939910,0.04500,54.1250,102,48,0.70281
1939920,0.52000,53.8750,102,48,0.69939
1939930,0.94500,53.5625,102,48,0.69451
1939940,0.68500,52.8125,102,48,0.68059
1939950,0.00500,52.4375,102,48,0.67155
1939960,-0.40500,52.0000,102,48,0.66129
1939970,-0.46000,51.5625,102,48,0.64982
1939980,-0.32000,50.5625,102,48,0.62491
1939990,-0.21000,50.0625,102,48,0.61148
1940000,-0.19500,49.5625,101,47,0.59805
1940010,-0.19000,49.1250,101,47,0.58462
1940020,-0.19000,48.1875,101,47,0.56142
1940030,-0.17500,47.7500,101,47,0.54969
1940040,-0.16000,47.3125,101,47,0.53773
1940050,-0.15000,46.8750,101,47,0.52601
1940060,-0.14000,46.1250,101,47,0.50379
1940070,-0.13500,45.9375,101,47,0.49353
1940080,-0.12500,46.0000,101,47,0.48352
1940090,-0.11500,46.8125,101,47,0.47375
1940100,-0.11500,52.5000,101,47,0.45470
1940110,-0.09500,57.6875,101,47,0.44567
1940120,-0.08000,63.6250,101,47,0.43810
1940130,-0.06500,69.8125,101,47,0.43126
1940140,-0.04500,81.2500,101,47,0.41538
1940150,-0.01500,86.1250,101,47,0.40757
1940160,0.00500,90.3125,101,47,0.40000
1940170,0.03000,93.7500,101,47,0.39243
1940180,0.05000,98.0000,101,47,0.37851
1940190,0.08000,98.9375,101,47,0.37167
1940200,0.10000,99.1875,101,47,0.36508
1940210,0.12000,98.8125,101,47,0.35849
1940220,0.12500,96.7500,101,47,0.34847
1940230,0.13500,95.2500,101,47,0.34286
1940240,0.14000,93.5625,101,47,0.33651
1940250,0.14000,91.7500,101,47,0.33016
1940260,0.12000,87.8750,101,47,0.31673
1940270,0.09000,85.9375,101,47,0.30989
1940280,0.06000,84.0625,101,47,0.30305
1940290,0.03000,82.1875,101,47,0.29621
1940300,0.00500,78.3750,101,47,0.28205
1940310,-0.00500,76.5000,101,47,0.27668
1940320,-0.00500,74.5000,101,47,0.27204
1940330,-0.00500,72.4375,101,47,0.26618
1940340,-0.00500,67.8750,101,47,0.25275
1940350,-0.01000,65.5000,101,47,0.24664
1940360,-0.01500,63.2500,101,47,0.24200
1940370,-0.01000,61.3750,101,47,0.23980
1940380,-0.00500,58.8750,101,47,0.24713
1940390,0.00000,58.1250,101,47,0.25763
1940400,0.01000,57.6250,101,47,0.27326
1940410,0.03500,57.2500,101,47,0.29328
1940420,0.05000,56.8750,101,47,0.33626
1940430,0.06000,56.7500,101,47,0.36313
1940440,0.04500,56.6875,101,47,0.39243
1940450,0.01000,56.5625,101,47,0.45446
1940460,-0.01000,56.4375,101,47,0.48523
1940470,-0.03000,56.3125,101,47,0.51502
1940480,-0.05500,56.1250,101,47,0.54335
1940490,-0.08000,55.9375,101,47,0.56996
1940500,-0.09500,55.5000,101,47,0.61538
1940510,-0.10000,55.2500,101,47,0.63150
1940520,-0.10500,55.0000,101,47,0.64420
1940530,-0.11000,54.7500,101,47,0.65665
1940540,-0.11000,54.1250,101,47,0.67595
1940550,-0.10500,53.8750,101,47,0.68230
1940560,-0.10500,53.6875,101,47,0.68669
1940570,-0.12500,53.4375,101,47,0.68889
1940580,-0.00500,52.9375,101,47,0.68742
1940590,0.40000,52.5625,101,47,0.68400
1940600,0.90000,52.2500,101,47,0.67888
1940610,0.84500,51.8750,101,47,0.67204
1940620,0.19500,51.1250,101,47,0.65543
1940630,-0.31000,50.7500,101,47,0.64518
1940640,-0.45000,50.3125,101,47,0.63346
1940650,-0.35000,49.8750,101,47,0.62051
1940660,-0.23500,49.0000,101,47,0.59219
1940670,-0.20000,48.5625,101,47,0.57753
1940680,-0.20000,48.1250,101,47,0.56313
1940690,-0.19000,47.6875,101,47,0.54921
1940700,-0.18000,46.8125,101,47,0.52283
1940710,-0.17000,46.3750,101,47,0.51184
1940720,-0.16500,46.0000,101,47,0.50208
1940730,-0.16000,45.6250,101,47,0.49206
1940740,-0.15000,45.1875,101,47,0.47204
1940750,-0.14000,45.3750,101,47,0.46252
1940760,-0.13500,46.3125,101,47,0.45324
1940770,-0.13000,48.6250,101,47,0.44444
1940780,-0.11500,57.8750,101,47,0.42759
1940790,-0.09500,63.9375,101,47,0.41978
1940800,-0.07000,70.0625,101,47,0.41197
1940810,-0.04500,75.9375,101,47,0.40464
1940820,-0.03000,86.1875,101,47,0.39341
1940830,-0.01000,90.3750,101,47,0.38755
1940840,0.01000,93.8125,101,47,0.37949
1940850,0.03000,96.3750,101,47,0.37216
1940860,0.05000,99.1875,101,47,0.36093
1940870,0.06500,99.5000,101,47,0.35507
1940880,0.08000,99.3125,101,47,0.34896
1940890,0.10000,98.6875,101,47,0.34261
1940900,0.11500,96.3125,101,47,0.32967
1940910,0.13000,94.7500,101,47,0.32454
1940920,0.12500,93.0000,101,47,0.32039
1940930,0.10500,91.1875,101,47,0.31502
1940940,0.07000,87.4375,101,47,0.30623
1940950,0.04000,85.5625,101,47,0.30452
1940960,0.00000,83.6875,101,47,0.30061
1940970,-0.02500,79.9375,101,47,0.28938
1940980,-0.04000,78.1250,101,47,0.28303
1940990,-0.04500,76.2500,101,47,0.27619
1941000,-0.04500,74.3125,101,47,0.26911
1941010,-0.04000,72.1250,101,47,0.26227
1941020,-0.03500,67.6250,101,47,0.25446
1941030,-0.03000,65.5625,101,47,0.25153
1941040,-0.01500,63.7500,101,47,0.25031
1941050,-0.00500,62.3125,101,47,0.25226
1941060,0.00000,60.3125,101,47,0.26862
1941070,0.01500,59.6250,101,47,0.28400
1941080,0.03000,59.0625,101,47,0.30403
1941090,0.04500,58.6250,101,47,0.32821
1941100,0.05000,57.8750,101,47,0.38510
1941110,0.03500,57.6250,101,47,0.41245
1941120,0.00000,57.3750,101,47,0.43858
1941130,-0.02500,57.1875,101,47,0.46789
1941140,-0.04500,56.8125,101,47,0.52869
1941150,-0.05500,56.5625,101,47,0.55800
1941160,-0.08000,56.3750,101,47,0.58535
1941170,-0.09500,56.1250,101,47,0.61050
1941180,-0.09500,55.6250,101,47,0.65299
1941190,-0.09500,55.4375,101,47,0.67033
1941200,-0.09500,55.1875,101,47,0.68498
1941210,-0.09500,54.9375,101,47,0.69695
1941220,-0.10000,54.5625,101,47,0.70989
1941230,-0.09500,54.3750,101,47,0.71429
1941240,-0.11000,54.1875,101,47,0.71722
1941250,-0.03500,53.9375,101,47,0.71844
1941260,0.33000,53.3750,101,47,0.71551
1941270,0.88000,53.0000,101,47,0.71136
1941280,0.89500,52.6250,101,47,0.70574
1941290,0.28500,51.7500,101,47,0.69841
1941300,-0.27000,51.3125,101,47,0.67961
1941310,-0.46500,50.8750,101,47,0.66960
1941320,-0.38500,50.4375,101,47,0.65910
1941330,-0.26000,50.0000,101,47,0.64762
1941340,-0.22500,49.0000,101,47,0.62247
1941350,-0.22000,48.5625,101,47,0.60952
1941360,-0.22000,48.0625,101,47,0.59658
1941370,-0.21000,47.6250,101,47,0.58364
