RelativeTimeMilliseconds,ECG,ART,ART (Sys),ART (Dia),PPG
1871680,-0.19000,46.3750,100,46,0.56972
1871690,-0.17500,45.9375,100,46,0.55727
1871700,-0.16000,45.1875,100,46,0.53382
1871710,-0.15500,44.9375,100,46,0.52308
1871720,-0.14500,44.8750,100,46,0.51258
1871730,-0.13500,45.4375,100,46,0.50256
1871740,-0.12500,50.3750,100,46,0.48425
1871750,-0.11000,55.2500,100,46,0.47668
1871760,-0.08500,61.2500,100,46,0.46838
1871770,-0.06500,67.5625,100,46,0.45958
1871780,-0.04500,79.3750,100,46,0.44249
1871790,-0.02500,84.5000,100,46,0.43419
1871800,-0.00500,89.0000,100,46,0.42613
1871810,0.02000,92.7500,100,46,0.41832
1871820,0.04500,97.7500,100,46,0.40293
1871830,0.06000,99.0625,100,46,0.39560
1871840,0.06500,99.5625,100,46,0.38999
1871850,0.08000,99.4375,100,46,0.38510
1871860,0.09000,97.7500,100,46,0.37265
1871870,0.10500,96.4375,100,46,0.36581
1871880,0.11500,94.8125,100,46,0.35849
1871890,0.11500,91.1875,100,46,0.35092
1871900,0.10000,89.2500,100,46,0.33529
1871910,0.07500,87.3125,100,46,0.32747
1871920,0.03500,85.3125,100,46,0.31990
1871930,0.00500,83.3750,100,46,0.31233
1871940,-0.01500,79.6875,100,46,0.29841
1871950,-0.03000,77.8125,100,46,0.29328
1871960,-0.03500,75.9375,100,46,0.28718
1871970,-0.03500,73.9375,100,46,0.28107
1871980,-0.03500,69.6875,100,46,0.27375
1871990,-0.03000,67.3750,100,46,0.27497
1872000,-0.02500,65.2500,100,47,0.28059
1872010,-0.02000,63.3750,100,47,0.29109
1872020,-0.01500,60.5625,100,47,0.32772
1872030,0.00000,59.5625,100,47,0.35311
1872040,0.02000,58.8125,100,47,0.37802
1872050,0.03000,58.1875,100,47,0.40366
1872060,0.04000,57.3125,100,47,0.46740
1872070,0.02000,57.0000,100,47,0.50183
1872080,-0.01500,56.6875,100,47,0.53626
1872090,-0.04500,56.5000,100,47,0.56996
1872100,-0.06500,56.1250,100,47,0.63199
1872110,-0.08500,55.9375,100,47,0.65934
1872120,-0.10500,55.7500,100,47,0.68425
1872130,-0.11500,55.5000,100,47,0.70623
1872140,-0.11500,55.1250,100,47,0.73871
1872150,-0.12000,54.8750,100,47,0.74847
1872160,-0.11500,54.6250,100,47,0.75751
1872170,-0.11000,54.3750,100,47,0.76484
1872180,-0.10500,54.0625,100,47,0.77289
1872190,-0.10500,53.8750,100,47,0.77363
1872200,-0.13917,53.6250,100,47,0.77241
1872210,-0.06000,53.3750,100,47,0.76948
1872220,0.28000,52.8750,100,47,0.75775
1872230,0.85500,52.5000,100,47,0.74921
1872240,0.96000,52.1875,100,47,0.73993
1872250,0.31500,51.8125,100,47,0.72967
1872260,-0.31000,51.0625,100,47,0.70549
1872270,-0.50500,50.6250,100,47,0.69182
1872280,-0.41500,50.1875,100,47,0.67766
1872290,-0.28000,49.2500,100,47,0.66325
1872300,-0.22500,48.7500,100,47,0.63394
1872310,-0.23000,48.3125,100,47,0.61954
1872320,-0.22500,47.8750,100,47,0.60562
1872330,-0.21500,47.4375,100,47,0.59194
1872340,-0.20000,46.5000,100,47,0.56728
1872350,-0.18000,46.1250,100,47,0.55678
1872360,-0.17000,45.7500,100,47,0.54579
1872370,-0.16500,45.4375,100,47,0.53455
1872380,-0.15500,45.7500,100,47,0.51306
1872390,-0.14500,47.1875,100,47,0.50281
1872400,-0.13500,50.2500,100,47,0.49255
1872410,-0.11500,55.1250,100,47,0.48254
1872420,-0.09500,67.6875,100,47,0.46374
1872430,-0.07500,74.0000,100,47,0.45495
1872440,-0.05500,79.8750,100,47,0.44762
1872450,-0.03500,85.1875,100,47,0.44103
1872460,-0.01500,93.6250,100,47,0.42589
1872470,0.00000,96.6250,100,47,0.41807
1872480,0.02000,98.7500,100,47,0.41050
1872490,0.04000,100.0000,100,47,0.40293
1872500,0.05500,100.4375,100,47,0.38828
1872510,0.06500,99.8125,100,47,0.38095
1872520,0.08000,98.8125,100,47,0.37338
1872530,0.09500,97.4375,100,47,0.36581
1872540,0.11000,94.1250,100,47,0.35165
1872550,0.11000,92.2500,100,47,0.34628
1872560,0.09500,90.2500,100,47,0.33993
1872570,0.06000,88.2500,100,47,0.33309
1872580,0.02000,84.3750,100,47,0.31893
1872590,-0.01500,82.5000,100,47,0.31160
1872600,-0.04000,80.6250,100,47,0.30379
1872610,-0.05500,76.8125,100,47,0.29597
1872620,-0.06000,74.8750,100,47,0.28156
1872630,-0.06000,72.8125,100,47,0.27668
1872640,-0.05500,70.6250,100,47,0.27497
1872650,-0.04500,68.4375,100,47,0.27643
1872660,-0.04500,64.4375,100,47,0.29035
1872670,-0.04500,62.8125,100,47,0.30476
1872680,-0.03500,61.5625,100,47,0.32430
1872690,-0.02000,60.5625,100,47,0.34847
1872700,0.00000,59.1875,100,47,0.40757
1872710,0.01000,58.6875,100,47,0.44078
1872720,0.01500,58.3125,100,47,0.47521
1872730,0.00000,58.0000,100,47,0.51013
1872740,-0.03000,57.5000,100,47,0.57411
1872750,-0.06500,57.3125,100,47,0.59976
1872760,-0.08500,57.1250,100,47,0.62711
1872770,-0.11000,56.6250,100,47,0.65372
1872780,-0.13000,56.3750,100,47,0.70061
1872790,-0.14000,56.1250,100,47,0.71990
1872800,-0.14000,55.8750,100,47,0.73626
1872810,-0.14000,55.6250,100,47,0.74969
1872820,-0.13500,55.1250,100,47,0.76850
1872830,-0.13000,54.8750,100,47,0.77411
1872840,-0.12500,54.6250,100,47,0.77631
1872850,-0.13500,54.3750,100,47,0.77607
1872860,-0.16000,53.8750,100,47,0.77216
1872870,-0.03500,53.5625,100,47,0.76801
1872880,0.41000,53.3125,100,47,0.76215
1872890,0.95500,53.0000,100,47,0.75458
1872900,0.85500,52.3750,100,47,0.73480
1872910,0.09000,52.0625,100,47,0.72308
1872920,-0.47000,51.6875,100,47,0.71038
1872930,-0.55000,50.9375,100,47,0.69670
1872940,-0.39500,50.5000,100,47,0.67082
1872950,-0.28000,50.0625,100,47,0.65665
1872960,-0.25500,49.6250,100,47,0.64200
1872970,-0.25500,49.1875,100,47,0.62759
1872980,-0.24500,48.3125,100,47,0.59976
1872990,-0.23000,47.8750,100,47,0.58632
1873000,-0.21500,47.3750,100,47,0.57363
1873010,-0.20500,47.0000,100,47,0.56142
1873020,-0.19500,46.3125,100,47,0.53846
1873030,-0.18500,46.1875,100,47,0.52723
1873040,-0.17000,46.5000,100,47,0.51770
1873050,-0.16500,47.8750,100,47,0.50916
1873060,-0.15500,55.6875,100,47,0.48987
1873070,-0.14500,61.8125,100,47,0.48034
1873080,-0.12500,68.3750,100,47,0.47082
1873090,-0.10500,74.8750,100,47,0.46154
1873100,-0.08000,86.5000,100,47,0.44420
1873110,-0.06000,91.3125,100,47,0.43614
1873120,-0.04000,95.3125,100,47,0.42808
1873130,-0.02000,98.3750,100,47,0.42051
1873140,-0.00500,101.9375,100,47,0.40879
1873150,0.01000,102.5000,100,47,0.40244
1873160,0.03000,102.4375,100,47,0.39536
1873170,0.05000,101.8125,100,47,0.38803
1873180,0.06500,99.4375,100,47,0.37289
1873190,0.08000,97.8125,100,47,0.36532
1873200,0.09500,96.0625,100,47,0.35775
1873210,0.09500,94.1875,100,47,0.35018
1873220,0.07500,90.2500,100,47,0.33553
1873230,0.04000,88.3125,100,47,0.32821
1873240,0.01000,86.4375,100,47,0.32259
1873250,-0.02000,84.5625,100,47,0.31770
1873260,-0.04500,80.8125,100,47,0.30427
1873270,-0.05500,78.9375,100,47,0.29695
1873280,-0.06500,77.0000,100,47,0.29011
1873290,-0.06500,74.9375,100,47,0.28449
1873300,-0.05500,70.5625,100,47,0.28132
1873310,-0.05500,68.3750,100,47,0.28620
1873320,-0.05500,66.4375,100,47,0.29646
1873330,-0.05500,64.7500,100,47,0.31184
1873340,-0.04000,62.3125,100,47,0.34237
1873350,-0.02500,61.4375,100,47,0.36532
1873360,-0.00500,60.7500,100,47,0.39341
1873370,0.00500,60.1875,100,47,0.42466
1873380,0.01000,59.3750,100,47,0.49182
1873390,-0.00500,59.1250,100,47,0.52576
1873400,-0.04000,58.9375,100,47,0.55922
1873410,-0.07000,58.6875,100,47,0.59096
1873420,-0.09500,58.3125,100,47,0.64762
1873430,-0.12500,58.1250,100,47,0.67179
1873440,-0.14500,57.8750,100,47,0.69011
1873450,-0.15000,57.6250,100,47,0.70452
1873460,-0.14500,57.1250,100,47,0.73162
1873470,-0.15000,56.8125,100,47,0.74212
1873480,-0.14500,56.5000,100,47,0.75043
1873490,-0.13500,56.1875,100,47,0.75629
1873500,-0.13500,55.6250,100,47,0.76093
1873510,-0.15000,55.3750,100,47,0.76044
1873520,-0.17000,55.0625,100,47,0.75800
1873530,0.02000,54.7500,100,47,0.75360
1873540,0.55500,54.1250,100,47,0.74066
1873550,1.03000,53.8125,100,47,0.73236
1873560,0.75000,53.5000,100,47,0.72259
1873570,-0.07500,53.1875,100,47,0.71160
1873580,-0.56000,52.5000,100,47,0.68669
1873590,-0.54500,52.1250,100,47,0.67302
1873600,-0.36000,51.6875,100,47,0.65885
1873610,-0.27000,51.3125,100,47,0.64444
1873620,-0.25500,50.3750,100,47,0.61587
1873630,-0.24500,49.8750,100,47,0.60195
1873640,-0.23000,49.3750,100,47,0.58950
1873650,-0.22000,48.8750,100,47,0.57827
1873660,-0.20000,47.9375,100,47,0.55482
1873670,-0.19500,47.5000,100,47,0.54335
1873680,-0.19000,47.1875,100,47,0.53211
1873690,-0.18500,46.9375,100,47,0.52137
1873700,-0.17500,48.1875,100,47,0.50061
1873710,-0.16000,50.8125,100,47,0.49084
1873720,-0.14500,55.1250,100,47,0.48132
1873730,-0.13000,61.0000,100,47,0.47204
1873740,-0.11000,74.0625,100,47,0.45714
1873750,-0.08500,80.3125,100,47,0.44957
1873760,-0.05500,86.0000,100,47,0.44151
1873770,-0.03500,90.9375,100,47,0.43346
1873780,-0.01500,98.1875,100,47,0.41807
1873790,0.00500,100.4375,100,47,0.41050
1873800,0.02000,101.8125,100,47,0.40293
1873810,0.04000,102.4375,100,47,0.39560
1873820,0.05500,101.7500,100,47,0.38095
1873830,0.07500,100.7500,100,47,0.37387
1873840,0.09500,99.4375,100,47,0.36825
1873850,0.11000,97.8750,100,47,0.36313
1873860,0.12000,94.3125,100,47,0.35043
1873870,0.11500,92.3750,100,47,0.34359
1873880,0.09500,90.4375,100,47,0.33651
1873890,0.06000,88.5000,100,47,0.32943
1873900,0.03000,84.6250,100,47,0.31502
1873910,0.00000,82.6875,100,47,0.30769
1873920,-0.01500,80.7500,100,47,0.30037
1873930,-0.02000,78.8125,100,47,0.29304
1873940,-0.02000,74.6250,100,47,0.28425
1873950,-0.02000,72.3750,100,47,0.28107
1873960,-0.01500,70.1250,100,47,0.27985
1873970,-0.01000,67.8750,100,47,0.28230
1873980,-0.00500,64.1875,100,47,0.30085
1873990,0.00000,62.8125,100,47,0.31770
1874000,0.01500,61.6875,99,46,0.33944
1874010,0.03500,60.8125,99,46,0.36508
1874020,0.05500,59.5625,99,46,0.42540
1874030,0.06000,59.1875,99,46,0.45836
1874040,0.05000,58.8750,99,46,0.48742
1874050,0.02000,58.6250,99,46,0.51453
1874060,-0.01000,58.2500,99,46,0.57411
1874070,-0.03500,58.0625,99,46,0.60293
1874080,-0.06500,57.8750,99,46,0.62979
1874090,-0.08500,57.6875,99,46,0.65397
1874100,-0.09500,57.1875,99,46,0.69402
1874110,-0.10000,56.9375,99,46,0.70965
1874120,-0.10000,56.6875,99,46,0.72234
1874130,-0.10000,56.3750,99,46,0.73236
1874140,-0.09500,55.7500,99,46,0.74188
1874150,-0.09000,55.5000,99,46,0.74481
1874160,-0.09500,55.2500,99,46,0.74628
1874170,-0.11500,54.9375,99,46,0.74603
1874180,-0.01500,54.3125,99,46,0.74017
1874190,0.41000,54.0000,99,46,0.73455
1874200,0.95500,53.6250,99,46,0.72698
1874210,0.86500,53.3125,99,46,0.71795
1874220,0.14000,52.6875,99,46,0.69573
1874230,-0.41000,52.3125,99,46,0.68303
1874240,-0.51000,51.9375,99,46,0.67057
1874250,-0.34500,51.5000,99,46,0.65812
1874260,-0.22000,50.5625,99,46,0.63028
1874270,-0.19000,50.0625,99,46,0.61612
1874280,-0.19000,49.5000,99,46,0.60195
1874290,-0.19000,49.0000,99,46,0.58779
1874300,-0.17500,48.0625,99,46,0.56142
1874310,-0.15500,47.5625,99,46,0.54896
1874320,-0.14500,47.1250,99,46,0.53700
1874330,-0.13500,46.3750,99,46,0.52552
1874340,-0.12500,46.1875,99,46,0.50647
1874350,-0.11000,46.3750,99,46,0.49670
1874360,-0.09500,47.5000,99,46,0.48694
1874370,-0.08500,50.0625,99,46,0.47717
1874380,-0.07500,60.1875,99,46,0.45788
1874390,-0.05500,66.5000,99,46,0.44860
1874400,-0.04000,72.7500,99,46,0.43980
1874410,-0.01500,78.6875,99,46,0.43126
1874420,0.01000,88.5625,99,46,0.41490
1874430,0.03000,92.3750,99,46,0.40708
1874440,0.06000,95.3125,99,46,0.40073
1874450,0.08000,97.3750,99,46,0.39512
1874460,0.11000,98.9375,99,46,0.38169
1874470,0.13000,98.6875,99,46,0.37460
1874480,0.14500,97.8750,99,46,0.36752
1874490,0.15000,96.6250,99,46,0.36020
1874500,0.16500,93.3125,99,46,0.34554
1874510,0.17500,91.4375,99,46,0.33822
1874520,0.17500,89.4375,99,46,0.33114
1874530,0.15000,87.4375,99,46,0.32381
1874540,0.11000,83.3750,99,46,0.31282
1874550,0.07000,81.3750,99,46,0.30647
1874560,0.04000,79.4375,99,46,0.29963
1874570,0.01000,77.5000,99,46,0.29206
1874580,0.00000,73.5625,99,46,0.27643
1874590,-0.00500,71.4375,99,46,0.26911
1874600,-0.00500,69.2500,99,46,0.26300
1874610,-0.00500,64.8750,99,46,0.25910
1874620,-0.00500,62.8750,99,46,0.26129
1874630,0.00000,61.2500,99,46,0.26911
1874640,0.01000,59.9375,99,46,0.28010
1874650,0.02000,58.9375,99,46,0.29451
1874660,0.04000,57.6250,99,46,0.33846
1874670,0.06000,57.1875,99,46,0.36606
1874680,0.07000,56.9375,99,46,0.39585
1874690,0.05500,56.7500,99,46,0.42711
1874700,0.02500,56.4375,99,46,0.49035
1874710,-0.01000,56.3125,99,46,0.52112
1874720,-0.03500,56.2500,99,46,0.55043
1874730,-0.06000,56.1250,99,46,0.57753
1874740,-0.08000,55.8125,99,46,0.61709
1874750,-0.09500,55.6250,99,46,0.63492
1874760,-0.09500,55.3750,99,46,0.65128
1874770,-0.09500,55.1250,99,46,0.66545
1874780,-0.09500,54.6250,99,46,0.68669
1874790,-0.08500,54.3750,99,46,0.69353
1874800,-0.08000,54.1250,99,46,0.69817
1874810,-0.08500,53.9375,99,46,0.70037
1874820,-0.10000,53.5000,99,46,0.69866
1874830,-0.03500,53.2500,99,46,0.69475
1874840,0.29000,52.9375,99,46,0.68938
1874850,0.84000,52.6250,99,46,0.68278
1874860,0.93000,52.0000,99,46,0.66545
1874870,0.31000,51.6250,99,46,0.65495
1874880,-0.30000,51.2500,99,46,0.64347
1874890,-0.49000,50.8125,99,46,0.63077
1874900,-0.39000,49.9375,99,46,0.60366
1874910,-0.24500,49.5000,99,46,0.58926
1874920,-0.19000,49.0000,99,46,0.57509
1874930,-0.19000,48.5000,99,46,0.56117
1874940,-0.18500,47.5625,99,46,0.53797
1874950,-0.17000,47.0625,99,46,0.52650
1874960,-0.15500,46.6250,99,46,0.51502
1874970,-0.14500,46.1875,99,46,0.50354
1874980,-0.13500,45.3750,99,46,0.48205
1874990,-0.12500,45.0625,99,46,0.47204
1875000,-0.11500,45.0000,99,46,0.46252
1875010,-0.10500,45.5000,99,46,0.45324
1875020,-0.08500,50.3125,99,46,0.43565
1875030,-0.07500,55.1875,99,46,0.42833
1875040,-0.05000,61.1250,99,46,0.42198
1875050,-0.03500,67.3125,99,46,0.41490
1875060,-0.01000,78.8750,99,46,0.40049
1875070,0.01000,83.7500,99,46,0.39341
1875080,0.03000,88.0000,99,46,0.38657
1875090,0.05500,91.3750,99,46,0.37973
1875100,0.09000,95.6875,99,46,0.36679
1875110,0.10500,96.5625,99,46,0.36044
1875120,0.13000,96.6875,99,46,0.35385
1875130,0.14500,96.2500,99,46,0.34750
1875140,0.16000,94.0625,99,46,0.33797
1875150,0.17000,92.4375,99,46,0.33236
1875160,0.17500,90.6875,99,46,0.32625
1875170,0.16500,88.6875,99,46,0.31966
1875180,0.14500,84.6875,99,46,0.30623
1875190,0.11000,82.6250,99,46,0.29939
1875200,0.06500,80.6250,99,46,0.29231
1875210,0.03000,78.6250,99,46,0.28523
1875220,0.00000,74.8125,99,46,0.27131
1875230,-0.01500,72.8125,99,46,0.26569
1875240,-0.02000,70.8125,99,46,0.26105
1875250,-0.02500,68.7500,99,46,0.25543
1875260,-0.02500,64.5000,99,46,0.24713
1875270,-0.02500,62.5625,99,46,0.24713
1875280,-0.02000,60.9375,99,46,0.25128
1875290,-0.01500,59.6875,99,46,0.26007
1875300,0.00000,57.9375,99,46,0.29231
1875310,0.02000,57.3125,99,46,0.31526
1875320,0.04000,56.8750,99,46,0.34164
1875330,0.05000,56.5625,99,46,0.37070
1875340,0.05000,56.1250,99,46,0.42369
1875350,0.03000,56.0000,99,46,0.45275
1875360,-0.00500,55.8125,99,46,0.48254
1875370,-0.03000,55.6250,99,46,0.51233
1875380,-0.05000,55.3125,99,46,0.56581
1875390,-0.08000,55.1875,99,46,0.58755
1875400,-0.10000,55.0000,99,46,0.60781
1875410,-0.10000,54.8125,99,46,0.62589
1875420,-0.09500,54.3125,99,46,0.65446
1875430,-0.09500,54.0625,99,46,0.66349
1875440,-0.09500,53.8125,99,46,0.66935
1875450,-0.10000,53.5625,99,46,0.67448
1875460,-0.10000,53.1875,99,46,0.68010
1875470,-0.11500,53.0000,99,46,0.68010
1875480,-0.09500,52.7500,99,46,0.67814
1875490,0.18500,52.5000,99,46,0.67448
1875500,0.73500,51.8750,99,46,0.66178
1875510,0.95500,51.5625,99,46,0.65324
1875520,0.47500,51.1875,99,46,0.64322
1875530,-0.18000,50.8125,99,46,0.63223
1875540,-0.48000,49.9375,99,46,0.61099
1875550,-0.43500,49.5000,99,46,0.59927
1875560,-0.28000,49.0625,99,46,0.58681
1875570,-0.21000,48.6250,99,46,0.57411
1875580,-0.20000,47.7500,99,46,0.54896
1875590,-0.20000,47.2500,99,46,0.53675
1875600,-0.19500,46.8125,99,46,0.52503
1875610,-0.18000,46.3750,99,46,0.51404
1875620,-0.16500,45.5625,99,46,0.49328
1875630,-0.16000,45.1875,99,46,0.48474
1875640,-0.14500,44.8750,99,46,0.47692
1875650,-0.13500,44.7500,99,46,0.46862
1875660,-0.12500,46.1875,99,46,0.45153
1875670,-0.11500,48.8125,99,46,0.44322
1875680,-0.10500,53.1875,99,46,0.43516
1875690,-0.08500,58.8125,99,46,0.42759
1875700,-0.06000,71.0625,99,46,0.41270
1875710,-0.04500,76.7500,99,46,0.40562
1875720,-0.02500,82.0000,99,46,0.39878
1875730,-0.00500,86.5000,99,46,0.39219
1875740,0.02000,93.3125,99,46,0.38242
1875750,0.04500,95.5000,99,46,0.37705
1875760,0.07000,96.8125,99,46,0.37118
1875770,0.08500,97.4375,99,46,0.36532
1875780,0.10000,96.6875,99,46,0.35287
1875790,0.11000,95.6250,99,46,0.34652
1875800,0.12500,94.2500,99,46,0.34017
1875810,0.13000,92.6250,99,46,0.33382
1875820,0.13000,88.8750,99,46,0.32112
1875830,0.11000,86.8750,99,46,0.31624
1875840,0.08000,84.8125,99,46,0.31209
1875850,0.04000,82.8125,99,46,0.30672
1875860,0.01000,78.9375,99,46,0.29426
1875870,-0.01000,77.0000,99,46,0.28767
1875880,-0.02500,75.1250,99,46,0.28083
1875890,-0.02500,73.1875,99,46,0.27399
1875900,-0.02500,69.1875,99,46,0.26203
1875910,-0.02500,67.0625,99,46,0.25861
1875920,-0.02000,65.0000,99,46,0.25812
1875930,-0.01500,63.0625,99,46,0.26129
1875940,-0.01500,60.1875,99,46,0.27790
1875950,-0.00500,59.1250,99,46,0.29255
1875960,0.01000,58.3125,99,46,0.31184
1875970,0.02500,57.6875,99,46,0.33529
1875980,0.04000,56.8125,99,46,0.39145
1875990,0.04500,56.5000,99,46,0.42222
1876000,0.03000,56.3125,99,46,0.45372
1876010,0.00000,56.1250,99,46,0.48498
1876020,-0.03000,55.7500,99,46,0.54530
1876030,-0.05500,55.5625,99,46,0.56947
1876040,-0.08000,55.4375,99,46,0.58999
1876050,-0.10500,55.2500,99,46,0.61099
1876060,-0.11500,54.8750,99,46,0.64860
1876070,-0.11500,54.6250,99,46,0.66374
1876080,-0.10500,54.3750,99,46,0.67643
1876090,-0.10500,53.9375,99,46,0.68669
1876100,-0.09500,53.6875,99,46,0.69988
1876110,-0.09000,53.5000,99,46,0.70305
1876120,-0.10000,53.2500,99,46,0.70403
1876130,-0.12000,53.0625,99,46,0.70305
1876140,0.01000,52.5625,99,46,0.69573
1876150,0.46000,52.2500,99,46,0.69011
1876160,0.95000,51.9375,99,46,0.68327
1876170,0.78000,51.6250,99,46,0.67521
1876180,0.09500,50.8750,99,46,0.65495
1876190,-0.38500,50.4375,99,46,0.64322
1876200,-0.49000,50.0625,99,46,0.63101
1876210,-0.36500,49.6250,99,46,0.61832
1876220,-0.24000,48.6875,99,46,0.59194
1876230,-0.21500,48.2500,99,46,0.58022
1876240,-0.21000,47.8125,99,46,0.56947
1876250,-0.20500,47.3750,99,46,0.55775
1876260,-0.19000,46.4375,99,46,0.53455
1876270,-0.18000,46.0000,99,46,0.52357
1876280,-0.17000,45.5625,99,46,0.51282
1876290,-0.16000,45.1875,99,46,0.50256
1876300,-0.15500,44.8750,99,46,0.48352
1876310,-0.14500,45.3125,99,46,0.47448
1876320,-0.13500,46.8750,99,46,0.46569
1876330,-0.13500,50.0625,99,46,0.45739
1876340,-0.12000,60.9375,99,46,0.44396
1876350,-0.10000,67.2500,99,46,0.43687
1876360,-0.07000,73.3125,99,46,0.42955
1876370,-0.04500,79.0000,99,46,0.42198
1876380,-0.02000,88.5625,99,46,0.40733
1876390,0.00000,92.2500,99,46,0.40024
1876400,0.02500,95.0625,99,46,0.39316
1876410,0.04000,97.1250,99,46,0.38632
1876420,0.06000,98.8125,99,46,0.37338
1876430,0.07500,98.6875,99,46,0.36850
1876440,0.09000,98.0625,99,46,0.36410
1876450,0.09500,97.0625,99,46,0.35873
1876460,0.10500,94.1250,99,46,0.34652
1876470,0.11000,92.3125,99,46,0.34017
1876480,0.11000,90.4375,99,46,0.33358
1876490,0.09000,88.5000,99,46,0.32698
1876500,0.06000,84.6250,99,46,0.31355
1876510,0.03000,82.6250,99,46,0.30696
1876520,0.00000,80.6875,99,46,0.30012
1876530,-0.02000,78.8125,99,46,0.29499
1876540,-0.03000,75.0000,99,46,0.28474
1876550,-0.03500,73.0000,99,46,0.27863
1876560,-0.03500,70.8750,99,46,0.27326
1876570,-0.03000,68.6875,99,46,0.26960
1876580,-0.02500,64.6250,99,46,0.27253
1876590,-0.02000,62.9375,99,46,0.28059
1876600,-0.00500,61.5000,99,46,0.29353
1876610,0.01000,60.3750,99,46,0.31111
1876620,0.04000,58.8125,99,46,0.35824
1876630,0.05000,58.2500,99,46,0.38266
1876640,0.05500,57.8125,99,46,0.40708
1876650,0.04500,57.4375,99,46,0.43541
1876660,0.01500,56.9375,99,46,0.49646
1876670,-0.02000,56.6875,99,46,0.52698
1876680,-0.04500,56.5000,99,46,0.55653
1876690,-0.07000,56.2500,99,46,0.58462
1876700,-0.09500,55.8750,99,46,0.63321
1876710,-0.11000,55.6250,99,46,0.65372
1876720,-0.11500,55.3750,99,46,0.67155
1876730,-0.11000,55.1250,99,46,0.68449
1876740,-0.11000,54.6250,99,46,0.70305
1876750,-0.10500,54.3750,99,46,0.71062
1876760,-0.10500,54.1875,99,46,0.71648
1876770,-0.10500,54.0000,99,46,0.72039
1876780,-0.12500,53.6250,99,46,0.72161
1876790,-0.07500,53.3750,99,46,0.71917
1876800,0.23000,53.0625,99,46,0.71502
1876810,0.72000,52.7500,99,46,0.70908
1876820,0.96500,52.4375,99,46,0.70159
1876830,0.53500,52.0625,99,46,0.69280
1876840,-0.14500,51.6875,99,46,0.68352
1876850,-0.47000,51.2500,99,46,0.67375
1876860,-0.45000,50.3750,99,46,0.65104
1876870,-0.30500,49.8750,99,46,0.63858
1876880,-0.23000,49.4375,99,46,0.62589
1876890,-0.22000,49.0000,99,46,0.61270
1876900,-0.22000,48.0000,99,46,0.58657
1876910,-0.21000,47.5625,99,46,0.57387
1876920,-0.20000,47.1250,99,46,0.56142
1876930,-0.18500,46.6875,99,46,0.54921
1876940,-0.17500,45.8125,99,46,0.52918
1876950,-0.16500,45.5000,99,46,0.51893
1876960,-0.15500,45.1875,99,46,0.50867
1876970,-0.14500,45.1875,99,46,0.49841
1876980,-0.13500,47.6250,99,46,0.47888
1876990,-0.12000,51.1875,99,46,0.46984
1877000,-0.10000,56.3750,100,47,0.46105
1877010,-0.07500,62.5000,100,47,0.45250
1877020,-0.05500,74.8750,100,47,0.43565
1877030,-0.03500,80.5000,100,47,0.42784
1877040,-0.01500,85.5625,100,47,0.42125
1877050,0.01000,89.9375,100,47,0.41563
1877060,0.03000,96.2500,100,47,0.40220
1877070,0.04500,98.1250,100,47,0.39536
1877080,0.05000,99.1875,100,47,0.38852
1877090,0.06500,99.5000,100,47,0.38169
1877100,0.07500,98.3750,100,47,0.36801
1877110,0.09000,97.2500,100,47,0.36117
1877120,0.10000,95.8125,100,47,0.35433
1877130,0.10500,94.1250,100,47,0.34774
1877140,0.09000,90.4375,100,47,0.33773
1877150,0.06000,88.5625,100,47,0.33187
1877160,0.02000,86.6250,100,47,0.32552
1877170,-0.00500,84.6875,100,47,0.31868
1877180,-0.02500,80.8750,100,47,0.30476
1877190,-0.03500,79.0000,100,47,0.29744
1877200,-0.04000,77.1250,100,47,0.29011
1877210,-0.04000,75.1875,100,47,0.28303
1877220,-0.03500,71.0000,100,47,0.27228
1877230,-0.03500,68.8125,100,47,0.27009
1877240,-0.03500,66.6250,100,47,0.27082
1877250,-0.03000,64.6250,100,47,0.27521
1877260,-0.02500,61.4375,100,47,0.29597
1877270,-0.00500,60.3125,100,47,0.31331
1877280,0.01000,59.4375,100,47,0.33480
1877290,0.02500,58.7500,100,47,0.36020
1877300,0.02500,57.8750,100,47,0.41856
1877310,0.01000,57.5000,100,47,0.45006
1877320,-0.02000,57.1875,100,47,0.48181
1877330,-0.05500,56.9375,100,47,0.51306
1877340,-0.08500,56.5625,100,47,0.56313
1877350,-0.11000,56.3750,100,47,0.58779
1877360,-0.13000,56.1250,100,47,0.61172
1877370,-0.14500,55.9375,100,47,0.63394
1877380,-0.15000,55.5625,100,47,0.67131
1877390,-0.14500,55.3125,100,47,0.68596
1877400,-0.14500,55.1250,100,47,0.69792
1877410,-0.14000,54.8750,100,47,0.70720
1877420,-0.13500,54.4375,100,47,0.71917
1877430,-0.14000,54.2500,100,47,0.72186
1877440,-0.16000,54.0625,100,47,0.72821
1877450,-0.04500,53.8125,100,47,0.73553
1877460,0.40000,53.2500,100,47,0.73455
1877470,0.94500,52.9375,100,47,0.72967
1877480,0.83000,52.6250,100,47,0.72259
1877490,0.10000,52.2500,100,47,0.71404
1877500,-0.43500,51.5625,100,47,0.69304
1877510,-0.54000,51.1250,100,47,0.68083
1877520,-0.40500,50.7500,100,47,0.66789
1877530,-0.28000,50.3125,100,47,0.65397
1877540,-0.26000,49.3750,100,47,0.62857
1877550,-0.26000,48.8750,100,47,0.61514
1877560,-0.25000,48.4375,100,47,0.60122
1877570,-0.24000,48.0000,100,47,0.58730
1877580,-0.22500,47.1250,100,47,0.56093
1877590,-0.21000,46.6875,100,47,0.54872
1877600,-0.20000,46.2500,100,47,0.53700
1877610,-0.18500,45.9375,100,47,0.52576
1877620,-0.17000,45.9375,100,47,0.50452
1877630,-0.16000,46.9375,100,47,0.49426
1877640,-0.15500,49.3750,100,47,0.48547
1877650,-0.14500,53.6250,100,47,0.47766
1877660,-0.13000,65.7500,100,47,0.46007
1877670,-0.11500,72.1875,100,47,0.45104
1877680,-0.09000,78.2500,100,47,0.44249
1877690,-0.06500,83.8750,100,47,0.43443
1877700,-0.04000,93.0000,100,47,0.41856
1877710,-0.01500,96.3125,100,47,0.41099
1877720,0.00000,98.7500,100,47,0.40342
1877730,0.01500,100.3750,100,47,0.39609
1877740,0.03000,101.3750,100,47,0.38510
1877750,0.05000,100.9375,100,47,0.37924
1877760,0.07000,100.0625,100,47,0.37289
1877770,0.08500,98.8125,100,47,0.36630
1877780,0.09500,95.6875,100,47,0.35238
1877790,0.10000,93.8750,100,47,0.34530
1877800,0.07000,92.0000,100,47,0.33822
1877810,0.03000,90.0625,100,47,0.33089
1877820,-0.00500,86.2500,100,47,0.31600
1877830,-0.03500,84.3750,100,47,0.30842
1877840,-0.05500,82.5000,100,47,0.30232
1877850,-0.06500,80.5625,100,47,0.29719
1877860,-0.06000,76.6875,100,47,0.28376
1877870,-0.05500,74.6250,100,47,0.27741
1877880,-0.05500,72.5000,100,47,0.27302
1877890,-0.05500,70.2500,100,47,0.27106
1877900,-0.05500,65.8750,100,47,0.27961
1877910,-0.05500,64.0625,100,47,0.29109
1877920,-0.04500,62.6250,100,47,0.30794
1877930,-0.02500,61.4375,100,47,0.32967
1877940,-0.00500,59.8750,100,47,0.37582
1877950,0.00000,59.3125,100,47,0.40464
1877960,-0.00500,58.9375,100,47,0.43663
1877970,-0.02500,58.6250,100,47,0.47033
1877980,-0.06000,58.2500,100,47,0.53895
1877990,-0.08500,58.0625,100,47,0.57192
1878000,-0.10500,57.9375,100,47,0.60342
1878010,-0.13000,57.7500,100,47,0.63272
1878020,-0.14500,57.3750,100,47,0.68327
1878030,-0.14500,57.1250,100,47,0.70427
1878040,-0.15000,56.8750,100,47,0.71966
1878050,-0.15000,56.6250,100,47,0.73114
1878060,-0.14500,56.1250,100,47,0.75165
1878070,-0.14500,55.8750,100,47,0.75897
1878080,-0.13500,55.6250,100,47,0.76386
1878090,-0.15000,55.3750,100,47,0.76654
1878100,-0.15000,54.8125,100,47,0.76557
1878110,0.09000,54.5625,100,47,0.76215
1878120,0.68000,54.1875,100,47,0.75702
1878130,1.06000,53.8750,100,47,0.75018
1878140,0.58000,53.2500,100,47,0.73333
1878150,-0.21000,52.9375,100,47,0.72308
1878160,-0.55500,52.5625,100,47,0.71160
1878170,-0.49000,52.1250,100,47,0.69915
1878180,-0.32500,51.2500,100,47,0.67179
1878190,-0.26000,50.8125,100,47,0.65763
1878200,-0.25000,50.3750,100,47,0.64322
1878210,-0.24000,49.8750,100,47,0.62882
1878220,-0.23000,48.9375,100,47,0.60073
1878230,-0.22000,48.4375,100,47,0.58706
1878240,-0.20500,48.0000,100,47,0.57509
1878250,-0.19000,47.6250,100,47,0.56435
1878260,-0.18500,46.8750,100,47,0.54164
1878270,-0.17500,46.6875,100,47,0.53040
1878280,-0.17000,46.8750,100,47,0.51941
1878290,-0.15500,48.0625,100,47,0.50891
1878300,-0.14500,55.1875,100,47,0.48938
1878310,-0.13000,61.0625,100,47,0.48010
1878320,-0.11000,67.6875,100,47,0.47106
1878330,-0.08000,74.2500,100,47,0.46203
1878340,-0.05500,86.0625,100,47,0.44737
1878350,-0.03500,91.0000,100,47,0.43956
1878360,-0.01500,95.1250,100,47,0.43150
1878370,0.01000,98.3750,100,47,0.42344
1878380,0.02500,102.0625,100,47,0.40781
1878390,0.03000,102.6875,100,47,0.40024
1878400,0.04000,102.6250,100,47,0.39292
1878410,0.05500,102.0625,100,47,0.38559
1878420,0.07000,99.8125,100,47,0.37094
1878430,0.08000,98.3125,100,47,0.36508
1878440,0.08000,96.5625,100,47,0.35995
1878450,0.07500,94.7500,100,47,0.35360
1878460,0.05000,90.9375,100,47,0.33944
1878470,0.02000,89.0000,100,47,0.33211
1878480,-0.01500,87.1250,100,47,0.32479
1878490,-0.03500,85.2500,100,47,0.31722
1878500,-0.04500,81.5000,100,47,0.30232
1878510,-0.05500,79.5625,100,47,0.29499
1878520,-0.05500,77.5625,100,47,0.28816
1878530,-0.05000,75.4375,100,47,0.28254
1878540,-0.04500,70.9375,100,47,0.27912
1878550,-0.05000,68.7500,100,47,0.28107
1878560,-0.05500,66.6875,100,47,0.28694
1878570,-0.04500,65.0000,100,47,0.29744
1878580,-0.03500,62.4375,100,47,0.33358
1878590,-0.02000,61.5625,100,47,0.35873
1878600,-0.00500,60.8125,100,47,0.38779
1878610,-0.00500,60.2500,100,47,0.41954
1878620,-0.01500,59.5000,100,47,0.48791
1878630,-0.03500,59.2500,100,47,0.51844
1878640,-0.06500,59.0000,100,47,0.54603
1878650,-0.08500,58.8125,100,47,0.57607
1878660,-0.11000,58.4375,100,47,0.63516
1878670,-0.13500,58.1875,100,47,0.66154
1878680,-0.15000,57.9375,100,47,0.68498
1878690,-0.14500,57.7500,100,47,0.70574
1878700,-0.14500,57.2500,100,47,0.73797
1878710,-0.14000,56.9375,100,47,0.74994
1878720,-0.13500,56.6250,100,47,0.75922
1878730,-0.13500,56.3125,100,47,0.76581
1878740,-0.14500,55.6875,100,47,0.76972
1878750,-0.17500,55.3750,100,47,0.76948
1878760,-0.07500,55.0625,100,47,0.76777
1878770,0.36000,54.6875,100,47,0.76435
1878780,0.94500,54.0000,100,47,0.75287
1878790,0.89500,53.6875,100,47,0.74481
1878800,0.11000,53.3750,100,47,0.73529
1878810,-0.49500,53.0625,100,47,0.72430
1878820,-0.57500,52.3750,100,47,0.69890
1878830,-0.39500,51.9375,100,47,0.68620
1878840,-0.26500,51.5000,100,47,0.67350
1878850,-0.23500,51.0625,100,47,0.65958
1878860,-0.23000,50.0625,100,47,0.63053
1878870,-0.22000,49.5625,100,47,0.61636
1878880,-0.20500,49.0625,100,47,0.60244
1878890,-0.18000,48.5625,100,47,0.58901
1878900,-0.16500,47.6250,100,47,0.56361
1878910,-0.15500,47.2500,100,47,0.55140
1878920,-0.14500,46.8750,100,47,0.53919
1878930,-0.12500,46.6250,100,47,0.52747
1878940,-0.11000,47.9375,100,47,0.50842
1878950,-0.09500,50.5625,100,47,0.49890
1878960,-0.08500,55.0625,100,47,0.48913
1878970,-0.07500,60.9375,100,47,0.47961
1878980,-0.05500,74.0000,100,47,0.46056
1878990,-0.03500,80.1250,100,47,0.45128
1879000,-0.01500,85.6250,99,47,0.44225
1879010,0.00500,90.4375,99,47,0.43370
1879020,0.03000,97.6250,99,47,0.41734
1879030,0.05500,99.8125,99,47,0.41074
1879040,0.07000,101.1875,99,47,0.40488
1879050,0.09000,101.7500,99,47,0.39805
1879060,0.10500,100.9375,99,47,0.38364
1879070,0.12000,99.8125,99,47,0.37607
1879080,0.13500,98.3750,99,47,0.36850
1879090,0.15000,96.6875,99,47,0.36068
1879100,0.15500,93.0000,99,47,0.34530
1879110,0.14000,91.0000,99,47,0.33773
1879120,0.10500,89.0000,99,47,0.33016
1879130,0.07000,87.0625,99,47,0.32259
1879140,0.03500,83.1875,99,47,0.31136
1879150,0.01000,81.3125,99,47,0.30452
1879160,-0.00500,79.3750,99,47,0.29695
1879170,-0.01000,77.4375,99,47,0.28938
1879180,-0.01500,73.2500,99,47,0.27497
1879190,-0.02000,71.0625,99,47,0.27009
1879200,-0.02500,68.8125,99,47,0.26789
1879210,-0.02000,66.7500,99,47,0.26984
1879220,-0.01500,63.3750,99,47,0.28889
1879230,0.00500,62.1250,99,47,0.30354
1879240,0.02500,61.1250,99,47,0.32137
1879250,0.05500,60.3125,99,47,0.34481
1879260,0.07000,59.1875,99,47,0.40269
1879270,0.07000,58.8125,99,47,0.43541
1879280,0.04500,58.5625,99,47,0.46935
1879290,0.01000,58.3750,99,47,0.50354
1879300,-0.01500,58.0625,99,47,0.56899
1879310,-0.04000,57.8750,99,47,0.59927
1879320,-0.07500,57.6250,99,47,0.62711
1879330,-0.08500,57.3750,99,47,0.65201
1879340,-0.09500,56.8750,99,47,0.68669
1879350,-0.09500,56.5625,99,47,0.70159
1879360,-0.09500,56.2500,99,47,0.71477
1879370,-0.09000,55.9375,99,47,0.72576
1879380,-0.08500,55.3125,99,47,0.74017
1879390,-0.07000,55.0625,99,47,0.74383
1879400,-0.08500,54.8125,99,47,0.74554
1879410,-0.07500,54.5625,99,47,0.74505
1879420,0.19000,54.0000,99,47,0.73846
1879430,0.74500,53.7500,99,47,0.73284
1879440,1.00000,53.4375,99,47,0.72576
1879450,0.52000,53.1250,99,47,0.71746
1879460,-0.16500,52.4375,99,47,0.69670
1879470,-0.47000,52.0625,99,47,0.68449
1879480,-0.40500,51.6250,99,47,0.67131
1879490,-0.24500,51.1875,99,47,0.65177
1879500,-0.17500,50.1875,99,47,0.61050
1879510,-0.16500,49.7500,99,47,0.59414
1879520,-0.16000,49.2500,99,47,0.57900
1879530,-0.15500,48.7500,99,47,0.56484
1879540,-0.14500,47.8125,99,47,0.54164
1879550,-0.12000,47.3125,99,47,0.53016
1879560,-0.10500,46.8750,99,47,0.51868
1879570,-0.09000,46.5000,99,47,0.50745
1879580,-0.07500,45.8750,99,47,0.48547
1879590,-0.06500,46.0000,99,47,0.47497
1879600,-0.05500,46.8125,99,47,0.46496
1879610,-0.05000,49.0000,99,47,0.45519
1879620,-0.03500,58.1250,99,47,0.43663
1879630,-0.02000,64.1875,99,47,0.42906
1879640,0.00000,70.3125,99,47,0.42247
1879650,0.02000,76.1875,99,47,0.41514
1879660,0.04000,86.1875,99,47,0.39976
1879670,0.06000,90.0625,99,47,0.39219
1879680,0.09000,93.0625,99,47,0.38486
1879690,0.12000,95.1875,99,47,0.37753
1879700,0.14000,96.9375,99,47,0.36288
1879710,0.16000,96.7500,99,47,0.35531
1879720,0.17000,96.0000,99,47,0.34774
1879730,0.18000,94.8750,99,47,0.34042
1879740,0.18500,91.6250,99,47,0.32943
1879750,0.18500,89.7500,99,47,0.32308
1879760,0.16500,87.6875,99,47,0.31648
1879770,0.13000,85.6250,99,47,0.30965
1879780,0.09000,81.5000,99,47,0.29524
1879790,0.05000,79.5000,99,47,0.28767
1879800,0.02000,77.5000,99,47,0.28010
1879810,0.00000,75.5625,99,47,0.27228
1879820,-0.00500,71.5625,99,47,0.25665
1879830,-0.01000,69.4375,99,47,0.25079
1879840,-0.01500,67.3125,99,47,0.24640
1879850,-0.01500,65.1875,99,47,0.24200
1879860,-0.01000,61.3750,99,47,0.23907
1879870,-0.00500,59.8750,99,47,0.24322
1879880,0.00500,58.6875,99,47,0.25226
1879890,0.02000,57.8750,99,47,0.26618
1879900,0.04000,56.8125,99,47,0.30794
1879910,0.06000,56.5000,99,47,0.33431
1879920,0.06000,56.2500,99,47,0.36337
1879930,0.04500,56.0625,99,47,0.39390
1879940,0.01000,55.8125,99,47,0.44737
1879950,-0.02000,55.6250,99,47,0.47570
1879960,-0.05000,55.5000,99,47,0.50427
1879970,-0.07500,55.3750,99,47,0.53162
1879980,-0.09500,55.0625,99,47,0.58071
1879990,-0.10500,54.8750,99,47,0.60122
1880000,-0.10500,54.6250,99,46,0.61880
1880010,-0.10000,54.4375,99,46,0.63370
1880020,-0.09500,53.9375,99,46,0.65519
1880030,-0.08500,53.6875,99,46,0.66129
1880040,-0.08500,53.5000,99,46,0.66471
1880050,-0.08500,53.3125,99,46,0.66691
1880060,-0.10000,52.8750,99,46,0.66716
1880070,0.06000,52.6250,99,46,0.66447
1880080,0.54500,52.3750,99,46,0.66007
1880090,0.96500,52.1250,99,46,0.65397
1880100,0.67500,51.4375,99,46,0.63663
1880110,-0.02000,51.0625,99,46,0.62564
1880120,-0.42500,50.6875,99,46,0.61368
1880130,-0.46500,50.3125,99,46,0.60220
1880140,-0.32000,49.4375,99,46,0.57827
1880150,-0.21500,49.0625,99,46,0.56484
1880160,-0.19500,48.5625,99,46,0.55116
1880170,-0.19500,48.1250,99,46,0.53773
1880180,-0.19000,47.1875,99,46,0.51233
1880190,-0.17000,46.8125,99,46,0.50037
1880200,-0.15500,46.3750,99,46,0.48889
1880210,-0.14500,45.9375,99,46,0.47790
1880220,-0.14000,45.1250,99,46,0.45763
1880230,-0.13000,44.8125,99,46,0.44933
1880240,-0.11500,44.6875,99,46,0.44176
1880250,-0.10500,45.0625,99,46,0.43370
1880260,-0.10000,49.2500,99,46,0.41734
1880270,-0.08500,53.7500,99,46,0.40904
1880280,-0.06500,59.3750,99,46,0.40098
1880290,-0.04500,65.4375,99,46,0.39341
1880300,-0.02000,77.0000,99,46,0.37851
1880310,0.00000,82.0000,99,46,0.37143
1880320,0.02000,86.3125,99,46,0.36459
1880330,0.05000,89.8750,99,46,0.35922
1880340,0.07000,94.4375,99,46,0.34969
1880350,0.10000,95.5625,99,46,0.34408
1880360,0.11500,95.9375,99,46,0.33822
1880370,0.13000,95.6875,99,46,0.33236
1880380,0.14000,93.7500,99,46,0.32015
1880390,0.15000,92.3125,99,46,0.31380
1880400,0.15000,90.5625,99,46,0.30745
1880410,0.14000,88.6875,99,46,0.30085
1880420,0.11000,84.7500,99,46,0.28742
1880430,0.07500,82.7500,99,46,0.28230
1880440,0.04000,80.7500,99,46,0.27790
1880450,0.01000,78.7500,99,46,0.27253
1880460,0.00000,74.9375,99,46,0.25983
1880470,-0.00500,73.0000,99,46,0.25299
1880480,-0.00500,71.0000,99,46,0.24615
1880490,-0.01000,68.9375,99,46,0.23956
1880500,-0.01500,64.5625,99,46,0.23004
1880510,-0.01500,62.5000,99,46,0.22882
1880520,-0.01000,60.6250,99,46,0.23175
1880530,-0.00500,59.1875,99,46,0.23810
1880540,0.00000,57.1875,99,46,0.26276
1880550,0.02000,56.6250,99,46,0.28230
1880560,0.03500,56.1250,99,46,0.30598
1880570,0.04000,55.8125,99,46,0.33309
1880580,0.03000,55.3750,99,46,0.39390
1880590,0.00500,55.1875,99,46,0.42589
1880600,-0.03000,55.0625,99,46,0.45763
1880610,-0.05500,55.0000,99,46,0.48913
1880620,-0.08000,54.8125,99,46,0.54725
1880630,-0.11000,54.6875,99,46,0.56996
1880640,-0.12500,54.5000,99,46,0.58901
1880650,-0.13000,54.3125,99,46,0.60830
1880660,-0.13000,53.9375,99,46,0.64127
1880670,-0.12500,53.7500,99,46,0.65421
1880680,-0.12500,53.5625,99,46,0.66447
1880690,-0.11500,53.3125,99,46,0.67228
1880700,-0.11500,52.9375,99,46,0.68083
1880710,-0.13500,52.7500,99,46,0.68181
1880720,-0.08500,52.5000,99,46,0.68059
1880730,0.22500,52.2500,99,46,0.67741
1880740,0.77500,51.6875,99,46,0.66618
1880750,0.92500,51.3750,99,46,0.65836
1880760,0.35000,51.0625,99,46,0.64908
1880770,-0.27000,50.6875,99,46,0.63883
1880780,-0.50000,49.9375,99,46,0.61490
1880790,-0.43500,49.5000,99,46,0.60220
1880800,-0.30000,49.0625,99,46,0.58877
1880810,-0.23500,48.6250,99,46,0.57509
1880820,-0.23000,47.7500,99,46,0.54823
1880830,-0.22500,47.3125,99,46,0.53675
1880840,-0.21000,46.8125,99,46,0.52625
1880850,-0.19500,46.3750,99,46,0.51502
1880860,-0.19000,45.5000,99,46,0.49231
1880870,-0.18000,45.0625,99,46,0.48181
1880880,-0.17000,44.6875,99,46,0.47155
1880890,-0.15500,44.4375,99,46,0.46178
1880900,-0.14500,45.0000,99,46,0.44371
1880910,-0.13000,46.7500,99,46,0.43492
1880920,-0.11500,50.1250,99,46,0.42637
1880930,-0.09500,55.1875,99,46,0.41954
1880940,-0.07000,67.4375,99,46,0.40708
1880950,-0.04500,73.4375,99,46,0.40024
1880960,-0.03000,79.0000,99,46,0.39341
1880970,-0.01500,84.0000,99,46,0.38681
1880980,0.00500,91.7500,99,46,0.37338
1880990,0.03500,94.5000,99,46,0.36654
1881000,0.06000,96.3750,99,46,0.35995
1881010,0.08500,97.4375,99,46,0.35360
1881020,0.10000,97.4375,99,46,0.34066
1881030,0.12000,96.6875,99,46,0.33553
1881040,0.13000,95.5000,99,46,0.33114
1881050,0.14000,94.0000,99,46,0.32576
1881060,0.14000,90.3750,99,46,0.31306
1881070,0.12500,88.4375,99,46,0.30647
1881080,0.08500,86.4375,99,46,0.29988
1881090,0.05000,84.4375,99,46,0.29328
1881100,0.01500,80.5625,99,46,0.28010
1881110,-0.00500,78.6250,99,46,0.27302
1881120,-0.02000,76.7500,99,46,0.26569
1881130,-0.02500,74.8750,99,46,0.26032
1881140,-0.03000,70.9375,99,46,0.25006
1881150,-0.03000,68.8125,99,46,0.24493
1881160,-0.03000,66.6250,99,46,0.24151
1881170,-0.03000,64.5000,99,46,0.24054
1881180,-0.02500,60.8750,99,46,0.25104
1881190,-0.02000,59.5625,99,46,0.26374
1881200,-0.00500,58.5625,99,46,0.28156
1881210,0.01500,57.8125,99,46,0.30379
1881220,0.03500,56.8125,99,46,0.35971
1881230,0.04000,56.4375,99,46,0.38706
1881240,0.03000,56.1875,99,46,0.41392
1881250,0.00000,56.0000,99,46,0.44420
1881260,-0.02500,55.6875,99,46,0.50720
1881270,-0.05500,55.5625,99,46,0.53797
1881280,-0.07500,55.4375,99,46,0.56703
1881290,-0.10500,55.0625,99,46,0.59414
1881300,-0.11500,54.8125,99,46,0.64054
1881310,-0.11500,54.6250,99,46,0.65934
1881320,-0.10500,54.3750,99,46,0.67521
1881330,-0.10500,54.1875,99,46,0.68620
1881340,-0.10000,53.8125,99,46,0.70085
1881350,-0.09500,53.6250,99,46,0.70672
1881360,-0.09500,53.4375,99,46,0.71062
1881370,-0.11500,53.2500,99,46,0.71258
1881380,-0.02500,52.8125,99,46,0.71013
1881390,0.36500,52.5625,99,46,0.70598
1881400,0.89500,52.2500,99,46,0.70012
1881410,0.86000,51.5000,99,46,0.69255
1881420,0.21500,51.1250,99,46,0.67302
1881430,-0.32500,50.6875,99,46,0.66227
1881440,-0.49000,50.3125,99,46,0.65128
1881450,-0.38500,49.8750,99,46,0.63883
1881460,-0.25000,48.9375,99,46,0.61172
1881470,-0.22000,48.4375,99,46,0.59756
1881480,-0.21500,48.0000,99,46,0.58339
1881490,-0.21000,47.5625,99,46,0.56972
1881500,-0.19500,46.6250,99,46,0.54383
1881510,-0.18000,46.2500,99,46,0.53162
1881520,-0.17000,45.8125,99,46,0.51966
1881530,-0.16000,45.4375,99,46,0.50940
1881540,-0.15000,44.9375,99,46,0.50916
1881550,-0.14500,45.0000,99,46,0.50476
1881560,-0.13000,45.6875,99,46,0.49792
1881570,-0.11500,47.6875,99,46,0.48962
1881580,-0.10500,56.6250,99,46,0.47204
1881590,-0.08500,62.7500,99,46,0.46325
1881600,-0.06500,69.0000,99,46,0.45446
1881610,-0.04500,74.9375,99,46,0.44591
1881620,-0.02500,85.3750,99,46,0.42979
1881630,-0.00500,89.5625,99,46,0.42344
1881640,0.01500,93.0625,99,46,0.41807
1881650,0.03500,95.6875,99,46,0.41172
1881660,0.05000,98.5625,99,46,0.39805
1881670,0.06500,98.9375,99,46,0.39145
1881680,0.08000,98.6875,99,46,0.38462
1881690,0.09500,97.9375,99,46,0.37753
1881700,0.10500,95.3750,99,46,0.36337
1881710,0.11000,93.8125,99,46,0.35629
1881720,0.11000,92.0625,99,46,0.34896
1881730,0.09500,90.1875,99,46,0.34335
1881740,0.07000,86.4375,99,46,0.33236
1881750,0.03000,84.5625,99,46,0.32576
1881760,0.00000,82.6250,99,46,0.31868
1881770,-0.02000,80.7500,99,46,0.31136
1881780,-0.03500,77.0000,99,46,0.29646
1881790,-0.04500,75.1250,99,46,0.28889
1881800,-0.04000,73.1250,99,46,0.28205
1881810,-0.04000,71.0000,99,46,0.27643
1881820,-0.03500,66.5625,99,46,0.27375
1881830,-0.03500,64.4375,99,46,0.27790
1881840,-0.02500,62.6250,99,46,0.28571
1881850,-0.01000,61.1250,99,46,0.29841
1881860,0.01000,59.1250,99,46,0.33846
1881870,0.03000,58.3750,99,46,0.36484
1881880,0.04000,57.8125,99,46,0.39438
1881890,0.04000,57.3750,99,46,0.42637
1881900,0.02000,56.7500,99,46,0.49377
1881910,-0.01500,56.5000,99,46,0.52772
1881920,-0.04000,56.3125,99,46,0.56068
1881930,-0.06500,56.1250,99,46,0.58828
1881940,-0.09500,55.7500,99,46,0.63736
1881950,-0.11500,55.5000,99,46,0.66154
1881960,-0.11500,55.3125,99,46,0.68376
1881970,-0.11500,55.1250,99,46,0.70354
1881980,-0.11000,54.6250,99,46,0.73504
1881990,-0.10500,54.3750,99,46,0.74652
1882000,-0.10500,54.1875,99,46,0.75507
1882010,-0.10500,54.0000,99,46,0.76093
1882020,-0.11500,53.6250,99,46,0.76508
1882030,-0.12000,53.4375,99,46,0.76337
1882040,0.06000,53.1875,99,46,0.76068
1882050,0.56500,52.9375,99,46,0.75678
1882060,0.99000,52.2500,99,46,0.74408
1882070,0.68000,51.8750,99,46,0.73553
1882080,-0.03000,51.5000,99,46,0.72552
1882090,-0.43500,51.0625,99,46,0.71429
1882100,-0.47000,50.2500,99,46,0.68864
1882110,-0.33500,49.8750,99,46,0.67473
1882120,-0.24500,49.4375,99,46,0.66056
1882130,-0.23000,48.9375,99,46,0.64762
1882140,-0.22000,48.0000,99,46,0.62125
1882150,-0.21000,47.5625,99,46,0.60733
1882160,-0.19500,47.0625,99,46,0.59341
1882170,-0.18000,46.6250,99,46,0.57998
1882180,-0.17000,45.8750,99,46,0.55482
1882190,-0.16000,45.5000,99,46,0.54286
1882200,-0.15500,45.2500,99,46,0.53162
1882210,-0.14500,45.3125,99,46,0.52088
1882220,-0.14000,48.1250,99,46,0.50159
1882230,-0.13000,51.8125,99,46,0.49353
1882240,-0.11500,57.0000,99,46,0.48474
1882250,-0.09500,63.1250,99,46,0.47595
1882260,-0.07500,75.5000,99,46,0.45836
1882270,-0.06000,81.1250,99,46,0.44982
1882280,-0.03500,86.1250,99,46,0.44151
1882290,-0.01500,90.3750,99,46,0.43321
1882300,0.01000,96.5000,99,46,0.41758
1882310,0.02500,98.3750,99,46,0.40977
1882320,0.04000,99.4375,99,46,0.40220
1882330,0.05500,99.8125,99,46,0.39609
1882340,0.07000,98.9375,99,46,0.38437
1882350,0.08500,97.8750,99,46,0.37778
1882360,0.10000,96.4375,99,46,0.37094
1882370,0.11000,94.8125,99,46,0.36386
1882380,0.11000,91.1250,99,46,0.34969
1882390,0.08000,89.1875,99,46,0.34237
1882400,0.05000,87.3125,99,46,0.33504
1882410,0.01000,85.3750,99,46,0.32772
1882420,-0.02000,81.5625,99,46,0.31429
1882430,-0.03500,79.6875,99,46,0.30916
1882440,-0.04500,77.8125,99,46,0.30281
1882450,-0.04500,75.9375,99,46,0.29573
1882460,-0.04500,71.8125,99,46,0.28303
1882470,-0.04000,69.6875,99,46,0.27912
1882480,-0.04000,67.5000,99,46,0.27863
1882490,-0.03500,65.5000,99,46,0.28230
1882500,-0.02500,62.3125,99,46,0.30403
1882510,-0.01500,61.1250,99,46,0.32259
1882520,-0.01000,60.1875,99,46,0.34603
1882530,-0.01500,58.9375,99,46,0.36947
1882540,-0.01000,58.4375,99,46,0.42320
1882550,0.00000,58.0625,99,46,0.45519
1882560,0.00000,57.7500,99,46,0.48864
1882570,-0.03500,57.5000,99,46,0.52259
1882580,-0.06000,57.0625,99,46,0.58828
1882590,-0.08500,56.9375,99,46,0.61856
1882600,-0.10500,56.6875,99,46,0.64664
1882610,-0.12500,56.5000,99,46,0.67179
1882620,-0.13000,55.9375,99,46,0.71111
1882630,-0.13000,55.6875,99,46,0.72405
1882640,-0.13500,55.4375,99,46,0.73675
1882650,-0.13500,55.1875,99,46,0.74774
1882660,-0.13500,54.6875,99,46,0.76288
1882670,-0.13000,54.4375,99,46,0.76703
1882680,-0.13000,54.1875,99,46,0.76899
1882690,-0.14500,53.9375,99,46,0.76874
1882700,0.01000,53.3750,99,46,0.76239
1882710,0.51500,53.1250,99,46,0.75629
1882720,1.01500,52.8125,99,46,0.74872
1882730,0.75500,52.5000,99,46,0.74017
1882740,-0.00500,51.8750,99,46,0.72039
1882750,-0.46500,51.5000,99,46,0.70867
1882760,-0.51000,51.1250,99,46,0.69573
1882770,-0.36000,50.2500,99,46,0.68205
1882780,-0.25500,49.8125,99,46,0.65372
1882790,-0.24000,49.3125,99,46,0.63932
1882800,-0.23000,48.8750,99,46,0.62540
1882810,-0.22500,48.3750,99,46,0.61197
1882820,-0.21500,47.5000,99,46,0.58706
1882830,-0.20000,47.0625,99,46,0.57656
1882840,-0.19000,46.6875,99,46,0.56557
1882850,-0.18000,46.3125,99,46,0.55433
1882860,-0.17000,45.8750,99,46,0.53211
1882870,-0.15500,46.1875,99,46,0.52137
1882880,-0.14500,47.4375,99,46,0.51136
1882890,-0.13500,50.3125,99,46,0.50159
1882900,-0.11500,60.9375,99,46,0.48278
1882910,-0.09500,67.5000,99,46,0.47399
1882920,-0.07000,74.0000,99,46,0.46520
1882930,-0.05000,80.0625,99,46,0.45763
1882940,-0.02500,90.3750,99,46,0.44322
1882950,-0.00500,94.3750,99,46,0.43541
1882960,0.01000,97.5625,99,46,0.42759
1882970,0.02500,99.8750,99,46,0.41978
1882980,0.03500,102.0000,99,46,0.40440
1882990,0.05000,102.0000,99,46,0.39683
1883000,0.06000,101.4375,100,47,0.38926
1883010,0.07500,100.5625,100,47,0.38193
1883020,0.08000,97.7500,100,47,0.36899
1883030,0.08000,96.1250,100,47,0.36386
1883040,0.08500,94.3750,100,47,0.35775
1883050,0.09000,92.5000,100,47,0.35116
1883060,0.08000,88.7500,100,47,0.33700
1883070,0.04500,86.8750,100,47,0.32967
1883080,0.00500,84.9375,100,47,0.32234
1883090,-0.03500,83.0625,100,47,0.31477
1883100,-0.05000,79.2500,100,47,0.29963
1883110,-0.05500,77.2500,100,47,0.29255
1883120,-0.05500,75.1875,100,47,0.28645
1883130,-0.04500,73.0000,100,47,0.28303
1883140,-0.04000,68.5625,100,47,0.28376
1883150,-0.03500,66.5000,100,47,0.28938
1883160,-0.03500,64.7500,100,47,0.29963
1883170,-0.03000,63.2500,100,47,0.31526
1883180,-0.01500,61.1875,100,47,0.36068
1883190,0.00000,60.5000,100,47,0.38926
1883200,0.02000,60.0000,100,47,0.42100
1883210,0.02000,59.5625,100,47,0.45470
1883220,0.01000,59.0000,100,47,0.52015
1883230,-0.01000,58.8125,100,47,0.54823
1883240,-0.02000,58.6250,100,47,0.57900
1883250,-0.03500,58.4375,100,47,0.60977
1883260,-0.07000,58.0000,100,47,0.66642
1883270,-0.10500,57.7500,100,47,0.69133
1883280,-0.12500,57.5000,100,47,0.71331
1883290,-0.12500,56.9375,100,47,0.74847
1883300,-0.12500,56.6250,100,47,0.76190
1883310,-0.13500,56.3125,100,47,0.77241
1883320,-0.13500,56.0625,100,47,0.77998
1883330,-0.13500,55.7500,100,47,0.78388
1883340,-0.13500,55.1875,100,47,0.78535
1883350,-0.16500,54.8750,100,47,0.78437
1883360,-0.04500,54.5625,100,47,0.78168
1883370,0.43000,54.3125,100,47,0.77729
1883380,0.98500,53.6875,100,47,0.76386
1883390,0.84000,53.3750,100,47,0.75482
1883400,0.04500,53.0625,100,47,0.74408
1883410,-0.52000,52.7500,100,47,0.73236
1883420,-0.59500,52.0625,100,47,0.70769
1883430,-0.41500,51.6250,100,47,0.69524
1883440,-0.29000,51.1875,100,47,0.68156
1883450,-0.26500,50.7500,100,47,0.66740
1883460,-0.26000,49.8125,100,47,0.63834
1883470,-0.24500,49.3750,100,47,0.62393
1883480,-0.23000,48.8750,100,47,0.60977
1883490,-0.21000,48.4375,100,47,0.59609
1883500,-0.19000,47.5625,100,47,0.57070
1883510,-0.18000,47.1875,100,47,0.55897
1883520,-0.16500,46.8750,100,47,0.54774
1883530,-0.14000,46.8125,100,47,0.53797
1883540,-0.11500,49.0000,100,47,0.51966
1883550,-0.11500,52.4375,100,47,0.50989
1883560,-0.11500,57.5000,100,47,0.50037
1883570,-0.10000,70.2500,100,47,0.48156
1883580,-0.08500,76.6250,100,47,0.46545
1883590,-0.07000,82.5625,100,47,0.44640
1883600,-0.04500,87.8750,100,47,0.43297
1883610,-0.03000,92.4375,100,47,0.42222
1883620,-0.01500,99.0000,100,47,0.40537
1883630,-0.00500,100.8750,100,47,0.39902
1883640,0.00500,101.9375,100,47,0.39219
1883650,0.01000,102.2500,100,47,0.38535
1883660,0.03000,101.0000,100,47,0.37094
1883670,0.04000,99.8125,100,47,0.36386
1883680,0.06000,98.3125,100,47,0.35678
1883690,0.07000,96.6250,100,47,0.34969
1883700,0.08000,92.8750,100,47,0.33602
1883710,0.05500,90.9375,100,47,0.32918
1883720,0.02500,89.0000,100,47,0.32283
1883730,-0.00500,87.0625,100,47,0.31795
1883740,-0.03500,83.2500,100,47,0.30891
1883750,-0.05000,81.4375,100,47,0.30305
1883760,-0.06500,79.5625,100,47,0.29597
1883770,-0.07000,77.6250,100,47,0.28840
1883780,-0.06500,73.5000,100,47,0.27350
1883790,-0.06500,71.2500,100,47,0.26838
1883800,-0.06000,69.0000,100,47,0.26667
1883810,-0.06500,66.9375,100,47,0.26935
1883820,-0.06500,63.5000,100,47,0.28718
1883830,-0.05500,62.1875,100,47,0.30110
1883840,-0.03500,61.1875,100,47,0.32039
1883850,-0.01500,60.4375,100,47,0.34432
1883860,0.00000,59.3125,100,47,0.40171
1883870,0.00500,58.9375,100,47,0.43346
1883880,0.00000,58.6875,100,47,0.46618
1883890,-0.02500,58.5000,100,47,0.49915
1883900,-0.05000,58.1250,100,47,0.56239
1883910,-0.07000,57.9375,100,47,0.59145
1883920,-0.09500,57.7500,100,47,0.61490
1883930,-0.11500,57.5625,100,47,0.63468
1883940,-0.12500,57.1250,100,47,0.67375
1883950,-0.12500,56.8125,100,47,0.69035
1883960,-0.12000,56.5625,100,47,0.70427
1883970,-0.12000,56.2500,100,47,0.71551
1883980,-0.11500,55.5625,100,47,0.72991
1883990,-0.12000,55.2500,100,47,0.73333
1884000,-0.12500,55.0000,99,47,0.73455
1884010,-0.14000,54.6875,99,47,0.73407
1884020,0.01000,54.0625,99,47,0.72747
1884030,0.50500,53.6875,99,47,0.72186
1884040,1.02000,53.3750,99,47,0.71502
1884050,0.78500,53.0625,99,47,0.70672
1884060,0.00000,52.3750,99,47,0.68596
1884070,-0.48000,52.0000,99,47,0.67399
1884080,-0.50000,51.6250,99,47,0.66105
1884090,-0.32500,51.1875,99,47,0.64737
1884100,-0.22000,50.3125,99,47,0.61880
1884110,-0.21000,49.8125,99,47,0.60440
1884120,-0.20500,49.3125,99,47,0.59145
1884130,-0.19500,48.8125,99,47,0.57949
1884140,-0.17500,47.8750,99,47,0.55385
1884150,-0.16000,47.3750,99,47,0.54115
1884160,-0.14500,46.9375,99,47,0.52869
1884170,-0.13500,46.5625,99,47,0.51673
1884180,-0.12500,45.9375,99,47,0.49451
1884190,-0.11500,46.0625,99,47,0.48425
1884200,-0.10000,46.9375,99,47,0.47424
1884210,-0.09500,49.1875,99,47,0.46447
1884220,-0.09500,58.5625,99,47,0.44664
1884230,-0.08500,64.8125,99,47,0.43956
1884240,-0.05000,71.1875,99,47,0.43150
1884250,0.00000,77.2500,99,47,0.42344
1884260,0.03000,87.5625,99,47,0.40757
1884270,0.05500,91.6250,99,47,0.40000
1884280,0.07500,94.8750,99,47,0.39243
1884290,0.09000,97.1875,99,47,0.38486
1884300,0.11000,99.2500,99,47,0.36996
1884310,0.12500,99.1875,99,47,0.36264
1884320,0.14000,98.5625,99,47,0.35678
1884330,0.16000,97.5000,99,47,0.35140
1884340,0.18000,94.4375,99,47,0.33748
1884350,0.19000,92.6875,99,47,0.32991
1884360,0.19000,90.7500,99,47,0.32210
1884370,0.16500,88.8125,99,47,0.31429
1884380,0.13000,84.8750,99,47,0.29841
1884390,0.09000,82.9375,99,47,0.29084
1884400,0.06000,81.0625,99,47,0.28352
1884410,0.04000,79.1875,99,47,0.27643
1884420,0.02500,75.4375,99,47,0.26398
1884430,0.01500,73.5000,99,47,0.25958
1884440,0.01500,71.3750,99,47,0.25421
1884450,0.01000,69.1875,99,47,0.24908
1884460,0.01000,64.9375,99,47,0.24469
1884470,0.01000,63.1875,99,47,0.24786
1884480,0.01000,61.6875,99,47,0.25592
1884490,0.02000,59.5625,99,47,0.26886
1884500,0.04000,58.8125,99,47,0.30940
1884510,0.06500,58.2500,99,47,0.33553
1884520,0.08000,57.8125,99,47,0.36093
1884530,0.07500,57.5000,99,47,0.38608
1884540,0.05500,57.0625,99,47,0.44591
1884550,0.02000,56.9375,99,47,0.47717
1884560,0.00000,56.8125,99,47,0.50818
1884570,-0.02500,56.6250,99,47,0.53797
1884580,-0.05500,56.2500,99,47,0.59121
1884590,-0.07500,56.0625,99,47,0.61416
1884600,-0.08000,55.8125,99,47,0.63443
1884610,-0.08000,55.5625,99,47,0.65153
1884620,-0.08000,55.0000,99,47,0.67595
1884630,-0.07500,54.7500,99,47,0.68278
1884640,-0.07500,54.4375,99,47,0.68864
1884650,-0.07500,54.1875,99,47,0.69328
1884660,-0.07500,54.1875,99,47,0.69328
1884670,-0.07500,54.1875,99,47,0.69328
1884680,0.11000,53.1250,99,47,0.69255
1884690,0.64500,52.8750,99,47,0.68767
1884700,1.01000,52.1875,99,47,0.67277
1884710,0.60000,51.8750,99,47,0.66300
1884720,-0.10500,51.5000,99,47,0.65299
1884730,-0.45000,51.1875,99,47,0.64249
1884740,-0.45000,50.3750,99,47,0.61783
1884750,-0.30000,49.9375,99,47,0.60464
1884760,-0.20000,49.4375,99,47,0.59121
1884770,-0.19000,48.9375,99,47,0.57778
1884780,-0.18500,48.0000,99,47,0.55116
1884790,-0.18000,47.5625,99,47,0.53846
1884800,-0.16500,47.1250,99,47,0.52601
1884810,-0.15500,46.6875,99,47,0.51380
1884820,-0.14500,45.8125,99,47,0.49206
1884830,-0.13500,45.4375,99,47,0.48303
1884840,-0.11500,45.1875,99,47,0.47350
1884850,-0.10000,45.0625,99,47,0.46398
1884860,-0.08500,47.0000,99,47,0.44444
1884870,-0.07500,50.0625,99,47,0.43492
1884880,-0.06500,54.6875,99,47,0.42564
1884890,-0.05000,60.4375,99,47,0.41661
1884900,-0.03000,72.5000,99,47,0.39976
1884910,-0.01000,77.9375,99,47,0.39170
1884920,0.01000,82.8750,99,47,0.38535
1884930,0.03000,87.1250,99,47,0.37998
1884940,0.06000,93.1875,99,47,0.36679
1884950,0.08500,94.9375,99,47,0.35995
1884960,0.10500,95.8750,99,47,0.35336
1884970,0.12500,96.0625,99,47,0.34676
1884980,0.14500,94.8125,99,47,0.33333
1884990,0.16500,93.5625,99,47,0.32650
1885000,0.17500,92.0000,99,46,0.31966
1885010,0.17500,90.2500,99,46,0.31282
1885020,0.15500,86.3750,99,46,0.30061
1885030,0.12000,84.3125,99,46,0.29621
1885040,0.08000,82.3125,99,46,0.29060
1885050,0.05000,80.3125,99,46,0.28449
1885060,0.02000,76.3750,99,46,0.27155
1885070,0.00000,74.5000,99,46,0.26471
1885080,-0.01000,72.5000,99,46,0.25788
1885090,-0.01500,70.5000,99,46,0.25104
1885100,-0.01500,66.3750,99,46,0.23907
1885110,-0.01000,64.3125,99,46,0.23541
1885120,-0.00500,62.3750,99,46,0.23492
1885130,0.00000,60.7500,99,46,0.23785
1885140,0.01000,58.5000,99,46,0.25397
1885150,0.02000,57.6875,99,46,0.26862
1885160,0.04000,57.0625,99,46,0.28791
1885170,0.05500,56.6250,99,46,0.31136
1885180,0.06000,56.0000,99,46,0.36703
1885190,0.04500,55.7500,99,46,0.39780
1885200,0.01500,55.5625,99,46,0.42930
1885210,-0.02000,55.4375,99,46,0.46056
1885220,-0.04000,55.1250,99,46,0.51746
1885230,-0.06000,55.0000,99,46,0.54017
1885240,-0.08500,54.8125,99,46,0.56386
1885250,-0.10000,54.6250,99,46,0.58657
1885260,-0.10000,54.1250,99,46,0.62564
1885270,-0.10500,53.8750,99,46,0.64103
1885280,-0.10500,53.6250,99,46,0.65348
1885290,-0.10500,53.3750,99,46,0.66325
1885300,-0.10000,52.8750,99,46,0.67497
1885310,-0.09500,52.6875,99,46,0.67766
1885320,-0.10500,52.5000,99,46,0.67790
1885330,-0.08500,52.3125,99,46,0.67595
1885340,0.16500,51.8125,99,46,0.66813
1885350,0.71000,51.5000,99,46,0.66154
1885360,0.96000,51.1875,99,46,0.65348
1885370,0.47000,50.8750,99,46,0.64371
1885380,-0.19000,50.1250,99,46,0.62149
1885390,-0.48000,49.6875,99,46,0.60928
1885400,-0.45000,49.3125,99,46,0.59634
1885410,-0.31000,48.9375,99,46,0.58291
1885420,-0.23000,48.0000,99,46,0.55727
1885430,-0.22000,47.5625,99,46,0.54603
1885440,-0.21500,47.1250,99,46,0.53407
1885450,-0.20000,46.6875,99,46,0.52186
1885460,-0.18500,45.8750,99,46,0.49866
1885470,-0.16500,45.4375,99,46,0.48767
1885480,-0.15500,45.0000,99,46,0.47717
1885490,-0.14500,44.6875,99,46,0.46716
1885500,-0.12500,44.2500,99,46,0.44811
1885510,-0.11500,44.5000,99,46,0.43907
1885520,-0.10500,45.7500,99,46,0.43175
1885530,-0.09500,48.5000,99,46,0.42515
1885540,-0.07500,58.4375,99,46,0.41026
1885550,-0.05500,64.5000,99,46,0.40269
1885560,-0.04000,70.4375,99,46,0.39512
1885570,-0.02500,76.0000,99,46,0.38803
1885580,-0.01500,85.5000,99,46,0.37460
1885590,0.01000,89.2500,99,46,0.36850
1885600,0.04000,92.1875,99,46,0.36264
1885610,0.06000,94.2500,99,46,0.35678
1885620,0.07500,96.1250,99,46,0.34799
1885630,0.09000,96.0625,99,46,0.34701
1885640,0.10500,95.5000,99,46,0.34774
1885650,0.12500,94.3750,99,46,0.34505
1885660,0.13000,91.3125,99,46,0.33480
1885670,0.14000,89.5000,99,46,0.32845
1885680,0.13500,87.5625,99,46,0.32186
1885690,0.11000,85.6250,99,46,0.31502
1885700,0.07000,81.6250,99,46,0.30110
1885710,0.03500,79.6250,99,46,0.29426
1885720,0.00000,77.7500,99,46,0.28913
1885730,-0.01500,75.8750,99,46,0.28474
1885740,-0.02000,72.0625,99,46,0.27253
1885750,-0.02000,70.0625,99,46,0.26618
1885760,-0.02000,67.9375,99,46,0.26056
1885770,-0.01500,65.8125,99,46,0.25617
1885780,-0.01000,61.8750,99,46,0.25519
1885790,-0.01000,60.3750,99,46,0.26032
1885800,-0.01500,59.1250,99,46,0.27009
1885810,-0.01000,58.1875,99,46,0.28474
1885820,0.00000,56.8750,99,46,0.32015
1885830,0.02500,56.4375,99,46,0.34359
1885840,0.04000,56.0625,99,46,0.37070
1885850,0.04000,55.7500,99,46,0.40000
1885860,0.02000,55.3125,99,46,0.46154
1885870,-0.01500,55.1875,99,46,0.49231
1885880,-0.04000,55.0625,99,46,0.52234
1885890,-0.06500,54.8750,99,46,0.55116
1885900,-0.09000,54.5000,99,46,0.60244
1885910,-0.11500,54.3125,99,46,0.62442
1885920,-0.12500,54.1250,99,46,0.64127
1885930,-0.12500,53.9375,99,46,0.65446
1885940,-0.12000,53.3750,99,46,0.67863
1885950,-0.11500,53.1250,99,46,0.68816
1885960,-0.10500,52.8750,99,46,0.69548
1885970,-0.09500,52.6875,99,46,0.70037
1885980,-0.09500,52.3125,99,46,0.70403
1885990,-0.11000,52.1250,99,46,0.70256
1886000,-0.00500,51.8750,99,46,0.69915
1886010,0.39500,51.6250,99,46,0.69402
1886020,0.92000,51.0000,99,46,0.68010
1886030,0.86500,50.6250,99,46,0.67106
1886040,0.18500,50.3125,99,46,0.66056
1886050,-0.35000,49.9375,99,46,0.64933
1886060,-0.48000,49.1875,99,46,0.62491
1886070,-0.37500,48.7500,99,46,0.61245
1886080,-0.25000,48.3125,99,46,0.59976
1886090,-0.21500,47.8750,99,46,0.58681
1886100,-0.21000,47.0000,99,46,0.56215
1886110,-0.20000,46.5000,99,46,0.55018
1886120,-0.19500,46.0625,99,46,0.53993
1886130,-0.18000,45.6250,99,46,0.53065
1886140,-0.17500,44.8125,99,46,0.51111
1886150,-0.17000,44.5000,99,46,0.50134
1886160,-0.16000,44.2500,99,46,0.49158
1886170,-0.14500,44.1875,99,46,0.48230
1886180,-0.12500,46.3125,99,46,0.46398
1886190,-0.10500,49.6250,99,46,0.45519
1886200,-0.09000,54.4375,99,46,0.44689
1886210,-0.07500,60.3125,99,46,0.43907
1886220,-0.05500,72.4375,99,46,0.42662
1886230,-0.03500,78.0625,99,46,0.42002
1886240,-0.01500,83.1250,99,46,0.41294
1886250,0.00000,87.5000,99,46,0.40586
1886260,0.02500,93.9375,99,46,0.39194
1886270,0.05000,96.0000,99,46,0.38510
1886280,0.07000,97.2500,99,46,0.37851
1886290,0.09000,97.7500,99,46,0.37192
1886300,0.10000,97.0000,99,46,0.35922
1886310,0.11000,95.9375,99,46,0.35287
1886320,0.12000,94.5000,99,46,0.34774
1886330,0.13000,92.9375,99,46,0.34286
1886340,0.13000,89.2500,99,46,0.32991
1886350,0.11500,87.3125,99,46,0.32283
1886360,0.08000,85.3750,99,46,0.31575
1886370,0.04500,83.4375,99,46,0.30891
1886380,0.01500,79.6250,99,46,0.29573
1886390,-0.00500,77.8125,99,46,0.28913
1886400,-0.02000,75.9375,99,46,0.28254
1886410,-0.03000,74.1250,99,46,0.27595
1886420,-0.02500,70.1875,99,46,0.26764
1886430,-0.02500,68.1250,99,46,0.26398
1886440,-0.02500,66.0625,99,46,0.26203
1886450,-0.02000,64.1250,99,46,0.26325
1886460,-0.01500,61.0625,99,46,0.27839
1886470,-0.01500,59.9375,99,46,0.29353
1886480,-0.00500,59.0625,99,46,0.31355
1886490,0.01000,58.3750,99,46,0.33748
1886500,0.02500,57.3125,99,46,0.39487
1886510,0.03000,56.9375,99,46,0.42662
1886520,0.02500,56.6250,99,46,0.45519
1886530,0.00000,56.3125,99,46,0.48205
1886540,-0.02500,55.8750,99,46,0.54212
1886550,-0.04500,55.6250,99,46,0.57167
1886560,-0.06500,55.3750,99,46,0.59951
1886570,-0.08000,55.1250,99,46,0.62491
1886580,-0.09500,54.6250,99,46,0.66764
1886590,-0.10500,54.3750,99,46,0.68498
1886600,-0.11500,54.1250,99,46,0.69939
1886610,-0.12000,53.8750,99,46,0.71087
1886620,-0.12500,53.3125,99,46,0.72259
1886630,-0.12500,53.1250,99,46,0.72625
1886640,-0.12000,52.9375,99,46,0.72821
1886650,-0.13500,52.7500,99,46,0.72869
1886660,-0.10500,52.3750,99,46,0.72503
1886670,0.15500,52.0625,99,46,0.72063
1886680,0.70500,51.7500,99,46,0.71477
1886690,0.96000,51.4375,99,46,0.70745
1886700,0.46500,50.6875,99,46,0.68864
1886710,-0.19000,50.3125,99,46,0.67790
1886720,-0.46000,49.8750,99,46,0.66740
1886730,-0.48000,49.5000,99,46,0.65665
1886740,-0.36000,48.6250,99,46,0.63199
1886750,-0.26000,48.1875,99,46,0.61880
1886760,-0.23000,47.6875,99,46,0.60562
1886770,-0.23000,47.2500,99,46,0.59243
1886780,-0.21000,46.3750,99,46,0.56654
1886790,-0.18000,46.0000,99,46,0.55409
1886800,-0.17500,45.5625,99,46,0.54237
1886810,-0.17000,45.1875,99,46,0.53114
1886820,-0.15500,44.5625,99,46,0.51233
1886830,-0.14000,44.5000,99,46,0.50281
1886840,-0.13000,45.1250,99,46,0.49328
1886850,-0.11500,46.8125,99,46,0.48400
1886860,-0.10500,55.0625,99,46,0.46593
1886870,-0.09000,61.0000,99,46,0.45714
1886880,-0.07000,67.2500,99,46,0.44835
1886890,-0.05500,73.2500,99,46,0.44005
1886900,-0.03500,83.9375,99,46,0.42418
1886910,-0.01500,88.3750,99,46,0.41661
1886920,0.00000,92.0000,99,46,0.41026
1886930,0.02000,94.8750,99,46,0.40488
1886940,0.04500,98.1875,99,46,0.39219
1886950,0.07000,98.6875,99,46,0.38535
1886960,0.09000,98.6250,99,46,0.37851
1886970,0.11000,98.0625,99,46,0.37167
1886980,0.12500,95.6875,99,46,0.35775
1886990,0.13500,94.1875,99,46,0.35067
1887000,0.14000,92.4375,99,46,0.34359
1887010,0.13000,90.6250,99,46,0.33626
1887020,0.10000,86.8125,99,46,0.32552
1887030,0.06500,84.8750,99,46,0.31917
1887040,0.03000,82.9375,99,46,0.31233
1887050,0.00000,81.0625,99,46,0.30525
1887060,-0.01500,77.4375,99,46,0.29060
1887070,-0.02500,75.5625,99,46,0.28327
1887080,-0.02500,73.6250,99,46,0.27643
1887090,-0.02500,69.5000,99,46,0.27057
1887100,-0.03000,67.3750,99,46,0.26569
1887110,-0.03500,65.3750,99,46,0.26813
1887120,-0.03500,63.5625,99,46,0.27399
1887130,-0.03500,62.0625,99,46,0.28352
1887140,-0.02500,59.8125,99,46,0.31697
1887150,-0.00500,59.0625,99,46,0.34017
1887160,0.02000,58.4375,99,46,0.36679
1887170,0.03500,57.8750,99,46,0.39634
1887180,0.03000,57.0625,99,46,0.45958
1887190,0.00000,56.7500,99,46,0.49206
1887200,-0.03500,56.5000,99,46,0.52430
1887210,-0.06500,56.2500,99,46,0.55556
1887220,-0.09000,55.8125,99,46,0.60415
1887230,-0.11500,55.5625,99,46,0.62759
1887240,-0.13500,55.3750,99,46,0.65006
1887250,-0.14500,55.1250,99,46,0.67082
1887260,-0.15000,54.6250,99,46,0.70452
1887270,-0.14500,54.3750,99,46,0.71722
1887280,-0.14000,54.1250,99,46,0.72698
1887290,-0.13500,53.8750,99,46,0.73431
1887300,-0.13500,53.4375,99,46,0.74212
1887310,-0.14000,53.1875,99,46,0.74261
1887320,-0.15500,52.9375,99,46,0.74066
1887330,0.07500,52.4375,99,46,0.73236
1887340,0.49000,52.1875,99,46,0.72650
1887350,0.98500,51.8750,99,46,0.71917
1887360,0.75500,51.5000,99,46,0.71038
1887370,0.02000,51.1875,99,46,0.70061
1887380,-0.43500,50.4375,99,46,0.67766
1887390,-0.50000,50.0625,99,46,0.66496
1887400,-0.36500,49.6250,99,46,0.65177
1887410,-0.26000,49.1875,99,46,0.63834
1887420,-0.24500,48.2500,99,46,0.61465
1887430,-0.24000,47.7500,99,46,0.60244
1887440,-0.23500,47.2500,99,46,0.58999
1887450,-0.22000,46.8125,99,46,0.57753
1887460,-0.20000,46.0625,99,46,0.55336
1887470,-0.19000,45.6250,99,46,0.54164
1887480,-0.18000,45.3125,99,46,0.53040
1887490,-0.17000,45.0000,99,46,0.51941
1887500,-0.16000,45.5625,99,46,0.49841
1887510,-0.15500,47.3125,99,46,0.48987
1887520,-0.14500,50.7500,99,46,0.48205
1887530,-0.12500,55.9375,99,46,0.47350
1887540,-0.10500,68.5000,99,46,0.45617
1887550,-0.07500,74.6250,99,46,0.44762
1887560,-0.05500,80.3125,99,46,0.43932
1887570,-0.03000,85.4375,99,46,0.43101
1887580,-0.01500,93.4375,99,46,0.41563
1887590,0.00500,96.1875,99,46,0.40806
1887600,0.02000,98.1875,99,46,0.40073
1887610,0.03500,99.3125,99,46,0.39341
1887620,0.04500,99.5625,99,46,0.38291
1887630,0.06000,98.8750,99,46,0.37729
1887640,0.07000,97.8125,99,46,0.37118
1887650,0.09000,96.4375,99,46,0.36484
1887660,0.09500,93.1250,99,46,0.35165
1887670,0.09000,91.3125,99,46,0.34505
1887680,0.06500,89.4375,99,46,0.33846
1887690,0.03000,87.5000,99,46,0.33162
1887700,-0.01000,83.6875,99,46,0.31746
1887710,-0.04000,81.8125,99,46,0.31184
1887720,-0.06500,80.0000,99,46,0.30696
1887730,-0.06500,78.1875,99,46,0.30061
1887740,-0.06500,74.4375,99,46,0.28669
1887750,-0.05500,72.4375,99,46,0.28034
1887760,-0.05500,70.3750,99,46,0.27570
1887770,-0.05500,68.2500,99,46,0.27350
1887780,-0.05500,64.3750,99,46,0.28083
1887790,-0.05000,62.8750,99,46,0.29182
1887800,-0.04500,61.6250,99,46,0.30794
1887810,-0.03500,60.6250,99,46,0.32869
1887820,-0.02000,59.1875,99,46,0.37314
1887830,-0.00500,58.6875,99,46,0.40098
1887840,-0.00500,58.2500,99,46,0.43175
1887850,-0.02500,57.9375,99,46,0.46422
1887860,-0.06000,57.3750,99,46,0.53040
1887870,-0.09000,57.1875,99,46,0.56264
1887880,-0.11500,57.0000,99,46,0.59316
1887890,-0.14000,56.8125,99,46,0.62149
1887900,-0.16000,56.3750,99,46,0.67106
1887910,-0.17000,56.0625,99,46,0.68889
1887920,-0.17000,55.8125,99,46,0.70256
1887930,-0.16000,55.5000,99,46,0.71575
1887940,-0.15500,55.0000,99,46,0.73724
1887950,-0.15000,54.6875,99,46,0.74505
1887960,-0.14500,54.4375,99,46,0.75067
1887970,-0.13500,54.1875,99,46,0.75409
1887980,-0.16000,53.6875,99,46,0.75458
1887990,-0.10500,53.3750,99,46,0.75189
1888000,0.25500,53.0625,99,46,0.74750
1888010,0.86000,52.7500,99,46,0.74139
1888020,0.96000,52.1875,99,46,0.72552
1888030,0.29500,51.8750,99,46,0.71551
1888040,-0.37500,51.5625,99,46,0.70452
1888050,-0.58000,51.1875,99,46,0.69255
1888060,-0.45000,50.3750,99,46,0.66667
1888070,-0.30000,49.9375,99,46,0.65299
1888080,-0.26000,49.5000,99,46,0.63907
1888090,-0.25000,49.0625,99,46,0.62515
1888100,-0.24000,48.1250,99,46,0.59829
1888110,-0.22500,47.6875,99,46,0.58657
1888120,-0.21000,47.3125,99,46,0.57607
1888130,-0.20000,46.8750,99,46,0.56508
1888140,-0.19000,46.1250,99,46,0.54261
1888150,-0.18000,45.8750,99,46,0.53162
1888160,-0.17000,45.8750,99,46,0.52063
1888170,-0.16000,46.5625,99,46,0.51013
1888180,-0.15000,52.1875,99,46,0.48987
1888190,-0.14000,57.5000,99,46,0.48034
1888200,-0.12500,63.6875,99,46,0.47106
1888210,-0.10500,70.1875,99,46,0.46227
1888220,-0.08500,82.1250,99,46,0.44786
1888230,-0.06500,87.3125,99,46,0.44054
1888240,-0.04000,91.6875,99,46,0.43297
1888250,-0.01500,95.2500,99,46,0.42540
1888260,0.00500,99.6875,99,46,0.41026
1888270,0.02500,100.6875,99,46,0.40317
1888280,0.03500,101.0000,99,46,0.39585
1888290,0.05000,100.7500,99,46,0.38852
1888300,0.06500,98.8750,99,46,0.37436
1888310,0.08000,97.5000,99,46,0.36874
1888320,0.09500,95.8750,99,46,0.36361
1888330,0.10000,94.1875,99,46,0.35751
1888340,0.09000,90.5000,99,46,0.34383
1888350,0.06000,88.6250,99,46,0.33675
1888360,0.02000,86.7500,99,46,0.32991
1888370,-0.01500,84.8750,99,46,0.32283
1888380,-0.04000,81.2500,99,46,0.30867
1888390,-0.05000,79.3750,99,46,0.30134
1888400,-0.05500,77.5625,99,46,0.29402
1888410,-0.05500,73.5625,99,46,0.28230
1888420,-0.05500,71.4375,99,46,0.27961
1888430,-0.05000,69.2500,99,46,0.27839
1888440,-0.04500,67.1875,99,46,0.28010
1888450,-0.04500,65.3125,99,46,0.28596
1888460,-0.04500,62.5000,99,46,0.31233
1888470,-0.03500,61.5000,99,46,0.33284
1888480,-0.02500,60.6875,99,46,0.35751
1888490,-0.01000,60.0000,99,46,0.38559
1888500,-0.00500,59.1250,99,46,0.44860
1888510,-0.01000,58.8125,99,46,0.47766
1888520,-0.02000,58.5625,99,46,0.50501
1888530,-0.04000,58.3125,99,46,0.53529
1888540,-0.06000,57.9375,99,46,0.59683
1888550,-0.08500,57.7500,99,46,0.62540
1888560,-0.11500,57.5000,99,46,0.65153
1888570,-0.13500,57.2500,99,46,0.67521
1888580,-0.14500,56.7500,99,46,0.71380
1888590,-0.14500,56.4375,99,46,0.72869
1888600,-0.14500,56.1250,99,46,0.74066
1888610,-0.14500,55.8125,99,46,0.74994
1888620,-0.14000,55.1875,99,46,0.75775
1888630,-0.13500,54.8750,99,46,0.75946
1888640,-0.14500,54.5625,99,46,0.75995
1888650,-0.18000,54.2500,99,46,0.75873
1888660,-0.02500,53.6250,99,46,0.75165
1888670,0.47000,53.3125,99,46,0.74554
1888680,0.99500,53.0000,99,46,0.73797
1888690,0.80000,52.6875,99,46,0.72894
1888700,-0.02000,51.9375,99,46,0.70720
1888710,-0.55000,51.5625,99,46,0.69597
1888720,-0.57000,51.1875,99,46,0.68449
1888730,-0.38500,50.8125,99,46,0.67204
1888740,-0.27500,49.9375,99,46,0.64493
1888750,-0.26000,49.5000,99,46,0.63101
1888760,-0.25000,49.0000,99,46,0.61709
1888770,-0.24000,48.5000,99,46,0.60342
1888780,-0.22500,47.5000,99,46,0.57753
1888790,-0.20500,47.0625,99,46,0.56557
1888800,-0.19000,46.6875,99,46,0.55385
1888810,-0.17500,46.3125,99,46,0.54237
1888820,-0.17000,45.8125,99,46,0.52308
1888830,-0.16000,46.1875,99,46,0.51306
1888840,-0.15500,47.6250,99,46,0.50305
1888850,-0.14500,50.6250,99,46,0.49304
1888860,-0.13000,61.3125,99,46,0.47424
1888870,-0.11000,67.8125,99,46,0.46520
1888880,-0.08500,74.1250,99,46,0.45665
1888890,-0.06500,80.0625,99,46,0.44811
1888900,-0.04000,89.9375,99,46,0.43150
1888910,-0.01500,93.7500,99,46,0.42466
1888920,0.01000,96.6875,99,46,0.41880
1888930,0.03000,98.7500,99,46,0.41221
1888940,0.04500,100.4375,99,46,0.39780
1888950,0.06000,100.2500,99,46,0.39048
1888960,0.08000,99.5625,99,46,0.38315
1888970,0.10000,98.5000,99,46,0.37607
1888980,0.11500,95.5000,99,46,0.36215
1888990,0.13500,93.6875,99,46,0.35531
1889000,0.14000,91.8750,99,46,0.34823
1889010,0.12500,89.9375,99,46,0.34115
1889020,0.10000,86.0625,99,46,0.33065
1889030,0.07000,84.1875,99,46,0.32479
1889040,0.04000,82.3125,99,46,0.31819
1889050,0.02000,80.5000,99,46,0.31087
1889060,0.00000,76.6875,99,46,0.29499
1889070,-0.00500,74.6875,99,46,0.28718
1889080,-0.00500,72.6875,99,46,0.28010
1889090,0.00000,70.5625,99,46,0.27473
1889100,0.00000,66.2500,99,46,0.27253
1889110,0.00000,64.4375,99,46,0.27668
1889120,0.00000,62.8125,99,46,0.28474
1889130,0.00000,61.5000,99,46,0.29768
1889140,0.01500,59.6250,99,46,0.33773
1889150,0.03500,58.9375,99,46,0.36361
1889160,0.05500,58.4375,99,46,0.39267
1889170,0.06500,58.0625,99,46,0.42369
1889180,0.06000,57.5000,99,46,0.48913
1889190,0.03000,57.3125,99,46,0.52161
1889200,0.00000,57.1250,99,46,0.55336
1889210,-0.01500,56.9375,99,46,0.58339
1889220,-0.03500,56.5625,99,46,0.62882
1889230,-0.05500,56.3750,99,46,0.64982
1889240,-0.07500,56.1250,99,46,0.66960
1889250,-0.08000,55.8750,99,46,0.68742
1889260,-0.08000,55.3125,99,46,0.71551
1889270,-0.08000,54.9375,99,46,0.72576
1889280,-0.07500,54.6875,99,46,0.73358
1889290,-0.07500,54.3750,99,46,0.73871
1889300,-0.07000,53.8125,99,46,0.74237
1889310,-0.08500,53.5000,99,46,0.74066
1889320,-0.06000,53.2500,99,46,0.73700
1889330,0.21500,52.9375,99,46,0.73236
1889340,0.79000,52.3125,99,46,0.71868
1889350,1.02500,52.0000,99,46,0.70989
1889360,0.46000,51.6875,99,46,0.69988
1889370,-0.24000,51.3750,99,46,0.68864
1889380,-0.49000,50.5625,99,46,0.66325
1889390,-0.40500,50.1250,99,46,0.64957
1889400,-0.25000,49.6875,99,46,0.63565
1889410,-0.18000,49.2500,99,46,0.62295
1889420,-0.18000,48.3125,99,46,0.59780
1889430,-0.18000,47.8125,99,46,0.58462
1889440,-0.17000,47.3750,99,46,0.57143
1889450,-0.15500,46.8750,99,46,0.55849
1889460,-0.14000,46.0000,99,46,0.53480
1889470,-0.12500,45.5625,99,46,0.52357
1889480,-0.11500,45.1875,99,46,0.51282
1889490,-0.10500,44.9375,99,46,0.50256
1889500,-0.09500,45.5000,99,46,0.48254
1889510,-0.08500,47.2500,99,46,0.47424
1889520,-0.07000,50.6875,99,46,0.46667
1889530,-0.05500,55.7500,99,46,0.45836
1889540,-0.03500,67.8750,99,46,0.44127
1889550,-0.02000,73.6875,99,46,0.43248
1889560,0.00000,79.0000,99,46,0.42418
1889570,0.02500,83.7500,99,46,0.41612
1889580,0.05000,90.9375,99,46,0.40024
1889590,0.08000,93.3125,99,46,0.39267
1889600,0.11000,94.8125,99,46,0.38535
1889610,0.13000,95.5625,99,46,0.37949
1889620,0.14500,95.0625,99,46,0.36825
1889630,0.16000,94.0625,99,46,0.36166
1889640,0.17000,92.6875,99,46,0.35482
1889650,0.18000,91.0625,99,46,0.34774
1889660,0.17500,87.3750,99,46,0.33382
1889670,0.16500,85.4375,99,46,0.32674
1889680,0.14000,83.5625,99,46,0.31966
1889690,0.10500,81.5625,99,46,0.31258
1889700,0.07000,77.6875,99,46,0.29792
1889710,0.03000,75.7500,99,46,0.29231
1889720,0.01000,73.8125,99,46,0.28767
1889730,0.00000,71.8750,99,46,0.27668
1889740,0.00000,67.7500,99,46,0.25275
1889750,0.00000,65.5625,99,46,0.24469
1889760,-0.00500,63.3750,99,46,0.23883
1889770,-0.00500,61.4375,99,46,0.23590
1889780,-0.00500,58.5000,99,46,0.24249
1889790,-0.00500,57.5625,99,46,0.25299
1889800,0.00000,56.8125,99,46,0.26862
1889810,0.02000,56.2500,99,46,0.28596
1889820,0.04000,55.5000,99,46,0.33040
1889830,0.06000,55.3125,99,46,0.35824
1889840,0.06500,55.1875,99,46,0.38803
1889850,0.05000,55.0625,99,46,0.41880
1889860,0.02000,54.8750,99,46,0.48083
1889870,-0.00500,54.7500,99,46,0.51087
1889880,-0.02500,54.6250,99,46,0.53944
1889890,-0.04500,54.4375,99,46,0.56557
1889900,-0.07500,54.0625,99,46,0.61026
1889910,-0.08500,53.8125,99,46,0.62613
1889920,-0.09500,53.5000,99,46,0.63810
1889930,-0.09500,53.1875,99,46,0.64933
1889940,-0.09000,52.6250,99,46,0.66667
1889950,-0.08500,52.3125,99,46,0.67179
1889960,-0.08500,52.0625,99,46,0.67473
1889970,-0.09000,51.8125,99,46,0.67546
1889980,-0.11500,51.3125,99,46,0.67155
1889990,0.00500,51.0625,99,46,0.66716
1890000,0.43000,50.8125,98,46,0.66105
1890010,0.92500,50.5000,98,46,0.65372
1890020,0.79000,49.8750,98,46,0.63590
1890030,0.12500,49.5625,98,46,0.62515
1890040,-0.35500,49.1875,98,46,0.61343
1890050,-0.47000,48.8125,98,46,0.60098
1890060,-0.34000,48.0625,98,46,0.57436
1890070,-0.21500,47.6250,98,46,0.56068
1890080,-0.18500,47.2500,98,46,0.54701
1890090,-0.18500,46.8125,98,46,0.53382
1890100,-0.18000,46.0000,98,46,0.50891
1890110,-0.17000,45.5625,98,46,0.49841
1890120,-0.16000,45.1250,98,46,0.48913
1890130,-0.15500,44.7500,98,46,0.47912
1890140,-0.14500,44.0000,98,46,0.45885
1890150,-0.13500,43.7500,98,46,0.44933
1890160,-0.12500,43.7500,98,46,0.44005
1890170,-0.11500,44.2500,98,46,0.43101
1890180,-0.10000,49.1250,98,46,0.41392
1890190,-0.08500,53.8125,98,46,0.40562
1890200,-0.07500,59.5000,98,46,0.39780
1890210,-0.06000,65.3750,98,46,0.39145
1890220,-0.04500,76.3750,98,46,0.37949
1890230,-0.02500,81.1250,98,46,0.37265
1890240,0.00000,85.2500,98,46,0.36581
1890250,0.02500,88.6250,98,46,0.35922
1890260,0.05500,93.0625,98,46,0.34701
1890270,0.07500,94.1250,98,46,0.34090
1890280,0.09500,94.5000,98,46,0.33480
1890290,0.11000,94.2500,98,46,0.32869
1890300,0.12500,92.2500,98,46,0.31624
1890310,0.14000,90.7500,98,46,0.31136
1890320,0.14500,89.0625,98,46,0.30720
1890330,0.14500,87.1875,98,46,0.30183
1890340,0.13000,83.3125,98,46,0.28913
1890350,0.10000,81.4375,98,46,0.28254
1890360,0.06000,79.5000,98,46,0.27595
1890370,0.03000,77.6250,98,46,0.26911
1890380,0.00500,73.9375,98,46,0.25495
1890390,-0.00500,72.1250,98,46,0.24786
1890400,-0.01500,70.2500,98,46,0.24078
1890410,-0.01500,68.1875,98,46,0.23565
1890420,-0.00500,63.9375,98,46,0.22808
1890430,0.00000,61.9375,98,46,0.22589
1890440,-0.00500,60.1250,98,46,0.22637
1890450,-0.00500,58.6250,98,46,0.23077
1890460,0.00000,56.5625,98,46,0.25372
1890470,0.01500,55.8750,98,46,0.27277
1890480,0.05500,55.3750,98,46,0.29573
1890490,0.08000,55.0625,98,46,0.32234
1890500,0.06000,54.5625,98,46,0.38242
1890510,0.03500,54.3750,98,46,0.41026
1890520,0.01500,54.1875,98,46,0.43639
1890530,-0.01500,54.0625,98,46,0.46520
1890540,-0.03500,53.8125,98,46,0.52332
1890550,-0.06500,53.6250,98,46,0.55067
1890560,-0.08500,53.4375,98,46,0.57582
1890570,-0.10000,53.0000,98,46,0.61856
1890580,-0.09500,52.8125,98,46,0.63590
1890590,-0.08000,52.5625,98,46,0.65055
1890600,-0.06500,52.3750,98,46,0.66252
1890610,-0.06500,52.1250,98,46,0.67033
1890620,-0.08000,51.7500,98,46,0.67937
1890630,-0.10000,51.5625,98,46,0.68205
1890640,-0.12000,51.3750,98,46,0.68278
1890650,-0.12000,51.1875,98,46,0.68156
1890660,0.10500,50.6250,98,46,0.67375
1890670,0.64000,50.3125,98,46,0.66716
1890680,1.09500,50.0625,98,46,0.65910
1890690,1.23000,49.8125,98,46,0.64957
1890700,0.95500,49.1875,98,46,0.62662
1890710,0.11000,48.8750,98,46,0.61538
1890720,-0.46000,48.5000,98,46,0.60415
1890730,-0.39500,47.6250,98,46,0.59170
1890740,-0.32500,47.1875,98,46,0.56532
1890750,-0.33000,46.6875,98,46,0.55214
1890760,-0.31500,46.1875,98,46,0.53919
1890770,-0.28000,45.6875,98,46,0.52698
1890780,-0.26500,44.8125,98,46,0.50403
1890790,-0.28000,44.3750,98,46,0.49304
1890800,-0.27000,43.9375,98,46,0.48254
1890810,-0.25000,43.3125,98,46,0.47350
1890820,-0.23000,43.3125,98,46,0.45617
1890830,-0.22500,43.8750,98,46,0.44713
1890840,-0.22000,45.5625,98,46,0.43810
1890850,-0.21000,48.8750,98,46,0.42930
1890860,-0.19000,59.3125,98,46,0.41245
1890870,-0.17000,65.1875,98,46,0.40464
1890880,-0.14500,70.8125,98,46,0.39707
1890890,-0.14000,76.0625,98,46,0.38974
1890900,-0.13500,84.9375,98,46,0.37534
1890910,-0.10500,88.3750,98,46,0.36996
1890920,-0.04000,91.0000,98,46,0.36532
1890930,0.02000,92.9375,98,46,0.35971
1890940,0.03500,94.5625,98,46,0.34799
1890950,0.01000,94.4375,98,46,0.34188
1890960,-0.02000,93.8125,98,46,0.33578
1890970,-0.02500,92.8125,98,46,0.32967
1890980,0.01000,89.9375,98,46,0.31648
1890990,0.18500,88.1875,98,46,0.30965
1891000,0.29000,86.4375,98,46,0.30305
1891010,0.19500,84.5625,98,46,0.29817
1891020,0.01000,80.8125,98,46,0.28816
1891030,-0.15000,78.8750,98,46,0.28205
1891040,-0.23500,77.0625,98,46,0.27570
1891050,-0.22500,75.1875,98,46,0.26886
1891060,-0.20000,71.3750,98,46,0.25446
1891070,-0.22500,69.3125,98,46,0.24737
1891080,-0.25000,67.1875,98,46,0.24103
1891090,-0.32500,65.0625,98,46,0.23639
1891100,-0.45000,61.1875,98,46,0.23590
1891110,-0.55500,59.6875,98,46,0.24078
1891120,-0.59500,58.5000,98,46,0.24957
1891130,-0.56000,56.8125,98,46,0.26300
1891140,-0.46500,56.2500,98,46,0.30379
1891150,-0.38000,55.8125,98,46,0.33016
1891160,-0.31500,55.4375,98,46,0.35946
1891170,-0.24000,55.1875,98,46,0.39072
1891180,-0.14500,54.8750,98,46,0.45543
1891190,-0.07500,54.8125,98,46,0.48742
1891200,-0.04500,54.6250,98,46,0.51868
1891210,-0.02500,54.2500,98,46,0.54457
1891220,-0.02500,54.0625,98,46,0.59048
1891230,-0.20500,53.8125,98,46,0.61294
1891240,-0.32500,53.5000,98,46,0.63321
1891250,-0.23000,53.1875,98,46,0.65128
1891260,-0.19500,52.6250,98,46,0.67912
1891270,-0.21500,52.4375,98,46,0.68913
1891280,-0.24500,52.1875,98,46,0.69670
1891290,-0.27000,52.0000,98,46,0.70208
1891300,-0.23500,51.6250,98,46,0.70549
1891310,-0.19500,51.5000,98,46,0.70379
1891320,-0.12500,51.2500,98,46,0.70085
1891330,0.16500,51.0000,98,46,0.69646
1891340,0.66000,50.3125,98,46,0.68352
1891350,0.76500,49.9375,98,46,0.67473
1891360,0.26500,49.6250,98,46,0.66447
1891370,-0.26000,49.3125,98,46,0.65324
1891380,-0.45000,48.6250,98,46,0.62857
1891390,-0.33500,48.2500,98,46,0.61538
1891400,-0.26500,47.8750,98,46,0.60195
1891410,-0.65500,47.5000,98,46,0.58974
1891420,-1.25000,46.5625,98,46,0.56654
1891430,-1.45000,46.0625,98,46,0.55433
1891440,-1.24500,45.5000,98,46,0.54237
1891450,-0.91500,45.0000,98,46,0.53089
1891460,-0.60500,44.1250,98,46,0.50916
1891470,-0.35500,43.7500,98,46,0.49866
1891480,-0.14500,43.5000,98,46,0.48816
1891490,0.00000,43.3750,98,46,0.47790
1891500,0.06500,45.2500,98,46,0.45934
1891510,0.08000,48.1875,98,46,0.45177
1891520,0.10000,52.7500,98,46,0.44371
1891530,0.12500,58.3750,98,46,0.43516
1891540,0.14500,70.2500,98,46,0.41832
1891550,0.17500,75.7500,98,46,0.41026
1891560,0.19500,80.7500,98,46,0.40244
1891570,0.22000,85.2500,98,46,0.39487
1891580,0.26000,92.0625,98,46,0.38046
1891590,0.29000,94.3125,98,46,0.37338
1891600,0.31000,95.7500,98,46,0.36654
1891610,0.30500,96.5000,98,46,0.36117
1891620,0.25500,96.2500,98,46,0.35043
1891630,0.19500,95.4375,98,46,0.34432
1891640,0.16500,94.2500,98,46,0.33797
1891650,0.15500,92.7500,98,46,0.33138
1891660,0.17000,89.3125,98,46,0.31770
1891670,0.18500,87.5000,98,46,0.31062
1891680,0.20500,85.6250,98,46,0.30330
1891690,0.22500,83.7500,98,46,0.29621
1891700,0.20500,80.0000,98,46,0.28376
1891710,0.15500,78.1875,98,46,0.27912
1891720,0.10000,76.3750,98,46,0.27302
1891730,0.08500,74.5000,98,46,0.26642
1891740,0.09000,70.7500,98,46,0.25275
1891750,0.09500,68.8125,98,46,0.24713
1891760,0.10000,66.7500,98,46,0.24371
1891770,0.10500,64.6250,98,46,0.24371
1891780,0.09000,61.1250,98,46,0.27448
1891790,0.06000,59.9375,98,46,0.29377
1891800,0.05000,59.0625,98,46,0.31575
1891810,0.06000,58.3125,98,46,0.33773
1891820,0.10000,56.9375,98,46,0.38828
1891830,0.14000,56.2500,98,46,0.41905
1891840,0.15000,55.6875,98,46,0.45201
1891850,0.12500,55.2500,98,46,0.48596
1891860,0.07000,54.6875,98,46,0.55336
1891870,0.03000,54.5000,98,46,0.58584
1891880,0.02500,54.3125,98,46,0.61661
1891890,0.03000,54.1250,98,46,0.64493
1891900,0.03500,53.8125,98,46,0.69084
1891910,0.04500,53.6250,98,46,0.70696
1891920,0.06000,53.4375,98,46,0.72308
1891930,0.08000,53.2500,98,46,0.73773
1891940,0.09000,52.9375,98,46,0.76020
1891950,0.09000,52.8125,98,46,0.76777
1891960,0.08000,52.6875,98,46,0.77289
1891970,0.06000,52.5000,98,46,0.77582
1891980,0.02000,52.1875,98,46,0.77509
1891990,0.06500,52.0000,98,46,0.77167
1892000,0.37000,51.6875,99,46,0.76654
1892010,0.90000,51.3750,99,46,0.75971
1892020,1.01500,50.6250,99,46,0.74212
1892030,0.44000,50.2500,99,46,0.73162
1892040,-0.13500,49.8750,99,46,0.72015
1892050,-0.26000,49.5000,99,46,0.70769
1892060,-0.06000,48.6250,99,46,0.68034
1892070,0.07000,48.1875,99,46,0.66618
1892080,-0.07000,47.7500,99,46,0.65177
1892090,-0.23000,47.3750,99,46,0.63761
1892100,-0.10500,46.6875,99,46,0.61099
1892110,0.20000,46.3125,99,46,0.59951
1892120,0.37000,45.9375,99,46,0.58755
1892130,0.34000,45.5625,99,46,0.57534
1892140,0.24000,44.8750,99,46,0.55116
1892150,0.11000,44.5625,99,46,0.53944
1892160,0.01000,44.4375,99,46,0.52821
1892170,-0.03000,45.0000,99,46,0.51746
1892180,-0.02500,50.1250,99,46,0.49719
1892190,0.00000,54.9375,99,46,0.48742
1892200,0.03500,60.6250,99,46,0.47814
1892210,0.05500,66.5625,99,46,0.47033
1892220,0.06000,77.9375,99,46,0.45641
1892230,0.04000,82.8750,99,46,0.44884
1892240,0.02500,87.1875,99,46,0.44127
1892250,0.01500,90.7500,99,46,0.43346
1892260,0.02500,95.8125,99,46,0.41807
1892270,0.05500,97.2500,99,46,0.41026
1892280,0.08500,98.0000,99,46,0.40244
1892290,0.09500,98.1250,99,46,0.39487
1892300,0.10500,96.7500,99,46,0.38193
1892310,0.12000,95.5000,99,46,0.37705
1892320,0.13000,93.9375,99,46,0.37094
1892330,0.13000,92.1250,99,46,0.36435
1892340,0.11000,88.2500,99,46,0.35043
1892350,0.08500,86.3125,99,46,0.34335
1892360,0.07000,84.4375,99,46,0.33602
1892370,0.06000,82.5625,99,46,0.32869
1892380,0.06000,79.0000,99,46,0.31429
1892390,0.05500,77.2500,99,46,0.30672
1892400,0.04000,75.5000,99,46,0.29915
1892410,0.00500,71.7500,99,46,0.29328
1892420,-0.03000,69.6875,99,46,0.28498
1892430,-0.05500,67.5625,99,46,0.28230
1892440,-0.05500,65.5000,99,46,0.28278
1892450,-0.04500,63.6250,99,46,0.28742
1892460,-0.03000,60.7500,99,46,0.31136
1892470,-0.01500,59.7500,99,46,0.33114
1892480,0.00000,58.8750,99,46,0.35531
1892490,0.02500,58.1875,99,46,0.38315
1892500,0.06500,57.1250,99,46,0.44298
1892510,0.10000,56.6875,99,46,0.47082
1892520,0.09500,56.3750,99,46,0.50208
1892530,0.07000,56.0625,99,46,0.53480
1892540,0.04000,55.4375,99,46,0.59951
1892550,0.00500,55.0625,99,46,0.62955
1892560,-0.03000,54.7500,99,46,0.65739
1892570,-0.06500,54.5000,99,46,0.68254
1892580,-0.09500,54.0625,99,46,0.72503
1892590,-0.10500,53.8750,99,46,0.74212
1892600,-0.09500,53.6875,99,46,0.75629
1892610,-0.09000,53.5000,99,46,0.76581
1892620,-0.09500,53.1875,99,46,0.77729
1892630,-0.09500,53.1250,99,46,0.78120
1892640,-0.09500,53.0000,99,46,0.78315
1892650,-0.10500,52.8125,99,46,0.78339
1892660,-0.00500,52.3125,99,46,0.77802
1892670,0.39000,52.0000,99,46,0.77241
1892680,0.89000,51.6250,99,46,0.76532
1892690,0.81500,51.3125,99,46,0.75385
1892700,0.17000,50.6250,99,46,0.73431
1892710,-0.34500,50.2500,99,46,0.72454
1892720,-0.49500,49.8125,99,46,0.71306
1892730,-0.39500,49.4375,99,46,0.70037
1892740,-0.27500,48.6250,99,46,0.67302
1892750,-0.23500,48.1875,99,46,0.65885
1892760,-0.22000,47.6875,99,46,0.64469
1892770,-0.18500,47.1875,99,46,0.63053
1892780,-0.15500,46.1875,99,46,0.60244
1892790,-0.13500,45.6875,99,46,0.58877
1892800,-0.14000,45.2500,99,46,0.57680
1892810,-0.14500,44.8125,99,46,0.56606
1892820,-0.15000,44.3125,99,46,0.54335
1892830,-0.16000,44.7500,99,46,0.53211
1892840,-0.17000,46.2500,99,46,0.52137
1892850,-0.15500,49.3125,99,46,0.51087
1892860,-0.12500,59.6250,99,46,0.49084
1892870,-0.10500,65.7500,99,46,0.48132
1892880,-0.07500,71.8750,99,46,0.47228
1892890,-0.03500,77.5625,99,46,0.46374
1892900,0.00000,87.5000,99,46,0.44860
1892910,0.02000,91.4375,99,46,0.44249
1892920,0.04000,94.5625,99,46,0.43541
1892930,0.05000,96.8750,99,46,0.42808
1892940,0.06000,99.2500,99,46,0.41319
1892950,0.05500,99.5000,99,46,0.40562
1892960,0.05000,99.1875,99,46,0.39805
1892970,0.04000,98.3750,99,46,0.39072
1892980,0.06000,95.9375,99,46,0.37607
1892990,0.08000,94.3750,99,46,0.36850
1893000,0.09000,92.6875,99,46,0.36264
1893010,0.08000,90.9375,99,46,0.35751
1893020,0.05500,87.2500,99,46,0.34432
1893030,0.02000,85.4375,99,46,0.33700
1893040,-0.00500,83.6250,99,46,0.32967
1893050,-0.02000,81.8125,99,46,0.32210
1893060,-0.02500,78.3750,99,46,0.30647
1893070,-0.01500,76.6250,99,46,0.29866
1893080,-0.01500,74.6875,99,46,0.29158
1893090,-0.02000,72.6875,99,46,0.28596
1893100,-0.02500,68.3125,99,46,0.28278
1893110,-0.02500,66.1875,99,46,0.28669
1893120,-0.02500,64.3125,99,46,0.29475
1893130,-0.00500,62.7500,99,46,0.30745
1893140,0.00000,60.4375,99,46,0.34725
1893150,-0.01000,59.6250,99,46,0.37387
1893160,-0.01500,58.9375,99,46,0.40366
1893170,0.00000,58.3750,99,46,0.43565
1893180,0.01500,57.4375,99,46,0.50354
1893190,0.00000,57.1250,99,46,0.53797
1893200,-0.06500,56.7500,99,46,0.56752
1893210,-0.12500,56.3125,99,46,0.59414
1893220,-0.11000,55.8125,99,46,0.65055
1893230,-0.08500,55.8125,99,46,0.67717
1893240,-0.09500,55.7500,99,46,0.70134
1893250,-0.13000,55.5625,99,46,0.72283
1893260,-0.16000,55.0625,99,46,0.75751
1893270,-0.18000,54.7500,99,46,0.77094
1893280,-0.18000,54.4375,99,46,0.78168
1893290,-0.16000,54.1875,99,46,0.78974
1893300,-0.14000,54.0625,99,46,0.79756
1893310,-0.13500,53.8125,99,46,0.79731
1893320,-0.14000,53.4375,99,46,0.79634
1893330,0.03000,53.0625,99,46,0.79390
1893340,0.51000,52.3750,99,46,0.78413
1893350,0.93000,52.0625,99,46,0.77680
1893360,0.69000,51.8125,99,46,0.76777
1893370,0.00000,51.4375,99,46,0.75751
1893380,-0.42500,50.6875,99,46,0.73358
1893390,-0.49000,50.3125,99,46,0.72015
1893400,-0.37500,49.9375,99,46,0.70720
1893410,-0.29000,49.5000,99,46,0.69451
1893420,-0.27000,48.5625,99,46,0.66618
1893430,-0.26500,48.1250,99,46,0.65153
1893440,-0.25000,47.5625,99,46,0.63712
1893450,-0.23000,47.0000,99,46,0.62271
1893460,-0.20500,46.0000,99,46,0.59512
1893470,-0.19000,45.5625,99,46,0.58193
1893480,-0.18000,45.2500,99,46,0.56923
1893490,-0.17000,45.1250,99,46,0.55702
1893500,-0.15500,46.4375,99,46,0.53529
1893510,-0.14500,48.8750,99,46,0.52625
1893520,-0.13500,52.9375,99,46,0.51673
1893530,-0.12000,58.3750,99,46,0.50696
1893540,-0.09500,70.4375,99,46,0.48791
1893550,-0.06000,76.1875,99,46,0.47839
1893560,-0.03500,81.5000,99,46,0.46911
1893570,-0.01500,86.2500,99,46,0.46007
1893580,-0.00500,93.6875,99,46,0.44322
1893590,0.00500,96.3125,99,46,0.43516
1893600,0.01500,98.1875,99,46,0.42857
1893610,0.02000,99.2500,99,46,0.42271
1893620,0.02000,99.5000,99,46,0.40928
1893630,0.01500,98.8750,99,46,0.40195
1893640,0.03000,98.0000,99,46,0.39463
1893650,0.05500,96.8750,99,46,0.38730
1893660,0.09000,93.9375,99,46,0.37192
1893670,0.10500,92.2500,99,46,0.36410
1893680,0.09500,90.6250,99,46,0.35629
1893690,0.06500,89.0000,99,46,0.34847
1893700,0.03000,85.7500,99,46,0.33455
1893710,-0.01000,84.1875,99,46,0.32723
1893720,-0.03500,82.5625,99,46,0.31941
1893730,-0.05500,80.9375,99,46,0.31355
1893740,-0.05500,77.8750,99,46,0.29915
1893750,-0.05500,76.1875,99,46,0.29231
1893760,-0.05500,74.2500,99,46,0.28694
1893770,-0.07500,72.2500,99,46,0.28449
1893780,-0.11000,68.4375,99,46,0.29280
1893790,-0.13000,66.8750,99,46,0.30452
1893800,-0.10500,65.4375,99,46,0.31917
1893810,-0.03000,64.1875,99,46,0.33675
1893820,0.05500,62.0000,99,46,0.37802
1893830,0.12500,61.1250,99,46,0.39487
1893840,0.16500,60.3750,99,46,0.42002
1893850,0.15500,59.7500,99,46,0.44933
1893860,0.11000,58.8125,99,46,0.51331
1893870,0.06000,58.4375,99,46,0.54505
1893880,0.02000,58.0625,99,46,0.57558
1893890,-0.02500,57.6250,99,46,0.60440
1893900,-0.06500,56.8125,99,46,0.65104
1893910,-0.09500,56.4375,99,46,0.66789
1893920,-0.11000,56.1875,99,46,0.68474
1893930,-0.11500,56.0000,99,46,0.70037
1893940,-0.10500,55.8125,99,46,0.72479
1893950,-0.09500,55.7500,99,46,0.73358
1893960,-0.08000,55.7500,99,46,0.73993
1893970,-0.08500,55.8125,99,46,0.74432
1893980,-0.11000,55.7500,99,46,0.74652
1893990,-0.12500,55.4375,99,46,0.74481
1894000,0.06000,55.0000,98,46,0.74115
1894010,0.55000,54.3125,98,46,0.73578
1894020,0.91000,52.3750,98,46,0.72186
1894030,0.60500,51.3125,98,46,0.71282
1894040,0.00500,50.4375,98,46,0.70256
1894050,-0.35000,49.8125,98,46,0.69109
1894060,-0.41000,48.9375,98,46,0.66545
1894070,-0.32500,48.5625,98,46,0.65153
1894080,-0.28000,48.1250,98,46,0.63712
1894090,-0.30000,47.6250,98,46,0.62271
1894100,-0.30500,46.6875,98,46,0.59536
1894110,-0.30000,46.3750,98,46,0.58315
1894120,-0.28000,46.1250,98,46,0.57021
1894130,-0.26000,45.9375,98,46,0.55727
1894140,-0.24500,45.4375,98,46,0.53187
1894150,-0.23000,45.3750,98,46,0.51966
1894160,-0.20000,45.5000,98,46,0.50818
1894170,-0.16500,46.2500,98,46,0.49695
1894180,-0.13500,51.4375,98,46,0.47595
1894190,-0.11000,56.3125,98,46,0.46593
1894200,-0.07500,62.0625,98,46,0.45763
1894210,-0.04500,68.1250,98,46,0.45006
1894220,-0.01000,79.4375,98,46,0.43321
1894230,0.01500,84.5000,98,46,0.42466
1894240,0.03500,88.9375,98,46,0.41587
1894250,0.04500,92.7500,98,46,0.40733
1894260,0.05000,98.0000,98,46,0.39121
1894270,0.05000,99.4375,98,46,0.38339
1894280,0.04500,100.1875,98,46,0.37582
1894290,0.04500,100.3125,98,46,0.36825
1894300,0.05000,99.1875,98,46,0.35507
1894310,0.05000,98.1250,98,46,0.34994
1894320,0.06000,96.8750,98,46,0.34383
1894330,0.07000,95.4375,98,46,0.33748
1894340,0.07500,92.2500,98,46,0.32454
1894350,0.05500,90.5000,98,46,0.31819
1894360,0.03000,88.7500,98,46,0.31184
1894370,0.01000,86.9375,98,46,0.30549
1894380,-0.01000,83.4375,98,46,0.29206
1894390,-0.02500,81.6250,98,46,0.28498
1894400,-0.03500,79.8125,98,46,0.27961
1894410,-0.03000,77.9375,98,46,0.27521
1894420,-0.02000,73.7500,98,46,0.26569
1894430,-0.01500,71.4375,98,46,0.26300
1894440,-0.01500,69.1250,98,46,0.26276
1894450,-0.00500,66.9375,98,46,0.26642
1894460,0.00000,63.5625,98,46,0.28694
1894470,0.01000,62.3125,98,46,0.30427
1894480,0.03000,61.8333,98,46,0.30908
1894490,0.04500,61.2500,98,46,0.32601
1894500,0.05500,59.6875,98,46,0.37973
1894510,0.06000,59.1250,98,46,0.40635
1894520,0.05500,58.6250,98,46,0.43223
1894530,0.02000,58.2500,98,46,0.46154
1894540,-0.01500,57.6875,98,46,0.52357
1894550,-0.04000,57.3750,98,46,0.55385
1894560,-0.06000,57.1250,98,46,0.58266
1894570,-0.08500,56.8750,98,46,0.60952
1894580,-0.11000,56.4375,98,46,0.65617
1894590,-0.12500,56.2500,98,46,0.67546
1894600,-0.13000,56.1250,98,46,0.69231
1894610,-0.13500,55.9375,98,46,0.70427
1894620,-0.14500,55.5000,98,46,0.72137
1894630,-0.14500,55.3125,98,46,0.72845
1894640,-0.14500,55.1250,98,46,0.73382
1894650,-0.13500,54.8750,98,46,0.73700
1894660,-0.10000,54.3750,98,46,0.73797
1894670,0.14000,54.0625,98,46,0.73553
1894680,0.66000,53.7500,98,46,0.73138
1894690,1.00500,53.4375,98,46,0.72527
1894700,0.63000,52.8125,98,46,0.70916
1894710,-0.03500,52.4375,98,46,0.69963
1894720,-0.39500,52.0625,98,46,0.68864
1894730,-0.43000,51.5625,98,46,0.67668
1894740,-0.30500,50.6250,98,46,0.64640
1894750,-0.21500,50.1250,98,46,0.63053
1894760,-0.20500,49.7500,98,46,0.61905
1894770,-0.20000,49.3750,98,46,0.60611
1894780,-0.19000,48.8125,98,46,0.57875
1894790,-0.17500,48.5000,98,46,0.56532
1894800,-0.15500,48.1250,98,46,0.55189
1894810,-0.13000,47.6875,98,46,0.54042
1894820,-0.11500,46.8125,98,46,0.51868
1894830,-0.11500,46.5000,98,46,0.50720
1894840,-0.11500,46.5625,98,46,0.49597
1894850,-0.11500,47.5000,98,46,0.48523
1894860,-0.10500,53.6875,98,46,0.46447
1894870,-0.09000,59.0000,98,46,0.45470
1894880,-0.07500,65.0625,98,46,0.44542
1894890,-0.06500,71.0625,98,46,0.43639
1894900,-0.05500,82.0625,98,46,0.42076
1894910,-0.03500,87.0625,98,46,0.41441
1894920,-0.00500,91.6875,98,46,0.40733
1894930,0.03000,95.6250,98,46,0.40000
1894940,0.06000,101.1875,98,46,0.38559
1894950,0.08000,102.7500,98,46,0.37827
1894960,0.08500,103.5625,98,46,0.37094
1894970,0.08000,103.6250,98,46,0.36361
1894980,0.07500,101.8750,98,46,0.34872
1894990,0.07500,100.5000,98,46,0.34115
1895000,0.06500,98.9375,97,46,0.33358
1895010,0.05000,97.3125,97,46,0.32772
1895020,0.02000,93.7500,97,46,0.31648
1895030,0.00000,91.7500,97,46,0.30965
1895040,-0.00500,89.6875,97,46,0.30256
1895050,-0.01000,87.5000,97,46,0.29573
1895060,-0.02000,83.2500,97,46,0.28156
1895070,-0.03000,81.3125,97,46,0.27448
1895080,-0.04500,79.4375,97,46,0.26764
1895090,-0.05500,77.5000,97,46,0.26105
1895100,-0.06500,73.1875,97,46,0.25250
1895110,-0.07500,70.8750,97,46,0.25226
1895120,-0.07500,68.5625,97,46,0.25421
1895130,-0.07000,66.5000,97,46,0.25983
1895140,-0.06500,63.3125,97,46,0.28449
1895150,-0.05500,62.1250,97,46,0.30379
1895160,-0.03500,61.1875,97,46,0.32747
1895170,-0.01000,60.3125,97,46,0.35458
1895180,0.00000,59.0000,97,46,0.41661
1895190,0.00000,58.5000,97,46,0.44982
1895200,-0.01500,58.1250,97,46,0.48352
1895210,-0.03000,57.7500,97,46,0.51258
1895220,-0.03500,57.0625,97,46,0.56703
1895230,-0.04000,56.6875,97,46,0.59512
1895240,-0.06000,56.3125,97,46,0.62149
1895250,-0.07500,56.0000,97,46,0.64591
1895260,-0.08500,55.5625,97,46,0.68694
1895270,-0.08000,55.3125,97,46,0.70330
1895280,-0.08000,55.1250,97,46,0.71673
1895290,-0.08500,55.0000,97,46,0.72747
1895300,-0.09000,54.7500,97,46,0.73993
1895310,-0.09500,54.6250,97,46,0.74188
1895320,-0.11500,54.5625,97,46,0.74310
1895330,-0.10000,54.4375,97,46,0.74310
1895340,0.16000,54.1250,97,46,0.73871
1895350,0.70000,53.9375,97,46,0.73407
1895360,0.94000,53.6250,97,46,0.72796
1895370,0.50000,53.3125,97,46,0.72039
1895380,-0.13500,52.6250,97,46,0.70085
1895390,-0.43500,52.1875,97,46,0.68913
1895400,-0.40500,51.7500,97,46,0.67668
1895410,-0.27000,51.3125,97,46,0.66447
1895420,-0.20500,50.3125,97,46,0.63858
1895430,-0.20000,49.8125,97,46,0.62442
1895440,-0.20000,49.3125,97,46,0.61026
1895450,-0.19000,48.7500,97,46,0.59609
1895460,-0.18500,47.7500,97,46,0.56850
1895470,-0.18000,47.2500,97,46,0.55531
1895480,-0.18000,46.8125,97,46,0.54237
1895490,-0.18000,46.4375,97,46,0.52967
1895500,-0.17500,46.1250,97,46,0.50696
1895510,-0.16000,46.6250,97,46,0.49744
1895520,-0.14500,48.1250,97,46,0.48742
1895530,-0.12000,51.1875,97,46,0.47741
1895540,-0.09500,61.3750,97,46,0.45739
1895550,-0.06500,67.4375,97,46,0.44786
1895560,-0.04000,73.4375,97,46,0.43858
1895570,-0.02000,79.1875,97,46,0.42979
1895580,-0.01500,89.1250,97,46,0.41245
1895590,-0.01500,93.0625,97,46,0.40391
1895600,-0.00500,96.1875,97,46,0.39560
1895610,0.02500,98.5000,97,46,0.38877
1895620,0.05000,101.0000,97,46,0.37607
1895630,0.06000,101.3750,97,46,0.36874
1895640,0.06500,101.3750,97,46,0.36142
1895650,0.09000,100.9375,97,46,0.35409
1895660,0.13000,99.3750,97,46,0.33919
1895670,0.17000,98.3750,97,46,0.33162
1895680,0.17500,97.1875,97,46,0.32405
1895690,0.15000,95.8750,97,46,0.31648
1895700,0.10500,93.1250,97,46,0.30330
1895710,0.05000,91.6250,97,46,0.29817
1895720,0.00000,89.8750,97,46,0.29182
1895730,-0.03500,87.9375,97,46,0.28474
1895740,-0.05000,83.5625,97,46,0.26960
1895750,-0.05000,81.1250,97,46,0.26203
1895760,-0.03500,78.4375,97,46,0.25519
1895770,-0.01500,75.6250,97,46,0.24957
1895780,0.00000,69.6250,97,46,0.24567
1895790,0.00000,66.9375,97,46,0.24908
1895800,0.00000,64.6875,97,46,0.25714
1895810,0.01000,62.8125,97,46,0.26813
1895820,0.03000,60.2500,97,46,0.30208
1895830,0.05500,59.3750,97,46,0.32601
1895840,0.07000,58.6250,97,46,0.35336
1895850,0.07000,58.1250,97,46,0.38315
1895860,0.05000,57.4375,97,46,0.44737
1895870,0.02000,57.1875,97,46,0.47985
1895880,-0.01500,57.0000,97,46,0.51282
1895890,-0.03500,56.9375,97,46,0.54505
1895900,-0.07000,56.7500,97,46,0.59829
1895910,-0.09500,56.6875,97,46,0.61832
1895920,-0.11500,56.6250,97,46,0.63883
1895930,-0.11500,56.6875,97,46,0.65812
1895940,-0.10000,57.0000,97,46,0.69035
1895950,-0.08000,57.2500,97,46,0.70281
1895960,-0.06000,57.5000,97,46,0.71306
1895970,-0.04500,57.7500,97,46,0.72088
1895980,-0.05000,58.0000,97,46,0.72991
1895990,-0.08000,58.0000,97,46,0.73162
1896000,-0.06500,57.8125,97,46,0.73138
1896010,0.19000,57.6875,97,46,0.72894
1896020,0.75000,57.3125,97,46,0.72015
1896030,1.05500,57.1250,97,46,0.71380
1896040,0.59500,56.9375,97,46,0.70623
1896050,-0.06500,56.6875,97,46,0.69719
1896060,-0.39500,56.2500,97,46,0.67570
1896070,-0.42000,56.0000,97,46,0.66374
1896080,-0.30000,55.7500,97,46,0.65104
1896090,-0.22000,55.4375,97,46,0.63810
1896100,-0.20000,54.5000,97,46,0.61245
1896110,-0.18500,54.0625,97,46,0.60098
1896120,-0.16500,53.6875,97,46,0.58852
1896130,-0.13500,53.1250,97,46,0.57607
1896140,-0.10500,51.5000,97,46,0.55092
1896150,-0.08000,50.6875,97,46,0.53895
1896160,-0.06500,49.9375,97,46,0.52723
1896170,-0.06500,49.1875,97,46,0.51600
1896180,-0.07500,48.3125,97,46,0.49475
1896190,-0.09000,49.3125,97,46,0.48449
1896200,-0.09500,52.1250,97,46,0.47473
1896210,-0.08500,56.8125,97,46,0.46642
1896220,-0.06500,68.6250,97,46,0.44982
1896230,-0.02500,74.3750,97,46,0.44078
1896240,0.01000,79.8750,97,46,0.43199
1896250,0.04000,84.8750,97,46,0.42344
1896260,0.06000,93.0625,97,46,0.40684
1896270,0.07000,96.0625,97,46,0.39878
1896280,0.07500,98.3125,97,46,0.39072
1896290,0.07500,99.8125,97,46,0.38315
1896300,0.06500,101.0000,97,46,0.37021
1896310,0.05000,100.9375,97,46,0.36532
1896320,0.05000,100.5625,97,46,0.35971
1896330,0.05500,99.0000,97,46,0.35385
1896340,0.07500,97.7500,97,46,0.34090
1896350,0.10000,96.2500,97,46,0.33431
1896360,0.09500,94.6250,97,46,0.32747
1896370,0.07000,92.8125,97,46,0.32063
1896380,0.02500,89.0000,97,46,0.30745
1896390,-0.03000,87.0625,97,46,0.30085
1896400,-0.08500,85.1250,97,46,0.29426
1896410,-0.11500,83.1875,97,46,0.28938
1896420,-0.13500,79.4375,97,46,0.27985
1896430,-0.13000,77.5000,97,46,0.27473
1896440,-0.11500,75.3750,97,46,0.27082
1896450,-0.09500,73.1875,97,46,0.26911
1896460,-0.07500,68.9375,97,46,0.27570
1896470,-0.06000,67.1875,97,46,0.28523
1896480,-0.04500,65.8125,97,46,0.29939
1896490,-0.03500,64.7500,97,46,0.31795
1896500,-0.03000,63.1250,97,46,0.36288
1896510,-0.02500,62.4375,97,46,0.38584
1896520,-0.03500,61.8750,97,46,0.41319
1896530,-0.05500,61.5000,97,46,0.44322
1896540,-0.07500,60.8750,97,46,0.50647
1896550,-0.08000,60.5000,97,46,0.53797
1896560,-0.08500,60.0625,97,46,0.56825
1896570,-0.09500,59.6875,97,46,0.59707
1896580,-0.12500,59.0625,97,46,0.64762
1896590,-0.15000,58.7500,97,46,0.66911
1896600,-0.16000,58.5000,97,46,0.68547
1896610,-0.16500,58.1250,97,46,0.69817
1896620,-0.16000,57.4375,97,46,0.72186
1896630,-0.15500,57.1250,97,46,0.73138
1896640,-0.13500,56.9375,97,46,0.73871
1896650,-0.10500,56.6875,97,46,0.74408
1896660,-0.10000,55.8750,97,46,0.74896
1896670,0.02000,55.4375,97,46,0.74872
1896680,0.41500,55.0625,97,46,0.74652
1896690,0.93500,54.7500,97,46,0.74237
1896700,0.89500,53.8750,97,46,0.72918
1896710,0.24500,53.3125,97,46,0.72063
1896720,-0.32000,52.6875,97,46,0.71111
1896730,-0.52000,52.0625,97,46,0.70037
1896740,-0.44000,51.0625,97,46,0.67570
1896750,-0.30500,50.6250,97,46,0.66227
1896760,-0.26000,50.2500,97,46,0.64835
1896770,-0.24000,49.8750,97,46,0.63443
1896780,-0.22000,49.3125,97,46,0.60684
1896790,-0.20000,49.0000,97,46,0.59145
1896800,-0.19000,48.6250,97,46,0.57851
1896810,-0.19000,48.1875,97,46,0.56899
1896820,-0.20000,47.3125,97,46,0.54701
1896830,-0.20500,47.0000,97,46,0.53578
1896840,-0.21000,46.8125,97,46,0.52454
1896850,-0.21000,47.1875,97,46,0.51355
1896860,-0.19000,51.9375,97,46,0.49231
1896870,-0.17000,56.9375,97,46,0.48205
1896880,-0.14000,63.1875,97,46,0.47228
1896890,-0.10000,69.7500,97,46,0.46276
1896900,-0.07000,81.9375,97,46,0.44591
1896910,-0.04500,87.1875,97,46,0.43907
1896920,-0.03500,91.7500,97,46,0.43150
1896930,-0.02500,95.5000,97,46,0.42369
1896940,-0.02000,100.4375,97,46,0.40830
1896950,0.00000,101.7500,97,46,0.40098
1896960,0.02500,102.5000,97,46,0.39365
1896970,0.06000,102.6875,97,46,0.38632
1896980,0.08000,102.1250,97,46,0.37192
1896990,0.10000,101.2500,97,46,0.36484
1897000,0.11000,100.0625,98,46,0.35897
1897010,0.10000,98.4375,98,46,0.35385
1897020,0.06500,94.6250,98,46,0.34066
1897030,0.03000,92.8125,98,46,0.33333
1897040,-0.01500,91.2500,98,46,0.32601
1897050,-0.06500,89.7500,98,46,0.31868
1897060,-0.09500,86.5000,98,46,0.30379
1897070,-0.10500,84.6250,98,46,0.29646
1897080,-0.09500,82.6875,98,46,0.28938
1897090,-0.07500,80.7500,98,46,0.28278
1897100,-0.05500,76.5625,98,46,0.27350
1897110,-0.03500,74.1875,98,46,0.27228
1897120,-0.03000,71.6250,98,46,0.27253
1897130,-0.03000,69.1250,98,46,0.27570
1897140,-0.02500,65.0000,98,46,0.29353
1897150,-0.01000,63.6250,98,46,0.30891
1897160,0.02000,62.6250,98,46,0.32845
1897170,0.05500,61.9375,98,46,0.35165
1897180,0.06500,61.0000,98,46,0.40684
1897190,0.06500,60.6250,98,46,0.43712
1897200,0.04000,60.1875,98,46,0.46398
1897210,0.00500,59.7500,98,46,0.48913
1897220,-0.03000,58.8125,98,46,0.54554
1897230,-0.07000,58.2500,98,46,0.57338
1897240,-0.11000,57.8125,98,46,0.59951
1897250,-0.14000,57.4375,98,46,0.62369
1897260,-0.15500,56.5625,98,46,0.66520
1897270,-0.15000,56.0000,98,46,0.68205
1897280,-0.13500,55.5000,98,46,0.69646
1897290,-0.12500,55.0000,98,46,0.70818
1897300,-0.11500,53.8750,98,46,0.72357
1897310,-0.11500,53.6875,98,46,0.72674
1897320,-0.11500,54.0000,98,46,0.72943
1897330,-0.11500,54.6875,98,46,0.73065
1897340,0.05500,55.6250,98,46,0.72845
1897350,0.53000,55.6875,98,46,0.72503
1897360,0.93500,55.4375,98,46,0.71990
1897370,0.68000,54.9375,98,46,0.71306
1897380,-0.01000,53.8125,98,46,0.69499
1897390,-0.44000,53.3125,98,46,0.68400
1897400,-0.48000,53.0000,98,46,0.67302
1897410,-0.35500,52.7500,98,46,0.66154
1897420,-0.23500,52.1875,98,46,0.63492
1897430,-0.19500,51.5625,98,46,0.62051
1897440,-0.18000,50.8125,98,46,0.60586
1897450,-0.17000,49.8750,98,46,0.59145
1897460,-0.16000,48.3750,98,46,0.56386
1897470,-0.14500,48.0625,98,46,0.55092
1897480,-0.13500,48.0000,98,46,0.53846
1897490,-0.12500,47.7500,98,46,0.52674
1897500,-0.12500,46.8125,98,46,0.50574
1897510,-0.12500,46.7500,98,46,0.49695
1897520,-0.11500,47.5625,98,46,0.48742
1897530,-0.09500,49.8750,98,46,0.47790
1897540,-0.07500,59.3125,98,46,0.45934
1897550,-0.04500,65.5625,98,46,0.45055
1897560,-0.02500,72.0625,98,46,0.44176
1897570,-0.01000,78.2500,98,46,0.43346
1897580,0.00000,88.9375,98,46,0.41709
1897590,0.01000,93.4375,98,46,0.40928
1897600,0.01500,97.1250,98,46,0.40293
1897610,0.02000,99.9375,98,46,0.39731
1897620,0.04000,103.4375,98,46,0.38462
1897630,0.06000,104.1250,98,46,0.37802
1897640,0.07000,104.0625,98,46,0.37143
1897650,0.07500,103.5000,98,46,0.36459
1897660,0.07500,101.1875,98,46,0.35092
1897670,0.07000,99.7500,98,46,0.34408
1897680,0.06000,98.0625,98,46,0.33700
1897690,0.04000,96.3125,98,46,0.32991
1897700,0.02500,92.7500,98,46,0.31673
1897710,0.00500,91.0000,98,46,0.31160
1897720,-0.01000,89.1875,98,46,0.30501
1897730,-0.02500,87.3750,98,46,0.29792
1897740,-0.02500,83.6875,98,46,0.28230
1897750,-0.01500,81.7500,98,46,0.27448
1897760,-0.01500,79.6875,98,46,0.26716
1897770,-0.00500,77.4375,98,46,0.26105
1897780,-0.00500,72.5625,98,46,0.25519
1897790,0.00000,70.0625,98,46,0.25714
1897800,0.00500,67.8125,98,46,0.26252
1897810,0.01000,65.9375,98,46,0.27155
1897820,0.01000,63.1875,98,46,0.31184
1897830,0.02000,62.1875,98,46,0.32918
1897840,0.03000,61.4375,98,46,0.35189
1897850,0.03000,60.8750,98,46,0.37851
1897860,0.02000,60.1875,98,46,0.43834
1897870,0.01000,59.9375,98,46,0.46984
1897880,-0.00500,59.7500,98,46,0.50110
1897890,-0.02500,59.5625,98,46,0.53162
1897900,-0.04000,59.0625,98,46,0.58486
1897910,-0.06500,58.8125,98,46,0.60537
1897920,-0.09500,58.5625,98,46,0.62662
1897930,-0.10500,58.3125,98,46,0.64664
1897940,-0.11500,57.8125,98,46,0.68034
1897950,-0.11000,57.5625,98,46,0.69402
1897960,-0.10000,57.3750,98,46,0.70549
1897970,-0.08500,57.1875,98,46,0.71429
1897980,-0.06500,56.9375,98,46,0.72527
1897990,-0.05500,56.7500,98,46,0.72747
1898000,-0.06500,56.5000,98,46,0.72723
1898010,0.07500,56.2500,98,46,0.72503
1898020,0.52500,55.6250,98,46,0.71770
1898030,0.99000,55.2500,98,46,0.71184
1898040,0.78500,54.9375,98,46,0.70427
1898050,0.10000,54.5000,98,46,0.69524
1898060,-0.36500,53.6875,98,46,0.67350
1898070,-0.47000,53.1875,98,46,0.66129
1898080,-0.35000,52.6875,98,46,0.64811
1898090,-0.23000,52.1250,98,46,0.63468
1898100,-0.19000,51.0625,98,46,0.60855
1898110,-0.17500,50.5625,98,46,0.59683
1898120,-0.16000,50.0625,98,46,0.58462
1898130,-0.14500,49.5625,98,46,0.57192
1898140,-0.13000,48.5625,98,46,0.54725
1898150,-0.12000,48.1250,98,46,0.53529
1898160,-0.12000,47.6875,98,46,0.52381
1898170,-0.11500,47.3125,98,46,0.51233
1898180,-0.11500,47.4375,98,46,0.49011
1898190,-0.11500,48.6250,98,46,0.47985
1898200,-0.10500,51.3125,98,46,0.47106
1898210,-0.08500,61.3125,98,46,0.46300
1898220,-0.06500,67.5625,98,46,0.44542
1898230,-0.03500,73.8125,98,46,0.43687
1898240,-0.01500,79.6875,98,46,0.42833
1898250,0.01000,85.0625,98,46,0.42027
1898260,0.02000,93.8125,98,46,0.40440
1898270,0.03000,97.1250,98,46,0.39683
1898280,0.04000,99.6250,98,46,0.38926
1898290,0.05000,101.4375,98,46,0.38169
1898300,0.06000,103.1250,98,46,0.36850
1898310,0.07000,103.1250,98,46,0.36337
1898320,0.07500,102.7500,98,46,0.35726
1898330,0.09000,102.0000,98,46,0.35067
1898340,0.10000,99.7500,98,46,0.33675
1898350,0.10000,98.3125,98,46,0.32943
1898360,0.08000,96.8125,98,46,0.32210
1898370,0.05000,95.1875,98,46,0.31453
1898380,0.01500,91.8125,98,46,0.29939
1898390,-0.01500,90.0000,98,46,0.29206
1898400,-0.04000,88.2500,98,46,0.28645
1898410,-0.05500,86.4375,98,46,0.28181
1898420,-0.06000,82.6875,98,46,0.26886
1898430,-0.05500,80.5625,98,46,0.26227
1898440,-0.04500,78.2500,98,46,0.25617
1898450,-0.03500,75.8125,98,46,0.25177
1898460,-0.03000,70.7500,98,46,0.25177
1898470,-0.02000,68.5000,98,46,0.25812
1898480,-0.01500,66.5625,98,46,0.26911
1898490,-0.00500,65.0000,98,46,0.28474
1898500,0.01000,62.6250,98,46,0.32137
1898510,0.02000,61.7500,98,46,0.34530
1898520,0.01500,61.0000,98,46,0.37265
1898530,0.01000,60.4375,98,46,0.40244
1898540,-0.01500,59.5000,98,46,0.46496
1898550,-0.04500,59.1875,98,46,0.49646
1898560,-0.06500,58.8750,98,46,0.52747
1898570,-0.08500,58.5625,98,46,0.55702
1898580,-0.11500,58.0000,98,46,0.61026
1898590,-0.13500,57.8125,98,46,0.63321
1898600,-0.15500,57.5625,98,46,0.65079
1898610,-0.16000,57.3125,98,46,0.66471
1898620,-0.17000,56.7500,98,46,0.69133
1898630,-0.17000,56.5000,98,46,0.70208
1898640,-0.17000,56.3125,98,46,0.71087
1898650,-0.15000,56.1250,98,46,0.71770
1898660,-0.13500,55.7500,98,46,0.72503
1898670,-0.13500,55.5625,98,46,0.72601
1898680,0.05000,55.3125,98,46,0.72479
1898690,0.53000,55.0625,98,46,0.72186
1898700,0.96000,54.5000,98,46,0.71087
1898710,0.73500,54.1875,98,46,0.70305
1898720,0.03500,53.9375,98,46,0.69402
1898730,-0.41000,53.5625,98,46,0.68376
1898740,-0.48000,52.8125,98,46,0.66032
1898750,-0.35500,52.3750,98,46,0.64737
1898760,-0.25500,51.8750,98,46,0.63419
1898770,-0.24000,51.3750,98,46,0.62051
1898780,-0.24000,50.3125,98,46,0.59316
1898790,-0.22500,49.8125,98,46,0.57998
1898800,-0.20000,49.3750,98,46,0.56825
1898810,-0.17500,48.8750,98,46,0.55751
1898820,-0.16000,48.0000,98,46,0.53480
1898830,-0.14500,47.6250,98,46,0.52357
1898840,-0.13500,47.3125,98,46,0.50989
1898850,-0.12000,47.3125,98,46,0.49768
1898860,-0.10500,49.3125,98,46,0.47961
1898870,-0.09500,52.3125,98,46,0.47009
1898880,-0.08000,56.8125,98,46,0.46081
1898890,-0.06000,62.1875,98,46,0.45177
1898900,-0.04000,73.5625,98,46,0.43712
1898910,-0.01500,79.0000,98,46,0.42955
1898920,0.00000,83.9375,98,46,0.42173
1898930,0.01000,88.3125,98,46,0.41343
1898940,0.02000,95.1250,98,46,0.39756
1898950,0.03000,97.5625,98,46,0.38974
1898960,0.05000,99.3125,98,46,0.38217
1898970,0.06000,100.5000,98,46,0.37485
1898980,0.07000,101.2500,98,46,0.35995
1898990,0.09000,100.9375,98,46,0.35238
1899000,0.10000,100.3125,99,46,0.34628
1899010,0.11000,99.4375,99,46,0.34090
1899020,0.11000,97.0000,99,46,0.32747
1899030,0.10000,95.5000,99,46,0.32015
1899040,0.06500,93.9375,99,46,0.31282
1899050,0.03000,90.4375,99,46,0.30525
1899060,0.00000,88.5625,99,46,0.28547
1899070,-0.01500,86.6250,99,46,0.27839
1899080,-0.03500,84.6250,99,46,0.27277
1899090,-0.03500,82.6875,99,46,0.26593
1899100,-0.03500,78.5625,99,46,0.25617
1899110,-0.03000,76.3750,99,46,0.25128
1899120,-0.02000,74.0625,99,46,0.24737
1899130,-0.01500,71.6875,99,46,0.24591
1899140,-0.00500,67.3750,99,46,0.25397
1899150,0.00000,65.6250,99,46,0.26447
1899160,0.01000,64.2500,99,46,0.27961
1899170,0.03000,63.0625,99,46,0.29915
1899180,0.04500,61.3750,99,46,0.35726
1899190,0.05000,60.6875,99,46,0.39023
1899200,0.05500,60.1250,99,46,0.41880
1899210,0.03500,59.6250,99,46,0.45324
1899220,0.00500,58.8125,99,46,0.50598
1899230,-0.01500,58.5000,99,46,0.53455
1899240,-0.03500,58.1875,99,46,0.56166
1899250,-0.06000,57.8750,99,46,0.59341
1899260,-0.08000,57.2500,99,46,0.64151
1899270,-0.08500,57.0000,99,46,0.65665
1899280,-0.08500,56.7500,99,46,0.67082
1899290,-0.08500,56.5000,99,46,0.68449
1899300,-0.08500,56.0625,99,46,0.70110
1899310,-0.08000,55.8125,99,46,0.70696
1899320,-0.08000,55.6250,99,46,0.71087
1899330,-0.09000,55.3750,99,46,0.71306
1899340,-0.11000,54.9375,99,46,0.71136
1899350,0.03000,54.6875,99,46,0.70940
1899360,0.46500,54.3750,99,46,0.70501
1899370,0.93000,54.0625,99,46,0.69719
1899380,0.79500,53.3750,99,46,0.67912
1899390,0.12500,53.0000,99,46,0.66935
1899400,-0.36500,52.6250,99,46,0.65934
1899410,-0.46000,52.2500,99,46,0.64762
1899420,-0.34500,51.3750,99,46,0.62149
1899430,-0.24000,50.8750,99,46,0.60733
1899440,-0.21500,50.4375,99,46,0.59292
1899450,-0.21000,49.9375,99,46,0.57875
1899460,-0.20000,49.0625,99,46,0.55116
1899470,-0.19000,48.6250,99,46,0.53822
1899480,-0.18500,48.1875,99,46,0.52576
1899490,-0.18000,47.7500,99,46,0.51502
1899500,-0.17000,47.0625,99,46,0.49499
1899510,-0.15500,46.8750,99,46,0.48474
1899520,-0.13500,47.0625,99,46,0.47448
1899530,-0.12000,48.0000,99,46,0.46447
1899540,-0.10500,53.7500,99,46,0.44493
1899550,-0.08500,58.6875,99,46,0.43541
1899560,-0.06500,64.2500,99,46,0.42613
1899570,-0.05000,70.0625,99,46,0.41734
1899580,-0.03500,81.0000,99,46,0.40073
1899590,-0.01500,85.8750,99,46,0.39438
1899600,0.00000,90.1250,99,46,0.38877
1899610,0.01500,93.6875,99,46,0.38217
1899620,0.03000,98.7500,99,46,0.36825
1899630,0.04000,100.1875,99,46,0.36117
1899640,0.05000,101.0000,99,46,0.35409
1899650,0.05000,101.2500,99,46,0.34701
1899660,0.06000,100.4375,99,46,0.33236
1899670,0.07000,99.5000,99,46,0.32527
1899680,0.09000,98.3125,99,46,0.31819
1899690,0.09000,96.9375,99,46,0.31258
1899700,0.08000,93.7500,99,46,0.30159
1899710,0.05000,92.0625,99,46,0.29475
1899720,0.02000,90.2500,99,46,0.28767
1899730,-0.00500,88.5000,99,46,0.28034
1899740,-0.02000,84.8750,99,46,0.26569
1899750,-0.03500,83.1250,99,46,0.25836
1899760,-0.04000,81.3125,99,46,0.25128
1899770,-0.04500,79.3750,99,46,0.24469
1899780,-0.04500,75.0000,99,46,0.23663
1899790,-0.04500,72.6250,99,46,0.23736
1899800,-0.04000,70.1875,99,46,0.24151
1899810,-0.03500,68.0000,99,46,0.24957
1899820,-0.02000,64.5000,99,46,0.27863
1899830,-0.00500,63.2500,99,46,0.29963
1899840,0.01000,62.2500,99,46,0.32454
1899850,0.03000,61.3750,99,46,0.35214
1899860,0.03500,60.0000,99,46,0.41343
1899870,0.03000,59.4375,99,46,0.44518
1899880,0.01000,59.0000,99,46,0.47692
1899890,-0.02000,58.6250,99,46,0.50427
1899900,-0.04000,58.0000,99,46,0.55531
1899910,-0.06000,57.6875,99,46,0.58144
1899920,-0.08500,57.4375,99,46,0.60635
1899930,-0.10000,57.1875,99,46,0.62906
1899940,-0.10000,56.6250,99,46,0.66716
1899950,-0.10500,56.3750,99,46,0.68205
1899960,-0.11000,56.1250,99,46,0.69426
1899970,-0.11500,55.8750,99,46,0.70891
1899980,-0.11500,55.4375,99,46,0.73260
1899990,-0.11500,55.2500,99,46,0.73651
1900000,-0.11500,55.0625,99,46,0.73748
1900010,-0.11500,54.8125,99,46,0.73700
1900020,0.06500,54.2500,99,46,0.73089
1900030,0.54500,54.0000,99,46,0.72527
1900040,0.95500,53.6875,99,46,0.71819
1900050,0.69000,53.3750,99,46,0.70965
1900060,0.02500,52.6250,99,46,0.68791
1900070,-0.38000,52.2500,99,46,0.67546
1900080,-0.44500,51.8125,99,46,0.66227
1900090,-0.33000,51.3750,99,46,0.64982
1900100,-0.24000,50.3750,99,46,0.62393
1900110,-0.23000,49.8750,99,46,0.60977
1900120,-0.22500,49.4375,99,46,0.59560
1900130,-0.21000,49.0000,99,46,0.58169
1900140,-0.20000,48.1250,99,46,0.55531
1900150,-0.19000,47.6875,99,46,0.54286
1900160,-0.18000,47.3125,99,46,0.53065
1900170,-0.17000,47.0000,99,46,0.51844
1900180,-0.15500,46.6875,99,46,0.49695
1900190,-0.13500,47.1250,99,46,0.48816
1900200,-0.13000,48.4375,99,46,0.47839
1900210,-0.12500,51.1250,99,46,0.46862
1900220,-0.12500,60.6250,99,46,0.45006
1900230,-0.11500,66.3750,99,46,0.44103
1900240,-0.09500,72.1875,99,46,0.43248
1900250,-0.07500,77.6875,99,46,0.42442
1900260,-0.04500,87.3125,99,46,0.40904
1900270,-0.02000,91.1875,99,46,0.40147
1900280,0.00000,94.4375,99,46,0.39414
1900290,0.02000,97.0000,99,46,0.38828
1900300,0.03500,99.9375,99,46,0.37705
1900310,0.04000,100.5000,99,46,0.37070
1900320,0.05000,100.5000,99,46,0.36410
1900330,0.06000,100.0625,99,46,0.35726
1900340,0.07500,98.1250,99,46,0.34310
1900350,0.09000,96.7500,99,46,0.33578
1900360,0.09500,95.2500,99,46,0.32845
1900370,0.08000,91.9375,99,46,0.32112
1900380,0.06000,90.1250,99,46,0.30818
1900390,0.03000,88.3125,99,46,0.30330
1900400,0.00000,86.5625,99,46,0.29719
1900410,-0.02500,84.8125,99,46,0.29035
1900420,-0.04000,81.3125,99,46,0.27570
1900430,-0.04500,79.4375,99,46,0.26838
1900440,-0.03500,77.5000,99,46,0.26203
1900450,-0.02500,75.3125,99,46,0.25714
1900460,-0.01000,70.7500,99,46,0.25592
1900470,0.00000,68.5625,99,46,0.26129
1900480,0.01000,66.6250,99,46,0.27155
1900490,0.02000,65.0000,99,46,0.28449
1900500,0.03500,62.5625,99,46,0.32161
1900510,0.05500,61.6250,99,46,0.34652
1900520,0.07000,60.8125,99,46,0.37460
1900530,0.08000,60.1875,99,46,0.40488
1900540,0.08000,59.2500,99,46,0.46838
1900550,0.06000,58.8750,99,46,0.50037
1900560,0.02500,58.5625,99,46,0.53162
1900570,0.00000,58.2500,99,46,0.56166
1900580,-0.02000,57.6875,99,46,0.61245
1900590,-0.04500,57.3750,99,46,0.63150
1900600,-0.07000,57.0625,99,46,0.65079
1900610,-0.08500,56.7500,99,46,0.66911
1900620,-0.09000,56.0625,99,46,0.69963
1900630,-0.09500,55.7500,99,46,0.71136
1900640,-0.09500,55.3750,99,46,0.72063
1900650,-0.09500,55.0625,99,46,0.72747
1900660,-0.09000,54.5000,99,46,0.73480
1900670,-0.09500,54.2500,99,46,0.73529
1900680,-0.10000,54.0000,99,46,0.73382
1900690,0.06000,53.6875,99,46,0.73040
1900700,0.50500,53.0625,99,46,0.71917
1900710,0.95500,52.7500,99,46,0.71160
1900720,0.79500,52.3750,99,46,0.70232
1900730,0.13000,52.0625,99,46,0.69182
1900740,-0.34500,51.3750,99,46,0.66789
1900750,-0.44500,51.0000,99,46,0.65446
1900760,-0.33500,50.6250,99,46,0.64054
1900770,-0.24000,50.1875,99,46,0.62613
1900780,-0.22000,49.3750,99,46,0.59829
1900790,-0.22000,48.9375,99,46,0.58584
1900800,-0.20500,48.5625,99,46,0.57241
1900810,-0.19000,48.1250,99,46,0.55873
1900820,-0.18000,47.3125,99,46,0.53284
1900830,-0.17000,46.8750,99,46,0.52039
1900840,-0.16000,46.5000,99,46,0.50842
1900850,-0.15000,46.1875,99,46,0.49695
1900860,-0.13500,46.5625,99,46,0.47595
1900870,-0.12500,47.9375,99,46,0.46593
1900880,-0.11000,50.7500,99,46,0.45665
1900890,-0.09500,55.0625,99,46,0.44884
1900900,-0.07000,66.3125,99,46,0.43419
1900910,-0.05000,72.1875,99,46,0.42613
1900920,-0.02500,77.8125,99,46,0.41832
1900930,-0.00500,82.8750,99,46,0.41074
1900940,0.00500,91.3750,99,46,0.39634
1900950,0.02000,94.6250,99,46,0.38950
1900960,0.03500,97.1875,99,46,0.38291
1900970,0.04500,98.9375,99,46,0.37631
1900980,0.06000,100.5000,99,46,0.36459
1900990,0.06500,100.3750,99,46,0.36020
1901000,0.07500,99.8750,100,47,0.35458
1901010,0.08000,99.0000,100,47,0.34823
1901020,0.09000,96.5000,100,47,0.33480
1901030,0.09000,95.0000,100,47,0.32772
1901040,0.08000,93.3750,100,47,0.32063
1901050,0.05000,89.8750,100,47,0.31355
1901060,0.01500,88.0625,100,47,0.29890
1901070,-0.01000,86.2500,100,47,0.29133
1901080,-0.02500,84.5000,100,47,0.28376
1901090,-0.03500,82.6875,100,47,0.27790
1901100,-0.03500,78.9375,100,47,0.26667
1901110,-0.03500,76.9375,100,47,0.26056
1901120,-0.03000,74.7500,100,47,0.25592
1901130,-0.03000,72.5000,100,47,0.25397
1901140,-0.02500,68.0000,100,47,0.26032
1901150,-0.02000,66.1250,100,47,0.27033
1901160,-0.01500,64.4375,100,47,0.28523
1901170,-0.01000,63.1250,100,47,0.30452
1901180,0.00500,61.0625,100,47,0.35092
1901190,0.02500,60.3125,100,47,0.37460
1901200,0.03000,59.6875,100,47,0.40269
1901210,0.03000,59.1250,100,47,0.43321
1901220,0.01000,58.2500,100,47,0.49695
1901230,-0.02500,57.8750,100,47,0.52845
1901240,-0.05000,57.5000,100,47,0.55897
1901250,-0.07500,57.1250,100,47,0.58779
1901260,-0.09500,56.5625,100,47,0.63883
1901270,-0.10500,56.3125,100,47,0.66056
1901280,-0.11000,56.0625,100,47,0.67937
1901290,-0.10500,55.8750,100,47,0.69328
1901300,-0.10000,55.4375,100,47,0.71355
1901310,-0.09500,55.2500,100,47,0.72210
1901320,-0.10000,55.0625,100,47,0.72869
1901330,-0.10500,54.9375,100,47,0.73333
1901340,-0.11000,54.6875,100,47,0.73651
1901350,-0.11500,54.5000,100,47,0.73529
1901360,0.03000,54.3125,100,47,0.73211
1901370,0.48500,54.0625,100,47,0.72723
1901380,0.95000,53.4375,100,47,0.71306
1901390,0.75500,53.0625,100,47,0.70452
1901400,0.09000,52.6875,100,47,0.69475
1901410,-0.35500,52.3125,100,47,0.68352
1901420,-0.47000,51.4375,100,47,0.65885
1901430,-0.36000,50.9375,100,47,0.64542
1901440,-0.26000,50.4375,100,47,0.63175
1901450,-0.24000,50.0000,100,47,0.61783
1901460,-0.23000,49.0000,100,47,0.58950
1901470,-0.22000,48.5000,100,47,0.57582
1901480,-0.20000,48.0000,100,47,0.56239
1901490,-0.18000,47.5625,100,47,0.55067
1901500,-0.16500,46.6250,100,47,0.52869
1901510,-0.15500,46.2500,100,47,0.51746
1901520,-0.14000,46.0000,100,47,0.50623
1901530,-0.13500,46.0000,100,47,0.49524
1901540,-0.12500,48.3125,100,47,0.47448
1901550,-0.11000,51.5000,100,47,0.46447
1901560,-0.09500,56.1250,100,47,0.45495
1901570,-0.07500,61.6250,100,47,0.44567
1901580,-0.05500,73.1875,100,47,0.42955
1901590,-0.04000,78.6250,100,47,0.42295
1901600,-0.02000,83.6875,100,47,0.41563
1901610,-0.00500,88.1250,100,47,0.40806
1901620,0.01000,95.1250,100,47,0.39292
1901630,0.02500,97.5000,100,47,0.38535
1901640,0.04000,99.1250,100,47,0.37802
1901650,0.04500,100.0625,100,47,0.37070
1901660,0.05000,100.1875,100,47,0.35653
1901670,0.06000,99.5625,100,47,0.34921
1901680,0.08000,98.5625,100,47,0.34212
1901690,0.09000,97.3750,100,47,0.33675
1901700,0.09000,94.3750,100,47,0.32650
1901710,0.08000,92.6875,100,47,0.32015
1901720,0.05000,91.0000,100,47,0.31355
1901730,0.02000,89.2500,100,47,0.30672
1901740,-0.00500,85.6875,100,47,0.29304
1901750,-0.02500,83.8750,100,47,0.28571
1901760,-0.04000,82.1250,100,47,0.27839
1901770,-0.04500,80.2500,100,47,0.27106
1901780,-0.04000,76.2500,100,47,0.25958
1901790,-0.04000,74.0000,100,47,0.25739
1901800,-0.04000,71.5625,100,47,0.25665
1901810,-0.04000,69.1875,100,47,0.25885
1901820,-0.03500,65.1250,100,47,0.27619
1901830,-0.02500,63.5625,100,47,0.29182
1901840,-0.01000,62.3125,100,47,0.31184
1901850,0.00000,61.2500,100,47,0.33553
1901860,0.01000,59.6250,100,47,0.39145
1901870,0.01500,59.0000,100,47,0.42222
1901880,0.02000,58.5000,100,47,0.45397
1901890,0.00000,57.6250,100,47,0.48205
1901900,-0.03000,57.3125,100,47,0.53626
1901910,-0.05000,57.0000,100,47,0.56484
1901920,-0.06500,56.7500,100,47,0.59243
1901930,-0.08500,56.4375,100,47,0.61832
1901940,-0.10500,56.0000,100,47,0.66276
1901950,-0.10500,55.8125,100,47,0.68107
1901960,-0.10500,55.5625,100,47,0.69670
1901970,-0.10500,55.3125,100,47,0.70989
1901980,-0.10500,54.9375,100,47,0.72698
1901990,-0.10000,54.8125,100,47,0.73089
1902000,-0.09500,54.6250,100,47,0.73407
1902010,-0.09500,54.4375,100,47,0.73578
1902020,-0.10500,54.0625,100,47,0.73895
1902030,0.02500,53.8125,100,47,0.73675
1902040,0.44500,53.5625,100,47,0.73236
1902050,0.92000,53.1875,100,47,0.72576
1902060,0.81500,52.5000,100,47,0.70769
1902070,0.14500,52.1250,100,47,0.69646
1902080,-0.34500,51.7500,100,47,0.68523
1902090,-0.47000,51.3125,100,47,0.67375
1902100,-0.37500,50.4375,100,47,0.64713
1902110,-0.27000,49.9375,100,47,0.63297
1902120,-0.24500,49.5000,100,47,0.61880
1902130,-0.24000,49.0625,100,47,0.60464
1902140,-0.23000,48.1250,100,47,0.57656
1902150,-0.22000,47.6875,100,47,0.56337
1902160,-0.20000,47.2500,100,47,0.55067
1902170,-0.19000,46.8125,100,47,0.53822
1902180,-0.18000,46.1250,100,47,0.51624
1902190,-0.16500,45.9375,100,47,0.50696
1902200,-0.15500,46.0625,100,47,0.49670
1902210,-0.14500,46.8750,100,47,0.48645
1902220,-0.12500,52.3125,100,47,0.46593
1902230,-0.10500,57.0625,100,47,0.45617
1902240,-0.08500,62.6250,100,47,0.44664
1902250,-0.06500,68.3750,100,47,0.43761
1902260,-0.04500,79.4375,100,47,0.42076
1902270,-0.03000,84.3125,100,47,0.41245
1902280,-0.01000,88.6250,100,47,0.40586
1902290,0.01000,92.2500,100,47,0.40000
1902300,0.04000,97.4375,100,47,0.38632
1902310,0.05000,98.9375,100,47,0.37900
1902320,0.06500,99.7500,100,47,0.37167
1902330,0.07000,100.0000,100,47,0.36435
1902340,0.08000,99.1875,100,47,0.35018
1902350,0.08500,98.1875,100,47,0.34310
1902360,0.09500,97.0000,100,47,0.33602
1902370,0.10000,95.5625,100,47,0.32894
1902380,0.09000,92.3125,100,47,0.31648
1902390,0.06000,90.5625,100,47,0.31160
1902400,0.02000,88.8125,100,47,0.30549
1902410,-0.01000,87.0000,100,47,0.29890
1902420,-0.03500,83.5000,100,47,0.28400
1902430,-0.04000,81.6875,100,47,0.27643
1902440,-0.04000,79.7500,100,47,0.26886
1902450,-0.03500,77.8125,100,47,0.26178
1902460,-0.03000,73.4375,100,47,0.25226
1902470,-0.02500,71.1250,100,47,0.25177
1902480,-0.02000,68.8750,100,47,0.25495
1902490,-0.01500,66.7500,100,47,0.26154
1902500,-0.01000,63.5625,100,47,0.28791
1902510,-0.00500,62.3125,100,47,0.30794
