RelativeTimeMilliseconds,ECG,ART,ART (Sys),ART (Dia),PPG
2598790,-0.03500,54.3125,87,42,0.59292
2598800,-0.03500,54.3125,87,42,0.59292
2598810,-0.03500,54.3125,87,42,0.59292
2598820,-0.03500,54.3125,87,42,0.59292
2598830,0.08000,51.9375,87,42,0.73797
2598840,0.08000,51.9375,87,42,0.73797
2598850,0.08000,51.9375,87,42,0.73797
2598860,0.08000,51.9375,87,42,0.73797
2598870,0.08000,51.9375,87,42,0.73797
2598880,0.08000,51.9375,87,42,0.73797
2598890,0.08000,51.9375,87,42,0.73797
2598900,0.08000,51.9375,87,42,0.73797
2598910,0.08000,51.9375,87,42,0.73797
2598920,0.08000,51.9375,87,42,0.73797
2598930,0.08000,51.9375,87,42,0.73797
2598940,0.08000,51.9375,87,42,0.73797
2598950,0.08000,51.9375,87,42,0.73797
2598960,0.08000,51.9375,87,42,0.73797
2598970,0.08000,51.9375,87,42,0.73797
2598980,0.08000,51.9375,87,42,0.73797
2598990,0.08000,51.9375,87,42,0.73797
2599000,0.08000,51.9375,87,42,0.73797
2599010,0.08000,51.9375,87,42,0.73797
2599020,0.08000,51.9375,87,42,0.73797
2599030,0.08000,51.9375,87,42,0.73797
2599040,0.08000,51.9375,87,42,0.73797
2599050,0.08000,51.9375,87,42,0.73797
2599060,0.08000,51.9375,87,42,0.73797
2599070,0.08000,51.9375,87,42,0.73797
2599080,0.08000,51.9375,87,42,0.73797
2599090,0.08000,51.9375,87,42,0.73797
2599100,0.08000,51.9375,87,42,0.73797
2599110,0.08000,51.9375,87,42,0.73797
2599120,0.08000,51.9375,87,42,0.73797
2599130,0.08000,51.9375,87,42,0.73797
2599140,0.04000,51.6875,87,42,0.75165
2599150,0.04000,51.6875,87,42,0.75165
2599160,-0.02000,51.5000,87,42,0.76288
2599170,-0.07500,51.2500,87,42,0.77192
2599180,-0.11000,50.8125,87,42,0.78339
2599190,-0.13000,50.6250,87,42,0.78584
2599200,-0.13500,50.4375,87,42,0.78657
2599210,-0.14500,50.1875,87,42,0.78510
2599220,-0.15000,49.7500,87,42,0.77827
2599230,-0.15500,49.5000,87,42,0.77338
2599240,-0.15500,49.2500,87,42,0.76728
2599250,-0.15000,48.8750,87,42,0.75995
2599260,-0.16500,48.6250,87,42,0.74212
2599270,-0.15500,48.4375,87,42,0.73187
2599280,0.12500,48.1875,87,42,0.72088
2599290,0.74500,48.0000,87,42,0.70916
2599300,1.09500,47.6250,87,42,0.68498
2599310,0.60500,47.4375,87,42,0.67326
2599320,-0.20000,47.1875,87,42,0.66203
2599330,-0.57500,46.7500,87,42,0.64982
2599340,-0.50500,46.5000,87,42,0.62515
2599350,-0.33000,46.1875,87,42,0.61319
2599360,-0.25500,45.8750,87,42,0.60122
2599370,-0.24000,45.5625,87,42,0.58974
2599380,-0.22500,44.8750,87,42,0.56728
2599390,-0.21000,44.5625,87,42,0.55653
2599400,-0.20000,44.2500,87,42,0.54603
2599410,-0.20000,43.8750,87,42,0.53700
2599420,-0.19000,43.2500,87,42,0.51941
2599430,-0.17500,42.9375,87,42,0.50989
2599440,-0.17500,42.7500,87,42,0.50061
2599450,-0.17000,42.6875,87,42,0.49158
2599460,-0.15500,44.5000,87,42,0.47375
2599470,-0.14500,47.0625,87,42,0.46520
2599480,-0.13500,50.8750,87,42,0.45714
2599490,-0.11500,55.5000,87,42,0.44908
2599500,-0.10000,65.4375,87,42,0.43370
2599510,-0.08000,70.2500,87,42,0.42735
2599520,-0.06500,74.7500,87,42,0.42173
2599530,-0.05000,78.7500,87,42,0.41514
2599540,-0.03500,85.0625,87,42,0.40122
2599550,-0.02000,87.2500,87,42,0.39438
2599560,-0.00500,88.8750,87,42,0.38755
2599570,0.01000,89.9375,87,42,0.38095
2599580,0.02000,90.5625,87,42,0.36874
2599590,0.04000,90.1875,87,42,0.36239
2599600,0.05500,89.5625,87,42,0.35629
2599610,0.07000,88.6250,87,42,0.35140
2599620,0.09000,86.1875,87,42,0.34237
2599630,0.11000,84.7500,87,42,0.33700
2599640,0.11000,83.2500,87,42,0.33162
2599650,0.09500,81.6875,87,42,0.32601
2599660,0.07000,78.5625,87,42,0.31429
2599670,0.04000,77.0000,87,42,0.30794
2599680,0.01500,75.5000,87,42,0.30159
2599690,0.00000,73.9375,87,42,0.29548
2599700,-0.00500,71.0000,87,42,0.28620
2599710,-0.01000,69.5000,87,42,0.28474
2599720,-0.01000,68.0000,87,42,0.28596
2599730,-0.01500,66.4375,87,42,0.28987
2599740,-0.02000,63.0625,87,42,0.30940
2599750,-0.02500,61.4375,87,42,0.32576
2599760,-0.03000,59.9375,87,42,0.34628
2599770,-0.03500,58.6250,87,42,0.37045
2599780,-0.04500,56.5625,87,42,0.42711
2599790,-0.04500,55.8125,87,42,0.45812
2599800,-0.04500,55.1250,87,42,0.49011
2599810,-0.03500,54.6250,87,42,0.51844
2599820,-0.00500,53.8125,87,42,0.57265
2599830,0.02000,53.5000,87,42,0.60122
2599840,0.04000,53.2500,87,42,0.62882
2599850,0.08000,53.0625,87,42,0.65470
2599860,0.09000,52.6875,87,42,0.70012
2599870,0.08000,52.5000,87,42,0.71893
2599880,0.07500,52.3125,87,42,0.73553
2599890,0.02000,52.1250,87,42,0.74994
2599900,-0.07500,51.7500,87,42,0.77143
2599910,-0.13500,51.5000,87,42,0.77729
2599920,-0.15000,51.2500,87,42,0.78046
2599930,-0.15000,50.9375,87,42,0.78315
2599940,-0.15500,50.3750,87,42,0.78462
2599950,-0.15500,50.1250,87,42,0.78315
2599960,-0.15500,49.8750,87,42,0.77998
2599970,-0.14500,49.6250,87,42,0.77534
2599980,-0.15000,49.0625,87,42,0.76166
2599990,-0.17500,48.7500,87,42,0.75287
2600000,-0.06500,48.5000,86,42,0.74286
2600010,0.36000,48.2500,86,42,0.73260
2600020,0.92000,47.8125,86,42,0.70989
2600030,0.88000,47.5625,86,42,0.69744
2600040,0.12500,47.3125,86,42,0.68449
2600050,-0.46000,47.0625,86,42,0.67131
2600060,-0.55500,46.5000,86,42,0.64493
2600070,-0.39500,46.2500,86,42,0.63175
2600080,-0.27000,45.9375,86,42,0.61880
2600090,-0.23000,45.6250,86,42,0.60611
2600100,-0.22000,44.9375,86,42,0.58071
2600110,-0.21000,44.5625,86,42,0.56947
2600120,-0.20000,44.2500,86,42,0.55946
2600130,-0.19000,43.8750,86,42,0.54896
2600140,-0.18500,43.1875,86,42,0.52772
2600150,-0.17500,42.8750,86,42,0.51722
2600160,-0.17000,42.5625,86,42,0.50696
2600170,-0.16000,42.3125,86,42,0.49719
2600180,-0.15500,42.5625,86,42,0.47839
2600190,-0.13500,43.7500,86,42,0.46935
2600200,-0.12500,46.1250,86,42,0.46032
2600210,-0.10500,49.6250,86,42,0.45275
2600220,-0.09500,58.5625,86,42,0.43858
2600230,-0.07500,63.3125,86,42,0.43053
2600240,-0.05500,67.8750,86,42,0.42271
2600250,-0.03500,72.0625,86,42,0.41514
2600260,-0.02000,79.1250,86,42,0.40024
2600270,0.00000,81.8125,86,42,0.39292
2600280,0.02500,83.8750,86,42,0.38584
2600290,0.04000,85.3125,86,42,0.37900
2600300,0.05500,86.5625,86,42,0.36557
2600310,0.08000,86.5000,86,42,0.36044
2600320,0.10000,86.0625,86,42,0.35604
2600330,0.12500,85.2500,86,42,0.35067
2600340,0.14000,83.0000,86,42,0.33065
2600350,0.15000,81.6875,86,42,0.31258
2600360,0.14500,80.2500,86,42,0.30061
2600370,0.12000,78.7500,86,42,0.29158
2600380,0.08500,75.6875,86,42,0.27668
2600390,0.05000,74.1250,86,42,0.26984
2600400,0.02000,72.6875,86,42,0.26300
2600410,-0.00500,71.1875,86,42,0.25788
2600420,-0.01500,68.2500,86,42,0.24860
2600430,-0.01500,66.8125,86,42,0.24396
2600440,-0.02000,65.3125,86,42,0.24078
2600450,-0.02500,63.8125,86,42,0.23980
2600460,-0.03500,60.5625,86,42,0.24786
2600470,-0.04500,59.0000,86,42,0.25788
2600480,-0.04500,57.6250,86,42,0.27228
2600490,-0.04500,56.4375,86,42,0.29084
2600500,-0.04500,54.6250,86,42,0.33675
2600510,-0.03500,53.8750,86,42,0.35995
2600520,-0.02000,53.2500,86,42,0.38291
2600530,0.00000,52.7500,86,42,0.40952
2600540,0.02000,52.0625,86,42,0.46593
2600550,0.06000,51.7500,86,42,0.49402
2600560,0.08500,51.5625,86,42,0.52088
2600570,0.09000,51.3750,86,42,0.54603
2600580,0.06000,51.0000,86,42,0.59048
2600590,0.00500,50.8750,86,42,0.60952
2600600,-0.05500,50.6875,86,42,0.62613
2600610,-0.10000,50.5625,86,42,0.63834
2600620,-0.12500,50.1875,86,42,0.65641
2600630,-0.14500,50.0000,86,42,0.66398
2600640,-0.15000,49.7500,86,42,0.67009
2600650,-0.15000,49.5000,86,42,0.67448
2600660,-0.15000,49.0625,86,42,0.67814
2600670,-0.15000,48.8750,86,42,0.67741
2600680,-0.15500,48.6250,86,42,0.67497
2600690,-0.16000,48.4375,86,42,0.67082
2600700,-0.16000,48.0625,86,42,0.65861
2600710,0.05000,47.8750,86,42,0.65104
2600720,0.59000,47.7500,86,42,0.64274
2600730,0.96500,47.6250,86,42,0.63346
2600740,0.57000,47.3125,86,42,0.61197
2600750,-0.13000,47.1250,86,42,0.60024
2600760,-0.47500,46.8750,86,42,0.58828
2600770,-0.48500,46.6250,86,42,0.57631
2600780,-0.34000,45.9375,86,42,0.55214
2600790,-0.24000,45.6250,86,42,0.54042
2600800,-0.22000,45.2500,86,42,0.52894
2600810,-0.21000,44.8750,86,42,0.51893
2600820,-0.19500,44.1250,86,42,0.49988
2600830,-0.18000,43.7500,86,42,0.49011
2600840,-0.17500,43.3750,86,42,0.48010
2600850,-0.16500,42.9375,86,42,0.47033
2600860,-0.16500,42.2500,86,42,0.45104
2600870,-0.15500,41.9375,86,42,0.44151
2600880,-0.13500,41.6875,86,42,0.43248
2600890,-0.12000,41.6875,86,42,0.42369
2600900,-0.10000,43.6875,86,42,0.40708
2600910,-0.08500,46.2500,86,42,0.40049
2600920,-0.07500,49.8750,86,42,0.39463
2600930,-0.06000,54.1250,86,42,0.38828
2600940,-0.04000,63.0000,86,42,0.37485
2600950,-0.02000,67.1875,86,42,0.36825
2600960,0.00000,71.0000,86,42,0.36166
2600970,0.02000,74.3750,86,42,0.35507
2600980,0.04500,79.6250,86,42,0.34237
2600990,0.07000,81.3125,86,42,0.33626
2601000,0.09000,82.5000,86,42,0.33040
2601010,0.11500,83.1250,86,42,0.32601
2601020,0.13000,82.9375,86,42,0.31746
2601030,0.15000,82.2500,86,42,0.31233
2601040,0.16500,81.3125,86,42,0.30696
2601050,0.18000,80.1250,86,42,0.30159
2601060,0.18000,77.2500,86,42,0.29060
2601070,0.16500,75.6875,86,42,0.28498
2601080,0.14000,74.0625,86,42,0.27937
2601090,0.10000,72.4375,86,42,0.27350
2601100,0.07000,69.2500,86,42,0.26276
2601110,0.04000,67.7500,86,42,0.25885
2601120,0.01500,66.2500,86,42,0.25372
2601130,0.00000,64.8125,86,42,0.24835
2601140,-0.00500,61.9375,86,42,0.23834
2601150,-0.00500,60.4375,86,42,0.23565
2601160,-0.00500,58.8750,86,42,0.23565
2601170,-0.00500,57.4375,86,42,0.23907
2601180,-0.01000,54.9375,86,42,0.25739
2601190,-0.01500,53.9375,86,42,0.27253
2601200,-0.02000,53.1250,86,42,0.29133
2601210,-0.02500,51.8750,86,42,0.31038
2601220,-0.03500,51.4375,86,42,0.35360
2601230,-0.03500,51.0625,86,42,0.37924
2601240,-0.03000,50.8125,86,42,0.40635
2601250,-0.01500,50.6250,86,42,0.43370
2601260,0.01000,50.1875,86,42,0.48669
2601270,0.05000,50.0625,86,42,0.51160
2601280,0.09500,49.8750,86,42,0.53480
2601290,0.11500,49.7500,86,42,0.55604
2601300,0.10000,49.4375,86,42,0.58950
2601310,0.05000,49.3125,86,42,0.60122
2601320,-0.01500,49.1250,86,42,0.61270
2601330,-0.07000,48.9375,86,42,0.62271
2601340,-0.10500,48.5000,86,42,0.63785
2601350,-0.12000,48.2500,86,42,0.64249
2601360,-0.12500,48.0000,86,42,0.64518
2601370,-0.12500,47.8125,86,42,0.64615
2601380,-0.12500,47.3125,86,42,0.64298
2601390,-0.12500,47.0625,86,42,0.63907
2601400,-0.12000,46.8750,86,42,0.63394
2601410,-0.12000,46.6875,86,42,0.62784
2601420,-0.13000,46.3750,86,42,0.61319
2601430,0.02500,46.2500,86,42,0.60440
2601440,0.51000,46.0625,86,42,0.59463
2601450,0.97500,45.9375,86,42,0.58413
2601460,0.72000,45.6875,86,42,0.56215
2601470,0.02500,45.5000,86,42,0.55092
2601480,-0.40500,45.2500,86,42,0.53968
2601490,-0.49000,45.0000,86,42,0.52869
2601500,-0.37000,44.4375,86,42,0.50769
2601510,-0.26000,44.1250,86,42,0.49866
2601520,-0.24000,43.8125,86,42,0.48864
2601530,-0.23000,43.5000,86,42,0.47863
2601540,-0.22000,42.8125,86,42,0.45934
2601550,-0.21000,42.5000,86,42,0.45006
2601560,-0.20500,42.1250,86,42,0.44103
2601570,-0.20000,41.8125,86,42,0.43248
2601580,-0.20000,41.1875,86,42,0.41563
2601590,-0.19000,40.8750,86,42,0.40733
2601600,-0.18000,40.6875,86,42,0.39927
2601610,-0.16000,40.7500,86,42,0.39267
2601620,-0.14500,43.0625,86,42,0.38022
2601630,-0.12500,46.0000,86,42,0.37363
2601640,-0.11000,50.0000,86,42,0.36679
2601650,-0.09500,54.5000,86,42,0.35995
2601660,-0.07500,63.6250,86,42,0.34725
2601670,-0.05500,67.9375,86,42,0.34115
2601680,-0.03500,71.8750,86,42,0.33553
2601690,-0.02000,75.3125,86,42,0.32991
2601700,0.00000,80.7500,86,42,0.32039
2601710,0.02000,82.5625,86,42,0.31697
2601720,0.03500,83.8125,86,42,0.31258
2601730,0.05000,84.5625,86,42,0.30769
2601740,0.07000,84.7500,86,42,0.29719
2601750,0.09000,84.2500,86,42,0.29206
2601760,0.11000,83.3750,86,42,0.28718
2601770,0.13500,82.3125,86,42,0.28230
2601780,0.14000,79.6250,86,42,0.27253
2601790,0.13500,78.1250,86,42,0.26764
2601800,0.11000,76.6250,86,42,0.26276
2601810,0.08000,75.0625,86,42,0.25910
2601820,0.05000,72.0000,86,42,0.25201
2601830,0.02000,70.5000,86,42,0.24737
2601840,0.00000,69.0625,86,42,0.24249
2601850,-0.01000,67.6250,86,42,0.23761
2601860,-0.02000,64.8125,86,42,0.23004
2601870,-0.02500,63.3125,86,42,0.22857
2601880,-0.03500,61.8125,86,42,0.23004
2601890,-0.04500,60.2500,86,42,0.23516
2601900,-0.04500,57.1875,86,42,0.25617
2601910,-0.04500,55.8125,86,42,0.27057
2601920,-0.04500,54.7500,86,42,0.28962
2601930,-0.04500,53.8125,86,42,0.31233
2601940,-0.04500,52.5625,86,42,0.36532
2601950,-0.04500,52.0625,86,42,0.39438
2601960,-0.03500,51.6875,86,42,0.42418
2601970,-0.02500,51.3125,86,42,0.45397
2601980,-0.00500,50.8125,86,42,0.51209
2601990,0.03000,50.6250,86,42,0.53944
2602000,0.07000,50.4375,86,42,0.56484
2602010,0.10000,50.2500,86,42,0.58510
2602020,0.09500,49.9375,86,42,0.61929
2602030,0.05500,49.7500,86,42,0.63565
2602040,-0.01000,49.5625,86,42,0.65031
2602050,-0.06500,49.3125,86,42,0.66276
2602060,-0.10500,48.9375,86,42,0.68156
2602070,-0.12000,48.7500,86,42,0.68767
2602080,-0.13500,48.5000,86,42,0.69182
2602090,-0.13500,48.2500,86,42,0.69377
2602100,-0.14500,47.8125,86,42,0.69255
2602110,-0.14500,47.5625,86,42,0.68938
2602120,-0.13500,47.3125,86,42,0.68547
2602130,-0.13000,47.1250,86,42,0.68034
2602140,-0.14500,46.8125,86,42,0.66642
2602150,-0.06500,46.6875,86,42,0.65739
2602160,0.32000,46.5000,86,42,0.64762
2602170,0.87500,46.3750,86,42,0.63687
2602180,0.89000,46.0625,86,42,0.61416
2602190,0.28500,45.8750,86,42,0.60244
2602200,-0.27000,45.6875,86,42,0.59048
2602210,-0.47000,45.4375,86,42,0.57949
2602220,-0.40000,44.8125,86,42,0.55849
2602230,-0.27500,44.5000,86,42,0.54750
2602240,-0.23000,44.1250,86,42,0.53651
2602250,-0.22000,43.7500,86,42,0.52552
2602260,-0.21500,43.0625,86,42,0.50403
2602270,-0.21000,42.6875,86,42,0.49377
2602280,-0.20000,42.3750,86,42,0.48352
2602290,-0.20000,42.0000,86,42,0.47375
2602300,-0.20000,41.2500,86,42,0.45617
2602310,-0.19000,40.9375,86,42,0.44884
2602320,-0.17000,40.7500,86,42,0.44078
2602330,-0.16000,40.7500,86,42,0.43248
2602340,-0.14500,42.8125,86,42,0.41563
2602350,-0.13500,45.4375,86,42,0.40733
2602360,-0.12500,49.1875,86,42,0.39927
2602370,-0.10500,53.6250,86,42,0.39170
2602380,-0.08500,62.8125,86,42,0.37729
2602390,-0.06000,67.2500,86,42,0.37851
2602400,-0.03500,71.4375,86,42,0.38388
2602410,-0.00500,75.2500,86,42,0.38486
2602420,0.02000,81.2500,86,42,0.37949
2602430,0.04000,83.4375,86,42,0.37436
2602440,0.05000,85.0000,86,42,0.36874
2602450,0.06000,86.0625,86,42,0.36288
2602460,0.06000,86.7500,86,42,0.35116
2602470,0.07500,86.5000,86,42,0.34530
2602480,0.09000,85.8750,86,42,0.33919
2602490,0.10500,85.0000,86,42,0.33333
2602500,0.11500,82.6250,86,42,0.32259
2602510,0.11500,81.1875,86,42,0.31868
2602520,0.09000,79.6875,86,42,0.31355
2602530,0.06500,78.1250,86,42,0.30794
2602540,0.03500,74.9375,86,42,0.29548
2602550,0.01000,73.3750,86,42,0.28889
2602560,-0.00500,71.8750,86,42,0.28230
2602570,-0.01500,70.3750,86,42,0.27595
2602580,-0.02000,67.4375,86,42,0.26593
2602590,-0.02000,65.9375,86,42,0.26349
2602600,-0.02000,64.3750,86,42,0.26422
2602610,-0.02000,62.8125,86,42,0.26813
2602620,-0.02500,59.5000,86,42,0.28694
2602630,-0.02500,58.0000,86,42,0.30256
2602640,-0.02000,56.7500,86,42,0.32210
2602650,-0.01500,55.6875,86,42,0.34579
2602660,-0.01000,54.1250,86,42,0.40147
2602670,-0.01500,53.5000,86,42,0.43248
2602680,-0.01500,53.0000,86,42,0.46471
2602690,0.00000,52.5625,86,42,0.49719
2602700,0.01500,51.8750,86,42,0.55702
2602710,0.05000,51.6250,86,42,0.58144
2602720,0.10000,51.4375,86,42,0.60757
2602730,0.12500,51.1875,86,42,0.63321
2602740,0.11500,50.7500,86,42,0.67985
2602750,0.07000,50.5000,86,42,0.69963
2602760,0.00000,50.2500,86,42,0.71697
2602770,-0.05500,50.0625,86,42,0.73187
2602780,-0.09500,49.6250,86,42,0.75433
2602790,-0.11500,49.4375,86,42,0.76215
2602800,-0.11500,49.2500,86,42,0.76630
2602810,-0.11500,49.0000,86,42,0.76801
2602820,-0.12000,48.5625,86,42,0.76899
2602830,-0.11500,48.3750,86,42,0.76752
2602840,-0.11000,48.1250,86,42,0.76459
2602850,-0.10500,47.9375,86,42,0.76044
2602860,-0.11500,47.6875,86,42,0.74701
2602870,-0.03500,47.5625,86,42,0.73822
2602880,0.35000,47.4375,86,42,0.72845
2602890,0.91000,47.3125,86,42,0.71770
2602900,1.01000,47.0000,86,42,0.69475
2602910,0.47000,46.8750,86,42,0.68376
2602920,-0.17000,46.6250,86,42,0.67204
2602930,-0.43500,46.0000,86,42,0.65983
2602940,-0.40000,45.6250,86,42,0.63468
2602950,-0.27000,45.3125,86,42,0.62198
2602960,-0.21000,44.9375,86,42,0.60928
2602970,-0.20500,44.5625,86,42,0.59683
2602980,-0.20000,43.8125,86,42,0.57216
2602990,-0.19000,43.5000,86,42,0.56020
2603000,-0.18000,43.1250,86,42,0.54994
2603010,-0.18000,42.7500,86,42,0.54042
2603020,-0.18000,42.0625,86,42,0.51941
2603030,-0.17000,41.7500,86,42,0.50916
2603040,-0.15500,41.5625,86,42,0.49890
2603050,-0.14000,41.6250,86,42,0.48889
2603060,-0.12500,43.8750,86,42,0.46960
2603070,-0.11500,46.6875,86,42,0.46056
2603080,-0.10000,50.6250,86,42,0.45153
2603090,-0.08500,55.1250,86,42,0.44298
2603100,-0.07500,64.5625,86,42,0.42784
2603110,-0.05500,69.0625,86,42,0.42173
2603120,-0.04000,73.2500,86,42,0.41514
2603130,-0.02000,77.0000,86,42,0.40806
2603140,-0.00500,82.9375,86,42,0.39438
2603150,0.01000,85.0000,86,42,0.38755
2603160,0.02500,86.5000,86,42,0.38095
2603170,0.04000,87.4375,86,42,0.37436
2603180,0.05500,87.9375,86,42,0.36166
2603190,0.06500,87.5625,86,42,0.35507
2603200,0.08000,86.8750,86,42,0.34994
2603210,0.10000,85.8750,86,42,0.34554
2603220,0.12500,83.3750,86,42,0.33455
2603230,0.13500,81.9375,86,42,0.32845
2603240,0.12500,80.4375,86,42,0.32210
2603250,0.09500,78.9375,86,42,0.31600
2603260,0.06000,75.8750,86,42,0.30330
2603270,0.03000,74.3750,86,42,0.29670
2603280,0.00000,72.9375,86,42,0.29011
2603290,-0.01500,71.4375,86,42,0.28376
2603300,-0.02500,68.6250,86,42,0.27497
2603310,-0.03000,67.1875,86,42,0.27399
2603320,-0.03500,65.7500,86,42,0.27473
2603330,-0.03500,64.1875,86,42,0.27863
2603340,-0.04000,61.0000,86,42,0.29817
2603350,-0.04000,59.5000,86,42,0.31453
2603360,-0.03500,58.1875,86,42,0.33504
2603370,-0.03000,57.1250,86,42,0.35922
2603380,-0.03500,55.3750,86,42,0.41612
2603390,-0.04500,54.6875,86,42,0.44737
2603400,-0.04500,54.1250,86,42,0.47546
2603410,-0.04000,53.6250,86,42,0.50208
2603420,-0.02000,52.8750,86,42,0.56264
2603430,0.00000,52.5000,86,42,0.59292
2603440,0.04000,52.1875,86,42,0.62173
2603450,0.08000,51.9375,86,42,0.64860
2603460,0.11000,51.4375,86,42,0.69548
2603470,0.09500,51.1875,86,42,0.71502
2603480,0.04000,51.0000,86,42,0.73211
2603490,-0.02500,50.7500,86,42,0.74676
2603500,-0.08000,50.3750,86,42,0.76679
2603510,-0.11500,50.1250,86,42,0.77192
2603520,-0.13000,49.9375,86,42,0.77680
2603530,-0.14000,49.6875,86,42,0.78022
2603540,-0.14500,49.2500,86,42,0.78217
2603550,-0.14500,49.0625,86,42,0.78046
2603560,-0.14500,48.8125,86,42,0.77729
2603570,-0.13500,48.6250,86,42,0.77241
2603580,-0.13500,48.1875,86,42,0.75824
2603590,-0.14500,48.0000,86,42,0.74921
2603600,0.00500,47.8750,86,42,0.73993
2603610,0.50500,47.7500,86,42,0.72991
2603620,1.04500,47.3750,86,42,0.70696
2603630,0.83500,47.2500,86,42,0.69426
2603640,0.05500,47.0625,86,42,0.68132
2603650,-0.45000,46.8125,86,42,0.66813
2603660,-0.52000,46.4479,86,42,0.64843
2603670,-0.37000,46.0625,86,42,0.62882
2603680,-0.25500,45.7500,86,42,0.61587
2603690,-0.23000,45.0625,86,42,0.60317
2603700,-0.22500,44.6875,86,42,0.57973
2603710,-0.21500,44.3750,86,42,0.56947
2603720,-0.20000,44.0000,86,42,0.55873
2603730,-0.19500,43.6250,86,42,0.54774
2603740,-0.19000,42.9375,86,42,0.52601
2603750,-0.19000,42.6250,86,42,0.51551
2603760,-0.18500,42.3750,86,42,0.50549
2603770,-0.17000,42.2500,86,42,0.49548
2603780,-0.14500,43.6250,86,42,0.47570
2603790,-0.12500,45.8125,86,42,0.46618
2603800,-0.10500,49.2500,86,42,0.45812
2603810,-0.09500,53.6250,86,42,0.45104
2603820,-0.07500,63.4375,86,42,0.43565
2603830,-0.06000,68.2500,86,42,0.42759
2603840,-0.04500,72.7500,86,42,0.41978
2603850,-0.02500,76.8125,86,42,0.41221
2603860,-0.00500,83.3750,86,42,0.39780
2603870,0.01000,85.7500,86,42,0.39096
2603880,0.02000,87.5000,86,42,0.38437
2603890,0.03000,88.6875,86,42,0.37778
2603900,0.04000,89.5625,86,42,0.36654
2603910,0.05000,89.3125,86,42,0.36215
2603920,0.06500,88.7500,86,42,0.35678
2603930,0.08000,87.8750,86,42,0.35092
2603940,0.10000,85.6250,86,42,0.33871
2603950,0.12000,84.3125,86,42,0.33260
2603960,0.12500,82.9375,86,42,0.32650
2603970,0.10500,81.4375,86,42,0.32015
2603980,0.07500,78.4375,86,42,0.30794
2603990,0.05000,76.9375,86,42,0.30159
2604000,0.02500,75.5000,87,42,0.29695
2604010,0.00500,74.0625,87,42,0.29304
2604020,-0.01000,71.1875,87,42,0.28352
2604030,-0.02000,69.7500,87,42,0.28010
2604040,-0.02500,68.3125,87,42,0.27912
2604050,-0.03000,66.8125,87,42,0.28107
2604060,-0.03500,63.5625,87,42,0.29744
2604070,-0.04500,62.0000,87,42,0.31233
2604080,-0.04500,60.5000,87,42,0.33162
2604090,-0.05000,59.2500,87,42,0.35482
2604100,-0.05500,57.1250,87,42,0.40733
2604110,-0.06000,56.3125,87,42,0.43321
2604120,-0.06500,55.6250,87,42,0.46325
2604130,-0.06500,55.0625,87,42,0.49548
2604140,-0.05500,54.1875,87,42,0.56142
2604150,-0.02500,53.8750,87,42,0.59341
2604160,0.00000,53.5625,87,42,0.62344
2604170,0.02000,53.3125,87,42,0.65153
2604180,0.05500,52.8750,87,42,0.70085
2604190,0.09000,52.6250,87,42,0.72161
2604200,0.08500,52.4375,87,42,0.73724
2604210,0.05000,52.1875,87,42,0.74921
2604220,-0.00500,51.7500,87,42,0.77192
2604230,-0.06500,51.5000,87,42,0.78095
2604240,-0.11500,51.2500,87,42,0.78828
2604250,-0.14500,51.0000,87,42,0.79365
2604260,-0.15500,50.5625,87,42,0.79902
2604270,-0.16000,50.3125,87,42,0.79878
2604280,-0.16000,50.0000,87,42,0.79634
2604290,-0.16000,49.7500,87,42,0.79194
2604300,-0.15500,49.1875,87,42,0.77851
2604310,-0.15000,48.9375,87,42,0.76996
2604320,-0.16500,48.6875,87,42,0.76044
2604330,-0.14500,48.1875,87,42,0.74994
2604340,0.13000,48.0000,87,42,0.72625
2604350,0.73500,47.7500,87,42,0.71355
2604360,1.07500,47.5625,87,42,0.70061
2604370,0.52500,47.3750,87,42,0.68718
2604380,-0.27000,47.0000,87,42,0.66032
2604390,-0.59000,46.8125,87,42,0.64689
2604400,-0.50000,46.5625,87,42,0.63468
2604410,-0.32500,46.3125,87,42,0.62320
2604420,-0.25500,45.6875,87,42,0.59927
2604430,-0.24000,45.4375,87,42,0.58730
2604440,-0.23000,45.1250,87,42,0.56703
2604450,-0.21500,44.8125,87,42,0.54310
2604460,-0.20000,44.1250,87,42,0.51209
2604470,-0.19000,43.8125,87,42,0.50037
2604480,-0.18500,43.5000,87,42,0.48987
2604490,-0.18500,43.1875,87,42,0.48010
2604500,-0.18000,42.8125,87,42,0.46300
2604510,-0.17500,43.1250,87,42,0.45592
2604520,-0.16500,44.1875,87,42,0.44811
2604530,-0.15000,46.4375,87,42,0.43980
2604540,-0.13500,54.5625,87,42,0.42344
2604550,-0.11500,59.4375,87,42,0.41538
2604560,-0.09500,64.4375,87,42,0.40757
2604570,-0.07500,69.3750,87,42,0.40000
2604580,-0.04500,78.0000,87,42,0.38559
2604590,-0.02500,81.5625,87,42,0.37851
2604600,-0.01500,84.5625,87,42,0.37289
2604610,0.00000,86.8750,87,42,0.36825
2604620,0.01500,89.7500,87,42,0.35702
2604630,0.02000,90.3750,87,42,0.35092
2604640,0.03000,90.5000,87,42,0.34457
2604650,0.04000,90.2500,87,42,0.33822
2604660,0.05000,88.6875,87,42,0.32625
2604670,0.07000,87.5625,87,42,0.32063
2604680,0.09000,86.2500,87,42,0.31502
2604690,0.10000,84.8750,87,42,0.30940
2604700,0.10500,81.9375,87,42,0.30183
2604710,0.08500,80.3750,87,42,0.29719
2604720,0.05500,78.8750,87,42,0.29206
2604730,0.02500,77.3750,87,42,0.28620
2604740,0.00500,74.3125,87,42,0.27399
2604750,-0.00500,72.8125,87,42,0.26838
2604760,-0.01500,71.3125,87,42,0.26374
2604770,-0.02500,69.8125,87,42,0.26056
2604780,-0.02500,66.6250,87,42,0.26252
2604790,-0.02500,64.8750,87,42,0.26886
2604800,-0.02500,63.1875,87,42,0.27766
2604810,-0.03000,61.5625,87,42,0.28962
2604820,-0.03500,58.8125,87,42,0.32698
2604830,-0.03500,57.6875,87,42,0.35092
2604840,-0.03500,56.7500,87,42,0.37778
2604850,-0.03500,55.9375,87,42,0.40684
2604860,-0.03000,54.6875,87,42,0.46838
2604870,-0.00500,54.1875,87,42,0.49963
2604880,0.03000,53.7500,87,42,0.53040
2604890,0.05500,53.4375,87,42,0.55995
2604900,0.08000,52.9375,87,42,0.60488
2604910,0.11000,52.6875,87,42,0.62637
2604920,0.11500,52.5000,87,42,0.64713
2604930,0.08500,52.3125,87,42,0.66642
2604940,0.03000,51.9375,87,42,0.69866
2604950,-0.03000,51.7500,87,42,0.71111
2604960,-0.08000,51.5000,87,42,0.72137
2604970,-0.11500,51.3125,87,42,0.72943
2604980,-0.13500,50.8750,87,42,0.73968
2604990,-0.14000,50.6250,87,42,0.74188
2605000,-0.14000,50.3750,86,42,0.74164
2605010,-0.14500,50.1250,86,42,0.73968
2605020,-0.14500,49.6875,86,42,0.73333
2605030,-0.14500,49.4375,86,42,0.72845
2605040,-0.14500,49.1875,86,42,0.72210
2605050,-0.17000,48.9375,86,42,0.71429
2605060,-0.04500,48.5000,86,42,0.69524
2605070,0.42000,48.3125,86,42,0.68449
2605080,0.97500,48.0625,86,42,0.67302
2605090,0.82500,47.8750,86,42,0.66105
2605100,0.07000,47.4375,86,42,0.63858
2605110,-0.45000,47.1875,86,42,0.62662
2605120,-0.53500,46.9375,86,42,0.61465
2605130,-0.37500,46.6250,86,42,0.60244
2605140,-0.23500,45.8750,86,42,0.57778
2605150,-0.21500,45.5000,86,42,0.56557
2605160,-0.20500,45.1250,86,42,0.55385
2605170,-0.19500,44.7500,86,42,0.54237
2605180,-0.18500,44.0000,86,42,0.52039
2605190,-0.17500,43.6250,86,42,0.50989
2605200,-0.16500,43.2500,86,42,0.50085
2605210,-0.16000,42.8750,86,42,0.49255
2605220,-0.15500,42.2500,86,42,0.47399
2605230,-0.14500,42.1250,86,42,0.46447
2605240,-0.13000,42.3750,86,42,0.45519
2605250,-0.11500,43.3125,86,42,0.44615
2605260,-0.10000,48.6250,86,42,0.42882
2605270,-0.08500,52.7500,86,42,0.42076
2605280,-0.07500,57.3750,86,42,0.41270
2605290,-0.06500,62.1250,86,42,0.40464
2605300,-0.04500,71.0625,86,42,0.39219
2605310,-0.02500,74.9375,86,42,0.38535
2605320,-0.00500,78.2500,86,42,0.37827
2605330,0.01000,81.0625,86,42,0.37118
2605340,0.03000,84.8125,86,42,0.35775
2605350,0.05000,85.8125,86,42,0.35116
2605360,0.07500,86.3125,86,42,0.34481
2605370,0.09500,86.3125,86,42,0.33846
2605380,0.11500,85.0625,86,42,0.32576
2605390,0.13500,84.0000,86,42,0.31941
2605400,0.15500,82.7500,86,42,0.31477
2605410,0.17500,81.3750,86,42,0.31062
2605420,0.17500,78.3125,86,42,0.29939
2605430,0.15000,76.6875,86,42,0.29328
2605440,0.12000,75.1250,86,42,0.28742
2605450,0.08000,73.5625,86,42,0.28156
2605460,0.05000,70.4375,86,42,0.26911
2605470,0.03000,68.9375,86,42,0.26276
2605480,0.02000,67.5000,86,42,0.25665
2605490,0.01000,66.0625,86,42,0.25128
2605500,0.00500,63.0625,86,42,0.24786
2605510,-0.00500,61.4375,86,42,0.24908
2605520,-0.01500,59.8125,86,42,0.25324
2605530,-0.01500,58.3125,86,42,0.26105
2605540,-0.01500,55.8750,86,42,0.28864
2605550,-0.01500,54.9375,86,42,0.30769
2605560,-0.02000,54.1250,86,42,0.32991
2605570,-0.02000,53.5000,86,42,0.35458
2605580,-0.01000,52.5000,86,42,0.40904
2605590,0.00500,52.1250,86,42,0.43761
2605600,0.03500,51.8750,86,42,0.46276
2605610,0.07500,51.6250,86,42,0.48571
2605620,0.11000,51.3125,86,42,0.53529
2605630,0.11000,51.1250,86,42,0.55946
2605640,0.08500,51.0000,86,42,0.58169
2605650,0.03000,50.8750,86,42,0.60195
2605660,-0.03500,50.5000,86,42,0.63565
2605670,-0.08000,50.3125,86,42,0.64884
2605680,-0.10000,50.0625,86,42,0.65983
2605690,-0.11000,49.8750,86,42,0.66838
2605700,-0.11500,49.3750,86,42,0.67668
2605710,-0.11500,49.1146,86,42,0.67993
2605720,-0.12000,48.9375,86,42,0.68034
2605730,-0.12000,48.6875,86,42,0.68010
2605740,-0.11500,48.1875,86,42,0.67521
2605750,-0.13000,48.0000,86,42,0.67082
2605760,-0.11500,47.8125,86,42,0.66471
2605770,0.13000,47.6250,86,42,0.65714
2605780,0.67000,47.3125,86,42,0.63858
2605790,0.96000,47.1250,86,42,0.62833
2605800,0.53500,46.9375,86,42,0.61832
2605810,-0.13500,46.7500,86,42,0.60830
2605820,-0.46000,46.2500,86,42,0.58584
2605830,-0.45000,45.9375,86,42,0.57411
2605840,-0.31000,45.6250,86,42,0.56215
2605850,-0.23000,45.3125,86,42,0.55043
2605860,-0.21000,44.6250,86,42,0.52772
2605870,-0.20500,44.2500,86,42,0.51673
2605880,-0.19000,43.9375,86,42,0.50598
2605890,-0.18500,43.5625,86,42,0.49548
2605900,-0.18000,42.7500,86,42,0.47839
2605910,-0.17500,42.3750,86,42,0.46984
2605920,-0.16500,42.0000,86,42,0.46081
2605930,-0.15500,41.7500,86,42,0.45177
2605940,-0.14500,41.5625,86,42,0.43443
2605950,-0.12500,42.0625,86,42,0.42589
2605960,-0.11000,43.5000,86,42,0.41783
2605970,-0.10000,46.0625,86,42,0.41001
2605980,-0.08500,53.8750,86,42,0.39463
2605990,-0.07500,58.3125,86,42,0.38755
2606000,-0.05500,62.6875,86,42,0.38193
2606010,-0.03500,66.9375,86,42,0.37729
2606020,-0.01000,74.2500,86,42,0.36557
2606030,0.01000,77.1875,86,42,0.35946
2606040,0.04000,79.5000,86,42,0.35360
2606050,0.06000,81.3125,86,42,0.34774
2606060,0.08500,83.1250,86,42,0.33651
2606070,0.11000,83.3125,86,42,0.33114
2606080,0.13500,83.0625,86,42,0.32576
2606090,0.15500,82.4375,86,42,0.32015
2606100,0.17500,80.3125,86,42,0.31282
2606110,0.18500,79.0000,86,42,0.30842
2606120,0.19000,77.5000,86,42,0.30354
2606130,0.16500,75.9375,86,42,0.29841
2606140,0.14000,72.7500,86,42,0.28718
2606150,0.10000,71.1250,86,42,0.28132
2606160,0.06500,69.6250,86,42,0.27546
2606170,0.03000,68.1250,86,42,0.26960
2606180,0.01500,65.2500,86,42,0.25763
2606190,0.00000,63.8750,86,42,0.25250
2606200,-0.00500,62.3750,86,42,0.24933
2606210,-0.01500,60.8750,86,42,0.24811
2606220,-0.01500,57.7500,86,42,0.25031
2606230,-0.02000,56.3125,86,42,0.25592
2606240,-0.01500,55.0000,86,42,0.26545
2606250,-0.02000,53.9375,86,42,0.27888
2606260,-0.02500,52.3125,86,42,0.31600
2606270,-0.02500,51.6875,86,42,0.33871
2606280,-0.03000,51.2500,86,42,0.36361
2606290,-0.03000,50.8750,86,42,0.38999
2606300,-0.02500,50.3750,86,42,0.43614
2606310,-0.00500,50.1875,86,42,0.46081
2606320,0.02000,50.0000,86,42,0.48645
2606330,0.06000,49.7500,86,42,0.51160
2606340,0.10000,49.5625,86,42,0.55775
2606350,0.10000,49.4375,86,42,0.57802
2606360,0.07500,49.3125,86,42,0.59585
2606370,0.02000,49.1250,86,42,0.61123
2606380,-0.04500,48.7500,86,42,0.63541
2606390,-0.10000,48.5625,86,42,0.64420
2606400,-0.13000,48.3750,86,42,0.64982
2606410,-0.14000,48.1875,86,42,0.65324
2606420,-0.14000,47.6875,86,42,0.65739
2606430,-0.14500,47.5000,86,42,0.65739
2606440,-0.14500,47.2500,86,42,0.65592
2606450,-0.14500,47.0625,86,42,0.65275
2606460,-0.14000,46.6875,86,42,0.64249
2606470,-0.14000,46.5000,86,42,0.63541
2606480,-0.12500,46.3750,86,42,0.62735
2606490,0.12000,46.1875,86,42,0.61954
2606500,0.66000,45.9375,86,42,0.60464
2606510,0.97000,45.7500,86,42,0.59487
2606520,0.57500,45.5625,86,42,0.58437
2606530,-0.09000,45.3125,86,42,0.57338
2606540,-0.44000,44.8125,86,42,0.55092
2606550,-0.45000,44.5000,86,42,0.54017
2606560,-0.31500,44.1875,86,42,0.52943
2606570,-0.23000,43.8750,86,42,0.51917
2606580,-0.21000,43.1875,86,42,0.49890
2606590,-0.20000,42.8125,86,42,0.49035
2606600,-0.19000,42.4375,86,42,0.48278
2606610,-0.18000,42.1250,86,42,0.47424
2606620,-0.17000,41.4375,86,42,0.45641
2606630,-0.16500,41.0625,86,42,0.44762
2606640,-0.15500,40.8125,86,42,0.43932
2606650,-0.14500,40.5625,86,42,0.43126
2606660,-0.13500,40.6250,86,42,0.41538
2606670,-0.12500,41.4375,86,42,0.40757
2606680,-0.11500,43.3125,86,42,0.40000
2606690,-0.10500,46.3750,86,42,0.39292
2606700,-0.09500,55.0000,86,42,0.38217
2606710,-0.08000,59.5625,86,42,0.37656
2606720,-0.06500,64.0625,86,42,0.37045
2606730,-0.04500,68.2500,86,42,0.36435
2606740,-0.02000,75.6250,86,42,0.35263
2606750,0.00000,78.5625,86,42,0.34701
2606760,0.02000,80.9375,86,42,0.34164
2606770,0.04000,82.8125,86,42,0.33626
2606780,0.05500,84.7500,86,42,0.32601
2606790,0.07500,85.0000,86,42,0.32234
2606800,0.09500,84.8125,86,42,0.31917
2606810,0.12000,84.3125,86,42,0.31502
2606820,0.14500,82.3750,86,42,0.30549
2606830,0.16500,81.0625,86,42,0.30061
2606840,0.17500,79.6250,86,42,0.29597
2606850,0.16000,78.1250,86,42,0.29133
2606860,0.13000,74.8750,86,42,0.28156
2606870,0.09000,73.3125,86,42,0.27643
2606880,0.06000,71.7500,86,42,0.27082
2606890,0.03500,70.2500,86,42,0.26520
2606900,0.02000,67.3750,86,42,0.25763
2606910,0.00500,65.9375,86,42,0.25348
2606920,0.00000,64.5000,86,42,0.24982
2606930,-0.00500,63.0000,86,42,0.24786
2606940,-0.00500,59.8750,86,42,0.25226
2606950,-0.01000,58.3125,86,42,0.25983
2606960,-0.01000,56.8125,86,42,0.27155
2606970,-0.01500,55.5625,86,42,0.28718
2606980,-0.02000,53.6250,86,42,0.32943
2606990,-0.03000,52.8750,86,42,0.35140
2607000,-0.03500,52.3125,86,42,0.37363
2607010,-0.04500,51.8750,86,42,0.39951
2607020,-0.04000,51.1875,86,42,0.45617
2607030,-0.02000,50.9375,86,42,0.48523
2607040,-0.00500,50.6875,86,42,0.51355
2607050,0.02500,50.4375,86,42,0.54066
2607060,0.06000,50.0625,86,42,0.59048
2607070,0.08500,49.9375,86,42,0.61221
2607080,0.08000,49.7500,86,42,0.63175
2607090,0.03000,49.6250,86,42,0.64908
2607100,-0.03000,49.1875,86,42,0.67155
2607110,-0.08500,49.0000,86,42,0.68083
2607120,-0.11500,48.7500,86,42,0.68889
2607130,-0.13500,48.5000,86,42,0.69548
2607140,-0.13500,48.0000,86,42,0.70330
2607150,-0.13000,47.7500,86,42,0.70452
2607160,-0.13000,47.5000,86,42,0.70403
2607170,-0.13000,47.2500,86,42,0.70208
2607180,-0.12500,46.8750,86,42,0.69328
2607190,-0.13000,46.6875,86,42,0.68718
2607200,-0.14500,46.5000,86,42,0.68010
2607210,-0.03500,46.1875,86,42,0.67204
2607220,0.36000,46.0625,86,42,0.65275
2607230,0.90000,45.9375,86,42,0.64200
2607240,0.89000,45.8125,86,42,0.63053
2607250,0.23500,45.6250,86,42,0.61905
2607260,-0.36000,45.1875,86,42,0.59560
2607270,-0.47000,44.9375,86,42,0.58364
2607280,-0.39500,44.6250,86,42,0.57192
2607290,-0.28000,44.0000,86,42,0.56020
2607300,-0.24000,43.6875,86,42,0.54042
2607310,-0.23000,43.3125,86,42,0.53040
2607320,-0.21500,42.9375,86,42,0.52039
2607330,-0.20500,42.6250,86,42,0.51038
2607340,-0.19500,41.8750,86,42,0.49084
2607350,-0.18500,41.5000,86,42,0.48132
2607360,-0.18000,41.1875,86,42,0.47204
2607370,-0.16500,40.9375,86,42,0.46276
2607380,-0.14500,40.6875,86,42,0.44493
2607390,-0.13000,41.0625,86,42,0.43761
2607400,-0.11500,42.3750,86,42,0.43126
2607410,-0.10500,44.8750,86,42,0.42393
2607420,-0.09500,53.0000,86,42,0.40928
2607430,-0.07500,57.6250,86,42,0.40195
2607440,-0.06000,62.2500,86,42,0.39487
2607450,-0.04000,66.7500,86,42,0.38828
2607460,-0.02500,74.8125,86,42,0.37582
2607470,-0.01500,78.1250,86,42,0.36972
2607480,0.00000,80.8750,86,42,0.36361
2607490,0.02000,83.0625,86,42,0.35751
2607500,0.03000,84.7083,86,42,0.35307
2607510,0.04000,85.8125,86,42,0.34896
2607520,0.05000,86.3750,86,42,0.34383
2607530,0.07000,86.5000,86,42,0.33822
2607540,0.09000,85.5625,86,42,0.32674
2607550,0.11000,84.6875,86,42,0.32112
2607560,0.13000,83.5625,86,42,0.31551
2607570,0.14000,82.3125,86,42,0.30989
2607580,0.12500,79.4375,86,42,0.29890
2607590,0.10000,77.9375,86,42,0.29328
2607600,0.06500,76.4375,86,42,0.28913
2607610,0.03500,74.8750,86,42,0.28547
2607620,0.01500,71.9375,86,42,0.27521
2607630,0.00000,70.5000,86,42,0.26935
2607640,-0.01500,69.0625,86,42,0.26398
2607650,-0.02000,67.6250,86,42,0.25910
2607660,-0.02500,64.7500,86,42,0.25519
2607670,-0.03000,63.1875,86,42,0.25763
2607680,-0.03500,61.5625,86,42,0.26374
2607690,-0.03500,59.9375,86,42,0.27424
2607700,-0.03500,56.9375,86,42,0.30476
2607710,-0.03500,55.7500,86,42,0.32259
2607720,-0.03500,54.8125,86,42,0.34481
2607730,-0.03500,54.0000,86,42,0.37021
2607740,-0.03500,52.7500,86,42,0.42637
2607750,-0.02500,52.3125,86,42,0.45592
2607760,-0.01500,51.8750,86,42,0.48596
2607770,0.01500,51.3125,86,42,0.54457
2607780,0.04500,51.0625,86,42,0.57216
2607790,0.08500,50.8125,86,42,0.59780
2607800,0.10000,50.5625,86,42,0.61807
2607810,0.08000,50.3125,86,42,0.63492
2607820,0.02500,49.9375,86,42,0.66813
2607830,-0.03500,49.7500,86,42,0.68254
2607840,-0.09500,49.5000,86,42,0.69499
2607850,-0.12500,49.3125,86,42,0.70549
2607860,-0.14000,48.8750,86,42,0.72063
2607870,-0.14500,48.6250,86,42,0.72503
2607880,-0.15000,48.3750,86,42,0.72772
2607890,-0.15000,48.1250,86,42,0.72869
2607900,-0.14500,47.7500,86,42,0.72503
2607910,-0.13500,47.5000,86,42,0.72063
2607920,-0.14000,47.3125,86,42,0.71502
2607930,-0.15500,47.1250,86,42,0.70842
2607940,0.01000,46.8125,86,42,0.69231
2607950,0.48000,46.6875,86,42,0.68254
2607960,0.95500,46.5000,86,42,0.67204
2607970,0.79500,46.3750,86,42,0.66105
2607980,0.10500,46.0000,86,42,0.63785
2607990,-0.37500,45.7500,86,42,0.62589
2608000,-0.48000,45.4375,87,42,0.61490
2608010,-0.37500,45.1875,87,42,0.60440
2608020,-0.26500,44.5625,87,42,0.58193
2608030,-0.23000,44.1875,87,42,0.57045
2608040,-0.22500,43.8750,87,42,0.55897
2608050,-0.21000,43.5625,87,42,0.54750
2608060,-0.20000,42.9375,87,42,0.52552
2608070,-0.19500,42.5625,87,42,0.51477
2608080,-0.19500,42.2500,87,42,0.50427
2608090,-0.19000,41.8750,87,42,0.49402
2608100,-0.18000,41.2500,87,42,0.47619
2608110,-0.17000,41.0625,87,42,0.46862
2608120,-0.15500,41.1250,87,42,0.46032
2608130,-0.13000,41.8750,87,42,0.45177
2608140,-0.11500,46.5625,87,42,0.43468
2608150,-0.10000,50.5625,87,42,0.42637
2608160,-0.09500,55.0625,87,42,0.41832
2608170,-0.08000,59.7500,87,42,0.41050
2608180,-0.06500,68.8750,87,42,0.39560
2608190,-0.04500,73.0000,87,42,0.38852
2608200,-0.03000,76.6875,87,42,0.38291
2608210,-0.01500,79.9375,87,42,0.37802
2608220,0.00000,84.5625,87,42,0.36630
2608230,0.02000,86.0000,87,42,0.36020
2608240,0.03500,87.0000,87,42,0.35409
2608250,0.05000,87.5000,87,42,0.34823
2608260,0.06000,87.0625,87,42,0.33651
2608270,0.08000,86.3750,87,42,0.33065
2608280,0.09500,85.4375,87,42,0.32479
2608290,0.11000,84.3750,87,42,0.31893
2608300,0.11000,81.6875,87,42,0.31062
2608310,0.09500,80.2500,87,42,0.30598
2608320,0.06000,78.6875,87,42,0.30085
2608330,0.03000,77.1875,87,42,0.29524
2608340,0.00500,74.1875,87,42,0.28327
2608350,-0.01000,72.6250,87,42,0.27717
2608360,-0.02500,71.1875,87,42,0.27131
2608370,-0.03500,69.7500,87,42,0.26593
2608380,-0.03500,66.8750,87,42,0.25934
2608390,-0.03500,65.3125,87,42,0.25958
2608400,-0.03500,63.6875,87,42,0.26276
2608410,-0.04000,62.0625,87,42,0.26911
2608420,-0.04500,58.9375,87,42,0.29304
2608430,-0.04500,57.5625,87,42,0.31111
2608440,-0.05000,56.4375,87,42,0.33260
2608450,-0.05500,55.4375,87,42,0.35726
2608460,-0.05500,54.0000,87,42,0.41270
2608470,-0.06000,53.4375,87,42,0.44249
2608480,-0.06000,53.0000,87,42,0.47277
2608490,-0.04500,52.5625,87,42,0.50305
2608500,-0.02500,52.0000,87,42,0.55189
2608510,0.01000,51.8125,87,42,0.57656
2608520,0.05000,51.6250,87,42,0.60073
2608530,0.07000,51.4375,87,42,0.62369
2608540,0.06000,51.0625,87,42,0.66911
2608550,0.01500,50.8750,87,42,0.69304
2608560,-0.05500,50.6875,87,42,0.71136
2608570,-0.11000,50.5625,87,42,0.72576
2608580,-0.14500,50.1875,87,42,0.74579
2608590,-0.15500,49.9375,87,42,0.75214
2608600,-0.16000,49.7500,87,42,0.75507
2608610,-0.16000,49.5000,87,42,0.75580
2608620,-0.16000,48.9375,87,42,0.75507
2608630,-0.16000,48.6875,87,42,0.75263
2608640,-0.16000,48.3750,87,42,0.74847
2608650,-0.16000,48.1250,87,42,0.74310
2608660,-0.18000,47.6250,87,42,0.72821
2608670,-0.07500,47.3750,87,42,0.71893
2608680,0.36500,47.1875,87,42,0.70867
2608690,0.96000,47.0000,87,42,0.69768
2608700,0.91000,46.6250,87,42,0.67595
2608710,0.17500,46.4375,87,42,0.66422
2608720,-0.42000,46.2500,87,42,0.65201
2608730,-0.56500,46.0625,87,42,0.63956
2608740,-0.43500,45.5625,87,42,0.61441
2608750,-0.29500,45.2500,87,42,0.60195
2608760,-0.25500,44.8750,87,42,0.58974
2608770,-0.24000,44.5625,87,42,0.57778
2608780,-0.23000,43.9375,87,42,0.55482
2608790,-0.22000,43.5625,87,42,0.54383
2608800,-0.21000,43.2500,87,42,0.53407
2608810,-0.20000,42.8750,87,42,0.52527
2608820,-0.20000,42.2500,87,42,0.50623
2608830,-0.19000,42.0000,87,42,0.49695
2608840,-0.18000,41.8125,87,42,0.48767
2608850,-0.16500,41.8750,87,42,0.47863
2608860,-0.15000,43.8750,87,42,0.46129
2608870,-0.13500,46.5625,87,42,0.45299
2608880,-0.12000,50.3750,87,42,0.44493
2608890,-0.10500,55.0000,87,42,0.43712
2608900,-0.08500,64.8125,87,42,0.42491
2608910,-0.07000,69.5625,87,42,0.41807
2608920,-0.05500,73.9375,87,42,0.41074
2608930,-0.03500,77.9375,87,42,0.40366
2608940,-0.02000,84.1250,87,42,0.38950
2608950,-0.00500,86.3750,87,42,0.38266
2608960,0.01000,88.0000,87,42,0.37631
2608970,0.02000,89.1250,87,42,0.36996
2608980,0.03000,89.7500,87,42,0.35800
2608990,0.04500,89.4375,87,42,0.35214
2609000,0.06000,88.8125,87,42,0.34774
2609010,0.09000,87.9375,87,42,0.34383
2609020,0.10500,85.6250,87,42,0.33333
2609030,0.11000,84.2500,87,42,0.32772
2609040,0.10000,82.8125,87,42,0.32210
2609050,0.07500,81.3125,87,42,0.31648
2609060,0.04000,78.2500,87,42,0.30501
2609070,0.01000,76.7500,87,42,0.29890
2609080,-0.01000,75.2500,87,42,0.29280
2609090,-0.02500,73.7500,87,42,0.28669
2609100,-0.03500,70.9375,87,42,0.27985
2609110,-0.03500,69.5625,87,42,0.27717
2609120,-0.03000,68.1250,87,42,0.27619
2609130,-0.03000,66.6875,87,42,0.27814
2609140,-0.03000,63.4375,87,42,0.29402
2609150,-0.03500,61.8750,87,42,0.30842
2609160,-0.03500,60.3750,87,42,0.32723
2609170,-0.04000,59.1250,87,42,0.34994
2609180,-0.04500,57.1250,87,42,0.40415
2609190,-0.05500,56.3750,87,42,0.43419
2609200,-0.06500,55.6875,87,42,0.46154
2609210,-0.07000,55.1875,87,42,0.48718
2609220,-0.06000,54.2500,87,42,0.54652
2609230,-0.02500,53.9375,87,42,0.57680
2609240,0.00000,53.6250,87,42,0.60611
2609250,0.02000,53.3750,87,42,0.63394
2609260,0.06500,52.8750,87,42,0.68352
2609270,0.10000,52.6250,87,42,0.70452
2609280,0.09000,52.3750,87,42,0.72308
2609290,0.05000,52.1250,87,42,0.73895
2609300,-0.01000,51.5625,87,42,0.75824
2609310,-0.07000,51.3125,87,42,0.76606
2609320,-0.12000,51.0625,87,42,0.77289
2609330,-0.14500,50.8750,87,42,0.77802
2609340,-0.15000,50.4375,87,42,0.78315
2609350,-0.15500,50.1875,87,42,0.78315
2609360,-0.16000,49.9375,87,42,0.78144
2609370,-0.16000,49.6875,87,42,0.77802
2609380,-0.16000,49.1875,87,42,0.76654
2609390,-0.15500,48.9375,87,42,0.75897
2609400,-0.18000,48.6875,87,42,0.75043
2609410,-0.14500,48.4375,87,42,0.74115
2609420,0.19000,48.0625,87,42,0.71966
2609430,0.84000,47.8750,87,42,0.70794
2609440,1.08500,47.6875,87,42,0.69548
2609450,0.48500,47.5000,87,42,0.68278
2609460,-0.30500,47.1250,87,42,0.65739
2609470,-0.60500,46.9375,87,42,0.64444
2609480,-0.49000,46.7500,87,42,0.63150
2609490,-0.31500,46.5000,87,42,0.61880
2609500,-0.26000,45.9375,87,42,0.59658
2609510,-0.25000,45.5625,87,42,0.58535
2609520,-0.23500,45.2500,87,42,0.57387
2609530,-0.22000,44.8750,87,42,0.56264
2609540,-0.21000,44.1875,87,42,0.54066
2609550,-0.19500,43.8125,87,42,0.53016
2609560,-0.19000,43.5000,87,42,0.51966
2609570,-0.18500,43.1250,87,42,0.50965
2609580,-0.18000,42.5625,87,42,0.49011
2609590,-0.16500,42.6250,87,42,0.48107
2609600,-0.15500,43.1875,87,42,0.47326
2609610,-0.13500,47.5625,87,42,0.46618
2609620,-0.12500,51.5000,87,42,0.45031
2609630,-0.10500,56.2500,87,42,0.44200
2609640,-0.08500,61.2500,87,42,0.43370
2609650,-0.06500,66.2500,87,42,0.42564
2609660,-0.04500,75.3125,87,42,0.41001
2609670,-0.02500,79.1250,87,42,0.40244
2609680,-0.00500,82.4375,87,42,0.39487
2609690,0.01500,85.1875,87,42,0.38755
2609700,0.03000,88.7500,87,42,0.37729
2609710,0.04500,89.6250,87,42,0.37167
2609720,0.06000,90.0625,87,42,0.36557
2609730,0.07000,90.0000,87,42,0.35946
2609740,0.09000,88.8750,87,42,0.34701
2609750,0.11000,87.8750,87,42,0.34090
2609760,0.12500,86.6875,87,42,0.33480
2609770,0.14500,85.4375,87,42,0.32845
2609780,0.14500,82.6250,87,42,0.31624
2609790,0.12500,81.1250,87,42,0.31038
2609800,0.09500,79.5625,87,42,0.30598
2609810,0.07000,78.0000,87,42,0.30232
2609820,0.04500,75.0000,87,42,0.29133
2609830,0.02500,73.5000,87,42,0.28523
2609840,0.00500,72.0625,87,42,0.27937
2609850,-0.00500,70.5625,87,42,0.27448
2609860,-0.00500,67.6875,87,42,0.27082
2609870,-0.01000,66.1250,87,42,0.27375
2609880,-0.01500,64.5625,87,42,0.28059
2609890,-0.01500,62.8750,87,42,0.29206
2609900,-0.01500,59.7500,87,42,0.32161
2609910,-0.02500,58.4375,87,42,0.34286
2609920,-0.02500,57.3750,87,42,0.36752
2609930,-0.03000,55.6875,87,42,0.39512
2609940,-0.03000,55.0625,87,42,0.45592
2609950,-0.01500,54.5625,87,42,0.48767
2609960,0.01000,54.1250,87,42,0.51966
2609970,0.04000,53.7500,87,42,0.55092
2609980,0.05500,53.1250,87,42,0.60952
2609990,0.08500,52.8750,87,42,0.63639
2610000,0.11000,52.6875,86,42,0.65763
2610010,0.10000,52.5000,86,42,0.67497
2610020,0.05000,52.0625,86,42,0.70965
2610030,-0.01000,51.8125,86,42,0.72454
2610040,-0.06500,51.5625,86,42,0.73724
2610050,-0.11500,51.3125,86,42,0.74799
2610060,-0.14500,50.8125,86,42,0.76313
2610070,-0.15500,50.5000,86,42,0.76777
2610080,-0.15500,50.1875,86,42,0.77021
2610090,-0.14500,49.9375,86,42,0.77070
2610100,-0.14500,49.3125,86,42,0.76557
2610110,-0.14000,49.0000,86,42,0.76142
2610120,-0.13500,48.7500,86,42,0.75604
2610130,-0.14000,48.5000,86,42,0.74945
2610140,-0.12500,48.0625,86,42,0.73260
2610150,0.12000,47.8125,86,42,0.72283
2610160,0.68500,47.6250,86,42,0.71209
2610170,1.03500,47.3750,86,42,0.70061
2610180,0.56500,47.0000,86,42,0.67570
2610190,-0.19000,46.8750,86,42,0.66374
2610200,-0.53000,46.6250,86,42,0.65201
2610210,-0.48000,46.3750,86,42,0.63956
2610220,-0.31500,45.8125,86,42,0.61368
2610230,-0.22500,45.5000,86,42,0.60073
2610240,-0.21500,45.1250,86,42,0.58803
2610250,-0.20000,44.7500,86,42,0.57534
2610260,-0.19000,44.0000,86,42,0.55092
2610270,-0.18000,43.6250,86,42,0.53919
2610280,-0.17000,43.2500,86,42,0.52796
2610290,-0.16500,42.8750,86,42,0.51722
2610300,-0.16000,42.2500,86,42,0.49915
2610310,-0.15500,41.9375,86,42,0.48987
2610320,-0.14000,41.6875,86,42,0.48034
2610330,-0.12500,41.6875,86,42,0.47106
2610340,-0.10500,43.4375,86,42,0.45299
2610350,-0.09500,46.0000,86,42,0.44420
2610360,-0.07500,49.6875,86,42,0.43565
2610370,-0.06500,54.0625,86,42,0.42711
2610380,-0.04500,63.3750,86,42,0.41026
2610390,-0.02000,67.8125,86,42,0.40342
2610400,0.00000,71.8125,86,42,0.39756
2610410,0.02000,75.3750,86,42,0.39096
2610420,0.04000,80.9375,86,42,0.37680
2610430,0.06000,82.8125,86,42,0.36972
2610440,0.08000,84.0625,86,42,0.36288
2610450,0.09000,84.8125,86,42,0.35629
2610460,0.11000,84.8125,86,42,0.34310
2610470,0.13000,84.2500,86,42,0.33651
2610480,0.14500,83.3125,86,42,0.33016
2610490,0.16500,82.1875,86,42,0.32357
2610500,0.17000,79.5000,86,42,0.31429
2610510,0.16000,78.0000,86,42,0.30891
2610520,0.14000,76.4375,86,42,0.30305
2610530,0.11000,74.8750,86,42,0.29719
2610540,0.08000,71.8125,86,42,0.28449
2610550,0.05000,70.3125,86,42,0.27790
2610560,0.03000,68.8750,86,42,0.27106
2610570,0.01000,67.4375,86,42,0.26422
2610580,-0.00500,64.5000,86,42,0.25250
2610590,-0.01000,63.0000,86,42,0.25104
2610600,-0.01500,61.5000,86,42,0.25250
2610610,-0.02000,59.8750,86,42,0.25495
2610620,-0.02000,56.8750,86,42,0.26813
2610630,-0.02500,55.6250,86,42,0.28034
2610640,-0.03500,54.5625,86,42,0.29597
2610650,-0.04000,53.7500,86,42,0.31477
2610660,-0.04000,52.4375,86,42,0.36020
2610670,-0.02500,51.9375,86,42,0.38559
2610680,0.00000,51.5000,86,42,0.41221
2610690,0.03000,51.1250,86,42,0.43932
2610700,0.07000,50.5625,86,42,0.48474
2610710,0.10500,50.3750,86,42,0.50842
2610720,0.11000,50.2500,86,42,0.53211
2610730,0.09500,50.0625,86,42,0.55458
2610740,0.04000,49.7500,86,42,0.59487
2610750,-0.02000,49.5625,86,42,0.61172
2610760,-0.06500,49.4375,86,42,0.62637
2610770,-0.08500,49.2500,86,42,0.63883
2610780,-0.09500,48.9375,86,42,0.65641
2610790,-0.10500,48.7500,86,42,0.66105
2610800,-0.11500,48.5625,86,42,0.66374
2610810,-0.13000,48.3125,86,42,0.66593
2610820,-0.14000,47.8125,86,42,0.66642
2610830,-0.14000,47.6250,86,42,0.66447
2610840,-0.15000,47.3750,86,42,0.66105
2610850,-0.16000,47.2500,86,42,0.65641
2610860,0.03000,46.9375,86,42,0.64298
2610870,0.51500,46.7500,86,42,0.63468
2610880,0.92000,46.6250,86,42,0.62540
2610890,0.65500,46.4375,86,42,0.61538
2610900,-0.03000,46.1250,86,42,0.59634
2610910,-0.44500,45.8750,86,42,0.58608
2610920,-0.49000,45.6250,86,42,0.57534
2610930,-0.36500,45.3750,86,42,0.56435
2610940,-0.26500,44.6875,86,42,0.54188
2610950,-0.24000,44.3750,86,42,0.53065
2610960,-0.23000,44.0625,86,42,0.51966
2610970,-0.22000,43.6875,86,42,0.50916
2610980,-0.20000,43.0000,86,42,0.48864
2610990,-0.19000,42.6250,86,42,0.48010
2611000,-0.18000,42.2500,86,42,0.47253
2611010,-0.17000,41.8750,86,42,0.46422
2611020,-0.17000,41.1875,86,42,0.44762
2611030,-0.15500,40.9375,86,42,0.43956
2611040,-0.13500,40.8125,86,42,0.43175
2611050,-0.12000,41.0625,86,42,0.42393
2611060,-0.10000,44.0625,86,42,0.40904
2611070,-0.08000,47.2500,86,42,0.40171
2611080,-0.06500,51.2500,86,42,0.39438
2611090,-0.05500,55.6250,86,42,0.38730
2611100,-0.04500,64.1250,86,42,0.37680
2611110,-0.01500,68.0000,86,42,0.37118
2611120,0.01000,71.5625,86,42,0.36508
2611130,0.03500,74.6250,86,42,0.35897
2611140,0.05000,79.0625,86,42,0.34750
2611150,0.04000,80.4375,86,42,0.34212
2611160,0.05000,81.3125,86,42,0.33675
2611170,0.10000,81.6250,86,42,0.33138
2611180,0.13500,81.1250,86,42,0.32088
2611190,0.16000,80.3125,86,42,0.31697
2611200,0.18500,79.3125,86,42,0.31355
2611210,0.19000,78.0625,86,42,0.30916
2611220,0.18000,75.2500,86,42,0.29963
2611230,0.15500,73.7500,86,42,0.29451
2611240,0.11500,72.1875,86,42,0.28913
2611250,0.08000,70.6875,86,42,0.28376
2611260,0.05500,67.7500,86,42,0.27302
2611270,0.05000,66.3125,86,42,0.26764
2611280,0.03000,64.8750,86,42,0.26227
2611290,0.00000,62.0000,86,42,0.25739
2611300,-0.00500,60.5625,86,42,0.25250
2611310,-0.01500,59.0625,86,42,0.25128
2611320,-0.01500,57.6250,86,42,0.25177
2611330,-0.01000,56.1875,86,42,0.25495
2611340,-0.01500,53.7500,86,42,0.27179
2611350,-0.03500,52.8125,86,42,0.28571
2611360,-0.05000,52.0625,86,42,0.30305
2611370,-0.04500,51.4375,86,42,0.32332
2611380,-0.04000,50.5000,86,42,0.36996
2611390,-0.02500,50.1250,86,42,0.39219
2611400,-0.00500,49.8750,86,42,0.41343
2611410,0.01000,49.6250,86,42,0.43712
2611420,0.03000,49.2500,86,42,0.48645
2611430,0.07000,49.0625,86,42,0.51038
2611440,0.10000,48.9375,86,42,0.53309
2611450,0.11000,48.8125,86,42,0.55409
2611460,0.08500,48.5000,86,42,0.58999
2611470,0.02500,48.3125,86,42,0.60464
2611480,-0.03500,48.1250,86,42,0.61709
2611490,-0.07500,47.9375,86,42,0.62711
2611500,-0.08500,47.5625,86,42,0.63785
2611510,-0.09000,47.3750,86,42,0.64151
2611520,-0.10000,47.1250,86,42,0.64371
2611530,-0.11500,46.9375,86,42,0.64469
2611540,-0.12000,46.5000,86,42,0.64225
2611550,-0.11500,46.2500,86,42,0.63883
2611560,-0.11500,46.0000,86,42,0.63443
2611570,-0.13000,45.8125,86,42,0.62882
2611580,-0.09500,45.4375,86,42,0.61465
2611590,0.18500,45.3125,86,42,0.60708
2611600,0.75500,45.1875,86,42,0.59902
2611610,0.99500,45.0000,86,42,0.58974
2611620,0.48500,44.7500,86,42,0.56947
2611630,-0.15000,44.5000,86,42,0.55897
2611640,-0.42500,44.2500,86,42,0.54847
2611650,-0.42000,44.0000,86,42,0.53797
2611660,-0.30000,43.3750,86,42,0.51770
2611670,-0.23000,43.0625,86,42,0.50769
2611680,-0.21500,42.7500,86,42,0.49792
2611690,-0.20000,42.4375,86,42,0.48840
2611700,-0.18500,41.8125,86,42,0.47302
2611710,-0.16000,41.5625,86,42,0.46496
2611720,-0.15500,41.1875,86,42,0.45641
2611730,-0.14000,40.8750,86,42,0.44811
2611740,-0.13500,40.2500,86,42,0.43199
2611750,-0.12000,40.0000,86,42,0.42418
2611760,-0.11000,39.8125,86,42,0.41661
2611770,-0.09500,39.9375,86,42,0.40928
2611780,-0.09000,42.3125,86,42,0.39536
2611790,-0.08500,45.1875,86,42,0.38999
2611800,-0.07500,49.0625,86,42,0.38510
2611810,-0.06000,53.5000,86,42,0.37973
2611820,-0.04500,62.4375,86,42,0.36825
2611830,-0.02500,66.6875,86,42,0.36264
2611840,-0.00500,70.5625,86,42,0.35702
2611850,0.01000,77.0000,86,42,0.35165
2611860,0.03000,79.3750,86,42,0.34139
2611870,0.05000,81.2500,86,42,0.33651
2611880,0.06500,82.5625,86,42,0.33162
2611890,0.07500,83.3750,86,42,0.32698
2611900,0.09000,83.6250,86,42,0.32088
2611910,0.10000,83.2500,86,42,0.31722
2611920,0.11000,82.5625,86,42,0.31306
2611930,0.12000,81.6250,86,42,0.30867
2611940,0.13500,79.2500,86,42,0.29915
2611950,0.13500,77.8750,86,42,0.29426
2611960,0.11500,76.5000,86,42,0.28962
2611970,0.08000,75.0625,86,42,0.28474
2611980,0.05000,72.1250,86,42,0.27473
2611990,0.01500,70.6875,86,42,0.27106
2612000,-0.01000,69.1875,86,42,0.26789
2612010,-0.02500,67.6875,86,42,0.26374
2612020,-0.03500,64.6875,86,42,0.25519
2612030,-0.04000,63.1250,86,42,0.25250
2612040,-0.04000,61.4375,86,42,0.25177
2612050,-0.04500,59.7500,86,42,0.25372
2612060,-0.04500,56.5000,86,42,0.26911
2612070,-0.05500,55.1250,86,42,0.28278
2612080,-0.06000,54.0000,86,42,0.30012
2612090,-0.06500,53.0625,86,42,0.31819
2612100,-0.06500,51.7500,86,42,0.36020
2612110,-0.07500,51.2500,86,42,0.38559
2612120,-0.07000,50.8125,86,42,0.41245
2612130,-0.05500,50.4375,86,42,0.43980
2612140,-0.03500,49.8750,86,42,0.49499
2612150,-0.00500,49.6250,86,42,0.52161
2612160,0.03500,49.4375,86,42,0.54725
2612170,0.07500,49.3125,86,42,0.57118
2612180,0.09500,49.0000,86,42,0.61319
2612190,0.07000,48.8125,86,42,0.62857
2612200,0.02000,48.6250,86,42,0.64103
2612210,-0.04500,48.5000,86,42,0.65324
2612220,-0.09500,48.1250,86,42,0.67375
2612230,-0.12500,47.9375,86,42,0.68107
2612240,-0.14000,47.8125,86,42,0.68669
2612250,-0.14500,47.6875,86,42,0.69035
2612260,-0.14500,47.3750,86,42,0.69255
2612270,-0.15500,47.2500,86,42,0.69158
2612280,-0.15500,47.0625,86,42,0.68889
2612290,-0.15500,46.8750,86,42,0.68474
2612300,-0.16500,46.5000,86,42,0.67326
2612310,-0.15000,46.3125,86,42,0.66618
2612320,0.09000,46.1875,86,42,0.65812
2612330,0.64000,46.0000,86,42,0.64908
2612340,0.97500,45.7500,86,42,0.62930
2612350,0.56500,45.5625,86,42,0.61880
2612360,-0.11000,45.3125,86,42,0.60830
2612370,-0.46000,44.6250,86,42,0.59756
2612380,-0.51000,44.3125,86,42,0.57607
2612390,-0.42000,43.9375,86,42,0.56654
2612400,-0.37500,43.6250,86,42,0.55751
2612410,-0.40000,43.2500,86,42,0.54799
2612420,-0.42000,42.5625,86,42,0.52821
2612430,-0.41500,42.2500,86,42,0.51844
2612440,-0.39500,41.9375,86,42,0.50891
2612450,-0.40000,41.6250,86,42,0.49963
2612460,-0.41500,40.8125,86,42,0.48156
2612470,-0.42000,40.4375,86,42,0.47302
2612480,-0.40500,40.1250,86,42,0.46471
2612490,-0.36500,39.9375,86,42,0.45788
2612500,-0.31500,40.7500,86,42,0.44493
2612510,-0.26500,42.5000,86,42,0.43785
2612520,-0.22000,45.4375,86,42,0.43077
2612530,-0.18500,49.4375,86,42,0.42369
2612540,-0.14500,58.6250,86,42,0.40952
2612550,-0.10500,63.1875,86,42,0.40244
2612560,-0.06500,67.5625,86,42,0.39560
2612570,-0.02500,71.5000,86,42,0.38901
2612580,0.00000,78.1250,86,42,0.37631
2612590,0.02500,80.6875,86,42,0.37143
2612600,0.05000,82.6250,86,42,0.36703
2612610,0.07000,84.0625,86,42,0.36190
2612620,0.09500,85.3750,86,42,0.35140
2612630,0.12000,85.3750,86,42,0.34603
2612640,0.13500,85.0000,86,42,0.34335
2612650,0.15500,84.3125,86,42,0.34164
2612660,0.18000,82.2500,86,42,0.33284
2612670,0.19500,81.0000,86,42,0.32723
2612680,0.19500,79.6250,86,42,0.32137
2612690,0.17000,78.1875,86,42,0.31697
2612700,0.14000,75.1250,86,42,0.30818
2612710,0.11000,73.6875,86,42,0.30256
2612720,0.08500,72.1875,86,42,0.29646
2612730,0.07000,70.7500,86,42,0.29011
2612740,0.05500,67.8750,86,42,0.27790
2612750,0.05000,66.4375,86,42,0.27302
2612760,0.04500,65.0000,86,42,0.26984
2612770,0.04000,63.5000,86,42,0.26911
2612780,0.03500,60.3750,86,42,0.27888
2612790,0.03500,58.8125,86,42,0.28864
2612800,0.03500,57.3750,86,42,0.30134
2612810,0.03000,56.1250,86,42,0.31844
2612820,0.03000,54.1875,86,42,0.36484
2612830,0.03000,53.4375,86,42,0.39219
2612840,0.03000,52.8125,86,42,0.42173
2612850,0.03000,52.3125,86,42,0.45275
2612860,0.03500,51.4375,86,42,0.51648
2612870,0.05000,51.0625,86,42,0.54799
2612880,0.07000,50.7500,86,42,0.57851
2612890,0.11000,50.5000,86,42,0.60391
2612900,0.14000,50.1250,86,42,0.64957
2612910,0.14000,49.8750,86,42,0.67253
2612920,0.10500,49.6875,86,42,0.69377
2612930,0.04000,49.5000,86,42,0.71306
2612940,-0.01500,49.0625,86,42,0.74432
2612950,-0.06000,48.8125,86,42,0.75629
2612960,-0.08500,48.6250,86,42,0.76581
2612970,-0.09500,48.3750,86,42,0.77314
2612980,-0.10000,47.8750,86,42,0.78144
2612990,-0.10500,47.6875,86,42,0.78193
2613000,-0.10500,47.4375,87,42,0.78022
2613010,-0.10000,47.1875,87,42,0.77778
2613020,-0.09000,46.7500,87,42,0.76874
2613030,-0.10500,46.5000,87,42,0.76215
2613040,-0.06000,46.3125,87,42,0.75433
2613050,0.25500,46.1875,87,42,0.74530
2613060,0.83500,45.9375,87,42,0.72405
2613070,1.01500,45.7500,87,42,0.71209
2613080,0.48500,45.5625,87,42,0.69963
2613090,-0.14500,45.3750,87,42,0.68791
2613100,-0.42000,44.8750,87,42,0.66398
2613110,-0.38500,44.5625,87,42,0.65104
2613120,-0.26000,44.2500,87,42,0.63810
2613130,-0.20500,43.9375,87,42,0.62491
2613140,-0.20000,43.3125,87,42,0.59927
2613150,-0.19000,43.0000,87,42,0.58681
2613160,-0.17500,42.6250,87,42,0.57460
2613170,-0.16500,42.3125,87,42,0.56264
2613180,-0.16000,41.6875,87,42,0.53968
2613190,-0.15500,41.3750,87,42,0.53016
2613200,-0.15500,41.0625,87,42,0.52161
2613210,-0.14000,40.8125,87,42,0.51233
2613220,-0.12500,40.8125,87,42,0.49328
2613230,-0.11000,41.6250,87,42,0.48352
2613240,-0.09500,43.5000,87,42,0.47399
2613250,-0.09000,46.6875,87,42,0.46471
2613260,-0.07500,55.4375,87,42,0.44689
2613270,-0.06500,60.1250,87,42,0.43834
2613280,-0.05000,64.7500,87,42,0.43004
2613290,-0.03500,69.1250,87,42,0.42320
2613300,-0.02000,76.6875,87,42,0.41074
2613310,-0.00500,79.6875,87,42,0.40366
2613320,0.01000,82.1875,87,42,0.39683
2613330,0.02000,84.1250,87,42,0.38999
2613340,0.03000,86.4375,87,42,0.37729
2613350,0.04500,86.8750,87,42,0.37118
2613360,0.06500,86.8750,87,42,0.36508
2613370,0.08500,86.5000,87,42,0.35897
2613380,0.11000,84.8750,87,42,0.34628
2613390,0.13000,83.7500,87,42,0.34115
2613400,0.14500,82.4375,87,42,0.33675
2613410,0.14000,81.0625,87,42,0.33138
2613420,0.12000,78.0625,87,42,0.31941
2613430,0.09000,76.5000,87,42,0.31331
2613440,0.06500,75.0000,87,42,0.30696
2613450,0.04000,73.5000,87,42,0.30037
2613460,0.02500,70.5625,87,42,0.28767
2613470,0.01000,69.1250,87,42,0.28205
2613480,0.00500,67.7500,87,42,0.27741
2613490,0.00500,66.3750,87,42,0.27546
2613500,0.00500,63.3125,87,42,0.27863
2613510,0.00000,61.7500,87,42,0.28474
2613520,-0.00500,60.1250,87,42,0.29475
2613530,-0.01000,58.6250,87,42,0.30891
2613540,-0.01500,56.1875,87,42,0.34945
2613550,-0.02500,55.2500,87,42,0.37485
2613560,-0.02500,54.5000,87,42,0.40317
2613570,-0.02500,53.8750,87,42,0.43346
2613580,-0.03000,52.8125,87,42,0.49744
2613590,-0.03500,52.4375,87,42,0.52552
2613600,-0.02500,52.0000,87,42,0.55116
2613610,-0.00500,51.6875,87,42,0.57924
2613620,0.03000,51.1250,87,42,0.63492
2613630,0.06000,50.9375,87,42,0.66056
2613640,0.08000,50.6875,87,42,0.68425
2613650,0.07000,50.5000,87,42,0.70549
2613660,0.03000,50.0625,87,42,0.74017
2613670,-0.03500,49.8750,87,42,0.75385
2613680,-0.09500,49.6875,87,42,0.76508
2613690,-0.13500,49.5000,87,42,0.77241
2613700,-0.15000,49.0625,87,42,0.78071
2613710,-0.15500,48.8125,87,42,0.78339
2613720,-0.16000,48.5625,87,42,0.78462
2613730,-0.16000,48.3125,87,42,0.78437
2613740,-0.16000,47.8125,87,42,0.77924
2613750,-0.15500,47.5625,87,42,0.77436
2613760,-0.15500,47.3750,87,42,0.76777
2613770,-0.16500,47.1250,87,42,0.75995
2613780,-0.04500,46.7500,87,42,0.74139
2613790,0.41000,46.5625,87,42,0.73138
2613800,0.99000,46.3750,87,42,0.72039
2613810,0.90500,46.1875,87,42,0.70842
2613820,0.17500,45.7500,87,42,0.68303
2613830,-0.38000,45.5625,87,42,0.66984
2613840,-0.50500,45.3125,87,42,0.65641
2613850,-0.37500,45.0000,87,42,0.64322
2613860,-0.25500,44.4375,87,42,0.61758
2613870,-0.22500,44.1250,87,42,0.60513
2613880,-0.21000,43.8125,87,42,0.59267
2613890,-0.20000,43.5000,87,42,0.58169
2613900,-0.19000,42.8125,87,42,0.56093
2613910,-0.18000,42.5000,87,42,0.55018
2613920,-0.17500,42.2500,87,42,0.53944
2613930,-0.17500,41.9375,87,42,0.52869
2613940,-0.17000,41.3750,87,42,0.50842
2613950,-0.16000,41.2500,87,42,0.49866
2613960,-0.14500,41.4375,87,42,0.48913
2613970,-0.13000,42.3125,87,42,0.47937
2613980,-0.11500,47.6875,87,42,0.46227
2613990,-0.09500,52.0000,87,42,0.45543
2614000,-0.08500,56.8125,87,42,0.44786
2614010,-0.07000,61.7500,87,42,0.44005
2614020,-0.04500,71.1250,87,42,0.42466
2614030,-0.02500,75.3125,87,42,0.41709
2614040,-0.01000,79.0000,87,42,0.40977
2614050,0.00000,82.1875,87,42,0.40269
2614060,0.01500,86.6250,87,42,0.38901
2614070,0.02000,87.9375,87,42,0.38266
2614080,0.03000,88.7500,87,42,0.37631
2614090,0.04000,89.0625,87,42,0.37143
2614100,0.05500,88.5000,87,42,0.36215
2614110,0.07000,87.8125,87,42,0.35678
2614120,0.09000,86.8125,87,42,0.35140
2614130,0.11000,85.6875,87,42,0.34603
2614140,0.11000,83.0000,87,42,0.33504
2614150,0.10000,81.6250,87,42,0.32918
2614160,0.07500,80.1250,87,42,0.32308
2614170,0.04500,78.6250,87,42,0.31722
2614180,0.02000,75.6875,87,42,0.30647
2614190,0.00000,74.1875,87,42,0.30256
2614200,-0.01000,72.8125,87,42,0.29768
2614210,-0.02500,71.4375,87,42,0.29255
2614220,-0.02500,68.5625,87,42,0.28498
2614230,-0.02500,67.0625,87,42,0.28425
2614240,-0.02500,65.5625,87,42,0.28694
2614250,-0.03000,62.2500,87,42,0.29353
2614260,-0.03500,60.5625,87,42,0.32015
2614270,-0.04000,59.0625,87,42,0.34017
2614280,-0.04500,57.7500,87,42,0.36410
2614290,-0.05000,56.6250,87,42,0.38779
2614300,-0.05000,55.0000,87,42,0.44103
2614310,-0.06000,54.3750,87,42,0.47253
2614320,-0.06500,53.8125,87,42,0.50574
2614330,-0.06500,53.3750,87,42,0.53944
2614340,-0.05000,52.7500,87,42,0.60537
2614350,-0.01500,52.5000,87,42,0.63614
2614360,0.00500,52.3125,87,42,0.66471
2614370,0.03000,52.1250,87,42,0.69109
2614380,0.07000,51.8125,87,42,0.73333
2614390,0.09000,51.6250,87,42,0.74774
2614400,0.07000,51.4375,87,42,0.76239
2614410,0.02000,51.2500,87,42,0.77582
2614420,-0.03500,50.8125,87,42,0.79707
2614430,-0.08500,50.6250,87,42,0.80440
2614440,-0.12000,50.3750,87,42,0.80952
2614450,-0.13500,50.1250,87,42,0.81245
2614460,-0.14000,49.6250,87,42,0.81245
2614470,-0.14500,49.3750,87,42,0.80977
2614480,-0.14500,49.1250,87,42,0.80562
2614490,-0.14000,48.8125,87,42,0.79976
2614500,-0.13000,48.3125,87,42,0.78413
2614510,-0.13000,48.0625,87,42,0.77485
2614520,-0.15500,47.8750,87,42,0.76484
2614530,-0.03500,47.6250,87,42,0.75385
2614540,0.42000,47.1875,87,42,0.72918
2614550,1.01000,46.9375,87,42,0.71575
2614560,0.98000,46.7500,87,42,0.70208
2614570,0.19000,46.5625,87,42,0.68816
2614580,-0.43500,46.1875,87,42,0.66154
2614590,-0.53000,45.9375,87,42,0.64933
2614600,-0.37000,45.6875,87,42,0.63663
2614610,-0.24500,45.4375,87,42,0.62369
2614620,-0.21500,44.7500,87,42,0.59829
2614630,-0.21000,44.3750,87,42,0.58632
2614640,-0.20500,44.0000,87,42,0.57460
2614650,-0.19000,43.6875,87,42,0.56313
2614660,-0.17000,42.9375,87,42,0.54115
2614670,-0.15500,42.5625,87,42,0.53065
2614680,-0.14500,42.2500,87,42,0.52039
2614690,-0.14500,41.8750,87,42,0.50232
2614700,-0.14000,41.5625,87,42,0.46520
2614710,-0.13000,41.8750,87,42,0.45372
2614720,-0.12000,43.0000,87,42,0.44396
2614730,-0.11500,45.3750,87,42,0.43516
2614740,-0.10000,53.5000,87,42,0.41929
2614750,-0.08500,58.4375,87,42,0.41197
2614760,-0.06500,63.4375,87,42,0.40488
2614770,-0.03500,72.7500,87,42,0.39170
2614780,-0.02500,76.8125,87,42,0.38657
2614790,-0.01000,80.3125,87,42,0.38217
2614800,0.00500,83.2500,87,42,0.37680
2614810,0.01500,85.6250,87,42,0.37118
2614820,0.03000,88.6250,87,42,0.36044
2614830,0.04000,89.2500,87,42,0.35507
2614840,0.05000,89.4375,87,42,0.34945
2614850,0.06000,89.1875,87,42,0.34383
2614860,0.08000,87.8125,87,42,0.33309
2614870,0.10000,86.8125,87,42,0.32796
2614880,0.12000,85.6250,87,42,0.32283
2614890,0.13000,84.3125,87,42,0.31868
2614900,0.12000,81.4375,87,42,0.31111
2614910,0.09000,79.8750,87,42,0.30623
2614920,0.05000,78.3750,87,42,0.30110
2614930,0.02000,76.8750,87,42,0.29548
2614940,-0.00500,73.8750,87,42,0.28400
2614950,-0.02500,72.3750,87,42,0.27888
2614960,-0.04000,70.9375,87,42,0.27399
2614970,-0.05500,69.4375,87,42,0.27009
2614980,-0.05500,66.3750,87,42,0.26862
2614990,-0.06000,64.7500,87,42,0.27179
2615000,-0.06500,63.0625,86,42,0.27814
2615010,-0.07500,61.3750,86,42,0.28840
2615020,-0.07500,58.4375,86,42,0.32186
2615030,-0.07500,57.2500,86,42,0.34432
2615040,-0.07000,56.2500,86,42,0.36996
2615050,-0.07500,55.3750,86,42,0.39805
2615060,-0.07500,54.1250,86,42,0.45861
2615070,-0.06500,53.6250,86,42,0.48987
2615080,-0.03000,53.2500,86,42,0.52063
2615090,0.00000,52.9375,86,42,0.54676
2615100,0.02000,52.4375,86,42,0.59487
2615110,0.06000,52.2500,86,42,0.61929
2615120,0.09500,52.0625,86,42,0.64249
2615130,0.09000,51.8750,86,42,0.66374
2615140,0.05500,51.4375,86,42,0.69915
2615150,0.00000,51.1875,86,42,0.71306
2615160,-0.04000,50.9375,86,42,0.72479
2615170,-0.07500,50.6875,86,42,0.73407
2615180,-0.10500,50.1250,86,42,0.74505
2615190,-0.10500,49.8750,86,42,0.74652
2615200,-0.10500,49.6250,86,42,0.74774
2615210,-0.10500,49.3125,86,42,0.74823
2615220,-0.11500,48.7500,86,42,0.74579
2615230,-0.11500,48.4375,86,42,0.74212
2615240,-0.11500,48.1875,86,42,0.73700
2615250,-0.13500,47.6875,86,42,0.73040
2615260,-0.14000,47.5000,86,42,0.71355
2615270,0.08000,47.2500,86,42,0.70379
2615280,0.61500,47.1250,86,42,0.69304
2615290,0.97500,46.9375,86,42,0.68230
2615300,0.61500,46.5625,86,42,0.65983
2615310,-0.10000,46.3125,86,42,0.64786
2615320,-0.48000,46.0625,86,42,0.63541
2615330,-0.47000,45.7500,86,42,0.62271
2615340,-0.32000,45.1250,86,42,0.59707
2615350,-0.23000,44.8125,86,42,0.58462
2615360,-0.21500,44.5000,86,42,0.57216
2615370,-0.21500,44.1250,86,42,0.56020
2615380,-0.20500,43.3750,86,42,0.53797
2615390,-0.19500,43.0000,86,42,0.52845
2615400,-0.18000,42.6250,86,42,0.51844
2615410,-0.17500,42.3125,86,42,0.50818
2615420,-0.17000,41.6875,86,42,0.48742
2615430,-0.16500,41.3750,86,42,0.47741
2615440,-0.15000,41.1875,86,42,0.46764
2615450,-0.13500,41.2500,86,42,0.45812
2615460,-0.11500,43.3125,86,42,0.44029
2615470,-0.10000,46.0000,86,42,0.43199
2615480,-0.08500,49.7500,86,42,0.42369
2615490,-0.06500,54.1250,86,42,0.41685
2615500,-0.04500,63.1875,86,42,0.40366
2615510,-0.02500,67.5000,86,42,0.39634
2615520,-0.00500,71.4375,86,42,0.38877
2615530,0.01000,74.9375,86,42,0.38144
2615540,0.03000,80.3125,86,42,0.36679
2615550,0.04500,82.1875,86,42,0.35946
2615560,0.06500,83.4375,86,42,0.35214
2615570,0.08500,84.1875,86,42,0.34505
2615580,0.10000,84.3125,86,42,0.33284
2615590,0.12000,83.7500,86,42,0.32845
2615600,0.14500,82.9375,86,42,0.32283
2615610,0.16500,81.8750,86,42,0.31673
2615620,0.17500,79.3125,86,42,0.30452
2615630,0.16000,77.8125,86,42,0.29817
2615640,0.14000,76.3125,86,42,0.29206
2615650,0.10000,74.6875,86,42,0.28620
2615660,0.06000,71.5000,86,42,0.27448
2615670,0.03000,70.0000,86,42,0.26862
2615680,0.00000,68.4375,86,42,0.26422
2615690,-0.01000,67.0000,86,42,0.26032
2615700,-0.02000,63.9375,86,42,0.25079
2615710,-0.03000,62.3750,86,42,0.24689
2615720,-0.03500,60.7500,86,42,0.24420
2615730,-0.02500,59.1250,86,42,0.24396
2615740,-0.01500,56.0000,86,42,0.25372
2615750,-0.01500,54.6875,86,42,0.26447
2615760,-0.01500,53.5625,86,42,0.27912
2615770,-0.02000,52.6875,86,42,0.29744
2615780,-0.02500,51.5000,86,42,0.33944
2615790,-0.02500,51.0000,86,42,0.36044
2615800,-0.01000,50.6250,86,42,0.38462
2615810,0.01000,50.3750,86,42,0.41026
2615820,0.03000,50.0625,86,42,0.46300
2615830,0.07000,49.9375,86,42,0.48864
2615840,0.09000,49.8125,86,42,0.51331
2615850,0.09000,49.7500,86,42,0.53626
2615860,0.05500,49.5000,86,42,0.57680
2615870,-0.00500,49.4375,86,42,0.59414
2615880,-0.05500,49.2500,86,42,0.60733
2615890,-0.09500,49.1250,86,42,0.61758
2615900,-0.12000,48.8125,86,42,0.63639
2615910,-0.12500,48.6250,86,42,0.64371
2615920,-0.12000,48.3750,86,42,0.64908
2615930,-0.12000,48.1875,86,42,0.65275
2615940,-0.11500,47.6875,86,42,0.65519
2615950,-0.11000,47.4375,86,42,0.65421
2615960,-0.10000,47.1875,86,42,0.65153
2615970,-0.10000,47.0000,86,42,0.64762
2615980,-0.09500,46.5625,86,42,0.63590
2615990,0.11000,46.3750,86,42,0.62882
2616000,0.62000,46.1875,86,42,0.62051
2616010,1.02000,46.0000,86,42,0.61123
2616020,0.73500,45.6250,86,42,0.58999
2616030,0.04000,45.3125,86,42,0.57851
2616040,-0.36500,45.0000,86,42,0.56654
2616050,-0.41500,44.7500,86,42,0.55433
2616060,-0.29000,44.0625,86,42,0.53065
2616070,-0.20500,43.6875,86,42,0.51941
2616080,-0.19000,43.3125,86,42,0.50965
2616090,-0.18500,43.0000,86,42,0.50061
2616100,-0.18000,42.3125,86,42,0.48107
2616110,-0.17000,41.9375,86,42,0.47155
2616120,-0.16000,41.6250,86,42,0.46276
2616130,-0.16000,41.3125,86,42,0.45421
2616140,-0.15500,40.6250,86,42,0.43761
2616150,-0.15500,40.3750,86,42,0.43004
2616160,-0.14500,40.1250,86,42,0.42295
2616170,-0.13000,40.1250,86,42,0.41612
2616180,-0.11500,41.7500,86,42,0.40366
2616190,-0.10500,44.0625,86,42,0.39853
2616200,-0.09500,47.4375,86,42,0.39243
2616210,-0.08500,51.6250,86,42,0.38608
2616220,-0.07000,60.4375,86,42,0.37363
2616230,-0.05000,64.6250,86,42,0.36752
2616240,-0.02500,68.5625,86,42,0.36166
2616250,0.00000,75.1250,86,42,0.34994
2616260,0.01000,77.6250,86,42,0.34432
2616270,0.03000,79.6250,86,42,0.33895
2616280,0.05000,81.0625,86,42,0.33480
2616290,0.06500,82.0000,86,42,0.33114
2616300,0.08000,82.3750,86,42,0.32112
2616310,0.10000,81.9375,86,42,0.31575
2616320,0.12000,81.1875,86,42,0.31062
2616330,0.13000,80.1875,86,42,0.30525
2616340,0.14000,77.6875,86,42,0.29451
2616350,0.13000,76.2500,86,42,0.28913
2616360,0.10500,74.7500,86,42,0.28376
2616370,0.07000,73.2500,86,42,0.27863
2616380,0.04000,70.1875,86,42,0.26960
2616390,0.01000,68.6875,86,42,0.26642
2616400,-0.01500,67.2500,86,42,0.26227
2616410,-0.03500,65.8125,86,42,0.25788
2616420,-0.04500,63.0000,86,42,0.24884
2616430,-0.04500,61.5625,86,42,0.24542
2616440,-0.04500,60.0625,86,42,0.24347
2616450,-0.04000,58.4375,86,42,0.24371
2616460,-0.04000,55.2500,86,42,0.25348
2616470,-0.04000,53.8750,86,42,0.26398
2616480,-0.04000,52.7500,86,42,0.27643
2616490,-0.04500,51.8125,86,42,0.29109
2616500,-0.05000,50.5625,86,42,0.33211
2616510,-0.05000,50.0625,86,42,0.35702
2616520,-0.05000,49.6875,86,42,0.38364
2616530,-0.04000,49.3750,86,42,0.41148
2616540,-0.02000,48.8750,86,42,0.46764
2616550,0.00000,48.6875,86,42,0.49499
2616560,0.03500,48.6250,86,42,0.52137
2616570,0.08000,48.5000,86,42,0.54603
2616580,0.10000,48.3125,86,42,0.58681
2616590,0.08000,48.1875,86,42,0.60171
2616600,0.02000,48.0625,86,42,0.61661
2616610,-0.02500,47.9375,86,42,0.63028
2616620,-0.06500,47.6250,86,42,0.65275
2616630,-0.09500,47.4375,86,42,0.66105
2616640,-0.10500,47.2500,86,42,0.66740
2616650,-0.10500,47.0625,86,42,0.67179
2616660,-0.11500,46.6250,86,42,0.67521
2616670,-0.11500,46.3750,86,42,0.67448
2616680,-0.11500,46.1875,86,42,0.67204
2616690,-0.10500,45.7500,86,42,0.66813
2616700,-0.10500,45.5625,86,42,0.65641
2616710,-0.12000,45.3750,86,42,0.64835
2616720,-0.03000,45.1875,86,42,0.63907
2616730,0.35000,45.0625,86,42,0.62882
2616740,0.89500,44.7500,86,42,0.60708
2616750,0.93000,44.5625,86,42,0.59512
2616760,0.29000,44.3750,86,42,0.58291
2616770,-0.27000,44.1250,86,42,0.57021
2616780,-0.46000,43.5625,86,42,0.54628
2616790,-0.39500,43.1875,86,42,0.53602
2616800,-0.28000,42.8750,86,42,0.52503
2616810,-0.23500,42.5625,86,42,0.51429
2616820,-0.23000,42.0000,86,42,0.49304
2616830,-0.22000,41.6875,86,42,0.48278
2616840,-0.21500,41.3750,86,42,0.47302
2616850,-0.20500,41.0625,86,42,0.46349
2616860,-0.20000,40.4375,86,42,0.44567
2616870,-0.20000,40.1875,86,42,0.43736
2616880,-0.18500,39.9375,86,42,0.43077
2616890,-0.16000,39.6875,86,42,0.42491
2616900,-0.13500,39.9375,86,42,0.41197
2616910,-0.11500,41.0625,86,42,0.40513
2616920,-0.09500,43.3125,86,42,0.39853
2616930,-0.08500,46.7500,86,42,0.39219
2616940,-0.07000,55.5625,86,42,0.37973
2616950,-0.05500,60.1250,86,42,0.37387
2616960,-0.03500,64.5625,86,42,0.36825
2616970,-0.02500,68.6875,86,42,0.36264
2616980,-0.01000,75.8750,86,42,0.35287
2616990,0.00000,78.6875,86,42,0.34921
2617000,0.01500,80.9375,86,42,0.34481
2617010,0.03000,82.6250,86,42,0.33968
2617020,0.04500,84.4375,86,42,0.32869
2617030,0.06000,84.5625,86,42,0.32308
2617040,0.08000,84.3750,86,42,0.31722
2617050,0.10000,83.7500,86,42,0.31111
2617060,0.12000,81.8750,86,42,0.29890
2617070,0.14000,80.6875,86,42,0.29280
2617080,0.14500,79.3125,86,42,0.28840
2617090,0.13000,77.8125,86,42,0.28449
2617100,0.10000,74.8125,86,42,0.27424
2617110,0.07000,73.3125,86,42,0.26862
2617120,0.04000,71.8125,86,42,0.26276
2617130,0.01500,70.3750,86,42,0.25641
2617140,-0.00500,67.5625,86,42,0.24322
2617150,-0.02000,66.1250,86,42,0.23687
2617160,-0.02500,64.7500,86,42,0.23150
2617170,-0.03000,63.2500,86,42,0.22735
2617180,-0.03500,60.1250,86,42,0.22735
2617190,-0.04000,58.4375,86,42,0.23199
2617200,-0.04500,56.8125,86,42,0.23980
2617210,-0.04500,55.3125,86,42,0.25104
2617220,-0.05500,52.9375,86,42,0.28449
2617230,-0.05500,52.0625,86,42,0.30574
2617240,-0.05500,51.4375,86,42,0.32943
2617250,-0.06000,50.9375,86,42,0.35482
2617260,-0.05500,50.1875,86,42,0.40879
2617270,-0.03000,49.8750,86,42,0.43639
2617280,-0.00500,49.6250,86,42,0.46032
2617290,0.03000,49.4375,86,42,0.48205
2617300,0.06500,49.1250,86,42,0.52918
2617310,0.07500,49.0000,86,42,0.55189
2617320,0.04500,48.8750,86,42,0.57289
2617330,0.00000,48.7500,86,42,0.59194
2617340,-0.03500,48.3750,86,42,0.62393
2617350,-0.06000,48.1875,86,42,0.63639
2617360,-0.08500,48.0000,86,42,0.64689
2617370,-0.09500,47.8125,86,42,0.65543
2617380,-0.10500,47.3750,86,42,0.66349
2617390,-0.10500,47.1875,86,42,0.66593
2617400,-0.10500,46.9375,86,42,0.66716
2617410,-0.10500,46.6875,86,42,0.66716
2617420,-0.10000,46.3125,86,42,0.66227
2617430,-0.10500,46.1250,86,42,0.65763
2617440,-0.13000,46.0000,86,42,0.65153
2617450,-0.04500,45.8125,86,42,0.64420
2617460,0.34500,45.5625,86,42,0.62662
2617470,0.89000,45.3750,86,42,0.61636
2617480,0.88000,45.1875,86,42,0.60635
2617490,0.24500,45.0000,86,42,0.59634
2617500,-0.31500,44.5625,86,42,0.57411
2617510,-0.50500,44.3125,86,42,0.56288
2617520,-0.42500,44.0000,86,42,0.55165
2617530,-0.31000,43.6875,86,42,0.54090
2617540,-0.27000,43.0625,86,42,0.52015
2617550,-0.26000,42.6875,86,42,0.51013
2617560,-0.25500,42.3750,86,42,0.50037
2617570,-0.25000,42.0000,86,42,0.49084
2617580,-0.24500,41.3750,86,42,0.47546
2617590,-0.24500,41.0000,86,42,0.46740
2617600,-0.24500,40.6875,86,42,0.45910
2617610,-0.24000,40.3750,86,42,0.45079
2617620,-0.23000,40.0000,86,42,0.43419
2617630,-0.21000,40.3125,86,42,0.42613
2617640,-0.20500,41.3125,86,42,0.41832
2617650,-0.19500,43.3750,86,42,0.41074
2617660,-0.18000,50.8750,86,42,0.39560
2617670,-0.16000,55.5000,86,42,0.38828
2617680,-0.14500,60.1250,86,42,0.38217
2617690,-0.13000,64.6250,86,42,0.37705
2617700,-0.11000,72.7500,86,42,0.36459
2617710,-0.08500,76.1875,86,42,0.35824
2617720,-0.06000,79.1250,86,42,0.35214
2617730,-0.03500,81.5625,86,42,0.34603
2617740,-0.01000,84.6875,86,42,0.33431
2617750,0.02000,85.4375,86,42,0.32821
2617760,0.04500,85.6875,86,42,0.32234
2617770,0.07500,85.6250,86,42,0.31648
2617780,0.11000,84.4375,86,42,0.30794
2617790,0.14000,83.5000,86,42,0.30330
2617800,0.16000,82.3125,86,42,0.29841
2617810,0.16500,80.9375,86,42,0.29328
2617820,0.14500,78.1250,86,42,0.28254
2617830,0.12000,76.6875,86,42,0.27741
2617840,0.08500,75.1875,86,42,0.27204
2617850,0.05500,73.7500,86,42,0.26667
2617860,0.02500,70.8750,86,42,0.25592
2617870,0.00000,69.5000,86,42,0.25055
2617880,-0.01500,68.1250,86,42,0.24689
2617890,-0.02500,66.8125,86,42,0.24469
2617900,-0.03500,63.9375,86,42,0.24274
2617910,-0.04500,62.3750,86,42,0.24518
2617920,-0.05500,60.7500,86,42,0.25079
2617930,-0.06000,59.1875,86,42,0.26032
2617940,-0.06000,56.4375,86,42,0.29084
2617950,-0.05500,55.3750,86,42,0.31160
2617960,-0.06000,54.5000,86,42,0.33602
2617970,-0.06000,53.7500,86,42,0.36337
2617980,-0.06000,52.5625,86,42,0.41441
2617990,-0.05500,52.1250,86,42,0.44371
2618000,-0.04500,51.7500,86,42,0.47497
2618010,-0.02500,51.4375,86,42,0.50672
2618020,0.00000,50.8125,86,42,0.56679
2618030,0.05000,50.5000,86,42,0.59365
2618040,0.08000,50.2500,86,42,0.61783
2618050,0.07500,50.0625,86,42,0.63907
2618060,0.03500,49.5000,86,42,0.67448
2618070,-0.01500,49.2500,86,42,0.68864
2618080,-0.06500,49.0625,86,42,0.69866
2618090,-0.11000,49.0000,86,42,0.70574
2618100,-0.12500,48.6250,86,42,0.71917
2618110,-0.12000,48.3125,86,42,0.72381
2618120,-0.10500,48.0625,86,42,0.72698
2618130,-0.09000,47.8125,86,42,0.72845
2618140,-0.08500,47.2500,86,42,0.72698
2618150,-0.08000,46.9375,86,42,0.72405
2618160,-0.08500,46.6875,86,42,0.71990
2618170,-0.10500,46.4375,86,42,0.71429
2618180,-0.05000,46.2500,86,42,0.69939
2618190,0.28500,46.1250,86,42,0.69035
2618200,0.86500,46.0625,86,42,0.68059
2618210,1.01000,45.9375,86,42,0.67009
2618220,0.41500,45.5625,86,42,0.64762
2618230,-0.20000,45.3750,86,42,0.63614
2618240,-0.42500,45.1250,86,42,0.62442
2618250,-0.35500,44.8750,86,42,0.61270
2618260,-0.22500,44.3125,86,42,0.58926
2618270,-0.16000,44.0000,86,42,0.57778
2618280,-0.15000,43.6875,86,42,0.56752
2618290,-0.13000,43.3125,86,42,0.55800
2618300,-0.11000,42.6250,86,42,0.53822
2618310,-0.09500,42.2500,86,42,0.52821
2618320,-0.09500,41.8750,86,42,0.51819
2618330,-0.10000,41.5625,86,42,0.50818
2618340,-0.10500,40.9375,86,42,0.48913
2618350,-0.10500,40.7500,86,42,0.47985
2618360,-0.10500,40.8125,86,42,0.47106
2618370,-0.10000,41.5000,86,42,0.46252
2618380,-0.09500,46.0625,86,42,0.44786
2618390,-0.09000,50.0625,86,42,0.44029
2618400,-0.08500,54.6250,86,42,0.43248
2618410,-0.07500,59.4375,86,42,0.42466
2618420,-0.07500,68.6250,86,42,0.41026
2618430,-0.06500,72.8125,86,42,0.40342
2618440,-0.06000,76.5625,86,42,0.39683
2618450,-0.05500,79.7500,86,42,0.39048
2618460,-0.05000,84.4375,86,42,0.37753
2618470,-0.04000,85.8750,86,42,0.37118
2618480,-0.03500,86.8750,86,42,0.36606
2618490,-0.02500,87.3125,86,42,0.36166
2618500,-0.00500,86.9375,86,42,0.34994
2618510,0.01000,86.2500,86,42,0.34359
2618520,0.03500,85.3125,86,42,0.33700
2618530,0.06000,84.1250,86,42,0.33040
2618540,0.08000,81.4375,86,42,0.31697
2618550,0.08000,79.9375,86,42,0.31038
2618560,0.06500,78.5000,86,42,0.30354
2618570,0.05000,77.0000,86,42,0.29670
2618580,0.03500,74.0000,86,42,0.28669
2618590,0.02000,72.5625,86,42,0.28059
2618600,0.01000,71.1250,86,42,0.27399
2618610,0.01000,69.6875,86,42,0.26716
2618620,0.00500,66.9375,86,42,0.25568
2618630,0.00000,65.5000,86,42,0.25250
2618640,-0.01000,64.0000,86,42,0.25226
2618650,-0.01500,62.4375,86,42,0.25568
2618660,-0.03000,59.4375,86,42,0.27521
2618670,-0.03500,58.1250,86,42,0.29133
2618680,-0.04000,57.0000,86,42,0.30867
2618690,-0.04500,56.0000,86,42,0.32747
2618700,-0.05500,54.5000,86,42,0.37680
2618710,-0.06000,53.8750,86,42,0.40513
2618720,-0.06500,53.3750,86,42,0.43443
2618730,-0.06000,52.9375,86,42,0.46422
2618740,-0.05500,52.1875,86,42,0.52283
2618750,-0.03500,51.8750,86,42,0.55067
2618760,0.00000,51.5625,86,42,0.57680
2618770,0.04000,51.0625,86,42,0.60122
2618780,0.06000,50.8750,86,42,0.64151
2618790,0.03500,50.6250,86,42,0.66545
2618800,0.00500,50.3750,86,42,0.68449
2618810,-0.03000,50.1250,86,42,0.69988
2618820,-0.06000,49.6875,86,42,0.72283
2618830,-0.08500,49.4375,86,42,0.73040
2618840,-0.09500,49.1875,86,42,0.73602
2618850,-0.10000,48.9375,86,42,0.73968
2618860,-0.10500,48.4375,86,42,0.74212
2618870,-0.11000,48.1250,86,42,0.74066
2618880,-0.11500,47.8750,86,42,0.73773
2618890,-0.11000,47.6875,86,42,0.73333
2618900,-0.12500,47.1875,86,42,0.72112
2618910,-0.14500,47.0000,86,42,0.71355
2618920,0.04000,46.8125,86,42,0.70501
2618930,0.56000,46.6250,86,42,0.69573
2618940,1.05000,46.3125,86,42,0.67546
2618950,0.81500,46.1875,86,42,0.66471
2618960,0.01000,46.0000,86,42,0.65372
2618970,-0.48000,45.8125,86,42,0.64274
2618980,-0.51000,45.3750,86,42,0.62247
2618990,-0.35500,45.1250,86,42,0.61221
2619000,-0.25500,44.8125,86,42,0.60147
2619010,-0.24000,44.5625,86,42,0.59072
2619020,-0.24500,43.8750,86,42,0.56923
2619030,-0.24500,43.5625,86,42,0.55849
2619040,-0.24000,43.2500,86,42,0.54799
2619050,-0.23000,42.9375,86,42,0.53773
2619060,-0.23000,42.2500,86,42,0.51795
2619070,-0.22000,41.9375,86,42,0.50842
2619080,-0.20500,41.6875,86,42,0.50012
2619090,-0.18000,41.5000,86,42,0.49280
2619100,-0.16000,42.6250,86,42,0.47668
2619110,-0.13500,44.5625,86,42,0.46838
2619120,-0.11000,47.8125,86,42,0.46032
2619130,-0.09000,56.7500,86,42,0.45226
2619140,-0.06500,61.6250,86,42,0.43614
2619150,-0.04000,66.3750,86,42,0.42833
2619160,-0.02000,70.8750,86,42,0.42076
2619170,-0.00500,75.0625,86,42,0.41319
2619180,0.00000,81.8125,86,42,0.40220
2619190,0.01000,84.3750,86,42,0.39634
2619200,0.01500,86.3125,86,42,0.38999
2619210,0.02000,87.6250,86,42,0.38364
2619220,0.02500,88.7500,86,42,0.37094
2619230,0.03500,88.6250,86,42,0.36484
2619240,0.05000,88.2500,86,42,0.35873
2619250,0.07000,87.6250,86,42,0.35263
2619260,0.09000,85.6250,86,42,0.34066
2619270,0.11000,84.3750,86,42,0.33651
2619280,0.11500,83.0000,86,42,0.33284
2619290,0.10000,81.5625,86,42,0.32796
2619300,0.07000,78.5625,86,42,0.31722
2619310,0.04000,77.0000,86,42,0.31136
2619320,0.01500,75.5000,86,42,0.30549
2619330,-0.00500,74.0625,86,42,0.29915
2619340,-0.02500,71.1875,86,42,0.28694
2619350,-0.04000,69.7500,86,42,0.28205
2619360,-0.04500,68.3125,86,42,0.27863
2619370,-0.04500,66.8125,86,42,0.27790
2619380,-0.04500,63.5625,86,42,0.28498
2619390,-0.05000,61.9375,86,42,0.29377
2619400,-0.05500,60.3750,86,42,0.30647
2619410,-0.06000,59.0000,86,42,0.32308
2619420,-0.05500,56.8125,86,42,0.36630
2619430,-0.06000,55.9375,86,42,0.39194
2619440,-0.06500,55.2500,86,42,0.41929
2619450,-0.07000,54.6875,86,42,0.44786
2619460,-0.07000,53.7500,86,42,0.50623
2619470,-0.06500,53.4375,86,42,0.53138
2619480,-0.05000,53.1250,86,42,0.55385
2619490,-0.01500,52.8750,86,42,0.57802
2619500,0.02000,52.4375,86,42,0.62540
2619510,0.03500,52.1875,86,42,0.64689
2619520,0.00500,52.0000,86,42,0.66642
2619530,-0.03500,51.7500,86,42,0.68400
2619540,-0.08000,51.2500,86,42,0.71258
2619550,-0.11500,51.0625,86,42,0.72357
2619560,-0.14500,50.8125,86,42,0.73236
2619570,-0.15500,50.5625,86,42,0.73895
2619580,-0.16000,50.0625,86,42,0.74383
2619590,-0.15500,49.7500,86,42,0.74481
2619600,-0.15500,49.5000,86,42,0.74481
2619610,-0.14500,49.1250,86,42,0.74359
2619620,-0.14000,48.5625,86,42,0.73724
2619630,-0.14500,48.2500,86,42,0.73211
2619640,-0.15000,48.0000,86,42,0.72576
2619650,0.06000,47.7500,86,42,0.71819
2619660,0.64000,47.2500,86,42,0.69988
2619670,1.10000,47.0625,86,42,0.69011
2619680,0.71000,46.8750,86,42,0.68034
2619690,-0.12500,46.6875,86,42,0.66960
2619700,-0.54500,46.2500,86,42,0.64737
2619710,-0.50500,46.0000,86,42,0.63590
2619720,-0.32500,45.6875,86,42,0.62466
2619730,-0.23500,45.3750,86,42,0.61343
2619740,-0.22000,44.6875,86,42,0.59096
2619750,-0.21500,44.3750,86,42,0.57998
2619760,-0.21000,44.0625,86,42,0.56899
2619770,-0.20000,43.6875,86,42,0.55824
2619780,-0.19500,42.9375,86,42,0.54017
2619790,-0.19000,42.6250,86,42,0.53114
2619800,-0.18000,42.3125,86,42,0.52210
2619810,-0.17500,42.0000,86,42,0.51306
2619820,-0.17000,41.8125,86,42,0.49573
2619830,-0.16000,42.5000,86,42,0.48742
2619840,-0.15500,44.1875,86,42,0.47912
2619850,-0.14500,47.1875,86,42,0.47106
2619860,-0.12500,56.0000,86,42,0.45470
2619870,-0.10500,60.9375,86,42,0.44811
2619880,-0.09000,65.7500,86,42,0.44225
2619890,-0.07500,70.3125,86,42,0.43565
2619900,-0.05500,78.2500,86,42,0.42125
2619910,-0.03500,81.3750,86,42,0.41416
2619920,-0.01500,83.8750,86,42,0.40708
2619930,0.00500,85.8125,86,42,0.40000
2619940,0.02000,87.8750,86,42,0.38657
2619950,0.03500,88.1875,86,42,0.38022
2619960,0.05000,88.0000,86,42,0.37411
2619970,0.07000,87.5000,86,42,0.36801
2619980,0.09000,85.6875,86,42,0.35971
2619990,0.11000,84.5000,86,42,0.35482
2620000,0.12000,83.1875,86,42,0.34945
2620010,0.12000,81.7500,86,42,0.34408
2620020,0.10000,78.8125,86,42,0.33260
2620030,0.07500,77.3750,86,42,0.32674
2620040,0.04500,75.8750,86,42,0.32063
2620050,0.02500,74.3750,86,42,0.31453
2620060,0.02500,74.3750,86,42,0.31453
2620070,0.02500,74.3750,86,42,0.31453
2620080,-0.01500,68.5000,86,42,0.29377
2620090,-0.01000,67.0000,86,42,0.29035
2620100,-0.01000,63.7500,86,42,0.28864
2620110,-0.01000,62.0625,86,42,0.29231
2620120,-0.01500,60.3750,86,42,0.29963
2620130,-0.02500,58.8750,86,42,0.31087
2620140,-0.02500,56.3750,86,42,0.34530
2620150,-0.03000,55.4375,86,42,0.36752
2620160,-0.04000,54.6250,86,42,0.39219
2620170,-0.04000,53.9375,86,42,0.41880
2620180,-0.04000,52.9375,86,42,0.46593
2620190,-0.03500,52.5625,86,42,0.49182
2620200,-0.02500,52.2500,86,42,0.51893
2620210,0.00000,52.0000,86,42,0.54603
2620220,0.04000,51.6250,86,42,0.59707
2620230,0.07000,51.4375,86,42,0.62027
2620240,0.06000,51.2500,86,42,0.64127
2620250,0.02500,51.0625,86,42,0.66007
2620260,-0.02000,50.6875,86,42,0.69109
2620270,-0.05500,50.4375,86,42,0.70134
2620280,-0.08500,50.2500,86,42,0.70867
2620290,-0.10000,50.0000,86,42,0.71575
2620300,-0.10500,49.4375,86,42,0.72625
2620310,-0.11000,49.1875,86,42,0.72894
2620320,-0.11500,48.9375,86,42,0.73016
2620330,-0.11500,48.6250,86,42,0.72967
2620340,-0.11500,48.0625,86,42,0.72430
2620350,-0.11000,47.7500,86,42,0.71941
2620360,-0.13000,47.5625,86,42,0.71331
2620370,-0.05500,47.3125,86,42,0.70598
2620380,0.33500,46.9375,86,42,0.68938
2620390,0.91000,46.7500,86,42,0.67985
2620400,0.90500,46.5625,86,42,0.66935
2620410,0.24000,46.3125,86,42,0.65836
2620420,-0.33000,45.8750,86,42,0.63516
2620430,-0.50000,45.6250,86,42,0.62320
2620440,-0.39000,45.3750,86,42,0.61123
2620450,-0.25000,45.0625,86,42,0.59927
2620460,-0.21500,44.3750,86,42,0.57582
2620470,-0.20500,44.0625,86,42,0.56532
2620480,-0.20000,43.6875,86,42,0.55580
2620490,-0.19000,43.3125,86,42,0.54554
2620500,-0.18000,42.6250,86,42,0.52454
2620510,-0.17000,42.2500,86,42,0.51404
2620520,-0.16000,41.9375,86,42,0.50403
2620530,-0.15500,41.5625,86,42,0.49451
2620540,-0.14500,41.0625,86,42,0.47668
2620550,-0.13000,41.0625,86,42,0.46813
2620560,-0.11500,41.5000,86,42,0.45958
2620570,-0.09500,45.2500,86,42,0.45104
2620580,-0.08000,48.8125,86,42,0.43761
2620590,-0.06500,53.0625,86,42,0.43053
2620600,-0.05500,57.5000,86,42,0.42344
2620610,-0.04000,61.9375,86,42,0.41612
2620620,-0.02500,70.0625,86,42,0.40195
2620630,-0.00500,73.5625,86,42,0.39512
2620640,0.01500,76.5000,86,42,0.38852
2620650,0.04000,78.8750,86,42,0.38217
2620660,0.06000,81.8750,86,42,0.36972
2620670,0.08000,82.6250,86,42,0.36508
2620680,0.10500,82.8125,86,42,0.36117
2620690,0.13500,82.5625,86,42,0.35629
2620700,0.16000,81.1250,86,42,0.34530
2620710,0.18500,79.9375,86,42,0.33968
2620720,0.19000,78.6250,86,42,0.33407
2620730,0.18500,75.6250,86,42,0.32845
2620740,0.16000,74.0625,86,42,0.31722
2620750,0.12000,72.5000,86,42,0.31136
2620760,0.08000,70.9375,86,42,0.30549
2620770,0.05000,69.3750,86,42,0.29963
2620780,0.02500,66.3125,86,42,0.29158
2620790,0.01000,64.8750,86,42,0.28694
2620800,0.00000,63.4375,86,42,0.28156
2620810,-0.00500,60.3750,86,42,0.27643
2620820,-0.01500,58.8750,86,42,0.26935
2620830,-0.01500,57.3125,86,42,0.26496
2620840,-0.02500,55.8750,86,42,0.26154
2620850,-0.03500,54.6875,86,42,0.26520
2620860,-0.03500,52.8125,86,42,0.28864
2620870,-0.04500,52.1250,86,42,0.30427
2620880,-0.04500,51.5000,86,42,0.32161
2620890,-0.04500,51.0625,86,42,0.34286
2620900,-0.04500,50.3125,86,42,0.39243
2620910,-0.04500,50.0000,86,42,0.41905
2620920,-0.03500,49.8125,86,42,0.44591
2620930,-0.01500,49.5625,86,42,0.47253
2620940,0.02000,49.2500,86,42,0.52308
2620950,0.05000,49.1250,86,42,0.54603
2620960,0.05000,48.9375,86,42,0.56703
2620970,0.01500,48.8125,86,42,0.58632
2620980,-0.02500,48.4375,86,42,0.61319
2620990,-0.07000,48.3125,86,42,0.62491
2621000,-0.10500,48.1250,85,41,0.63565
2621010,-0.13000,47.9375,85,41,0.64469
2621020,-0.13500,47.5000,85,41,0.65739
2621030,-0.14000,47.3125,85,41,0.66081
2621040,-0.14500,47.0625,85,41,0.66227
2621050,-0.15000,46.8125,85,41,0.66227
2621060,-0.14500,46.3750,85,41,0.65714
2621070,-0.14500,46.1250,85,41,0.65275
2621080,-0.16000,46.0000,85,41,0.64713
2621090,-0.10500,45.8125,85,41,0.64054
2621100,0.20500,45.5000,85,41,0.62442
2621110,0.75500,45.3750,85,41,0.61514
2621120,0.91000,45.1875,85,41,0.60513
2621130,0.35000,45.0625,85,41,0.59487
2621140,-0.25000,44.6250,85,41,0.57338
2621150,-0.48000,44.3750,85,41,0.56264
2621160,-0.43500,44.1250,85,41,0.55189
2621170,-0.30500,43.8125,85,41,0.54237
2621180,-0.24000,43.1875,85,41,0.52405
2621190,-0.23000,42.8125,85,41,0.51453
2621200,-0.21500,42.4375,85,41,0.50476
2621210,-0.20000,42.1250,85,41,0.49499
2621220,-0.19000,41.4375,85,41,0.47643
2621230,-0.18500,41.1250,85,41,0.46740
2621240,-0.18000,40.8125,85,41,0.45861
2621250,-0.17000,40.5625,85,41,0.45006
2621260,-0.16000,40.0625,85,41,0.43419
2621270,-0.14500,40.1250,85,41,0.42759
2621280,-0.13000,40.6875,85,41,0.42173
2621290,-0.12000,42.1250,85,41,0.41514
2621300,-0.11000,48.3750,85,41,0.40098
2621310,-0.10000,52.5625,85,41,0.39365
2621320,-0.09000,56.9375,85,41,0.38657
2621330,-0.07500,61.2500,85,41,0.37949
2621340,-0.06000,69.2500,85,41,0.36557
2621350,-0.03500,72.6250,85,41,0.35922
2621360,-0.01500,75.5000,85,41,0.35311
2621370,0.00500,77.8750,85,41,0.34823
2621380,0.03000,81.0000,85,41,0.33944
2621390,0.05500,81.7500,85,41,0.33431
2621400,0.07500,82.0000,85,41,0.32918
2621410,0.09500,81.8750,85,41,0.32405
2621420,0.11500,80.5625,85,41,0.31331
2621430,0.13500,79.5000,85,41,0.30794
2621440,0.15000,78.3125,85,41,0.30256
2621450,0.15000,76.9375,85,41,0.29719
2621460,0.13000,74.0000,85,41,0.28596
2621470,0.10000,72.4375,85,41,0.28181
2621480,0.06500,70.8750,85,41,0.27839
2621490,0.03500,69.3750,85,41,0.27399
2621500,0.01500,66.5000,85,41,0.26374
2621510,0.00000,65.0625,85,41,0.25812
2621520,-0.01000,63.6875,85,41,0.25275
2621530,-0.01500,62.3125,85,41,0.24786
2621540,-0.02000,59.3750,85,41,0.24249
2621550,-0.02500,57.8125,85,41,0.24347
2621560,-0.02500,56.3750,85,41,0.24762
2621570,-0.02500,55.0000,85,41,0.25470
2621580,-0.02500,52.8750,85,41,0.27912
2621590,-0.03500,52.1250,85,41,0.29719
2621600,-0.03500,51.5000,85,41,0.31844
2621610,-0.04500,51.0000,85,41,0.34237
2621620,-0.04500,50.1875,85,41,0.39536
2621630,-0.04500,49.9375,85,41,0.42320
2621640,-0.03500,49.6250,85,41,0.45128
2621650,-0.02500,49.4375,85,41,0.47863
2621660,0.00000,49.0625,85,41,0.53114
2621670,0.03500,48.8750,85,41,0.55214
2621680,0.06500,48.7500,85,41,0.57021
2621690,0.06000,48.5625,85,41,0.58926
2621700,0.03000,48.1250,85,41,0.62393
2621710,-0.01500,47.9375,85,41,0.63858
2621720,-0.04500,47.7500,85,41,0.65104
2621730,-0.07500,47.5000,85,41,0.66154
2621740,-0.09500,47.1250,85,41,0.67619
2621750,-0.10500,46.9375,85,41,0.68059
2621760,-0.10500,46.6875,85,41,0.68303
2621770,-0.11500,46.4375,85,41,0.68303
2621780,-0.12000,45.9375,85,41,0.67863
2621790,-0.12000,45.7500,85,41,0.67497
2621800,-0.11500,45.5625,85,41,0.67009
2621810,-0.12500,45.3750,85,41,0.66398
2621820,-0.06500,45.0625,85,41,0.64835
2621830,0.28000,44.9375,85,41,0.63907
2621840,0.84500,44.8125,85,41,0.62906
2621850,0.95000,44.7500,85,41,0.61856
2621860,0.37500,44.4375,85,41,0.59634
2621870,-0.22000,44.2500,85,41,0.58608
2621880,-0.45000,44.0000,85,41,0.57363
2621890,-0.39500,43.6875,85,41,0.56166
2621900,-0.27000,43.0625,85,41,0.54310
2621910,-0.22000,42.7500,85,41,0.53260
2621920,-0.21000,42.4375,85,41,0.52234
2621930,-0.20000,42.1250,85,41,0.51233
2621940,-0.19000,41.5000,85,41,0.49304
2621950,-0.18500,41.1875,85,41,0.48352
2621960,-0.18000,40.8750,85,41,0.47424
2621970,-0.18000,40.5625,85,41,0.46642
2621980,-0.17000,40.0000,85,41,0.45177
2621990,-0.16000,39.8750,85,41,0.44396
2622000,-0.14500,40.0000,86,41,0.43639
2622010,-0.13000,40.7500,86,41,0.42882
2622020,-0.11500,45.3750,86,41,0.41441
2622030,-0.10500,49.2500,86,41,0.40757
2622040,-0.08500,53.6875,86,41,0.40073
2622050,-0.07500,58.1875,86,41,0.39414
2622060,-0.06000,66.9375,86,41,0.38120
2622070,-0.04500,70.8125,86,41,0.37631
2622080,-0.02000,74.2500,86,41,0.37216
2622090,0.00000,77.2500,86,41,0.36703
2622100,0.02500,80.4479,86,41,0.35897
2622110,0.05000,82.9375,86,41,0.35092
2622120,0.06500,83.8125,86,41,0.34579
2622130,0.08000,84.1875,86,41,0.34066
2622140,0.09500,83.7500,86,41,0.33016
2622150,0.11500,83.0000,86,41,0.32503
2622160,0.13500,82.0625,86,41,0.31990
2622170,0.15000,80.9375,86,41,0.31600
2622180,0.15500,78.1875,86,41,0.30818
2622190,0.14000,76.7500,86,41,0.30354
2622200,0.11500,75.3125,86,41,0.29841
2622210,0.08000,73.8125,86,41,0.29304
2622220,0.05000,70.8750,86,41,0.28205
2622230,0.02000,69.4375,86,41,0.27619
2622240,0.00500,68.0625,86,41,0.27009
2622250,-0.00500,66.6875,86,41,0.26447
2622260,-0.00500,63.8750,86,41,0.25641
2622270,-0.01000,62.3750,86,41,0.25568
2622280,-0.01500,60.8125,86,41,0.25763
2622290,-0.01500,59.2500,86,41,0.26203
2622300,-0.01500,56.3750,86,41,0.28132
2622310,-0.02000,55.1875,86,41,0.29670
2622320,-0.02000,54.1875,86,41,0.31600
2622330,-0.02500,53.3125,86,41,0.33846
2622340,-0.03000,52.0625,86,41,0.39096
2622350,-0.03500,51.5625,86,41,0.41978
2622360,-0.02500,51.1250,86,41,0.44908
2622370,-0.01000,50.8125,86,41,0.47473
2622380,0.00500,50.2500,86,41,0.52454
2622390,0.03000,50.0000,86,41,0.55092
2622400,0.07000,49.8125,86,41,0.57680
2622410,0.09000,49.6250,86,41,0.60122
2622420,0.06500,49.2500,86,41,0.64420
2622430,0.01500,49.0625,86,41,0.66252
2622440,-0.03500,48.8750,86,41,0.67839
2622450,-0.07500,48.6875,86,41,0.69206
2622460,-0.11500,48.1875,86,41,0.71282
2622470,-0.14000,48.0000,86,41,0.71844
2622480,-0.15000,47.8125,86,41,0.72161
2622490,-0.15500,47.5625,86,41,0.72430
2622500,-0.15500,47.0625,86,41,0.72576
2622510,-0.15500,46.8125,86,41,0.72405
2622520,-0.15500,46.6250,86,41,0.72112
2622530,-0.15000,46.4375,86,41,0.71697
2622540,-0.16000,46.1250,86,41,0.70452
2622550,-0.09500,45.9375,86,41,0.69646
2622560,0.23500,45.8125,86,41,0.68742
2622570,0.80500,45.6875,86,41,0.67814
2622580,0.95000,45.3125,86,41,0.65763
2622590,0.39000,45.1250,86,41,0.64640
2622600,-0.21000,44.8750,86,41,0.63492
2622610,-0.45000,44.6250,86,41,0.62344
2622620,-0.40500,44.0625,86,41,0.60049
2622630,-0.28500,43.7500,86,41,0.58901
2622640,-0.23000,43.4375,86,41,0.57778
2622650,-0.22000,43.1250,86,41,0.56679
2622660,-0.21500,42.4375,86,41,0.54505
2622670,-0.21000,42.0625,86,41,0.53553
2622680,-0.20000,41.7500,86,41,0.52698
2622690,-0.19000,41.4375,86,41,0.51770
2622700,-0.18000,40.7500,86,41,0.49890
2622710,-0.17000,40.4375,86,41,0.48987
2622720,-0.16000,40.2500,86,41,0.48107
2622730,-0.14500,40.2500,86,41,0.47228
2622740,-0.13000,42.3125,86,41,0.45543
2622750,-0.12500,44.9375,86,41,0.44713
2622760,-0.11000,48.6875,86,41,0.43907
2622770,-0.10000,53.0625,86,41,0.43223
2622780,-0.08500,62.1250,86,41,0.41954
2622790,-0.07000,66.4375,86,41,0.41270
2622800,-0.05500,70.4375,86,41,0.40562
2622810,-0.03500,74.0625,86,41,0.39853
2622820,-0.01000,79.7500,86,41,0.38535
2622830,0.01000,81.8125,86,41,0.37924
2622840,0.03000,83.3125,86,41,0.37314
2622850,0.04000,84.3750,86,41,0.36703
2622860,0.05500,85.1250,86,41,0.35653
2622870,0.07000,84.8750,86,41,0.35238
2622880,0.09000,84.3750,86,41,0.35067
2622890,0.10500,83.6250,86,41,0.34994
2622900,0.12500,81.4375,86,41,0.34090
2622910,0.13500,80.0625,86,41,0.33480
2622920,0.13000,78.6875,86,41,0.33016
2622930,0.10000,77.2500,86,41,0.32479
2622940,0.06000,74.3125,86,41,0.31306
2622950,0.03000,72.8125,86,41,0.30696
2622960,0.01000,71.3125,86,41,0.30085
2622970,-0.00500,69.8750,86,41,0.29646
2622980,-0.01500,67.0000,86,41,0.28840
2622990,-0.02500,65.5625,86,41,0.28425
2623000,-0.02500,64.0625,86,42,0.28132
2623010,-0.03500,62.5000,86,42,0.28083
2623020,-0.03500,59.3125,86,42,0.29011
2623030,-0.03500,57.8125,86,42,0.30085
2623040,-0.03500,56.4375,86,42,0.31600
2623050,-0.03500,54.3750,86,42,0.33504
2623060,-0.03500,53.6250,86,42,0.37998
2623070,-0.03500,52.9375,86,42,0.40244
2623080,-0.04000,52.3750,86,42,0.42882
2623090,-0.04000,51.9375,86,42,0.45739
2623100,-0.02500,51.1875,86,42,0.51746
2623110,-0.00500,50.9375,86,42,0.54725
2623120,0.02000,50.6250,86,42,0.57582
2623130,0.06500,50.3750,86,42,0.60293
2623140,0.09500,50.0000,86,42,0.65153
2623150,0.08500,49.8125,86,42,0.67253
2623160,0.04000,49.5625,86,42,0.69158
2623170,-0.01500,49.3750,86,42,0.70598
2623180,-0.06500,48.9375,86,42,0.72796
2623190,-0.11000,48.7500,86,42,0.73773
2623200,-0.12500,48.5000,86,42,0.74603
2623210,-0.14000,48.2500,86,42,0.75238
2623220,-0.14500,47.8125,86,42,0.75946
2623230,-0.15000,47.6250,86,42,0.76044
2623240,-0.15000,47.3750,86,42,0.75971
2623250,-0.15000,47.1250,86,42,0.75751
2623260,-0.14500,46.7500,86,42,0.74823
2623270,-0.16000,46.5625,86,42,0.74188
2623280,-0.14500,46.3750,86,42,0.73455
2623290,0.13500,46.2500,86,42,0.72625
2623300,0.72500,46.0000,86,42,0.70672
2623310,1.02500,45.8125,86,42,0.69573
2623320,0.57000,45.6250,86,42,0.68449
2623330,-0.12500,45.4375,86,42,0.67277
2623340,-0.46000,44.9375,86,42,0.64884
2623350,-0.44500,44.6250,86,42,0.63663
2623360,-0.31500,44.3125,86,42,0.62466
2623370,-0.25000,44.0000,86,42,0.61368
2623380,-0.24000,43.3125,86,42,0.59194
2623390,-0.24000,43.0000,86,42,0.58046
2623400,-0.23000,42.7500,86,42,0.56923
2623410,-0.22500,42.4375,86,42,0.55824
2623420,-0.21000,41.7500,86,42,0.53700
2623430,-0.20500,41.4375,86,42,0.52674
2623440,-0.19500,41.1875,86,42,0.51697
2623450,-0.18000,40.9375,86,42,0.50745
2623460,-0.16500,41.0625,86,42,0.49035
2623470,-0.15000,42.1250,86,42,0.48303
2623480,-0.13500,44.3125,86,42,0.47497
2623490,-0.12000,47.7500,86,42,0.46667
2623500,-0.10000,56.6875,86,42,0.45006
2623510,-0.08500,61.3750,86,42,0.44200
2623520,-0.06500,65.8750,86,42,0.43394
2623530,-0.04500,70.1875,86,42,0.42613
2623540,-0.03000,77.4375,86,42,0.41172
2623550,-0.01500,80.2500,86,42,0.40488
2623560,0.00000,82.5625,86,42,0.39829
2623570,0.01000,84.3125,86,42,0.39316
2623580,0.02500,86.3125,86,42,0.38339
2623590,0.04000,86.5625,86,42,0.37753
2623600,0.05000,86.4375,86,42,0.37167
2623610,0.06000,86.0000,86,42,0.36557
2623620,0.08000,84.2500,86,42,0.35287
2623630,0.10000,83.1250,86,42,0.34628
2623640,0.12000,81.8125,86,42,0.33993
2623650,0.11500,80.4375,86,42,0.33358
2623660,0.09000,77.5000,86,42,0.32259
2623670,0.06000,76.0000,86,42,0.31868
2623680,0.02500,74.5000,86,42,0.31380
2623690,-0.00500,73.0625,86,42,0.30794
2623700,-0.02500,70.1875,86,42,0.29573
2623710,-0.04000,68.8125,86,42,0.28987
2623720,-0.04500,67.3750,86,42,0.28474
2623730,-0.04500,66.0000,86,42,0.28107
2623740,-0.04500,63.0000,86,42,0.28230
2623750,-0.04500,61.5000,86,42,0.28840
2623760,-0.05000,60.0000,86,42,0.29890
2623770,-0.05000,58.6250,86,42,0.31160
2623780,-0.04500,56.4375,86,42,0.34701
2623790,-0.04500,55.5625,86,42,0.37070
2623800,-0.04500,54.8750,86,42,0.39731
2623810,-0.04500,54.2500,86,42,0.42613
2623820,-0.04000,53.2500,86,42,0.48718
2623830,-0.03000,52.8750,86,42,0.51844
2623840,-0.00500,52.5625,86,42,0.54921
2623850,0.01000,52.2500,86,42,0.57924
2623860,0.04000,51.6250,86,42,0.63126
2623870,0.07500,51.3750,86,42,0.65104
2623880,0.08000,51.1250,86,42,0.67155
2623890,0.05500,50.9375,86,42,0.69133
2623900,0.01500,50.4375,86,42,0.72576
2623910,-0.03000,50.2500,86,42,0.73968
2623920,-0.07000,50.0000,86,42,0.75140
2623930,-0.10500,49.7500,86,42,0.76190
2623940,-0.11000,49.3125,86,42,0.77411
2623950,-0.11000,49.0625,86,42,0.77680
2623960,-0.11500,48.8125,86,42,0.77802
2623970,-0.11500,48.5625,86,42,0.77680
2623980,-0.11500,48.1250,86,42,0.76996
2623990,-0.11500,47.9375,86,42,0.76508
2624000,-0.13000,47.7500,86,42,0.75922
2624010,-0.15500,47.5625,86,42,0.75214
2624020,-0.00500,47.1875,86,42,0.73480
2624030,0.48500,47.0000,86,42,0.72454
2624040,0.90500,46.8750,86,42,0.71380
2624050,0.96000,46.6875,86,42,0.70232
2624060,0.54500,46.3750,86,42,0.67937
2624070,-0.23000,46.1875,86,42,0.66838
2624080,-0.57500,46.0000,86,42,0.65665
2624090,-0.42500,45.8125,86,42,0.64469
2624100,-0.30500,45.1875,86,42,0.62051
2624110,-0.29000,44.9375,86,42,0.60879
2624120,-0.28000,44.6250,86,42,0.59707
2624130,-0.28500,44.3125,86,42,0.58559
2624140,-0.30000,43.6875,86,42,0.56361
2624150,-0.30500,43.3229,86,42,0.55104
2624160,-0.30500,43.0625,86,42,0.54286
2624170,-0.30500,42.7500,86,42,0.53407
2624180,-0.31500,42.2500,86,42,0.51722
2624190,-0.32500,42.2500,86,42,0.50842
2624200,-0.32500,42.8125,86,42,0.49939
2624210,-0.31500,44.3750,86,42,0.49035
2624220,-0.29500,51.1250,86,42,0.47253
2624230,-0.26500,55.7500,86,42,0.46422
2624240,-0.23000,60.5625,86,42,0.45617
2624250,-0.21000,65.3125,86,42,0.44811
2624260,-0.18000,74.0000,86,42,0.43370
2624270,-0.14000,77.6250,86,42,0.42808
2624280,-0.11000,80.8125,86,42,0.42173
2624290,-0.07500,85.3750,86,42,0.41514
2624300,-0.04500,86.8750,86,42,0.40171
2624310,-0.01500,87.8750,86,42,0.39536
2624320,0.01000,88.4375,86,42,0.38901
2624330,0.04000,88.5000,86,42,0.38291
2624340,0.07000,87.6250,86,42,0.37070
2624350,0.09500,86.8125,86,42,0.36484
2624360,0.12000,85.8125,86,42,0.35897
2624370,0.14000,84.6250,86,42,0.35458
2624380,0.14500,81.8125,86,42,0.34603
2624390,0.12500,80.3125,86,42,0.34066
2624400,0.10000,78.8125,86,42,0.33480
2624410,0.06000,77.2500,86,42,0.32869
2624420,0.02500,74.1875,86,42,0.31648
2624430,0.00000,72.7500,86,42,0.31013
2624440,-0.02500,71.3125,86,42,0.30403
2624450,-0.04000,69.9375,86,42,0.29866
2624460,-0.05000,67.1250,86,42,0.29231
2624470,-0.06000,65.6250,86,42,0.29304
2624480,-0.06500,64.1250,86,42,0.29621
2624490,-0.07500,61.0625,86,42,0.30281
2624500,-0.08500,59.6875,86,42,0.32869
2624510,-0.09500,58.5000,86,42,0.34774
2624520,-0.10500,57.5000,86,42,0.37045
2624530,-0.11500,56.6250,86,42,0.39634
2624540,-0.12000,55.3125,86,42,0.45446
2624550,-0.12500,54.8125,86,42,0.48523
2624560,-0.12000,54.3125,86,42,0.51673
2624570,-0.10000,53.8750,86,42,0.54408
2624580,-0.07500,53.2500,86,42,0.59609
2624590,-0.06000,53.0625,86,42,0.62344
2624600,-0.02500,52.8125,86,42,0.64957
2624610,-0.01000,52.5625,86,42,0.67375
2624620,-0.03500,52.1250,86,42,0.71551
2624630,-0.07500,51.9375,86,42,0.73284
2624640,-0.12000,51.7500,86,42,0.74774
2624650,-0.16500,51.5000,86,42,0.75995
2624660,-0.20000,51.0000,86,42,0.77631
2624670,-0.22500,50.7500,86,42,0.77998
2624680,-0.23000,50.5000,86,42,0.78315
2624690,-0.23000,50.1875,86,42,0.78535
2624700,-0.23000,49.6250,86,42,0.78584
2624710,-0.23500,49.3125,86,42,0.78364
2624720,-0.23000,49.0000,86,42,0.78022
2624730,-0.23500,48.7500,86,42,0.77509
2624740,-0.26000,48.1875,86,42,0.76068
2624750,-0.15500,47.9375,86,42,0.75189
2624760,0.28000,47.6875,86,42,0.74261
2624770,0.89500,47.4375,86,42,0.73284
2624780,0.92500,46.9375,86,42,0.71136
2624790,0.16500,46.7500,86,42,0.69988
2624800,-0.47000,46.5000,86,42,0.68791
2624810,-0.59000,46.2500,86,42,0.67570
2624820,-0.42000,45.7500,86,42,0.65079
2624830,-0.27500,45.5000,86,42,0.63834
2624840,-0.24000,45.1875,86,42,0.62613
2624850,-0.23000,44.8750,86,42,0.61392
2624860,-0.22500,44.1875,86,42,0.59194
2624870,-0.22000,43.8750,86,42,0.58242
2624880,-0.21000,43.5000,86,42,0.57216
2624890,-0.20000,42.8125,86,42,0.56166
2624900,-0.19000,42.5000,86,42,0.54090
2624910,-0.18500,42.1875,86,42,0.53065
2624920,-0.17000,42.0625,86,42,0.52039
2624930,-0.16000,42.2500,86,42,0.50256
2624940,-0.15000,44.9375,86,42,0.46545
2624950,-0.14000,48.0625,86,42,0.45226
2624960,-0.12500,52.1875,86,42,0.44249
2624970,-0.11500,56.8125,86,42,0.43541
2624980,-0.10000,66.3125,86,42,0.41954
2624990,-0.08500,70.7500,86,42,0.41123
2625000,-0.06500,74.8125,85,42,0.40317
2625010,-0.05000,78.3125,85,42,0.39512
2625020,-0.03500,83.6250,85,42,0.37973
2625030,-0.02500,85.4375,85,42,0.37241
2625040,-0.01000,86.7500,85,42,0.36532
2625050,0.00500,87.5000,85,42,0.35800
2625060,0.02000,87.7500,85,42,0.34505
2625070,0.04000,87.3125,85,42,0.34017
2625080,0.06000,86.5625,85,42,0.33431
2625090,0.07500,85.5625,85,42,0.32821
2625100,0.09000,83.0625,85,42,0.31575
2625110,0.09500,81.6875,85,42,0.30940
2625120,0.08000,80.1875,85,42,0.30305
2625130,0.06000,78.6875,85,42,0.29670
2625140,0.03000,75.6875,85,42,0.28376
2625150,0.00000,74.1875,85,42,0.27717
2625160,-0.01000,72.7500,85,42,0.27228
2625170,-0.01500,71.3125,85,42,0.26813
2625180,-0.01500,69.8750,85,42,0.26276
2625190,-0.01500,68.3750,85,42,0.25739
2625200,-0.01500,66.9375,85,42,0.25299
2625210,-0.01000,65.3750,85,42,0.25031
2625220,-0.01000,62.2500,85,42,0.25421
2625230,-0.01500,60.6875,85,42,0.26227
2625240,-0.02500,59.2500,85,42,0.27473
2625250,-0.04000,58.0000,85,42,0.29158
2625260,-0.05500,56.0000,85,42,0.33626
2625270,-0.06500,55.1875,85,42,0.35922
2625280,-0.07500,54.5625,85,42,0.38242
2625290,-0.08000,54.0000,85,42,0.40977
2625300,-0.07500,53.1875,85,42,0.46911
2625310,-0.05500,52.8750,85,42,0.49915
2625320,-0.02500,52.6875,85,42,0.52845
2625330,0.01000,52.5000,85,42,0.55653
2625340,0.01500,52.1250,85,42,0.60708
2625350,-0.01000,51.9375,85,42,0.62930
2625360,-0.07500,51.7500,85,42,0.64908
2625370,-0.12500,51.5625,85,42,0.66398
2625380,-0.17000,51.2500,85,42,0.68669
2625390,-0.21000,51.0000,85,42,0.69670
2625400,-0.22500,50.7500,85,42,0.70525
2625410,-0.23000,50.5000,85,42,0.71209
2625420,-0.24000,50.0000,85,42,0.72015
2625430,-0.24000,49.7500,85,42,0.72137
2625440,-0.24000,49.4375,85,42,0.72088
2625450,-0.23000,49.1250,85,42,0.71893
2625460,-0.23500,48.5625,85,42,0.71062
2625470,-0.24000,48.3125,85,42,0.70476
2625480,-0.05500,48.0625,85,42,0.69768
2625490,0.44500,47.8750,85,42,0.68962
2625500,0.89500,47.4375,85,42,0.67057
2625510,0.65000,47.2500,85,42,0.65983
2625520,-0.09000,47.0625,85,42,0.64860
2625530,-0.54000,46.8750,85,42,0.63663
2625540,-0.58500,46.4375,85,42,0.61172
2625550,-0.44000,46.1875,85,42,0.59927
2625560,-0.33000,45.8750,85,42,0.58706
2625570,-0.30000,45.6250,85,42,0.57607
2625580,-0.29500,44.9375,85,42,0.55482
2625590,-0.28500,44.6250,85,42,0.54383
2625600,-0.27000,44.3125,85,42,0.53309
2625610,-0.26000,44.0000,85,42,0.52259
2625620,-0.24000,43.3125,85,42,0.50208
2625630,-0.22000,43.0000,85,42,0.49182
2625640,-0.21000,42.6875,85,42,0.48181
2625650,-0.19000,42.3750,85,42,0.47228
2625660,-0.18000,42.1875,85,42,0.45397
2625670,-0.16500,42.7500,85,42,0.44640
2625680,-0.15500,44.1875,85,42,0.43956
2625690,-0.14500,46.8125,85,42,0.43175
2625700,-0.13000,54.6875,85,42,0.41514
2625710,-0.11500,59.1250,85,42,0.40684
2625720,-0.09500,63.5000,85,42,0.39878
2625730,-0.07500,67.6250,85,42,0.39096
2625740,-0.05000,74.6875,85,42,0.37607
2625750,-0.02500,77.5000,85,42,0.36899
2625760,0.00000,79.7500,85,42,0.36215
2625770,0.03000,81.4375,85,42,0.35702
2625780,0.05500,83.1250,85,42,0.34774
2625790,0.08500,83.2500,85,42,0.34237
2625800,0.10500,82.9375,85,42,0.33700
2625810,0.13000,82.3125,85,42,0.33138
2625820,0.14500,80.3125,85,42,0.32039
2625830,0.15000,79.0000,85,42,0.31477
2625840,0.13500,77.6250,85,42,0.30891
2625850,0.10500,76.1250,85,42,0.30281
2625860,0.06500,73.1250,85,42,0.29060
2625870,0.03000,71.6250,85,42,0.28571
2625880,0.00000,70.1250,85,42,0.28156
2625890,-0.02000,68.6250,85,42,0.27643
2625900,-0.04000,65.8125,85,42,0.26496
2625910,-0.06000,64.3750,85,42,0.25910
2625920,-0.07000,62.9375,85,42,0.25372
2625930,-0.08000,61.4375,85,42,0.24933
2625940,-0.09500,58.4375,85,42,0.24640
2625950,-0.09500,57.0000,85,42,0.24957
2625960,-0.09500,55.8125,85,42,0.25641
2625970,-0.09500,54.7500,85,42,0.26593
2625980,-0.09500,53.1875,85,42,0.30085
2625990,-0.08500,52.6250,85,42,0.32405
2626000,-0.08000,52.1250,85,41,0.34237
2626010,-0.06000,51.7500,85,41,0.36508
2626020,-0.04000,51.1250,85,41,0.41709
2626030,-0.01500,50.8125,85,41,0.44420
2626040,0.02000,50.5625,85,41,0.47106
2626050,0.06000,50.3750,85,41,0.49744
2626060,0.06500,50.0000,85,41,0.54603
2626070,0.04000,49.8125,85,41,0.56484
2626080,-0.02000,49.6250,85,41,0.58071
2626090,-0.07500,49.3750,85,41,0.59658
2626100,-0.12000,49.0000,85,41,0.62466
2626110,-0.14500,48.8125,85,41,0.63590
2626120,-0.16000,48.5625,85,41,0.64518
2626130,-0.16000,48.3125,85,41,0.65226
2626140,-0.17000,47.8750,85,41,0.66032
2626150,-0.17000,47.6250,85,41,0.66154
2626160,-0.17000,47.3750,85,41,0.66081
2626170,-0.16500,47.1875,85,41,0.65861
2626180,-0.17000,46.8125,85,41,0.65079
2626190,-0.17500,46.6875,85,41,0.64518
2626200,0.01500,46.5625,85,41,0.63858
2626210,0.52000,46.3750,85,41,0.63077
2626220,0.92500,46.1250,85,41,0.61221
2626230,0.64000,46.0000,85,41,0.60171
2626240,-0.05500,45.8125,85,41,0.59072
2626250,-0.47000,45.3750,85,41,0.57924
2626260,-0.52000,45.1250,85,41,0.55604
2626270,-0.39000,44.8750,85,41,0.54579
2626280,-0.29000,44.6250,85,41,0.53602
2626290,-0.26000,44.3125,85,41,0.52552
2626300,-0.25500,43.6250,85,41,0.50427
2626310,-0.24000,43.3125,85,41,0.49402
2626320,-0.23000,43.0000,85,41,0.48400
2626330,-0.21500,42.6875,85,41,0.47448
2626340,-0.20500,42.0000,85,41,0.45641
2626350,-0.20000,41.6875,85,41,0.44762
2626360,-0.19000,41.3750,85,41,0.43883
2626370,-0.18000,41.1250,85,41,0.43175
2626380,-0.17000,41.1250,85,41,0.41832
2626390,-0.16000,41.8125,85,41,0.41099
2626400,-0.15000,43.5000,85,41,0.40366
2626410,-0.14000,46.3750,85,41,0.39609
2626420,-0.12500,54.4375,85,41,0.38169
2626430,-0.11000,58.8125,85,41,0.37509
2626440,-0.09500,63.0000,85,41,0.36850
2626450,-0.07500,67.0625,85,41,0.36215
2626460,-0.05000,74.0000,85,41,0.34994
2626470,-0.02500,76.7500,85,41,0.34505
2626480,-0.00500,79.0000,85,41,0.34115
2626490,0.02000,81.8125,85,41,0.33626
2626500,0.04000,82.4375,85,41,0.32576
2626510,0.07000,82.6875,85,41,0.32039
2626520,0.09000,82.5625,85,41,0.31526
2626530,0.11500,82.0625,85,41,0.31013
2626540,0.13000,80.2500,85,41,0.30012
2626550,0.13500,79.0625,85,41,0.29524
2626560,0.12000,77.7500,85,41,0.29011
2626570,0.09000,76.3750,85,41,0.28645
2626580,0.05000,73.4375,85,41,0.27888
2626590,0.01500,72.0000,85,41,0.27399
2626600,-0.01500,70.5000,85,41,0.26862
2626610,-0.03000,69.1250,85,41,0.26325
2626620,-0.06500,66.3750,85,41,0.25201
2626630,0.10000,64.9375,85,41,0.24640
2626640,-0.15500,63.5625,85,41,0.24127
2626650,-0.11500,62.1875,85,41,0.23736
2626660,-0.54000,59.1875,85,41,0.23639
2626670,0.17500,57.7500,85,41,0.24029
2626680,0.09000,56.4375,85,41,0.24737
2626690,-0.04500,55.3750,85,41,0.25812
2626700,-0.06000,53.6875,85,41,0.29109
2626710,-0.05500,53.0625,85,41,0.31282
2626720,-0.06000,52.5000,85,41,0.33700
2626730,-0.07500,52.0625,85,41,0.36313
2626740,-0.07500,51.3750,85,41,0.41905
2626750,-0.05500,51.0625,85,41,0.44762
2626760,-0.01000,50.8125,85,41,0.47595
2626770,0.05000,50.5625,85,41,0.50012
2626780,0.06000,50.1875,85,41,0.54408
2626790,0.05000,50.0000,85,41,0.56654
2626800,0.02000,49.8125,85,41,0.58755
2626810,-0.03000,49.6250,85,41,0.60659
2626820,-0.09500,49.1875,85,41,0.63834
2626830,-0.18000,48.9375,85,41,0.65079
2626840,-0.21500,48.7500,85,41,0.66081
2626850,-0.19000,48.5000,85,41,0.66886
2626860,-0.17000,48.0000,85,41,0.67766
2626870,-0.14000,47.7500,85,41,0.67863
2626880,-0.12000,47.5000,85,41,0.67888
2626890,-0.18000,47.3125,85,41,0.67790
2626900,-0.17000,46.9375,85,41,0.67155
2626910,-0.15000,46.8125,85,41,0.66618
2626920,-0.25000,46.6250,85,41,0.65934
2626930,-0.00500,46.3750,85,41,0.65153
2626940,0.65000,46.2500,85,41,0.63321
2626950,0.88000,46.1250,85,41,0.62295
2626960,0.44500,46.0625,85,41,0.61221
2626970,-0.16000,45.9375,85,41,0.60195
2626980,-0.48000,45.5625,85,41,0.58755
2626990,-0.48000,45.3125,85,41,0.58559
2627000,-0.35500,45.0000,85,41,0.57924
2627010,-0.27000,44.6875,85,41,0.56825
2627020,-0.27000,43.9375,85,41,0.54994
2627030,-0.24000,43.6250,85,41,0.54115
2627040,-0.22500,43.2500,85,41,0.53187
2627050,-0.22000,42.8750,85,41,0.52234
2627060,-0.22000,42.1875,85,41,0.50452
2627070,-0.24500,41.8125,85,41,0.49695
2627080,-0.21000,41.5000,85,41,0.48889
2627090,-0.13000,41.2500,85,41,0.48034
2627100,-0.14000,40.9375,85,41,0.46374
2627110,-0.18000,41.2500,85,41,0.45568
2627120,-0.14500,42.3125,85,41,0.44762
2627130,-0.09000,44.5000,85,41,0.43956
2627140,-0.09500,51.9375,85,41,0.42393
2627150,-0.09000,56.3750,85,41,0.41636
2627160,-0.09000,60.8750,85,41,0.40904
2627170,-0.10500,65.1875,85,41,0.40317
2627180,-0.08500,72.9375,85,41,0.39316
2627190,-0.03000,76.1875,85,41,0.38706
2627200,0.00000,79.0000,85,41,0.38095
2627210,0.01000,81.3125,85,41,0.37485
2627220,0.02000,84.3125,85,41,0.36337
2627230,0.02000,85.0625,85,41,0.35800
2627240,0.08000,85.4375,85,41,0.35263
2627250,0.16000,85.3125,85,41,0.34725
2627260,0.14000,84.1875,85,41,0.33797
2627270,0.12000,83.2500,85,41,0.33455
2627280,0.14000,82.1250,85,41,0.32991
2627290,0.13000,80.8750,85,41,0.32479
2627300,0.05500,78.0625,85,41,0.31404
2627310,0.01000,76.6250,85,41,0.30842
2627320,0.00000,75.1250,85,41,0.30281
2627330,-0.02500,73.6875,85,41,0.29695
2627340,-0.01000,70.7500,85,41,0.28474
2627350,-0.00500,69.3125,85,41,0.27863
2627360,-0.02500,67.8750,85,41,0.27302
2627370,-0.05500,66.4375,85,41,0.26960
2627380,-0.08500,63.3125,85,41,0.26716
2627390,-0.05500,61.7500,85,41,0.26862
2627400,-0.03000,60.1250,85,41,0.27350
2627410,-0.00500,58.6875,85,41,0.28230
2627420,-0.03500,56.2500,85,41,0.31306
2627430,-0.10500,55.3125,85,41,0.33431
2627440,-0.06500,54.5000,85,41,0.35873
2627450,-0.04500,53.8750,85,41,0.38584
2627460,-0.05500,52.8750,85,41,0.44127
2627470,-0.01500,52.5000,85,41,0.46642
2627480,0.00500,52.1250,85,41,0.49451
2627490,0.04500,51.8125,85,41,0.52381
2627500,0.07500,51.3125,85,41,0.58120
2627510,0.09000,51.0625,85,41,0.60830
2627520,0.12000,50.8125,85,41,0.63346
2627530,0.12000,50.5625,85,41,0.65641
2627540,0.04500,50.0625,85,41,0.69524
2627550,-0.03500,49.8125,85,41,0.71038
2627560,-0.08500,49.5625,85,41,0.72283
2627570,-0.11000,49.3125,85,41,0.73138
2627580,-0.09500,48.8750,85,41,0.74237
2627590,-0.10000,48.6250,85,41,0.74701
2627600,-0.12500,48.3750,85,41,0.75043
2627610,-0.12500,48.1250,85,41,0.75214
2627620,-0.10500,47.6875,85,41,0.75018
2627630,-0.10000,47.5000,85,41,0.74652
2627640,-0.09000,47.3750,85,41,0.74115
2627650,-0.08500,47.1875,85,41,0.73431
2627660,0.12000,46.9375,85,41,0.71697
2627670,0.68000,46.8125,85,41,0.70769
2627680,0.98500,46.6875,85,41,0.69744
2627690,0.53500,46.5000,85,41,0.68645
2627700,-0.13000,46.1875,85,41,0.66325
2627710,-0.41500,45.9375,85,41,0.65153
2627720,-0.46000,45.6875,85,41,0.63980
2627730,-0.37500,45.4375,85,41,0.62808
2627740,-0.25000,44.8750,85,41,0.60440
2627750,-0.24000,44.5625,85,41,0.59267
2627760,-0.21000,44.2500,85,41,0.58120
2627770,-0.20000,43.9375,85,41,0.57118
2627780,-0.21500,43.3125,85,41,0.55214
2627790,-0.18000,43.0000,85,41,0.54212
2627800,-0.19000,42.6875,85,41,0.53187
2627810,-0.19000,42.3750,85,41,0.52186
2627820,-0.14500,41.8125,85,41,0.50305
2627830,-0.13000,41.6875,85,41,0.49402
2627840,-0.11500,41.9375,85,41,0.48498
2627850,-0.07500,42.9375,85,41,0.47619
2627860,-0.08000,48.3125,85,41,0.45983
2627870,-0.07500,52.3750,85,41,0.45299
2627880,-0.05000,56.8125,85,41,0.44542
2627890,-0.05000,61.3125,85,41,0.43761
2627900,-0.04000,69.6875,85,41,0.42295
2627910,-0.01500,73.4375,85,41,0.41612
2627920,0.00500,76.7500,85,41,0.40952
2627930,0.01000,79.5625,85,41,0.40293
2627940,0.00000,83.7500,85,41,0.38999
2627950,0.07000,85.1250,85,41,0.38169
2627960,0.12500,85.9375,85,41,0.37436
2627970,0.07500,86.3125,85,41,0.37021
2627980,0.07000,85.9375,85,41,0.35971
2627990,0.15000,85.2500,85,41,0.35336
2628000,0.20500,84.3125,85,42,0.34872
2628010,0.21000,83.2500,85,42,0.34359
2628020,0.18500,80.6875,85,42,0.33040
2628030,0.12000,79.3125,85,42,0.32430
2628040,0.07500,77.9375,85,42,0.31819
2628050,0.03500,76.5625,85,42,0.31209
2628060,0.00000,73.6875,85,42,0.30305
2628070,0.02000,72.3125,85,42,0.29988
2628080,0.01500,70.9375,85,42,0.29402
2628090,-0.01000,69.6250,85,42,0.28840
2628100,-0.03500,66.7500,85,42,0.28132
2628110,-0.06000,65.3125,85,42,0.28107
2628120,-0.05500,63.7500,85,42,0.28254
2628130,-0.03500,62.1250,85,42,0.28571
2628140,-0.06000,59.1875,85,42,0.31111
2628150,-0.03500,57.9375,85,42,0.33040
2628160,-0.00500,56.8750,85,42,0.34652
2628170,-0.01500,55.9375,85,42,0.36484
2628180,-0.01500,54.4375,85,42,0.41026
2628190,-0.04000,53.8125,85,42,0.43810
2628200,-0.06000,53.3125,85,42,0.46740
2628210,-0.02000,52.8125,85,42,0.50501
2628220,0.01000,52.0625,85,42,0.56288
2628230,0.04500,51.7500,85,42,0.58877
2628240,0.09500,51.5000,85,42,0.61441
2628250,0.12500,51.2500,85,42,0.63858
2628260,0.11000,50.8125,85,42,0.67985
2628270,0.06000,50.5625,85,42,0.69573
2628280,-0.00500,50.3750,85,42,0.71062
2628290,-0.04500,50.1875,85,42,0.72039
2628300,-0.07500,49.7500,85,42,0.73822
2628310,-0.12500,49.5000,85,42,0.74505
2628320,-0.09500,49.3125,85,42,0.75018
2628330,-0.12000,49.0625,85,42,0.75360
2628340,-0.17000,48.6250,85,42,0.75482
2628350,-0.10500,48.4375,85,42,0.75385
2628360,-0.16000,48.1875,85,42,0.75067
2628370,-0.20000,48.0000,85,42,0.74432
2628380,-0.17000,47.6875,85,42,0.72991
2628390,-0.06500,47.5000,85,42,0.72137
2628400,0.40000,47.3125,85,42,0.71160
2628410,0.97000,47.1875,85,42,0.69817
2628420,0.83000,46.8750,85,42,0.68034
2628430,0.08500,46.7500,85,42,0.66691
2628440,-0.42000,46.5000,85,42,0.65079
2628450,-0.49000,46.2500,85,42,0.63980
2628460,-0.37000,45.6875,85,42,0.61880
2628470,-0.24000,45.3750,85,42,0.60464
2628480,-0.22000,45.0625,85,42,0.59194
2628490,-0.24500,44.7500,85,42,0.58266
2628500,-0.25000,44.1250,85,42,0.55922
2628510,-0.22500,43.8125,85,42,0.54725
2628520,-0.17500,43.5000,85,42,0.53602
2628530,-0.15500,43.1250,85,42,0.52527
2628540,-0.14000,42.5000,85,42,0.50720
2628550,-0.12500,42.2500,85,42,0.49963
2628560,-0.12000,42.0000,85,42,0.48987
2628570,-0.08500,42.0000,85,42,0.48034
2628580,-0.06500,43.8750,85,42,0.46203
2628590,-0.06000,46.4375,85,42,0.45348
2628600,-0.09500,50.1250,85,42,0.44542
2628610,-0.09500,54.5625,85,42,0.43761
2628620,-0.05000,63.8750,85,42,0.42222
2628630,-0.07000,68.3125,85,42,0.41490
2628640,-0.05500,72.4375,85,42,0.40781
2628650,0.00500,76.1875,85,42,0.40098
2628660,0.02000,82.1875,85,42,0.39048
2628670,-0.00500,84.3750,85,42,0.38486
2628680,0.00000,86.0625,85,42,0.37900
2628690,0.03000,87.1250,85,42,0.37314
2628700,0.04500,87.9375,85,42,0.36166
2628710,0.05000,87.6875,85,42,0.35629
2628720,0.07000,87.1250,85,42,0.35092
2628730,0.13000,86.3125,85,42,0.34554
2628740,0.16500,84.1250,85,42,0.33504
2628750,0.13500,82.8125,85,42,0.33114
2628760,0.12500,81.4375,85,42,0.32747
2628770,0.11000,80.0000,85,42,0.32283
2628780,0.01000,77.0625,85,42,0.31184
2628790,-0.00500,75.5625,85,42,0.30574
2628800,0.05000,74.1250,85,42,0.29939
2628810,0.02000,72.6875,85,42,0.29328
2628820,-0.01500,69.8750,85,42,0.28254
2628830,-0.02500,68.5000,85,42,0.27937
2628840,-0.04500,67.0625,85,42,0.27912
2628850,-0.01500,65.6250,85,42,0.28205
2628860,0.14000,62.4375,85,42,0.29719
2628870,0.13500,60.9375,85,42,0.31062
2628880,-0.01500,59.5625,85,42,0.32821
2628890,-0.04500,58.3125,85,42,0.34969
2628900,-0.05500,56.3750,85,42,0.40147
2628910,-0.05500,55.6875,85,42,0.43053
2628920,-0.06000,55.0625,85,42,0.46081
2628930,-0.06500,54.5625,85,42,0.49158
2628940,-0.06500,53.6250,85,42,0.55311
2628950,-0.04000,53.2500,85,42,0.57851
2628960,-0.01500,52.9375,85,42,0.60098
2628970,0.02000,52.6250,85,42,0.62540
2628980,0.06500,52.1250,85,42,0.67179
2628990,0.09500,51.8750,85,42,0.69231
2629000,0.08000,51.6250,85,42,0.71038
2629010,0.04000,51.3750,85,42,0.72601
2629020,-0.00500,50.8750,85,42,0.74799
2629030,-0.04500,50.6875,85,42,0.75360
2629040,-0.08500,50.3750,85,42,0.75849
2629050,-0.10500,50.1250,85,42,0.76239
2629060,-0.11000,49.6250,85,42,0.76337
2629070,-0.11000,49.3750,85,42,0.76239
2629080,-0.10500,49.0625,85,42,0.76044
2629090,-0.10500,48.8125,85,42,0.75702
2629100,-0.09500,48.3125,85,42,0.74628
2629110,-0.09500,48.1250,85,42,0.73895
2629120,-0.10500,47.9375,85,42,0.73040
2629130,0.00000,47.7500,85,42,0.72063
2629140,0.43500,47.4375,85,42,0.69817
2629150,1.04000,47.2500,85,42,0.68645
2629160,1.00000,47.1250,85,42,0.67473
2629170,0.25500,47.0000,85,42,0.66227
2629180,-0.34500,46.6875,85,42,0.63687
2629190,-0.46000,46.5000,85,42,0.62442
2629200,-0.31500,46.3125,85,42,0.61221
2629210,-0.19000,46.0625,85,42,0.60000
2629220,-0.16000,45.5625,85,42,0.57631
2629230,-0.15500,45.3125,85,42,0.56484
2629240,-0.14000,45.0625,85,42,0.55360
2629250,-0.12500,44.7500,85,42,0.54261
2629260,-0.11500,44.0625,85,42,0.52381
2629270,-0.10000,43.7500,85,42,0.51404
2629280,-0.09500,43.4375,85,42,0.50403
2629290,-0.08500,43.0625,85,42,0.49377
2629300,-0.07500,42.5625,85,42,0.47424
2629310,-0.06500,42.5625,85,42,0.46496
2629320,-0.06000,43.1875,85,42,0.45592
2629330,-0.05000,44.8750,85,42,0.44689
2629340,-0.04000,51.9375,85,42,0.42979
2629350,-0.02500,56.6250,85,42,0.42295
2629360,-0.01000,61.4375,85,42,0.41685
2629370,0.00500,66.1875,85,42,0.40977
2629380,0.01000,74.7500,85,42,0.39487
2629390,0.02000,78.3125,85,42,0.38730
2629400,0.03500,81.4375,85,42,0.37973
2629410,0.05000,84.0000,85,42,0.37241
2629420,0.06000,87.3125,85,42,0.35849
2629430,0.07000,88.1875,85,42,0.35189
2629440,0.08000,88.5625,85,42,0.34530
2629450,0.10000,88.4375,85,42,0.33895
2629460,0.11500,87.3125,85,42,0.32991
2629470,0.13500,86.3750,85,42,0.32503
2629480,0.15500,85.2500,85,42,0.31966
2629490,0.16500,84.0625,85,42,0.31404
2629500,0.15500,81.4375,85,42,0.30256
2629510,0.13000,80.0625,85,42,0.29670
2629520,0.09500,78.6250,85,42,0.29060
2629530,0.06500,77.1875,85,42,0.28449
2629540,0.04500,74.3125,85,42,0.27228
2629550,0.02000,72.8750,85,42,0.26764
2629560,0.00500,71.4375,85,42,0.26422
2629570,-0.00500,70.0000,85,42,0.26081
2629580,-0.01500,67.0000,85,42,0.25812
2629590,-0.02000,65.4375,85,42,0.26105
2629600,-0.02500,63.8125,85,42,0.26813
2629610,-0.02500,62.2500,85,42,0.27961
2629620,-0.03000,59.3750,85,42,0.31551
2629630,-0.04000,58.1875,85,42,0.33895
2629640,-0.04500,57.1875,85,42,0.36557
2629650,-0.04500,56.3125,85,42,0.39463
2629660,-0.04000,55.0000,85,42,0.44762
2629670,-0.04500,54.5000,85,42,0.47668
2629680,-0.03500,54.1250,85,42,0.50720
2629690,-0.01000,53.7500,85,42,0.53797
2629700,0.02000,53.1875,85,42,0.59683
2629710,0.04000,52.9375,85,42,0.62369
2629720,0.08000,52.7500,85,42,0.64860
2629730,0.10000,52.5000,85,42,0.67082
2629740,0.08000,52.0625,85,42,0.70769
2629750,0.04000,51.8125,85,42,0.72015
2629760,0.00000,51.5625,85,42,0.72918
2629770,-0.04500,51.3125,85,42,0.73797
2629780,-0.07500,50.7500,85,42,0.75140
2629790,-0.09500,50.5000,85,42,0.75580
2629800,-0.10500,50.2500,85,42,0.75824
2629810,-0.10500,50.0000,85,42,0.75873
