RelativeTimeMilliseconds,ECG,ART,ART (Sys),ART (Dia),PPG
2760570,-0.09000,45.9375,93,46,0.44347
2760580,-0.09000,45.9375,93,46,0.44347
2760590,-0.09000,45.9375,93,46,0.44347
2760600,-0.09000,45.9375,93,46,0.44347
2760610,0.00500,80.5000,93,46,0.37460
2760620,0.00500,80.5000,93,46,0.37460
2760630,0.00500,80.5000,93,46,0.37460
2760640,0.00500,80.5000,93,46,0.37460
2760650,0.00500,80.5000,93,46,0.37460
2760660,0.00500,80.5000,93,46,0.37460
2760670,0.00500,80.5000,93,46,0.37460
2760680,0.00500,80.5000,93,46,0.37460
2760690,0.00500,80.5000,93,46,0.37460
2760700,0.00500,80.5000,93,46,0.37460
2760710,0.00500,80.5000,93,46,0.37460
2760720,0.00500,80.5000,93,46,0.37460
2760730,0.00500,80.5000,93,46,0.37460
2760740,0.00500,80.5000,93,46,0.37460
2760750,0.00500,80.5000,93,46,0.37460
2760760,0.00500,80.5000,93,46,0.37460
2760770,0.00500,80.5000,93,46,0.37460
2760780,0.00500,80.5000,93,46,0.37460
2760790,0.00500,80.5000,93,46,0.37460
2760800,0.00500,80.5000,93,46,0.37460
2760810,0.00500,80.5000,93,46,0.37460
2760820,0.00500,80.5000,93,46,0.37460
2760830,0.00500,80.5000,93,46,0.37460
2760840,0.00500,80.5000,93,46,0.37460
2760850,0.00500,80.5000,93,46,0.37460
2760860,0.00500,80.5000,93,46,0.37460
2760870,0.00500,80.5000,93,46,0.37460
2760880,0.00500,80.5000,93,46,0.37460
2760890,0.00500,80.5000,93,46,0.37460
2760900,0.00500,80.5000,93,46,0.37460
2760910,0.00500,80.5000,93,46,0.37460
2760920,0.00500,80.5000,93,46,0.37460
2760930,0.00500,80.5000,93,46,0.37460
2760940,0.00500,80.5000,93,46,0.37460
2760950,0.00500,80.5000,93,46,0.37460
2760960,0.00500,80.5000,93,46,0.37460
2760970,0.02500,83.7500,93,46,0.36923
2760980,0.04500,88.1875,93,46,0.35922
2760990,0.07000,89.4375,93,46,0.35360
2761000,0.09000,90.1250,93,46,0.34774
2761010,0.11000,90.1875,93,46,0.34188
2761020,0.13500,89.0625,93,46,0.33016
2761030,0.15500,88.0000,93,46,0.32405
2761040,0.17000,86.6875,93,46,0.31795
2761050,0.17500,85.1875,93,46,0.31184
2761060,0.16000,81.8750,93,46,0.30110
2761070,0.13000,80.1875,93,46,0.29719
2761080,0.09500,78.4375,93,46,0.29231
2761090,0.06500,76.7500,93,46,0.28669
2761100,0.04000,73.5000,93,46,0.27521
2761110,0.01500,71.9375,93,46,0.26886
2761120,-0.00500,70.3750,93,46,0.26252
2761130,-0.01500,68.7500,93,46,0.25617
2761140,-0.01500,65.3750,93,46,0.24493
2761150,-0.01500,63.6875,93,46,0.24127
2761160,-0.02000,62.0000,93,46,0.23980
2761170,-0.02500,60.4375,93,46,0.24127
2761180,-0.02500,58.0625,93,46,0.25397
2761190,-0.03000,57.1875,93,46,0.26569
2761200,-0.03500,56.5000,93,46,0.28132
2761210,-0.03500,55.9375,93,46,0.30061
2761220,-0.02000,55.1875,93,46,0.34823
2761230,0.00500,54.9375,93,46,0.37509
2761240,0.02500,54.8125,93,46,0.40342
2761250,0.06000,54.6250,93,46,0.43199
2761260,0.09000,54.4375,93,46,0.48425
2761270,0.09000,54.3125,93,46,0.50574
2761280,0.06000,54.1875,93,46,0.52796
2761290,0.00000,54.0625,93,46,0.54945
2761300,-0.06000,53.6875,93,46,0.58730
2761310,-0.10500,53.5000,93,46,0.60269
2761320,-0.12500,53.2500,93,46,0.61587
2761330,-0.13000,53.0000,93,46,0.62662
2761340,-0.13500,52.5625,93,46,0.64103
2761350,-0.13500,52.3125,93,46,0.64493
2761360,-0.13500,52.0625,93,46,0.64640
2761370,-0.13000,51.8125,93,46,0.64591
2761380,-0.12500,51.3750,93,46,0.64200
2761390,-0.14500,51.1875,93,46,0.63810
2761400,-0.05500,51.0000,93,46,0.63272
2761410,0.30000,50.6250,93,46,0.62589
2761420,0.81500,50.4375,93,46,0.60855
2761430,0.82500,50.2500,93,46,0.59853
2761440,0.22500,50.0000,93,46,0.58755
2761450,-0.27000,49.7500,93,46,0.57607
2761460,-0.42500,49.1250,93,46,0.55360
2761470,-0.35000,48.7500,93,46,0.54335
2761480,-0.24500,48.3750,93,46,0.53236
2761490,-0.20500,48.0000,93,46,0.52112
2761500,-0.20000,47.2500,93,46,0.49890
2761510,-0.19000,46.9375,93,46,0.48840
2761520,-0.18000,46.5625,93,46,0.47814
2761530,-0.17000,46.1875,93,46,0.46813
2761540,-0.17000,45.5000,93,46,0.44957
2761550,-0.17000,45.1875,93,46,0.44103
2761560,-0.15500,44.8750,93,46,0.43394
2761570,-0.13000,44.5625,93,46,0.42759
2761580,-0.11500,45.0000,93,46,0.41270
2761590,-0.10500,46.3125,93,46,0.40513
2761600,-0.09500,48.8125,93,46,0.39780
2761610,-0.08500,52.5625,93,46,0.39048
2761620,-0.06500,62.1875,93,46,0.37656
2761630,-0.05000,67.1250,93,46,0.36996
2761640,-0.03500,71.9375,93,46,0.36386
2761650,-0.02500,76.3750,93,46,0.35775
2761660,-0.00500,83.6250,93,46,0.34676
2761670,0.01000,86.3125,93,46,0.34261
2761680,0.03000,88.3750,93,46,0.33797
2761690,0.05500,89.8125,93,46,0.33284
2761700,0.07500,90.8750,93,46,0.32259
2761710,0.09500,90.6250,93,46,0.31770
2761720,0.12000,90.0625,93,46,0.31258
2761730,0.14000,87.8750,93,46,0.30232
2761740,0.15500,86.4375,93,46,0.29695
2761750,0.16500,84.9375,93,46,0.29158
2761760,0.15500,83.3125,93,46,0.28767
2761770,0.13000,81.6875,93,46,0.28400
2761780,0.09000,78.3125,93,46,0.27424
2761790,0.06000,76.7500,93,46,0.26911
2761800,0.03000,75.1875,93,46,0.26374
2761810,0.01000,73.6250,93,46,0.25812
2761820,-0.00500,70.6250,93,46,0.24689
2761830,-0.01000,69.0000,93,46,0.24176
2761840,-0.01500,67.3750,93,46,0.23761
2761850,-0.01500,65.6250,93,46,0.23492
2761860,-0.01500,62.0000,93,46,0.23614
2761870,-0.02000,60.3750,93,46,0.24127
2761880,-0.02500,59.0000,93,46,0.24982
2761890,-0.02500,57.9375,93,46,0.26227
2761900,-0.02500,56.4375,93,46,0.29890
2761910,-0.01500,55.9375,93,46,0.32259
2761920,0.00000,55.5625,93,46,0.34921
2761930,0.01500,55.2500,93,46,0.37778
2761940,0.04500,54.8125,93,46,0.43761
2761950,0.08500,54.6250,93,46,0.46740
2761960,0.10500,54.5000,93,46,0.49304
2761970,0.10000,54.3125,93,46,0.51575
2761980,0.04500,54.0625,93,46,0.56313
2761990,-0.02500,53.9375,93,46,0.58510
2762000,-0.09000,53.7500,94,46,0.60464
2762010,-0.11500,53.5625,94,46,0.62198
2762020,-0.13500,53.1250,94,46,0.64933
2762030,-0.13500,52.8750,94,46,0.65934
2762040,-0.13500,52.6250,94,46,0.66716
2762050,-0.13500,52.3750,94,46,0.67277
2762060,-0.13000,51.8750,94,46,0.67741
2762070,-0.12000,51.6250,94,46,0.67668
2762080,-0.12500,51.4375,94,46,0.67497
2762090,-0.13500,51.2500,94,46,0.67204
2762100,0.04000,50.8750,94,46,0.66154
2762110,0.51500,50.6875,94,46,0.65421
2762120,0.91500,50.5000,94,46,0.64567
2762130,0.68000,50.2500,94,46,0.63614
2762140,0.04500,49.8125,94,46,0.62979
2762150,-0.33500,49.5000,94,46,0.64054
2762160,-0.39500,49.1875,94,46,0.64029
2762170,-0.30000,48.8125,94,46,0.63468
2762180,-0.22000,48.0625,94,46,0.61392
2762190,-0.20000,47.6875,94,46,0.60195
2762200,-0.19500,47.3125,94,46,0.58974
2762210,-0.18500,46.9375,94,46,0.57753
2762220,-0.18000,46.1875,94,46,0.55409
2762230,-0.18000,45.8125,94,46,0.54286
2762240,-0.17000,45.4375,94,46,0.53236
2762250,-0.16000,45.0625,94,46,0.52210
2762260,-0.15000,44.5625,94,46,0.50354
2762270,-0.13500,44.6250,94,46,0.49597
2762280,-0.12500,45.2500,94,46,0.48767
2762290,-0.10500,46.7500,94,46,0.47912
2762300,-0.09000,53.5625,94,46,0.46154
2762310,-0.07500,58.2500,94,46,0.45275
2762320,-0.06500,63.3125,94,46,0.44420
2762330,-0.05000,68.3125,94,46,0.43614
2762340,-0.03500,77.6250,94,46,0.42051
2762350,-0.01500,81.5625,94,46,0.41294
2762360,0.00000,85.0000,94,46,0.40708
2762370,0.02000,87.7500,94,46,0.40171
2762380,0.03000,91.4375,94,46,0.38901
2762390,0.04500,92.3125,94,46,0.38242
2762400,0.06000,92.6875,94,46,0.37607
2762410,0.07500,92.6250,94,46,0.36972
2762420,0.09000,91.3750,94,46,0.35726
2762430,0.10000,90.3125,94,46,0.35116
2762440,0.12000,89.0625,94,46,0.34481
2762450,0.12500,87.6250,94,46,0.33871
2762460,0.11000,84.5000,94,46,0.32772
2762470,0.08000,82.8750,94,46,0.32357
2762480,0.05000,81.2500,94,46,0.31819
2762490,0.02000,79.6250,94,46,0.31209
2762500,0.00500,76.4375,94,46,0.29890
2762510,-0.00500,74.9375,94,46,0.29206
2762520,-0.01500,73.4375,94,46,0.28523
2762530,-0.01500,71.8750,94,46,0.27888
2762540,-0.02000,68.5625,94,46,0.27009
2762550,-0.02000,66.8125,94,46,0.26935
2762560,-0.02500,65.0000,94,46,0.27204
2762570,-0.02500,63.3125,94,46,0.27814
2762580,-0.03000,60.6250,94,46,0.30281
2762590,-0.03500,59.6875,94,46,0.32186
2762600,-0.03500,58.8750,94,46,0.34554
2762610,-0.02000,58.1875,94,46,0.37289
2762620,0.00000,57.1875,94,46,0.43663
2762630,0.02000,56.8125,94,46,0.47082
2762640,0.05000,56.5000,94,46,0.50525
2762650,0.09000,56.2500,94,46,0.53944
2762660,0.09500,55.8125,94,46,0.60024
2762670,0.07500,55.5625,94,46,0.62418
2762680,0.02000,55.3125,94,46,0.64933
2762690,-0.03500,55.1250,94,46,0.67375
2762700,-0.08500,54.6250,94,46,0.71673
2762710,-0.11500,54.3750,94,46,0.73431
2762720,-0.13000,54.1250,94,46,0.74945
2762730,-0.13500,53.8125,94,46,0.76190
2762740,-0.13000,53.3125,94,46,0.77900
2762750,-0.13000,53.0625,94,46,0.78413
2762760,-0.12500,52.8125,94,46,0.78608
2762770,-0.12000,52.5625,94,46,0.78584
2762780,-0.12500,52.1875,94,46,0.78242
2762790,-0.12500,52.0000,94,46,0.77851
2762800,0.15500,51.8125,94,46,0.77314
2762810,0.59000,51.5625,94,46,0.76630
2762820,0.94500,51.1250,94,46,0.74799
2762830,0.64000,50.9375,94,46,0.73700
2762840,0.01500,50.6875,94,46,0.72503
2762850,-0.33000,50.3750,94,46,0.71209
2762860,-0.37000,49.7500,94,46,0.68596
2762870,-0.27000,49.3750,94,46,0.67375
2762880,-0.20000,49.0000,94,46,0.66081
2762890,-0.19000,48.6250,94,46,0.64762
2762900,-0.18000,47.8750,94,46,0.62076
2762910,-0.17500,47.5000,94,46,0.60781
2762920,-0.17000,47.1250,94,46,0.59512
2762930,-0.17000,46.7500,94,46,0.58291
2762940,-0.16500,46.0000,94,46,0.55946
2762950,-0.15500,45.7500,94,46,0.54799
2762960,-0.13500,45.5000,94,46,0.53822
2762970,-0.12500,45.4375,94,46,0.52943
2762980,-0.11000,47.0625,94,46,0.51013
2762990,-0.09500,49.5625,94,46,0.50061
2763000,-0.08000,53.3125,94,46,0.49109
2763010,-0.06500,58.0000,94,46,0.48181
2763020,-0.04500,68.3125,94,46,0.46374
2763030,-0.03000,73.2500,94,46,0.45495
2763040,-0.01500,77.8750,94,46,0.44615
2763050,0.00000,82.0000,94,46,0.43785
2763060,0.01500,88.5000,94,46,0.42515
2763070,0.03000,90.8125,94,46,0.41832
2763080,0.04000,92.5000,94,46,0.41123
2763090,0.05500,94.1250,94,46,0.40415
2763100,0.06500,94.1875,94,46,0.38999
2763110,0.07500,93.8125,94,46,0.38315
2763120,0.08500,93.1250,94,46,0.37656
2763130,0.10000,92.2500,94,46,0.36996
2763140,0.11000,89.7500,94,46,0.35678
2763150,0.11500,88.2500,94,46,0.35018
2763160,0.09500,86.6875,94,46,0.34505
2763170,0.06500,85.0625,94,46,0.34066
2763180,0.03500,81.8125,94,46,0.32821
2763190,0.01000,80.2500,94,46,0.32112
2763200,-0.01500,78.7500,94,46,0.31404
2763210,-0.02500,77.1875,94,46,0.30672
2763220,-0.04000,74.1250,94,46,0.29255
2763230,-0.04500,72.5625,94,46,0.28620
2763240,-0.04500,70.8750,94,46,0.28156
2763250,-0.04500,69.1250,94,46,0.27937
2763260,-0.04500,65.6250,94,46,0.28547
2763270,-0.05000,64.0000,94,46,0.29426
2763280,-0.05500,62.6875,94,46,0.30745
2763290,-0.05500,61.6250,94,46,0.32503
2763300,-0.05500,60.0000,94,46,0.37314
2763310,-0.04000,59.4375,94,46,0.40244
2763320,-0.02500,58.8750,94,46,0.43443
2763330,-0.00500,58.4375,94,46,0.46813
2763340,0.02000,57.7500,94,46,0.53724
2763350,0.06500,57.3750,94,46,0.57118
2763360,0.09000,57.0625,94,46,0.59976
2763370,0.07500,56.8125,94,46,0.62418
2763380,0.03000,56.2500,94,46,0.67497
2763390,-0.03000,56.0000,94,46,0.69817
2763400,-0.08500,55.7500,94,46,0.71893
2763410,-0.12500,55.4375,94,46,0.73724
2763420,-0.13500,54.9375,94,46,0.76606
2763430,-0.14000,54.6250,94,46,0.77656
2763440,-0.14000,54.3750,94,46,0.78486
2763450,-0.14000,54.0625,94,46,0.79096
2763460,-0.14000,53.5625,94,46,0.79438
2763470,-0.14000,53.3125,94,46,0.79390
2763480,-0.14500,53.1250,94,46,0.79219
2763490,-0.16000,52.9375,94,46,0.78877
2763500,-0.00500,52.5000,94,46,0.77729
2763510,0.47500,52.3125,94,46,0.76948
2763520,0.94000,52.1250,94,46,0.76020
2763530,0.72000,51.8750,94,46,0.74969
2763540,0.06000,51.3750,94,46,0.72576
2763550,-0.35000,51.1250,94,46,0.71258
2763560,-0.41500,50.7500,94,46,0.69988
2763570,-0.30000,50.4375,94,46,0.68767
2763580,-0.21500,49.6250,94,46,0.66178
2763590,-0.20500,49.3125,94,46,0.64835
2763600,-0.20000,48.9375,94,46,0.63516
2763610,-0.19500,48.6250,94,46,0.62198
2763620,-0.19000,47.8750,94,46,0.59609
2763630,-0.19000,47.5625,94,46,0.58388
2763640,-0.19000,47.1875,94,46,0.57192
2763650,-0.19000,46.8750,94,46,0.55995
2763660,-0.17500,46.4375,94,46,0.54066
2763670,-0.15500,46.6250,94,46,0.53114
2763680,-0.14000,47.5000,94,46,0.52137
2763690,-0.12500,49.6250,94,46,0.51160
2763700,-0.11000,57.8125,94,46,0.49255
2763710,-0.09500,63.0000,94,46,0.48327
2763720,-0.07500,68.3750,94,46,0.47424
2763730,-0.06500,73.6250,94,46,0.46545
2763740,-0.04500,83.0625,94,46,0.44884
2763750,-0.03500,86.9375,94,46,0.44078
2763760,-0.02000,90.1250,94,46,0.43419
2763770,-0.01000,92.7500,94,46,0.42857
2763780,0.00000,96.1250,94,46,0.41441
2763790,0.01000,96.9375,94,46,0.40708
2763800,0.02000,97.1250,94,46,0.39976
2763810,0.03000,96.9375,94,46,0.39267
2763820,0.04500,95.4375,94,46,0.37900
2763830,0.06000,94.3125,94,46,0.37216
2763840,0.07500,93.0625,94,46,0.36532
2763850,0.09000,91.6250,94,46,0.35849
2763860,0.08000,88.5625,94,46,0.34847
2763870,0.06000,87.0000,94,46,0.34286
2763880,0.03000,85.4375,94,46,0.33651
2763890,0.00000,83.8750,94,46,0.32991
2763900,-0.01500,80.9375,94,46,0.31600
2763910,-0.03000,79.5000,94,46,0.30891
2763920,-0.04000,78.0625,94,46,0.30232
2763930,-0.04500,76.6250,94,46,0.29621
2763940,-0.05000,73.4375,94,46,0.28840
2763950,-0.05000,71.6250,94,46,0.28864
2763960,-0.04500,69.8125,94,46,0.29206
2763970,-0.04000,68.0625,94,46,0.29915
2763980,-0.04000,65.0625,94,46,0.32747
2763990,-0.04500,63.8750,94,46,0.34896
2764000,-0.04500,62.8750,94,46,0.37485
2764010,-0.04500,62.0625,94,46,0.40464
2764020,-0.02500,60.6875,94,46,0.47155
2764030,0.00000,60.1875,94,46,0.50696
2764040,0.02500,59.6875,94,46,0.54261
2764050,0.05000,59.3125,94,46,0.57753
2764060,0.08000,58.6250,94,46,0.63272
2764070,0.08500,58.3750,94,46,0.66007
2764080,0.05000,58.0625,94,46,0.68669
2764090,0.00000,57.8125,94,46,0.71160
2764100,-0.05500,57.2500,94,46,0.75409
2764110,-0.10500,57.0000,94,46,0.77143
2764120,-0.14000,56.7500,94,46,0.78584
2764130,-0.15500,56.5625,94,46,0.79731
2764140,-0.16000,56.1250,94,46,0.81294
2764150,-0.16000,55.8750,94,46,0.81734
2764160,-0.16000,55.6250,94,46,0.81880
2764170,-0.16000,55.4375,94,46,0.81807
2764180,-0.15500,55.0000,94,46,0.81368
2764190,-0.16000,54.7500,94,46,0.79170
2764200,-0.17500,54.5625,94,46,0.75971
2764210,-0.01000,54.4375,94,46,0.73968
2764220,0.48500,54.1250,94,46,0.71282
2764230,0.98000,54.0000,94,46,0.70110
2764240,0.78000,53.8125,94,46,0.68938
2764250,0.04000,53.6250,94,46,0.67741
2764260,-0.41500,53.1875,94,46,0.65519
2764270,-0.44500,52.8750,94,46,0.64347
2764280,-0.31000,52.5000,94,46,0.63150
2764290,-0.24000,52.1250,94,46,0.61929
2764300,-0.23500,51.3125,94,46,0.59438
2764310,-0.23000,50.8750,94,46,0.58217
2764320,-0.22000,50.4375,94,46,0.57021
2764330,-0.21000,50.0000,94,46,0.55873
2764340,-0.20000,49.1250,94,46,0.53700
2764350,-0.20000,48.6875,94,46,0.52650
2764360,-0.19000,48.2500,94,46,0.51746
2764370,-0.18500,47.6250,94,46,0.50940
2764380,-0.17500,47.8750,94,46,0.49182
2764390,-0.16000,49.0625,94,46,0.48278
2764400,-0.14500,51.6250,94,46,0.47375
2764410,-0.13000,55.5000,94,46,0.46496
2764420,-0.11500,65.8750,94,46,0.44811
2764430,-0.09500,71.3750,94,46,0.43980
2764440,-0.08000,76.8125,94,46,0.43199
2764450,-0.06500,81.8750,94,46,0.42442
2764460,-0.04500,90.3750,94,46,0.41245
2764470,-0.03000,93.6875,94,46,0.40610
2764480,-0.01500,96.1875,94,46,0.39927
2764490,-0.01000,98.0000,94,46,0.39219
2764500,0.00000,99.3125,94,46,0.38197
2764510,0.01000,99.9375,94,46,0.37192
2764520,0.02000,99.6875,94,46,0.36532
2764530,0.04000,99.1250,94,46,0.35897
2764540,0.06000,97.2500,94,46,0.34628
2764550,0.08000,96.0625,94,46,0.33993
2764560,0.09000,94.7500,94,46,0.33504
2764570,0.08500,93.3125,94,46,0.33114
2764580,0.06000,90.1875,94,46,0.32039
2764590,0.03000,88.6250,94,46,0.31453
2764600,0.00000,87.0000,94,46,0.30842
2764610,-0.01500,85.3750,94,46,0.30232
2764620,-0.03500,82.2500,94,46,0.28962
2764630,-0.04500,80.6250,94,46,0.28376
2764640,-0.05000,79.0000,94,46,0.27863
2764650,-0.05500,77.2500,94,46,0.27497
2764660,-0.06000,73.3750,94,46,0.27546
2764670,-0.06500,71.3750,94,46,0.27961
2764680,-0.07000,69.4375,94,46,0.28767
2764690,-0.07500,67.7500,94,46,0.30012
2764700,-0.08000,65.0625,94,46,0.33846
2764710,-0.07000,64.0000,94,46,0.36386
2764720,-0.03500,63.1250,94,46,0.39267
2764730,-0.01500,62.4375,94,46,0.42369
2764740,0.00000,61.3750,94,46,0.48889
2764750,0.03000,61.0625,94,46,0.52137
2764760,0.05500,60.7500,94,46,0.54896
2764770,0.04000,60.4375,94,46,0.57289
2764780,0.01000,59.8750,94,46,0.62369
2764790,-0.04500,59.6250,94,46,0.64762
2764800,-0.10500,59.3750,94,46,0.66935
2764810,-0.15000,59.1250,94,46,0.68864
2764820,-0.17000,58.5000,94,46,0.72039
2764830,-0.18500,58.1250,94,46,0.73260
2764840,-0.19000,57.7500,94,46,0.74237
2764850,-0.19000,57.4375,94,46,0.74994
2764860,-0.19000,56.6875,94,46,0.75556
2764870,-0.18000,56.3750,94,46,0.75653
2764880,-0.17500,56.0000,94,46,0.75653
2764890,-0.19500,55.6875,94,46,0.75507
2764900,-0.14500,55.2500,94,46,0.74774
2764910,0.20500,55.0000,94,46,0.74188
2764920,0.82000,54.8125,94,46,0.73480
2764930,0.94500,54.3125,94,46,0.72650
2764940,0.31500,54.1250,94,46,0.70696
2764950,-0.30500,53.8750,94,46,0.69670
2764960,-0.48000,53.6250,94,46,0.68596
2764970,-0.35500,53.3125,94,46,0.67424
2764980,-0.24500,52.6250,94,46,0.64884
2764990,-0.23000,52.3125,94,46,0.63590
2765000,-0.23000,51.9375,93,46,0.62295
2765010,-0.23000,51.5625,93,46,0.61026
2765020,-0.22000,50.8125,93,46,0.58584
2765030,-0.21000,50.4375,93,46,0.57387
2765040,-0.20000,50.0000,93,46,0.56215
2765050,-0.19000,49.6250,93,46,0.55092
2765060,-0.17000,48.8125,93,46,0.53236
2765070,-0.16000,48.6875,93,46,0.52283
2765080,-0.14500,48.9375,93,46,0.51306
2765090,-0.13500,50.1250,93,46,0.50330
2765100,-0.12000,56.4375,93,46,0.48400
2765110,-0.10500,61.3125,93,46,0.47473
2765120,-0.08000,66.7500,93,46,0.46593
2765130,-0.06000,72.2500,93,46,0.45714
2765140,-0.04500,82.8125,93,46,0.43980
2765150,-0.03000,87.5000,93,46,0.43272
2765160,-0.01500,91.5625,93,46,0.42662
2765170,-0.01000,94.9375,93,46,0.41978
2765180,0.00000,99.3125,93,46,0.40537
2765190,0.01000,100.3750,93,46,0.39805
2765200,0.02000,100.8125,93,46,0.39096
2765210,0.03500,100.6875,93,46,0.38388
2765220,0.05500,99.3750,93,46,0.37021
2765230,0.07500,98.2500,93,46,0.36337
2765240,0.10000,96.9375,93,46,0.35653
2765250,0.11000,95.4375,93,46,0.34994
2765260,0.11000,92.1875,93,46,0.33993
2765270,0.09000,90.5000,93,46,0.33431
2765280,0.06000,88.7500,93,46,0.32796
2765290,0.03000,87.0000,93,46,0.32137
2765300,0.01000,83.6250,93,46,0.30769
2765310,-0.00500,81.9375,93,46,0.30085
2765320,-0.02000,80.2500,93,46,0.29402
2765330,-0.02500,78.5625,93,46,0.28742
2765340,-0.02500,74.8125,93,46,0.27692
2765350,-0.02500,72.8125,93,46,0.27497
2765360,-0.02500,70.7500,93,46,0.27546
2765370,-0.03000,68.8125,93,46,0.27839
2765380,-0.03000,65.6250,93,46,0.29475
2765390,-0.01500,64.4375,93,46,0.30965
2765400,0.00000,63.3750,93,46,0.32869
2765410,0.02500,62.5625,93,46,0.35189
2765420,0.06000,61.3750,93,46,0.40733
2765430,0.10000,60.9375,93,46,0.43785
2765440,0.12000,60.6250,93,46,0.46911
2765450,0.10500,60.4375,93,46,0.50037
2765460,0.06000,60.1250,93,46,0.55018
2765470,-0.00500,59.9375,93,46,0.57485
2765480,-0.06500,59.7500,93,46,0.59878
2765490,-0.10500,59.6250,93,46,0.62125
2765500,-0.11500,59.2500,93,46,0.65958
2765510,-0.12500,59.0625,93,46,0.67497
2765520,-0.12500,58.8125,93,46,0.68791
2765530,-0.13500,58.5625,93,46,0.69841
2765540,-0.13500,58.0625,93,46,0.71282
2765550,-0.13500,57.8125,93,46,0.71575
2765560,-0.14000,57.5625,93,46,0.71648
2765570,-0.15500,57.3750,93,46,0.71624
2765580,0.00500,56.8750,93,46,0.71233
2765590,0.50500,56.6250,93,46,0.70842
2765600,0.92500,56.3750,93,46,0.70305
2765610,0.63000,56.1250,93,46,0.69597
2765620,-0.01500,55.4375,93,46,0.67790
2765630,-0.36500,55.0625,93,46,0.66716
2765640,-0.39500,54.6250,93,46,0.65568
2765650,-0.28000,54.1875,93,46,0.64347
2765660,-0.19000,53.3125,93,46,0.62076
2765670,-0.18000,52.8750,93,46,0.60855
2765680,-0.17500,52.4375,93,46,0.59585
2765690,-0.17000,52.0000,93,46,0.58315
2765700,-0.16500,51.0625,93,46,0.55849
2765710,-0.16000,50.6250,93,46,0.54676
2765720,-0.15500,50.1875,93,46,0.53553
2765730,-0.14500,49.8125,93,46,0.52454
2765740,-0.13000,49.1875,93,46,0.50354
2765750,-0.11500,49.0625,93,46,0.49475
2765760,-0.09500,49.5000,93,46,0.48694
2765770,-0.07500,50.8750,93,46,0.47863
2765780,-0.06500,57.4375,93,46,0.46129
2765790,-0.05500,62.2500,93,46,0.45299
2765800,-0.04000,67.3750,93,46,0.44469
2765810,-0.02500,72.5000,93,46,0.43663
2765820,-0.00500,82.1250,93,46,0.42125
2765830,0.00500,86.3125,93,46,0.41392
2765840,0.03000,89.9375,93,46,0.40708
2765850,0.04500,92.8125,93,46,0.40024
2765860,0.06000,96.3125,93,46,0.38974
2765870,0.08000,97.0000,93,46,0.38437
2765880,0.10500,97.0625,93,46,0.37851
2765890,0.12500,96.6875,93,46,0.37265
2765900,0.14500,95.0000,93,46,0.36020
2765910,0.16000,93.8125,93,46,0.35385
2765920,0.17000,92.4375,93,46,0.34750
2765930,0.16500,90.9375,93,46,0.34115
2765940,0.14500,87.6250,93,46,0.32821
2765950,0.11500,85.8750,93,46,0.32308
2765960,0.07500,84.0625,93,46,0.31893
2765970,0.04000,82.3125,93,46,0.31380
2765980,0.01000,78.8125,93,46,0.30208
2765990,-0.00500,77.0000,93,46,0.29548
2766000,-0.01000,75.1250,93,46,0.28889
2766010,-0.01500,73.1875,93,46,0.28254
2766020,-0.02000,69.0000,93,46,0.27253
2766030,-0.02500,67.0000,93,46,0.27057
2766040,-0.03000,65.1250,93,46,0.27155
2766050,-0.03500,63.5000,93,46,0.27595
2766060,-0.03500,61.1875,93,46,0.29304
2766070,-0.03000,60.3125,93,46,0.30745
2766080,-0.01500,59.6875,93,46,0.32552
2766090,0.01000,59.1875,93,46,0.34701
2766100,0.03500,58.5625,93,46,0.39829
2766110,0.07500,58.3750,93,46,0.42637
2766120,0.11000,58.2500,93,46,0.45519
2766130,0.11500,58.1875,93,46,0.48352
2766140,0.09000,58.0625,93,46,0.53675
2766150,0.04000,57.9375,93,46,0.55751
2766160,-0.01000,57.8750,93,46,0.57485
2766170,-0.04500,57.7500,93,46,0.59243
2766180,-0.05500,57.4375,93,46,0.62320
2766190,-0.04500,57.2500,93,46,0.63541
2766200,-0.02500,57.0625,93,46,0.64542
2766210,-0.00500,56.8750,93,46,0.65299
2766220,0.01000,56.4375,93,46,0.66178
2766230,0.03500,56.2500,93,46,0.66300
2766240,0.07000,56.0000,93,46,0.65934
2766250,0.08500,55.8125,93,46,0.65250
2766260,0.17500,55.3750,93,46,0.63980
2766270,0.54500,55.2500,93,46,0.63248
2766280,1.07500,55.1250,93,46,0.62442
2766290,1.08000,54.9375,93,46,0.61538
2766300,0.52000,54.5000,93,46,0.59414
2766310,0.02500,54.2500,93,46,0.58242
2766320,-0.16500,54.0625,93,46,0.57021
2766330,-0.12000,53.8125,93,46,0.55775
2766340,-0.03500,53.2500,93,46,0.53236
2766350,-0.03000,53.0000,93,46,0.52112
2766360,-0.04500,52.7500,93,46,0.51062
2766370,-0.05500,52.5000,93,46,0.49939
2766380,-0.06000,51.9375,93,46,0.47668
2766390,-0.07500,51.6250,93,46,0.46593
2766400,-0.09500,51.3750,93,46,0.45543
2766410,-0.10500,51.1250,93,46,0.44567
2766420,-0.10000,50.7500,93,46,0.42784
2766430,-0.10000,50.7500,93,46,0.41954
2766440,-0.09500,51.2500,93,46,0.41148
2766450,-0.10000,52.5625,93,46,0.40391
2766460,-0.10500,59.1250,93,46,0.39219
2766470,-0.10500,64.0000,93,46,0.38608
2766480,-0.10500,69.2500,93,46,0.37973
2766490,-0.10500,74.5000,93,46,0.37338
2766500,-0.10000,84.3125,93,46,0.36020
2766510,-0.08500,88.5000,93,46,0.35360
2766520,-0.06500,92.1250,93,46,0.34774
2766530,-0.04500,95.1875,93,46,0.34212
2766540,-0.03000,99.1875,93,46,0.33114
2766550,-0.01500,100.6875,93,46,0.32621
2766560,-0.00500,100.6875,93,46,0.32357
2766570,0.00000,100.1875,93,46,0.31941
2766580,0.02000,99.3750,93,46,0.31062
2766590,0.04000,98.1875,93,46,0.30623
2766600,0.05500,96.8125,93,46,0.30159
2766610,0.06000,95.1250,93,46,0.29719
2766620,0.04000,91.4375,93,46,0.28840
2766630,0.01000,89.5000,93,46,0.28376
2766640,-0.02500,87.5625,93,46,0.27912
2766650,-0.06000,85.6875,93,46,0.27595
2766660,-0.08500,81.9375,93,46,0.26935
2766670,-0.10000,80.0625,93,46,0.26471
2766680,-0.11500,78.2500,93,46,0.26007
2766690,-0.11500,76.3750,93,46,0.25592
2766700,-0.11500,72.3750,93,46,0.24982
2766710,-0.11500,70.3750,93,46,0.24933
2766720,-0.11500,68.4375,93,46,0.25153
2766730,-0.11500,66.7500,93,46,0.25690
2766740,-0.11000,64.2500,93,46,0.27961
2766750,-0.10500,63.3125,93,46,0.29475
2766760,-0.08500,62.6250,93,46,0.31209
2766770,-0.06000,62.0000,93,46,0.33382
2766780,-0.03500,61.1875,93,46,0.38730
2766790,0.00000,60.9375,93,46,0.41685
2766800,0.04000,60.7500,93,46,0.44713
2766810,0.04000,60.5625,93,46,0.47741
2766820,0.02000,60.1875,93,46,0.53407
2766830,-0.04000,60.0625,93,46,0.55946
2766840,-0.10000,59.8750,93,46,0.58242
2766850,-0.14500,59.6875,93,46,0.60024
2766860,-0.17000,59.3750,93,46,0.62857
2766870,-0.17500,59.1875,93,46,0.64127
2766880,-0.18000,58.9375,93,46,0.65201
2766890,-0.18000,58.7500,93,46,0.66032
2766900,-0.18000,58.3125,93,46,0.67009
2766910,-0.17500,58.1250,93,46,0.67155
2766920,-0.17000,57.9375,93,46,0.67106
2766930,-0.18500,57.6875,93,46,0.66862
2766940,-0.12500,57.3125,93,46,0.65885
2766950,0.21500,57.1250,93,46,0.65201
2766960,0.75000,56.9375,93,46,0.64444
2766970,0.84000,56.6875,93,46,0.63565
2766980,0.32500,56.1250,93,46,0.61538
2766990,-0.18500,55.8125,93,46,0.60391
2767000,-0.39000,55.4375,94,46,0.59170
2767010,-0.35500,55.0625,94,46,0.57900
2767020,-0.26000,54.2500,94,46,0.55311
2767030,-0.23000,53.8750,94,46,0.54017
2767040,-0.22000,53.4375,94,46,0.52723
2767050,-0.22000,53.0000,94,46,0.51600
2767060,-0.21000,52.1875,94,46,0.49499
2767070,-0.21000,51.7500,94,46,0.48425
2767080,-0.21000,51.3750,94,46,0.47399
2767090,-0.20000,51.0000,94,46,0.46422
2767100,-0.19000,50.3750,94,46,0.44567
2767110,-0.17000,50.3125,94,46,0.43687
2767120,-0.15500,50.7500,94,46,0.42857
2767130,-0.14500,52.0625,94,46,0.42051
2767140,-0.12500,58.4375,94,46,0.40488
2767150,-0.11000,63.2500,94,46,0.39878
2767160,-0.09500,68.5000,94,46,0.39341
2767170,-0.07500,73.8125,94,46,0.38755
2767180,-0.05500,83.9375,94,46,0.37534
2767190,-0.03500,88.4375,94,46,0.36923
2767200,-0.02500,92.3750,94,46,0.36313
2767210,-0.01000,95.7500,94,46,0.35702
2767220,0.00000,100.6250,94,46,0.34554
2767230,0.01500,102.1250,94,46,0.33993
2767240,0.03000,103.0000,94,46,0.33455
2767250,0.04000,103.3125,94,46,0.33040
2767260,0.05500,102.3750,94,46,0.32234
2767270,0.07000,101.3750,94,46,0.31746
2767280,0.09000,100.0000,94,46,0.31209
2767290,0.09000,98.4375,94,46,0.30647
2767300,0.08000,94.7500,94,46,0.29524
2767310,0.05000,92.7500,94,46,0.28938
2767320,0.02000,90.6875,94,46,0.28352
2767330,-0.01000,88.6875,94,46,0.27741
2767340,-0.03500,84.7500,94,46,0.26520
2767350,-0.04500,82.8125,94,46,0.26056
2767360,-0.05000,80.8750,94,46,0.25665
2767370,-0.05500,78.9375,94,46,0.25177
2767380,-0.05000,74.9375,94,46,0.24347
2767390,-0.05000,72.7500,94,46,0.24176
2767400,-0.05000,70.5625,94,46,0.24298
2767410,-0.05500,68.5625,94,46,0.24786
2767420,-0.05500,65.4375,94,46,0.26911
2767430,-0.05000,64.3125,94,46,0.28620
2767440,-0.03000,63.3750,94,46,0.30720
2767450,-0.01000,62.6875,94,46,0.32796
2767460,0.01500,61.6875,94,46,0.37582
2767470,0.05000,61.3750,94,46,0.40464
2767480,0.08500,61.0625,94,46,0.43468
2767490,0.08500,60.9375,94,46,0.46496
2767500,0.05500,60.6250,94,46,0.52308
2767510,-0.00500,60.5000,94,46,0.54945
2767520,-0.06000,60.4375,94,46,0.57363
2767530,-0.10500,60.3750,94,46,0.59487
2767540,-0.13000,60.1250,94,46,0.62979
2767550,-0.13500,60.0000,94,46,0.64127
2767560,-0.13500,59.8750,94,46,0.64957
2767570,-0.14500,59.6875,94,46,0.65714
2767580,-0.14500,59.3750,94,46,0.66789
2767590,-0.14500,59.2500,94,46,0.67009
2767600,-0.14500,59.1250,94,46,0.67057
2767610,-0.16000,58.9375,94,46,0.66911
2767620,-0.07000,58.5625,94,46,0.66105
2767630,0.31500,58.3125,94,46,0.65470
2767640,0.84000,58.0625,94,46,0.64689
2767650,0.82500,57.8125,94,46,0.63858
2767660,0.25500,57.1875,94,46,0.61954
2767670,-0.22000,56.8125,94,46,0.60781
2767680,-0.39500,56.4375,94,46,0.59512
2767690,-0.34000,56.0000,94,46,0.58169
2767700,-0.25000,55.1250,94,46,0.55336
2767710,-0.22500,54.6875,94,46,0.53944
2767720,-0.22500,54.1875,94,46,0.52576
2767730,-0.22000,53.7500,94,46,0.51258
2767740,-0.21000,52.8125,94,46,0.48791
2767750,-0.20500,52.3125,94,46,0.47766
2767760,-0.20000,51.8750,94,46,0.46862
2767770,-0.18500,51.5000,94,46,0.45910
2767780,-0.17000,50.8750,94,46,0.44029
2767790,-0.17000,50.9375,94,46,0.43150
2767800,-0.16000,51.6250,94,46,0.42295
2767810,-0.14500,53.3750,94,46,0.41465
2767820,-0.12500,60.8125,94,46,0.39853
2767830,-0.11000,63.7396,94,46,0.39328
2767840,-0.09500,66.0000,94,46,0.39096
2767850,-0.07500,71.4375,94,46,0.38364
2767860,-0.05500,82.1250,94,46,0.37289
2767870,-0.04000,87.0625,94,46,0.36728
2767880,-0.02500,91.5625,94,46,0.36142
2767890,-0.01000,95.5625,94,46,0.35580
2767900,0.00000,101.6250,94,46,0.34481
2767910,0.01000,103.6250,94,46,0.33968
2767920,0.01500,105.0625,94,46,0.33455
2767930,0.03000,105.8125,94,46,0.32943
2767940,0.04000,105.6875,94,46,0.31917
2767950,0.05000,104.9375,94,46,0.31404
2767960,0.07000,103.7500,94,46,0.31013
2767970,0.08000,102.2500,94,46,0.30647
2767980,0.07500,98.6875,94,46,0.29621
2767990,0.05000,96.6875,94,46,0.29060
2768000,0.02000,94.6250,95,47,0.28474
2768010,-0.00500,92.5000,95,47,0.27863
2768020,-0.02500,88.4375,95,47,0.26642
2768030,-0.04500,86.5000,95,47,0.26032
2768040,-0.05000,84.5625,95,47,0.25421
2768050,-0.05500,82.6250,95,47,0.24835
2768060,-0.05500,78.7500,95,47,0.24200
2768070,-0.05500,76.6875,95,47,0.24005
2768080,-0.05500,74.5625,95,47,0.24005
2768090,-0.05000,72.4375,95,47,0.24322
2768100,-0.04500,68.7500,95,47,0.26056
2768110,-0.04500,67.2500,95,47,0.27570
2768120,-0.03000,66.0625,95,47,0.29475
2768130,-0.01000,65.0625,95,47,0.31746
2768140,0.01000,63.5625,95,47,0.37143
2768150,0.04000,63.0000,95,47,0.40147
2768160,0.06500,62.6250,95,47,0.42833
2768170,0.06000,62.2500,95,47,0.45324
2768180,0.02000,61.8125,95,47,0.50940
2768190,-0.03500,61.6250,95,47,0.53700
2768200,-0.09500,61.4375,95,47,0.56313
2768210,-0.13500,61.2500,95,47,0.58706
2768220,-0.16000,60.9375,95,47,0.62735
2768230,-0.17000,60.7500,95,47,0.64322
2768240,-0.17500,60.6250,95,47,0.65617
2768250,-0.17000,60.4375,95,47,0.66642
2768260,-0.16500,60.0000,95,47,0.67668
2768270,-0.16000,59.8125,95,47,0.67937
2768280,-0.15500,59.5625,95,47,0.68083
2768290,-0.17500,59.3750,95,47,0.68059
2768300,-0.09500,59.0000,95,47,0.71600
2768310,0.25500,58.7500,95,47,0.72283
2768320,0.79500,58.5000,95,47,0.72186
2768330,0.86500,58.2500,95,47,0.71624
2768340,0.29000,57.6250,95,47,0.69670
2768350,-0.23000,57.2500,95,47,0.68400
2768360,-0.40500,56.8750,95,47,0.67131
2768370,-0.34500,56.5000,95,47,0.65861
2768380,-0.24500,55.6875,95,47,0.62882
2768390,-0.21000,55.1875,95,47,0.61319
2768400,-0.21000,54.7500,95,47,0.59731
2768410,-0.20500,54.3125,95,47,0.58193
2768420,-0.20000,53.3750,95,47,0.55189
2768430,-0.19000,52.9375,95,47,0.53724
2768440,-0.18000,52.5000,95,47,0.52308
2768450,-0.17500,52.0625,95,47,0.50965
2768460,-0.16000,51.3125,95,47,0.48913
2768470,-0.14500,51.0625,95,47,0.47912
2768480,-0.12500,51.1875,95,47,0.46911
2768490,-0.11500,52.0625,95,47,0.45910
2768500,-0.10500,57.6875,95,47,0.44005
2768510,-0.08500,62.5000,95,47,0.43077
2768520,-0.07000,68.0000,95,47,0.42173
2768530,-0.05500,73.7500,95,47,0.41319
2768540,-0.03500,84.8750,95,47,0.39756
2768550,-0.01500,89.8750,95,47,0.39170
2768560,0.00000,94.3750,95,47,0.38632
2768570,0.01000,98.2500,95,47,0.38022
2768580,0.02500,104.0625,95,47,0.36703
2768590,0.03500,106.0000,95,47,0.36068
2768600,0.04000,107.3125,95,47,0.35409
2768610,0.05000,108.0000,95,47,0.34774
2768620,0.06000,107.8125,95,47,0.33529
2768630,0.08000,107.0000,95,47,0.32918
2768640,0.10000,105.7500,95,47,0.32283
2768650,0.11500,104.1875,95,47,0.31648
2768660,0.10500,100.3125,95,47,0.30720
2768670,0.08500,98.2500,95,47,0.30183
2768680,0.05500,96.0625,95,47,0.29597
2768690,0.03000,93.9375,95,47,0.28962
2768700,0.00500,89.7500,95,47,0.27619
2768710,-0.00500,87.6875,95,47,0.26886
2768720,-0.01500,85.7500,95,47,0.26154
2768730,-0.02500,83.7500,95,47,0.25446
2768740,-0.02500,79.7500,95,47,0.24371
2768750,-0.02000,77.6875,95,47,0.24249
2768760,-0.02000,75.5625,95,47,0.24420
2768770,-0.02000,73.3750,95,47,0.24908
2768780,-0.02000,69.5000,95,47,0.27253
2768790,-0.00500,68.0000,95,47,0.29158
2768800,0.01500,66.7500,95,47,0.31526
2768810,0.04000,65.7500,95,47,0.34261
2768820,0.06500,64.2500,95,47,0.40684
2768830,0.10500,63.6875,95,47,0.44151
2768840,0.12000,63.3125,95,47,0.47717
2768850,0.10500,63.0000,95,47,0.51282
2768860,0.05500,62.5000,95,47,0.57118
2768870,0.00000,62.3750,95,47,0.60073
2768880,-0.06000,62.1875,95,47,0.62979
2768890,-0.10500,62.0000,95,47,0.65690
2768900,-0.12500,61.6250,95,47,0.70330
2768910,-0.13000,61.4375,95,47,0.72186
2768920,-0.13500,61.2500,95,47,0.73700
2768930,-0.14000,61.1250,95,47,0.74896
2768940,-0.14000,60.7500,95,47,0.76337
2768950,-0.13000,60.5625,95,47,0.76557
2768960,-0.13500,60.3750,95,47,0.76508
2768970,-0.15000,60.2500,95,47,0.76361
2768980,0.00000,59.8750,95,47,0.75604
2768990,0.47000,59.6250,95,47,0.74994
2769000,0.96000,59.3750,95,47,0.74212
2769010,0.79500,59.1250,95,47,0.73284
2769020,0.09000,58.5625,95,47,0.70965
2769030,-0.35500,58.1875,95,47,0.69646
2769040,-0.41500,57.8125,95,47,0.68254
2769050,-0.29000,57.4375,95,47,0.66764
2769060,-0.21000,56.6250,95,47,0.63980
2769070,-0.20000,56.1875,95,47,0.62466
2769080,-0.20000,55.7500,95,47,0.60904
2769090,-0.19000,55.2500,95,47,0.59341
2769100,-0.18000,54.3750,95,47,0.56264
2769110,-0.17000,53.9375,95,47,0.54799
2769120,-0.16000,53.4375,95,47,0.53382
2769130,-0.15000,53.0000,95,47,0.52039
2769140,-0.13500,52.2500,95,47,0.49621
2769150,-0.12000,52.1875,95,47,0.48645
2769160,-0.11500,52.6250,95,47,0.47766
2769170,-0.10000,54.1250,95,47,0.46838
2769180,-0.08500,61.3750,95,47,0.44982
2769190,-0.06500,66.7500,95,47,0.44103
2769200,-0.04500,72.6875,95,47,0.43248
2769210,-0.03000,78.6875,95,47,0.42418
2769220,-0.01000,90.0000,95,47,0.40879
2769230,0.00000,94.9375,95,47,0.40147
2769240,0.01500,99.2500,95,47,0.39463
2769250,0.03000,102.8750,95,47,0.38779
2769260,0.03500,108.0000,95,47,0.37778
2769270,0.04500,109.5625,95,47,0.37216
2769280,0.05000,110.5000,95,47,0.36606
2769290,0.05500,110.8125,95,47,0.36020
2769300,0.07000,109.8750,95,47,0.34774
2769310,0.08500,108.7500,95,47,0.34139
2769320,0.10500,107.2500,95,47,0.33529
2769330,0.12000,105.5000,95,47,0.32894
2769340,0.11000,101.5000,95,47,0.31648
2769350,0.08500,99.3125,95,47,0.31184
2769360,0.06000,97.1875,95,47,0.30769
2769370,0.04000,95.0625,95,47,0.30232
2769380,0.02000,90.8750,95,47,0.28962
2769390,0.01000,88.9375,95,47,0.28254
2769400,-0.00500,86.9375,95,47,0.27546
2769410,-0.00500,85.0000,95,47,0.26886
2769420,-0.01500,81.0000,95,47,0.26032
2769430,-0.01500,78.8125,95,47,0.26007
2769440,-0.02000,76.6250,95,47,0.26374
2769450,-0.02000,74.4375,95,47,0.27228
2769460,-0.02500,70.5625,95,47,0.29866
2769470,-0.01500,69.0625,95,47,0.31941
2769480,0.00500,67.8750,95,47,0.34505
2769490,0.03500,66.8750,95,47,0.37485
2769500,0.05000,65.4375,95,47,0.44322
2769510,0.08000,64.9375,95,47,0.48010
2769520,0.10500,64.5625,95,47,0.51722
2769530,0.10500,64.2500,95,47,0.55409
2769540,0.08500,63.8750,95,47,0.62344
2769550,0.04000,63.6875,95,47,0.65079
2769560,-0.02500,63.5625,95,47,0.67375
2769570,-0.07500,63.2500,95,47,0.69719
2769580,-0.11500,63.1250,95,47,0.73822
2769590,-0.13500,62.9375,95,47,0.75458
2769600,-0.14500,62.6875,95,47,0.76801
2769610,-0.14500,62.5000,95,47,0.77827
2769620,-0.15000,62.0000,95,47,0.79023
2769630,-0.14500,61.7500,95,47,0.79219
2769640,-0.14500,61.5000,95,47,0.79194
2769650,-0.16000,61.2500,95,47,0.78926
2769660,-0.17000,60.7500,95,47,0.77802
2769670,0.00500,60.5000,95,47,0.77021
2769680,0.54000,60.2500,95,47,0.76117
2769690,1.01500,59.9375,95,47,0.75092
2769700,0.70000,59.3125,95,47,0.72698
2769710,-0.05500,59.0000,95,47,0.71306
2769720,-0.44500,58.6875,95,47,0.69817
2769730,-0.43000,57.8750,95,47,0.68230
2769740,-0.26500,57.4375,95,47,0.64908
2769750,-0.22500,57.0000,95,47,0.63394
2769760,-0.22000,56.5000,95,47,0.61978
2769770,-0.22000,56.0000,95,47,0.60464
2769780,-0.21500,55.0625,95,47,0.57460
2769790,-0.20000,54.5625,95,47,0.56044
2769800,-0.19000,54.0625,95,47,0.54676
2769810,-0.18000,53.6250,95,47,0.53382
2769820,-0.17000,52.6875,95,47,0.50989
2769830,-0.16000,52.3125,95,47,0.49890
2769840,-0.14500,52.1875,95,47,0.48816
2769850,-0.13500,53.8750,95,47,0.47790
2769860,-0.12500,56.5625,95,47,0.46203
2769870,-0.11500,60.8125,95,47,0.45397
2769880,-0.10000,66.1875,95,47,0.44542
2769890,-0.08500,72.1250,95,47,0.43736
2769900,-0.07000,84.2500,95,47,0.42198
2769910,-0.05500,89.9375,95,47,0.41465
2769920,-0.03500,95.0000,95,47,0.40733
2769930,-0.01000,99.4375,95,47,0.40024
2769940,0.00000,106.1250,95,47,0.38608
2769950,0.01000,108.3750,95,47,0.38046
2769960,0.02000,109.8750,95,47,0.37582
2769970,0.03000,110.7500,95,47,0.36996
2769980,0.04500,110.6875,95,47,0.35726
2769990,0.06500,109.9375,95,47,0.35092
2770000,0.09000,108.6875,97,48,0.34457
2770010,0.10500,107.0625,97,48,0.33822
2770020,0.11500,103.1250,97,48,0.32625
2770030,0.11000,100.9375,97,48,0.32015
2770040,0.09000,98.6875,97,48,0.31380
2770050,0.07000,96.4375,97,48,0.30720
2770060,0.04000,92.0625,97,48,0.29768
2770070,0.02000,89.9375,97,48,0.29158
2770080,0.00500,87.8750,97,48,0.28474
2770090,-0.00500,85.8750,97,48,0.27766
2770100,-0.01500,81.8125,97,48,0.26471
2770110,-0.02000,79.6875,97,48,0.26032
2770120,-0.02000,77.5000,97,48,0.25910
2770130,-0.02500,75.2500,97,48,0.26203
2770140,-0.02000,71.1250,97,48,0.28230
2770150,0.00000,69.4375,97,48,0.29768
2770160,0.03000,68.0625,97,48,0.31600
2770170,0.05000,66.8750,97,48,0.33993
2770180,0.07000,65.1875,97,48,0.40073
2770190,0.10500,64.6250,97,48,0.43541
2770200,0.11000,64.2500,97,48,0.47204
2770210,0.09000,63.9375,97,48,0.50940
2770220,0.04000,63.5000,97,48,0.58315
2770230,-0.01500,63.3750,97,48,0.61758
2770240,-0.07500,63.2500,97,48,0.64933
2770250,-0.11500,63.1875,97,48,0.67790
2770260,-0.14000,62.8750,97,48,0.71746
2770270,-0.14500,62.6875,97,48,0.73455
2770280,-0.15500,62.5000,97,48,0.74969
2770290,-0.15500,62.3125,97,48,0.76190
2770300,-0.15500,61.8750,97,48,0.77827
2770310,-0.14500,61.6875,97,48,0.78242
2770320,-0.14500,61.4375,97,48,0.78388
2770330,-0.16500,61.2500,97,48,0.78315
2770340,-0.09500,60.7500,97,48,0.76459
2770350,0.25000,60.5000,97,48,0.74237
2770360,0.79500,60.1875,97,48,0.72747
2770370,0.86500,59.8750,97,48,0.71526
2770380,0.26000,59.1250,97,48,0.69158
2770390,-0.27500,58.6875,97,48,0.67888
2770400,-0.42000,58.3125,97,48,0.66520
2770410,-0.32500,57.8125,97,48,0.65104
2770420,-0.22000,56.8750,97,48,0.62076
2770430,-0.20000,56.3125,97,48,0.60513
2770440,-0.20000,55.8125,97,48,0.58974
2770450,-0.19000,55.3125,97,48,0.57607
2770460,-0.19000,54.2500,97,48,0.55067
2770470,-0.18000,53.7500,97,48,0.53773
2770480,-0.18000,53.2500,97,48,0.52503
2770490,-0.17500,52.7500,97,48,0.51306
2770500,-0.16000,51.8750,97,48,0.49109
2770510,-0.14500,51.5000,97,48,0.48107
2770520,-0.12500,51.4375,97,48,0.47155
2770530,-0.11000,51.8750,97,48,0.46252
2770540,-0.09500,56.1875,97,48,0.44567
2770550,-0.08000,60.4375,97,48,0.43858
2770560,-0.07000,65.5625,97,48,0.43248
2770570,-0.06000,71.1250,97,48,0.42564
2770580,-0.05500,82.1875,97,48,0.41172
2770590,-0.04000,87.2500,97,48,0.40513
2770600,-0.02500,91.8125,97,48,0.39878
2770610,0.00000,95.6875,97,48,0.39267
2770620,0.02000,101.5000,97,48,0.38071
2770630,0.04000,103.3750,97,48,0.37485
2770640,0.06000,104.5625,97,48,0.36899
2770650,0.07500,105.0000,97,48,0.36435
2770660,0.10000,104.1875,97,48,0.35531
2770670,0.12000,103.0625,97,48,0.34969
2770680,0.13000,101.5000,97,48,0.34383
2770690,0.13500,99.6875,97,48,0.33797
2770700,0.12500,95.4375,97,48,0.32625
2770710,0.10000,93.1875,97,48,0.32015
2770720,0.06500,90.9375,97,48,0.31404
2770730,0.04000,88.7500,97,48,0.30794
2770740,0.01500,84.4375,97,48,0.29524
2770750,0.00000,82.4375,97,48,0.29011
2770760,-0.01500,80.3750,97,48,0.28547
2770770,-0.02500,78.3125,97,48,0.27985
2770780,-0.03000,74.1250,97,48,0.26862
2770790,-0.03500,71.9375,97,48,0.26447
2770800,-0.03500,69.7500,97,48,0.26300
2770810,-0.01500,66.1250,97,48,0.27082
2770820,0.01000,64.7500,97,48,0.28156
2770830,0.03000,63.6250,97,48,0.29695
2770840,0.06000,62.8125,97,48,0.31648
2770850,0.10000,62.1250,97,48,0.33651
2770860,0.12000,61.2500,97,48,0.38339
2770870,0.11500,61.0000,97,48,0.41172
2770880,0.07000,60.8125,97,48,0.44176
2770890,0.00500,60.7500,97,48,0.47228
2770900,-0.05500,60.6250,97,48,0.53211
2770910,-0.10000,60.5625,97,48,0.55995
2770920,-0.12000,60.5625,97,48,0.58559
2770930,-0.12500,60.5000,97,48,0.60855
2770940,-0.12500,60.3125,97,48,0.64591
2770950,-0.12500,60.1875,97,48,0.65812
2770960,-0.12500,60.0625,97,48,0.66691
2770970,-0.11500,59.9375,97,48,0.67497
2770980,-0.11500,59.6250,97,48,0.68474
2770990,-0.14000,59.4375,97,48,0.68620
2771000,-0.06500,59.2500,98,48,0.68547
2771010,0.27500,59.0625,98,48,0.68303
2771020,0.79500,58.6250,98,48,0.67326
2771030,0.84500,58.3125,98,48,0.66618
2771040,0.28500,58.0000,98,48,0.65763
2771050,-0.19000,57.6250,98,48,0.64860
2771060,-0.34000,56.8750,98,48,0.62784
2771070,-0.26000,56.4375,98,48,0.61563
2771080,-0.14000,55.9375,98,48,0.60244
2771090,-0.10000,55.5000,98,48,0.58852
2771100,-0.11500,54.5625,98,48,0.55922
2771110,-0.12500,54.0625,98,48,0.54457
2771120,-0.13500,53.5625,98,48,0.53016
2771130,-0.15500,53.0625,98,48,0.51624
2771140,-0.17000,52.1250,98,48,0.49084
2771150,-0.18000,51.6875,98,48,0.48059
2771160,-0.18000,51.2500,98,48,0.47155
2771170,-0.18000,50.8750,98,48,0.46203
2771180,-0.17500,50.6875,98,48,0.44371
2771190,-0.17000,51.3750,98,48,0.43516
2771200,-0.16000,53.1875,98,48,0.42711
2771210,-0.15500,56.3750,98,48,0.41954
2771220,-0.14000,65.7500,98,48,0.40586
2771230,-0.12000,71.1250,98,48,0.39976
2771240,-0.10000,76.5000,98,48,0.39365
2771250,-0.07500,81.6250,98,48,0.38901
2771260,-0.05000,90.6250,98,48,0.38046
2771270,-0.02500,94.2500,98,48,0.37534
2771280,-0.00500,97.2500,98,48,0.37021
2771290,0.01000,99.5000,98,48,0.36484
2771300,0.02500,101.9375,98,48,0.35433
2771310,0.04500,102.1250,98,48,0.34921
2771320,0.07000,101.6875,98,48,0.34408
2771330,0.10000,100.7500,98,48,0.33919
2771340,0.12500,97.5625,98,48,0.32918
2771350,0.13500,95.6250,98,48,0.32527
2771360,0.11500,93.4375,98,48,0.32186
2771370,0.08000,89.0000,98,48,0.31258
2771380,0.05500,86.8125,98,48,0.30720
2771390,0.02000,84.6250,98,48,0.30159
2771400,-0.00500,82.5625,98,48,0.29573
2771410,-0.02500,80.5000,98,48,0.28962
2771420,-0.03000,76.5000,98,48,0.27717
2771430,-0.02500,74.5000,98,48,0.27106
2771440,-0.02500,72.4375,98,48,0.26569
2771450,-0.01500,70.3750,98,48,0.26252
2771460,-0.02500,66.3125,98,48,0.26129
2771470,-0.02500,64.6875,98,48,0.26398
2771480,-0.02500,63.3125,98,48,0.27033
2771490,-0.00500,62.2500,98,48,0.28132
2771500,0.01000,60.8125,98,48,0.31624
2771510,0.04500,60.3750,98,48,0.33919
2771520,0.08500,60.0000,98,48,0.36508
2771530,0.11500,59.7500,98,48,0.39341
2771540,0.11000,59.4375,98,48,0.45324
2771550,0.07500,59.3750,98,48,0.47985
2771560,0.01000,59.3750,98,48,0.50379
2771570,-0.04500,59.3125,98,48,0.52967
2771580,-0.09000,59.2500,98,48,0.57949
2771590,-0.10500,59.1875,98,48,0.60147
2771600,-0.11000,59.0625,98,48,0.62076
2771610,-0.11500,58.9375,98,48,0.63736
2771620,-0.11500,58.6250,98,48,0.66178
2771630,-0.11500,58.4375,98,48,0.66984
2771640,-0.11500,58.3125,98,48,0.67521
2771650,-0.10500,58.1250,98,48,0.67741
2771660,-0.12000,57.8125,98,48,0.67595
2771670,-0.04000,57.5625,98,48,0.67326
2771680,0.32500,57.3750,98,48,0.66911
2771690,0.85500,57.1250,98,48,0.66325
2771700,0.86500,56.5625,98,48,0.64689
2771710,0.30500,56.2500,98,48,0.63663
2771720,-0.18000,55.9375,98,48,0.62515
2771730,-0.36500,55.5625,98,48,0.61270
2771740,-0.30000,54.6875,98,48,0.58510
2771750,-0.19000,54.2500,98,48,0.57216
2771760,-0.16500,53.8125,98,48,0.55971
2771770,-0.16500,53.3750,98,48,0.54628
2771780,-0.16500,52.4375,98,48,0.51868
2771790,-0.16000,52.0000,98,48,0.50574
2771800,-0.16000,51.5625,98,48,0.49328
2771810,-0.16000,51.1250,98,48,0.48132
2771820,-0.16000,50.2500,98,48,0.45983
2771830,-0.14500,49.8750,98,48,0.45006
2771840,-0.13500,49.6250,98,48,0.44103
2771850,-0.12500,49.5625,98,48,0.43370
2771860,-0.12000,51.5625,98,48,0.42076
2771870,-0.11000,54.3750,98,48,0.41392
2771880,-0.09500,58.5625,98,48,0.40708
2771890,-0.08000,63.6875,98,48,0.40024
2771900,-0.07500,74.8125,98,48,0.38779
2771910,-0.06000,80.2500,98,48,0.38217
2771920,-0.04500,85.3750,98,48,0.37656
2771930,-0.02500,90.0625,98,48,0.37143
2771940,-0.00500,97.5625,98,48,0.36142
2771950,0.01500,100.2500,98,48,0.35775
2771960,0.03500,102.2500,98,48,0.35482
2771970,0.05000,103.5000,98,48,0.35092
2771980,0.07500,104.0000,98,48,0.34212
2771990,0.10000,103.3750,98,48,0.33748
2772000,0.12000,102.2500,100,49,0.33309
2772010,0.13500,100.6875,100,49,0.32845
2772020,0.13500,96.9375,100,49,0.31819
2772030,0.12000,94.8750,100,49,0.31282
2772040,0.09000,92.6875,100,49,0.30720
2772050,0.05500,90.5000,100,49,0.30281
2772060,0.02500,86.2500,100,49,0.29499
2772070,0.00000,84.1875,100,49,0.29011
2772080,-0.01000,82.2500,100,49,0.28474
2772090,-0.02000,80.3750,100,49,0.27912
2772100,-0.02500,76.5625,100,49,0.26813
2772110,-0.03500,74.5625,100,49,0.26349
2772120,-0.03500,72.5000,100,49,0.26032
2772130,-0.03500,70.3750,100,49,0.25958
2772140,-0.03500,66.3750,100,49,0.26838
2772150,-0.03500,64.8125,100,49,0.27741
2772160,-0.03500,63.6250,100,49,0.29133
2772170,-0.02500,62.6875,100,49,0.30965
2772180,-0.01500,61.3750,100,49,0.35824
2772190,0.01000,61.0000,100,49,0.38730
2772200,0.05000,60.6875,100,49,0.41832
2772210,0.05500,60.4375,100,49,0.45031
2772220,0.03000,60.1250,100,49,0.51453
2772230,-0.02000,60.0000,100,49,0.54554
2772240,-0.08500,59.9375,100,49,0.57509
2772250,-0.13500,59.8125,100,49,0.59902
2772260,-0.16000,59.5625,100,49,0.63956
2772270,-0.18000,59.4375,100,49,0.65836
2772280,-0.18000,59.2500,100,49,0.67497
2772290,-0.18000,59.0625,100,49,0.68913
2772300,-0.17500,58.7500,100,49,0.70891
2772310,-0.17500,58.5000,100,49,0.71477
2772320,-0.17000,58.3125,100,49,0.71795
2772330,-0.17000,58.1250,100,49,0.71893
2772340,-0.18000,57.7500,100,49,0.71477
2772350,0.00000,57.5625,100,49,0.71013
2772360,0.48500,57.3125,100,49,0.70452
2772370,0.87500,57.0625,100,49,0.69768
2772380,0.62000,56.5000,100,49,0.67961
2772390,-0.00500,56.1250,100,49,0.67375
2772400,-0.36500,55.7500,100,49,0.66886
2772410,-0.42500,55.3750,100,49,0.65861
2772420,-0.32500,54.5000,100,49,0.62979
2772430,-0.25000,54.0000,100,49,0.61368
2772440,-0.24000,53.5625,100,49,0.59756
2772450,-0.24000,53.1250,100,49,0.58339
2772460,-0.23500,52.1875,100,49,0.55629
2772470,-0.23000,51.7500,100,49,0.54261
2772480,-0.22500,51.2500,100,49,0.52943
2772490,-0.22500,50.7500,100,49,0.51673
2772500,-0.21500,50.0000,100,49,0.49353
2772510,-0.20500,49.7500,100,49,0.48327
2772520,-0.19000,49.6875,100,49,0.47350
2772530,-0.17500,50.1875,100,49,0.46398
2772540,-0.15500,54.4375,100,49,0.44737
2772550,-0.14000,58.6250,100,49,0.44078
2772560,-0.11500,63.8750,100,49,0.43321
2772570,-0.10000,69.5625,100,49,0.42564
2772580,-0.08000,80.9375,100,49,0.41148
2772590,-0.06500,86.2500,100,49,0.40464
2772600,-0.04500,91.0000,100,49,0.39805
2772610,-0.03000,95.1875,100,49,0.39170
2772620,-0.01500,101.5625,100,49,0.37973
2772630,-0.00500,103.6875,100,49,0.37387
2772640,0.01000,105.0000,100,49,0.36801
2772650,0.01500,105.6875,100,49,0.36361
2772660,0.03000,105.1875,100,49,0.35507
2772670,0.05000,104.1875,100,49,0.34969
2772680,0.07500,102.7500,100,49,0.34408
2772690,0.09000,101.0625,100,49,0.33822
2772700,0.09000,97.1875,100,49,0.32576
2772710,0.06500,95.0625,100,49,0.31941
2772720,0.03000,92.9375,100,49,0.31331
2772730,-0.00500,90.8125,100,49,0.30720
2772740,-0.03000,86.7500,100,49,0.29597
2772750,-0.05000,84.8125,100,49,0.29182
2772760,-0.06000,82.9375,100,49,0.28620
2772770,-0.06500,81.1250,100,49,0.28010
2772780,-0.06500,77.4375,100,49,0.26862
2772790,-0.06500,75.4375,100,49,0.26471
2772800,-0.06500,73.3125,100,49,0.26325
2772810,-0.06500,71.1875,100,49,0.26520
2772820,-0.06500,67.2500,100,49,0.28278
2772830,-0.04500,65.7500,100,49,0.29939
2772840,-0.01500,64.5000,100,49,0.32088
2772850,0.00000,63.5000,100,49,0.34310
2772860,0.03500,62.1875,100,49,0.39560
2772870,0.06500,61.7500,100,49,0.42784
2772880,0.08000,61.3750,100,49,0.46203
2772890,0.05500,61.1250,100,49,0.49719
2772900,-0.00500,60.7500,100,49,0.56654
2772910,-0.05000,60.5625,100,49,0.59927
2772920,-0.09500,60.4375,100,49,0.63004
2772930,-0.12500,60.3125,100,49,0.65812
2772940,-0.13500,60.0000,100,49,0.70232
2772950,-0.14000,59.8750,100,49,0.71673
2772960,-0.13500,59.6875,100,49,0.73089
2772970,-0.13500,59.5000,100,49,0.74310
2772980,-0.13000,59.0625,100,49,0.76020
2772990,-0.12000,58.8125,100,49,0.76484
2773000,-0.11500,58.5625,101,50,0.76703
2773010,-0.12500,58.3750,101,50,0.76703
2773020,0.01000,57.9375,101,50,0.76117
2773030,0.46500,57.6250,101,50,0.75531
2773040,0.93000,57.3750,101,50,0.74774
2773050,0.74500,57.0625,101,50,0.73919
2773060,0.11500,56.3750,101,50,0.71893
2773070,-0.30000,56.0000,101,50,0.70672
2773080,-0.40500,55.5625,101,50,0.69304
2773090,-0.31500,55.1250,101,50,0.67863
2773100,-0.23000,54.1875,101,50,0.64737
2773110,-0.22000,53.7500,101,50,0.63101
2773120,-0.21000,53.3125,101,50,0.61465
2773130,-0.21000,52.8125,101,50,0.59853
2773140,-0.20000,51.8750,101,50,0.56972
2773150,-0.20000,51.4375,101,50,0.55751
2773160,-0.19000,51.0000,101,50,0.54457
2773170,-0.18500,50.5625,101,50,0.53187
2773180,-0.17000,49.8750,101,50,0.50769
2773190,-0.16000,49.8125,101,50,0.49670
2773200,-0.15000,50.3750,101,50,0.48620
2773210,-0.14000,51.8750,101,50,0.47619
2773220,-0.12500,59.2500,101,50,0.45763
2773230,-0.10500,64.5625,101,50,0.44884
2773240,-0.09000,70.2500,101,50,0.44054
2773250,-0.07000,76.0625,101,50,0.43370
2773260,-0.05500,87.0625,101,50,0.42076
2773270,-0.04000,91.8750,101,50,0.41392
2773280,-0.02500,96.0625,101,50,0.40708
2773290,-0.01500,99.5625,101,50,0.40049
2773300,-0.01000,104.3750,101,50,0.38779
2773310,-0.00500,105.5625,101,50,0.38169
2773320,-0.00500,106.1250,101,50,0.37558
2773330,0.00500,105.3750,101,50,0.36947
2773340,0.02000,104.3125,101,50,0.35873
2773350,0.03000,102.8750,101,50,0.35458
2773360,0.05000,101.1875,101,50,0.34921
2773370,0.05000,99.3125,101,50,0.34335
2773380,0.04000,95.2500,101,50,0.33065
2773390,0.02000,93.1875,101,50,0.32454
2773400,-0.01500,91.0625,101,50,0.31819
2773410,-0.04500,89.0625,101,50,0.31184
2773420,-0.06000,85.2500,101,50,0.29841
2773430,-0.07500,83.3750,101,50,0.29133
2773440,-0.08000,81.5625,101,50,0.28425
2773450,-0.08500,79.7500,101,50,0.27888
2773460,-0.08500,75.8750,101,50,0.27204
2773470,-0.08500,73.8750,101,50,0.27057
2773480,-0.08500,71.8125,101,50,0.27253
2773490,-0.08500,69.8750,101,50,0.27863
2773500,-0.08000,66.8125,101,50,0.30549
2773510,-0.06000,65.6250,101,50,0.32650
2773520,-0.04500,64.6875,101,50,0.35165
2773530,-0.01500,63.9375,101,50,0.38046
2773540,0.02000,62.8125,101,50,0.44127
2773550,0.04000,62.3750,101,50,0.46935
2773560,0.03000,62.0625,101,50,0.50134
2773570,-0.01500,61.8750,101,50,0.53504
2773580,-0.07500,61.5000,101,50,0.60098
2773590,-0.13000,61.3125,101,50,0.63126
2773600,-0.17000,61.1250,101,50,0.65910
2773610,-0.19000,60.9375,101,50,0.68400
2773620,-0.19500,60.5000,101,50,0.72479
2773630,-0.20000,60.2500,101,50,0.74042
2773640,-0.19500,60.0625,101,50,0.75287
2773650,-0.19000,59.8125,101,50,0.76093
2773660,-0.17500,59.3750,101,50,0.76923
2773670,-0.17000,59.1875,101,50,0.77118
2773680,-0.18000,58.9375,101,50,0.77118
2773690,-0.05500,58.6875,101,50,0.76923
2773700,0.37000,58.1250,101,50,0.75995
2773710,0.89000,57.8125,101,50,0.75287
2773720,0.82500,57.4375,101,50,0.74432
2773730,0.14500,57.1250,101,50,0.73455
2773740,-0.34000,56.3750,101,50,0.71233
2773750,-0.43500,55.9375,101,50,0.70061
2773760,-0.33500,55.5625,101,50,0.68742
2773770,-0.24500,55.1250,101,50,0.67326
2773780,-0.23000,54.2500,101,50,0.64347
2773790,-0.24000,53.8125,101,50,0.62808
2773800,-0.25000,53.3750,101,50,0.61294
2773810,-0.26000,52.9375,101,50,0.59805
2773820,-0.28000,52.0625,101,50,0.56972
2773830,-0.30000,51.6250,101,50,0.55653
2773840,-0.29500,51.1875,101,50,0.54408
2773850,-0.27000,50.8125,101,50,0.53333
2773860,-0.24000,50.6875,101,50,0.51404
2773870,-0.20500,51.5000,101,50,0.50427
2773880,-0.17500,53.5625,101,50,0.49475
2773890,-0.14500,61.8750,101,50,0.48547
2773900,-0.11500,67.5625,101,50,0.46764
2773910,-0.09500,73.5625,101,50,0.45885
2773920,-0.06500,79.5000,101,50,0.45055
2773930,-0.04500,85.2500,101,50,0.44274
2773940,-0.02500,95.1875,101,50,0.42882
2773950,0.00000,99.1875,101,50,0.42344
2773960,0.03000,102.4375,101,50,0.41758
2773970,0.05500,104.9375,101,50,0.41123
2773980,0.08000,107.5625,101,50,0.39853
2773990,0.10000,107.8125,101,50,0.39219
2774000,0.11500,107.5000,101,50,0.38559
2774010,0.13500,106.7500,101,50,0.37924
2774020,0.15500,104.1250,101,50,0.36606
2774030,0.16500,102.3750,101,50,0.35946
2774040,0.16500,100.5000,101,50,0.35458
2774050,0.14500,98.5000,101,50,0.35018
2774060,0.11000,94.3750,101,50,0.33846
2774070,0.07500,92.3750,101,50,0.33211
2774080,0.04500,90.3750,101,50,0.32552
2774090,0.02000,88.5000,101,50,0.31893
2774100,0.00000,84.8750,101,50,0.30549
2774110,-0.01000,83.1250,101,50,0.29866
2774120,-0.01500,81.3125,101,50,0.29231
2774130,-0.02500,77.5000,101,50,0.28694
2774140,-0.02500,75.4375,101,50,0.28327
2774150,-0.02500,73.2500,101,50,0.28645
2774160,-0.03000,71.1875,101,50,0.29353
2774170,-0.03000,69.2500,101,50,0.30525
2774180,-0.00500,66.3750,101,50,0.34359
2774190,0.02000,65.3750,101,50,0.36996
2774200,0.04500,64.5625,101,50,0.39976
2774210,0.06000,63.9375,101,50,0.43248
2774220,0.09500,63.1250,101,50,0.50305
2774230,0.10500,62.8750,101,50,0.53895
2774240,0.08000,62.7500,101,50,0.56947
2774250,0.04000,62.5625,101,50,0.59683
2774260,-0.00500,62.3750,101,50,0.65495
2774270,-0.06500,62.2500,101,50,0.68230
2774280,-0.11500,62.1250,101,50,0.70696
2774290,-0.13500,61.9375,101,50,0.72869
2774300,-0.14500,61.5000,101,50,0.76313
2774310,-0.15500,61.3125,101,50,0.77558
2774320,-0.15500,61.0625,101,50,0.78510
2774330,-0.15500,60.8125,101,50,0.79170
2774340,-0.15000,60.3125,101,50,0.79634
2774350,-0.15500,60.0000,101,50,0.79463
2774360,-0.17500,59.7500,101,50,0.79219
2774370,-0.09000,59.4375,101,50,0.78828
2774380,0.30500,58.8125,101,50,0.77631
2774390,0.89000,58.5000,101,50,0.76825
2774400,0.93000,58.1875,101,50,0.75873
2774410,0.25500,57.8125,101,50,0.74799
2774420,-0.32000,57.0625,101,50,0.72259
2774430,-0.44000,56.6875,101,50,0.70842
2774440,-0.32500,56.2500,101,50,0.68425
2774450,-0.23000,55.8125,101,50,0.65543
2774460,-0.21000,54.9375,101,50,0.61465
2774470,-0.21500,54.5000,101,50,0.59805
2774480,-0.21000,54.0625,101,50,0.58266
2774490,-0.20000,53.5625,101,50,0.56825
2774500,-0.18500,52.6250,101,50,0.54261
2774510,-0.18000,52.1875,101,50,0.53114
2774520,-0.17000,51.7500,101,50,0.52015
2774530,-0.16500,51.4375,101,50,0.50989
2774540,-0.15500,51.1875,101,50,0.49182
2774550,-0.14000,51.8750,101,50,0.48425
2774560,-0.12500,53.6875,101,50,0.47619
2774570,-0.11500,57.1250,101,50,0.46813
2774580,-0.10500,67.8125,101,50,0.45226
2774590,-0.09500,74.0625,101,50,0.44469
2774600,-0.08000,80.3125,101,50,0.43736
2774610,-0.06500,86.2500,101,50,0.43004
2774620,-0.04500,96.5625,101,50,0.41563
2774630,-0.03500,100.6875,101,50,0.40879
2774640,-0.02000,104.0000,101,50,0.40317
2774650,-0.00500,106.4375,101,50,0.39829
2774660,0.00500,108.8750,101,50,0.38681
2774670,0.01000,109.0625,101,50,0.38095
2774680,0.02000,108.6875,101,50,0.37509
2774690,0.03000,107.8125,101,50,0.36923
2774700,0.05000,104.9375,101,50,0.35775
2774710,0.07000,103.1875,101,50,0.35165
2774720,0.09000,101.2500,101,50,0.34554
2774730,0.09000,99.1875,101,50,0.33919
2774740,0.08000,95.0625,101,50,0.32796
2774750,0.06000,93.0000,101,50,0.32357
2774760,0.04000,91.0000,101,50,0.31844
2774770,0.02000,89.0625,101,50,0.31282
2774780,0.00000,85.3750,101,50,0.30061
2774790,0.00000,83.5625,101,50,0.29426
2774800,0.00000,81.6875,101,50,0.28816
2774810,0.01000,79.7500,101,50,0.28303
2774820,0.01500,75.5625,101,50,0.27863
2774830,0.02000,73.4375,101,50,0.28132
2774840,0.04000,71.4375,101,50,0.28694
2774850,0.06500,69.6875,101,50,0.29621
2774860,0.10500,67.0000,101,50,0.32918
2774870,0.14000,66.0000,101,50,0.35238
2774880,0.17500,65.2500,101,50,0.37924
2774890,0.21500,64.6875,101,50,0.40879
2774900,0.23500,64.0625,101,50,0.47424
2774910,0.23000,63.9375,101,50,0.50818
2774920,0.19500,63.8750,101,50,0.54164
2774930,0.14500,63.8125,101,50,0.57387
2774940,0.09000,63.7500,101,50,0.62882
2774950,0.04500,63.6875,101,50,0.64908
2774960,0.02000,63.6250,101,50,0.66984
2774970,0.01000,63.5000,101,50,0.68913
2774980,0.00000,63.2500,101,50,0.72112
2774990,0.00000,63.0625,101,50,0.73284
2775000,0.00500,62.8750,102,50,0.74188
2775010,0.00500,62.6250,102,50,0.74847
2775020,0.00000,62.2500,102,50,0.75458
2775030,-0.02500,62.0000,102,50,0.75433
2775040,0.00000,61.8125,102,50,0.75189
2775050,0.30500,61.5625,102,50,0.74750
2775060,0.87000,61.1250,102,50,0.73578
2775070,1.01000,60.8125,102,50,0.72821
2775080,0.45000,60.5625,102,50,0.71941
2775090,-0.15500,60.3125,102,50,0.70940
2775100,-0.37500,59.6250,102,50,0.68596
2775110,-0.30500,59.2500,102,50,0.67277
2775120,-0.22000,58.8125,102,50,0.65910
2775130,-0.22500,58.3750,102,50,0.64469
2775140,-0.24000,57.4375,102,50,0.61685
2775150,-0.25000,57.0000,102,50,0.60440
2775160,-0.26000,56.5625,102,50,0.59121
2775170,-0.27000,56.1250,102,50,0.57802
2775180,-0.27000,55.1875,102,50,0.55287
2775190,-0.28000,54.8125,102,50,0.54139
2775200,-0.29000,54.3750,102,50,0.53040
2775210,-0.29000,54.0625,102,50,0.52015
2775220,-0.29000,54.3125,102,50,0.50134
2775230,-0.28000,55.6875,102,50,0.49231
2775240,-0.28000,58.4375,102,50,0.48474
2775250,-0.28000,62.6875,102,50,0.47790
2775260,-0.27000,73.5625,102,50,0.46349
2775270,-0.24500,79.3750,102,50,0.45665
2775280,-0.21500,85.0000,102,50,0.45006
2775290,-0.19000,90.1875,102,50,0.44371
2775300,-0.17000,98.5625,102,50,0.43101
2775310,-0.18000,101.6875,102,50,0.42491
2775320,-0.20000,104.0000,102,50,0.41929
2775330,-0.24500,105.5625,102,50,0.41392
2775340,-0.27500,106.3750,102,50,0.40415
2775350,-0.28000,105.8750,102,50,0.40024
2775360,-0.25500,104.8750,102,50,0.39585
2775370,-0.21000,103.5625,102,50,0.39121
2775380,-0.14500,100.0625,102,50,0.38144
2775390,-0.09000,98.0625,102,50,0.37631
2775400,-0.06000,96.0000,102,50,0.37118
2775410,-0.05500,94.0000,102,50,0.36581
2775420,-0.05000,89.8750,102,50,0.35507
2775430,-0.04000,87.9375,102,50,0.34969
2775440,-0.02500,86.0000,102,50,0.34530
2775450,-0.00500,84.1250,102,50,0.34139
2775460,0.00500,80.5000,102,50,0.33065
2775470,0.01000,78.5625,102,50,0.32503
2775480,0.03000,76.6250,102,50,0.31966
2775490,0.05500,74.5625,102,50,0.31551
2775500,0.08000,70.7500,102,50,0.31355
2775510,0.12000,69.0625,102,50,0.31746
2775520,0.15500,67.6875,102,50,0.32552
2775530,0.19500,66.5625,102,50,0.33797
2775540,0.23500,64.9375,102,50,0.37241
2775550,0.26500,64.3750,102,50,0.39170
2775560,0.26000,63.9375,102,50,0.41587
2775570,0.21500,63.6250,102,50,0.44322
2775580,0.14000,63.3750,102,50,0.50281
2775590,0.07000,63.2500,102,50,0.53309
2775600,0.01500,63.1875,102,50,0.56215
2775610,-0.01500,63.1250,102,50,0.58950
2775620,-0.03500,62.9375,102,50,0.63736
2775630,-0.05500,62.8125,102,50,0.65739
2775640,-0.07500,62.6250,102,50,0.67228
2775650,-0.08000,62.4375,102,50,0.68327
2775660,-0.07500,62.0000,102,50,0.70305
2775670,-0.08500,61.8125,102,50,0.71013
2775680,-0.10500,61.5625,102,50,0.71502
2775690,-0.08500,61.3125,102,50,0.71795
2775700,0.17500,60.6250,102,50,0.71795
2775710,0.71000,60.3125,102,50,0.71526
2775720,0.91000,59.9375,102,50,0.71111
2775730,0.42000,59.5625,102,50,0.70525
2775740,-0.15000,58.7500,102,50,0.68987
2775750,-0.37000,58.2500,102,50,0.68083
2775760,-0.33000,57.7500,102,50,0.67033
2775770,-0.23500,57.2500,102,50,0.65885
2775780,-0.19000,56.2500,102,50,0.63370
2775790,-0.18000,55.7500,102,50,0.62027
2775800,-0.17000,55.2500,102,50,0.60659
2775810,-0.16500,54.7500,102,50,0.59292
2775820,-0.17000,53.8125,102,50,0.56581
2775830,-0.17500,53.2500,102,50,0.55311
2775840,-0.17000,52.8125,102,50,0.54212
2775850,-0.16000,52.3125,102,50,0.53211
2775860,-0.15000,51.6250,102,50,0.51136
2775870,-0.13500,51.6250,102,50,0.50134
2775880,-0.11500,52.1250,102,50,0.49206
2775890,-0.10500,53.5625,102,50,0.48327
2775900,-0.09500,60.3125,102,50,0.46667
2775910,-0.08500,65.3125,102,50,0.45910
2775920,-0.06500,70.6250,102,50,0.45153
2775930,-0.04000,76.0000,102,50,0.44420
2775940,-0.02500,86.1250,102,50,0.43272
2775950,-0.00500,90.4375,102,50,0.42686
2775960,0.01000,94.1250,102,50,0.42076
2775970,0.03000,97.0000,102,50,0.41465
2775980,0.04500,100.5000,102,50,0.40269
2775990,0.06000,101.0625,102,50,0.39683
2776000,0.08500,100.9375,102,50,0.39096
2776010,0.11000,100.3125,102,50,0.38510
2776020,0.13500,97.7500,102,50,0.37314
2776030,0.14500,96.0625,102,50,0.36703
2776040,0.14500,94.1250,102,50,0.36215
2776050,0.12000,90.0625,102,50,0.35214
2776060,0.09500,88.0000,102,50,0.34603
2776070,0.06500,85.9375,102,50,0.33944
2776080,0.04000,83.9375,102,50,0.33260
2776090,0.01000,80.0625,102,50,0.32576
2776100,-0.00500,78.1875,102,50,0.31209
2776110,-0.01500,76.3125,102,50,0.30525
2776120,-0.01500,74.3750,102,50,0.29841
2776130,-0.01500,72.3750,102,50,0.29182
2776140,-0.01500,68.1250,102,50,0.28400
2776150,-0.01000,66.0000,102,50,0.28181
2776160,-0.00500,64.0625,102,50,0.28156
2776170,-0.00500,62.5625,102,50,0.28449
2776180,0.01000,60.6875,102,50,0.30159
2776190,0.03000,60.0625,102,50,0.31648
2776200,0.06500,59.6875,102,50,0.33529
2776210,0.10000,59.4375,102,50,0.35751
2776220,0.10000,59.1875,102,50,0.40952
2776230,0.07000,59.1875,102,50,0.43761
2776240,0.02000,59.2500,102,50,0.46276
2776250,-0.04000,59.2500,102,50,0.48596
2776260,-0.09500,59.3125,102,50,0.53602
2776270,-0.12500,59.2500,102,50,0.55971
2776280,-0.13000,59.1875,102,50,0.58120
2776290,-0.13500,59.1250,102,50,0.60024
2776300,-0.13500,58.8125,102,50,0.62979
2776310,-0.14000,58.6250,102,50,0.64054
2776320,-0.13500,58.4375,102,50,0.64860
2776330,-0.13500,58.2500,102,50,0.65446
2776340,-0.16000,58.0000,102,50,0.65812
2776350,-0.10000,57.8125,102,50,0.65788
2776360,0.23000,57.5625,102,50,0.65641
2776370,0.75500,57.3750,102,50,0.65348
2776380,0.83500,56.8125,102,50,0.64225
2776390,0.30000,56.5000,102,50,0.63443
2776400,-0.20000,56.1250,102,50,0.62491
2776410,-0.38500,55.6875,102,50,0.61416
2776420,-0.33500,54.8125,102,50,0.58974
2776430,-0.24000,54.3750,102,50,0.57631
2776440,-0.19500,53.8750,102,50,0.56361
2776450,-0.19000,53.4375,102,50,0.55140
2776460,-0.18000,52.5000,102,50,0.52479
2776470,-0.19000,52.0000,102,50,0.51136
2776480,-0.18500,51.5625,102,50,0.49841
2776490,-0.17000,51.1250,102,50,0.48156
2776500,-0.16000,50.3125,102,50,0.44835
2776510,-0.15500,49.8750,102,50,0.43614
2776520,-0.14500,49.6250,102,50,0.42540
2776530,-0.13500,50.1875,102,50,0.41587
2776540,-0.12500,51.8125,102,50,0.40195
2776550,-0.10500,54.6875,102,50,0.39512
2776560,-0.09000,58.8750,102,50,0.38828
2776570,-0.08000,64.0000,102,50,0.38144
2776580,-0.06500,74.8750,102,50,0.36825
2776590,-0.04000,80.1875,102,50,0.36190
2776600,-0.01500,85.1875,102,50,0.35604
2776610,0.00000,89.5625,102,50,0.35043
2776620,0.02000,96.3750,102,50,0.33919
2776630,0.04000,98.6875,102,50,0.33382
2776640,0.06000,100.1875,102,50,0.32967
2776650,0.08000,100.9375,102,50,0.32601
2776660,0.09500,100.6250,102,50,0.31673
2776670,0.11000,99.6875,102,50,0.31160
2776680,0.12500,98.4375,102,50,0.30647
2776690,0.14000,96.8750,102,50,0.30110
2776700,0.14000,96.8750,102,50,0.30110
2776710,0.14000,96.8750,102,50,0.30110
2776720,0.05500,87.1250,102,50,0.27302
2776730,0.05000,87.1250,102,50,0.27302
2776740,0.02000,83.2500,102,50,0.26447
2776750,0.00000,81.3750,102,50,0.25934
2776760,-0.01500,79.5000,102,50,0.25348
2776770,-0.02500,77.6250,102,50,0.24713
2776780,-0.03000,73.8125,102,50,0.23419
2776790,-0.03500,71.8125,102,50,0.22857
2776800,-0.04500,69.6875,102,50,0.22418
2776810,-0.04500,67.5000,102,50,0.22198
2776820,-0.04000,63.8125,102,50,0.22808
2776830,-0.02500,62.5000,102,50,0.23761
2776840,0.00000,61.5625,102,50,0.24957
2776850,0.02500,60.8125,102,50,0.26447
2776860,0.05000,60.0000,102,50,0.30794
2776870,0.08500,59.7500,102,50,0.33504
2776880,0.09000,59.5625,102,50,0.36435
2776890,0.07000,59.4375,102,50,0.39487
2776900,0.02000,59.3750,102,50,0.45739
2776910,-0.03500,59.4375,102,50,0.48791
2776920,-0.09000,59.4375,102,50,0.51697
2776930,-0.11500,59.3750,102,50,0.54408
2776940,-0.11500,59.2500,102,50,0.58339
2776950,-0.11500,59.1875,102,50,0.60122
2776960,-0.12500,59.0625,102,50,0.61758
2776970,-0.13000,58.8750,102,50,0.63199
2776980,-0.12500,58.5625,102,50,0.65372
2776990,-0.11500,58.3750,102,50,0.66032
2777000,-0.13500,58.2500,103,50,0.66447
2777010,-0.10500,58.0000,103,50,0.66618
2777020,0.17500,57.5000,103,50,0.66325
2777030,0.71000,57.1875,103,50,0.65910
2777040,0.88000,56.9375,103,50,0.65348
2777050,0.43000,56.6250,103,50,0.64664
2777060,-0.12000,55.8750,103,50,0.62906
2777070,-0.36500,55.5000,103,50,0.61856
2777080,-0.34000,55.0625,103,50,0.60659
2777090,-0.24000,54.6250,103,50,0.59389
2777100,-0.20000,53.6875,103,50,0.56654
2777110,-0.19000,53.2500,103,50,0.55238
2777120,-0.18000,52.8125,103,50,0.53822
2777130,-0.17500,52.3750,103,50,0.52430
2777140,-0.18000,51.5000,103,50,0.50110
2777150,-0.18500,51.0625,103,50,0.48938
2777160,-0.18000,50.6250,103,50,0.47790
2777170,-0.16000,50.2500,103,50,0.46691
2777180,-0.15500,49.8750,103,50,0.44664
2777190,-0.15000,50.2500,103,50,0.43761
2777200,-0.14000,51.5000,103,50,0.42906
2777210,-0.13000,54.0000,103,50,0.42076
2777220,-0.12000,62.9375,103,50,0.40513
2777230,-0.10500,68.3750,103,50,0.39805
2777240,-0.08500,73.9375,103,50,0.39219
2777250,-0.07000,79.3125,103,50,0.38730
2777260,-0.05500,89.1250,103,50,0.37582
2777270,-0.03500,93.2500,103,50,0.36996
2777280,-0.01500,96.6250,103,50,0.36410
2777290,0.00000,99.2500,103,50,0.35824
2777300,0.01000,102.2500,103,50,0.34701
2777310,0.02500,102.6875,103,50,0.34139
2777320,0.04500,102.4375,103,50,0.33553
2777330,0.07000,101.7500,103,50,0.32967
2777340,0.09000,99.1250,103,50,0.32137
2777350,0.11500,97.5000,103,50,0.31673
2777360,0.12000,95.6250,103,50,0.31184
2777370,0.11000,93.6875,103,50,0.30647
2777380,0.08000,89.7500,103,50,0.29499
2777390,0.04500,87.7500,103,50,0.28889
2777400,0.01500,85.8125,103,50,0.28254
2777410,-0.00500,83.9375,103,50,0.27619
2777420,-0.02500,80.3750,103,50,0.26300
2777430,-0.03000,78.6250,103,50,0.25641
2777440,-0.03500,76.8125,103,50,0.25153
2777450,-0.03500,74.8750,103,50,0.24737
2777460,-0.04500,70.7500,103,50,0.23980
2777470,-0.04500,68.7500,103,50,0.23907
2777480,-0.03500,66.9375,103,50,0.24176
2777490,-0.00500,65.5000,103,50,0.24860
2777500,0.02000,63.3750,103,50,0.27546
2777510,0.04000,62.6875,103,50,0.29548
2777520,0.07500,62.1250,103,50,0.31917
2777530,0.10500,61.6875,103,50,0.34628
2777540,0.09000,61.0625,103,50,0.39707
2777550,0.05500,60.8750,103,50,0.42613
2777560,0.00000,60.7500,103,50,0.45714
2777570,-0.06000,60.6250,103,50,0.48864
2777580,-0.10500,60.4375,103,50,0.54799
2777590,-0.12500,60.3125,103,50,0.57485
2777600,-0.12500,60.1250,103,50,0.59902
2777610,-0.13500,60.0000,103,50,0.62027
2777620,-0.14000,59.6250,103,50,0.65446
2777630,-0.14500,59.4375,103,50,0.66520
2777640,-0.14500,59.3125,103,50,0.67277
2777650,-0.14500,59.1250,103,50,0.67937
2777660,-0.15500,58.8125,103,50,0.68742
2777670,-0.07500,58.5625,103,50,0.68864
2777680,0.29000,58.3750,103,50,0.68791
2777690,0.83000,58.0625,103,50,0.68547
2777700,0.83500,57.5000,103,50,0.67570
2777710,0.27500,57.1875,103,50,0.66862
2777720,-0.21500,56.8750,103,50,0.66007
2777730,-0.39500,56.5000,103,50,0.65006
2777740,-0.33500,55.6250,103,50,0.62930
2777750,-0.23000,55.1875,103,50,0.61734
2777760,-0.21000,54.6875,103,50,0.60440
2777770,-0.21000,53.7500,103,50,0.59096
2777780,-0.20500,53.3125,103,50,0.56337
2777790,-0.20000,52.8750,103,50,0.54969
2777800,-0.20500,52.4375,103,50,0.53651
2777810,-0.20500,52.0000,103,50,0.52381
2777820,-0.19500,51.3854,103,50,0.50611
2777830,-0.18000,50.8750,103,50,0.48962
2777840,-0.17000,50.7500,103,50,0.48059
2777850,-0.16000,51.0625,103,50,0.47131
2777860,-0.15500,54.7500,103,50,0.45275
2777870,-0.14000,58.6875,103,50,0.44396
2777880,-0.13000,63.7500,103,50,0.43541
2777890,-0.12000,69.2500,103,50,0.42686
2777900,-0.10500,80.4375,103,50,0.41099
2777910,-0.08000,85.7500,103,50,0.40342
2777920,-0.05500,90.6250,103,50,0.39585
2777930,-0.03500,94.8750,103,50,0.38877
2777940,-0.02000,101.3125,103,50,0.37802
2777950,-0.00500,103.3750,103,50,0.37241
2777960,0.01000,104.6875,103,50,0.36654
2777970,0.03000,105.3125,103,50,0.36044
2777980,0.05000,104.7500,103,50,0.34872
2777990,0.07500,103.8125,103,50,0.34286
2778000,0.09000,102.4375,104,51,0.33700
2778010,0.10500,100.8750,104,51,0.33089
2778020,0.11000,97.1250,104,51,0.31868
2778030,0.09500,95.0625,104,51,0.31380
2778040,0.06500,93.0625,104,51,0.30940
2778050,0.04000,91.0000,104,51,0.30403
2778060,0.02000,87.1250,104,51,0.29206
2778070,0.00000,85.2500,104,51,0.28571
2778080,-0.00500,83.4375,104,51,0.27912
2778090,-0.00500,81.5625,104,51,0.27253
2778100,-0.00500,77.6875,104,51,0.26032
2778110,-0.01000,75.6250,104,51,0.25543
2778120,-0.01000,73.4375,104,51,0.25250
2778130,-0.00500,71.2500,104,51,0.25201
2778140,0.00500,67.3125,104,51,0.26056
2778150,0.03000,65.8125,104,51,0.27057
2778160,0.05000,64.6250,104,51,0.28474
2778170,0.08000,63.7500,104,51,0.30354
2778180,0.11000,62.3750,104,51,0.35263
2778190,0.10000,61.9375,104,51,0.38193
2778200,0.08000,61.5625,104,51,0.41319
2778210,0.03500,61.2500,104,51,0.44567
2778220,-0.01500,61.1250,104,51,0.51013
2778230,-0.07000,61.0625,104,51,0.53700
2778240,-0.11000,61.0000,104,51,0.56020
2778250,-0.12500,60.9375,104,51,0.58437
2778260,-0.13500,60.6875,104,51,0.62979
2778270,-0.13500,60.5625,104,51,0.64908
2778280,-0.13500,60.4375,104,51,0.66545
2778290,-0.12500,60.3125,104,51,0.67912
2778300,-0.12500,60.0625,104,51,0.69744
2778310,-0.12500,59.8750,104,51,0.70256
2778320,-0.11500,59.6875,104,51,0.70549
2778330,0.09000,59.5000,104,51,0.70623
2778340,0.60500,58.9375,104,51,0.70085
2778350,0.97000,58.6875,104,51,0.69621
2778360,0.62000,58.3750,104,51,0.69035
2778370,-0.00500,58.0000,104,51,0.68303
2778380,-0.33000,57.1875,104,51,0.66471
2778390,-0.35500,56.7500,104,51,0.65372
2778400,-0.25000,56.3125,104,51,0.64176
2778410,-0.19000,55.8750,104,51,0.62882
2778420,-0.19000,54.9375,104,51,0.60098
2778430,-0.17500,54.4375,104,51,0.58779
2778440,-0.17000,54.0000,104,51,0.57485
2778450,-0.17000,53.5625,104,51,0.56117
2778460,-0.16000,52.6250,104,51,0.53358
2778470,-0.15500,52.1875,104,51,0.52015
2778480,-0.14500,51.8125,104,51,0.50696
2778490,-0.13500,51.5000,104,51,0.49402
2778500,-0.12500,52.0000,104,51,0.47033
2778510,-0.11500,53.6250,104,51,0.45934
2778520,-0.10500,56.6875,104,51,0.44908
2778530,-0.09500,61.1250,104,51,0.43956
2778540,-0.08000,72.5000,104,51,0.44689
2778550,-0.06500,78.5625,104,51,0.44591
2778560,-0.05500,84.4375,104,51,0.44127
2778570,-0.03500,89.9375,104,51,0.43492
2778580,-0.02000,99.1875,104,51,0.42125
2778590,-0.00500,102.7500,104,51,0.41441
2778600,0.01500,105.5625,104,51,0.40757
2778610,0.03000,107.5625,104,51,0.40098
2778620,0.04000,109.2500,104,51,0.38828
2778630,0.06500,109.1250,104,51,0.38291
2778640,0.08000,108.4375,104,51,0.37827
2778650,0.09000,107.3125,104,51,0.37265
2778660,0.10500,104.0625,104,51,0.36020
2778670,0.13000,102.0625,104,51,0.35385
2778680,0.13000,100.0000,104,51,0.34725
2778690,0.10000,97.8750,104,51,0.34066
2778700,0.06000,93.5625,104,51,0.32747
2778710,0.02000,91.4375,104,51,0.32063
2778720,-0.00500,89.3750,104,51,0.31380
2778730,-0.02500,87.3750,104,51,0.30647
2778740,-0.03500,83.5000,104,51,0.29597
2778750,-0.04000,81.5625,104,51,0.28987
2778760,-0.05500,79.5625,104,51,0.28400
2778770,-0.05500,77.5000,104,51,0.27912
2778780,-0.05500,72.9375,104,51,0.27570
2778790,-0.03500,70.7500,104,51,0.27912
2778800,-0.00500,68.8125,104,51,0.28694
2778810,0.01000,67.3125,104,51,0.29939
2778820,0.03000,65.1875,104,51,0.33871
2778830,0.07000,64.4375,104,51,0.36093
2778840,0.08000,63.8750,104,51,0.38437
2778850,0.06000,63.5000,104,51,0.41319
2778860,0.01500,63.0000,104,51,0.47814
2778870,-0.03500,62.8750,104,51,0.51184
2778880,-0.09500,62.7500,104,51,0.54505
2778890,-0.14500,62.6250,104,51,0.57680
2778900,-0.16000,62.5000,104,51,0.63370
2778910,-0.17000,62.4375,104,51,0.65788
2778920,-0.18000,62.2500,104,51,0.67912
2778930,-0.17500,62.1250,104,51,0.69744
2778940,-0.16500,61.9375,104,51,0.71917
2778950,-0.15500,61.8125,104,51,0.72747
2778960,-0.16000,61.6875,104,51,0.73431
2778970,-0.18000,61.5000,104,51,0.73895
2778980,-0.02000,61.0625,104,51,0.74237
2778990,0.46000,60.8125,104,51,0.74115
2779000,0.94500,60.5625,104,51,0.73822
2779010,0.76000,60.1875,104,51,0.73333
2779020,0.06500,59.4375,104,51,0.71917
2779030,-0.36000,59.0625,104,51,0.71038
2779040,-0.39500,58.6250,104,51,0.70061
2779050,-0.27000,58.1875,104,51,0.68938
2779060,-0.20000,57.1875,104,51,0.66300
2779070,-0.19000,56.6875,104,51,0.64811
2779080,-0.19000,56.1875,104,51,0.63272
2779090,-0.19000,55.6875,104,51,0.61709
2779100,-0.18500,54.7500,104,51,0.58608
2779110,-0.17000,54.2500,104,51,0.57094
2779120,-0.16000,53.8125,104,51,0.55653
2779130,-0.15500,53.3750,104,51,0.54286
2779140,-0.15000,52.8125,104,51,0.52063
2779150,-0.14000,53.0000,104,51,0.50965
2779160,-0.12500,54.0625,104,51,0.49890
2779170,-0.10500,56.5000,104,51,0.48864
2779180,-0.09000,65.9375,104,51,0.46935
2779190,-0.07500,72.0625,104,51,0.46056
2779200,-0.05500,78.3750,104,51,0.45201
2779210,-0.03500,84.6250,104,51,0.44371
2779220,-0.02500,96.0000,104,51,0.42808
2779230,-0.01500,100.7500,104,51,0.42173
2779240,-0.00500,104.7500,104,51,0.41612
2779250,0.01000,108.0000,104,51,0.40977
2779260,0.02000,111.9375,104,51,0.39707
2779270,0.02000,112.7500,104,51,0.39072
2779280,0.02500,112.8125,104,51,0.38413
2779290,0.04500,112.2500,104,51,0.37778
2779300,0.07000,109.6875,104,51,0.36508
2779310,0.09000,107.9375,104,51,0.35849
2779320,0.10000,105.9375,104,51,0.35189
2779330,0.10000,103.8125,104,51,0.34530
2779340,0.08000,99.2500,104,51,0.33553
2779350,0.05500,97.0000,104,51,0.32991
2779360,0.02500,94.7500,104,51,0.32381
2779370,0.01000,92.5000,104,51,0.31722
2779380,-0.01000,88.3125,104,51,0.30354
2779390,-0.01500,86.3125,104,51,0.29646
2779400,-0.01500,84.3125,104,51,0.28938
2779410,-0.01500,82.2500,104,51,0.28303
2779420,-0.00500,77.9375,104,51,0.27448
2779430,0.01000,75.7500,104,51,0.27424
2779440,0.02500,73.7500,104,51,0.27692
2779450,0.06000,71.8750,104,51,0.28303
2779460,0.09500,69.0625,104,51,0.30769
2779470,0.11000,68.0625,104,51,0.32723
2779480,0.12500,67.2500,104,51,0.35116
2779490,0.12500,66.6875,104,51,0.37900
2779500,0.11000,66.0000,104,51,0.44322
2779510,0.08000,65.8125,104,51,0.47766
2779520,0.01500,65.7500,104,51,0.51233
2779530,-0.05500,65.6875,104,51,0.54212
2779540,-0.11500,65.6250,104,51,0.59634
2779550,-0.13500,65.5625,104,51,0.62320
2779560,-0.15500,65.4375,104,51,0.64811
2779570,-0.16500,65.3125,104,51,0.67057
2779580,-0.17000,64.9375,104,51,0.70672
2779590,-0.17000,64.7500,104,51,0.72015
2779600,-0.17000,64.5000,104,51,0.73065
2779610,-0.17000,64.2500,104,51,0.73797
2779620,-0.20500,63.6875,104,51,0.74530
2779630,-0.18000,63.3750,104,51,0.74481
2779640,0.16500,63.0625,104,51,0.74261
2779650,0.78000,62.7500,104,51,0.73919
2779660,0.92000,62.0000,104,51,0.72796
2779670,0.31000,61.6250,104,51,0.72015
2779680,-0.30500,61.2500,104,51,0.71062
2779690,-0.48000,60.7500,104,51,0.70012
2779700,-0.36500,59.7500,104,51,0.67570
2779710,-0.25500,59.1875,104,51,0.66203
2779720,-0.24500,58.6875,104,51,0.64762
2779730,-0.25000,58.1250,104,51,0.63419
2779740,-0.24500,57.0625,104,51,0.60733
2779750,-0.24000,56.5000,104,51,0.59292
2779760,-0.23500,55.9375,104,51,0.57875
2779770,-0.22500,55.4375,104,51,0.56484
2779780,-0.21000,54.4375,104,51,0.53797
2779790,-0.18500,54.0000,104,51,0.52552
2779800,-0.17000,53.7500,104,51,0.51404
2779810,-0.15500,53.9375,104,51,0.50330
2779820,-0.13500,57.7500,104,51,0.48376
2779830,-0.12500,61.9375,104,51,0.47595
2779840,-0.10500,67.4375,104,51,0.46862
2779850,-0.09000,73.6875,104,51,0.46056
2779860,-0.07500,86.5625,104,51,0.44469
2779870,-0.06000,92.6250,104,51,0.43687
2779880,-0.04000,98.0625,104,51,0.42930
2779890,-0.01500,102.8125,104,51,0.42198
2779900,-0.00500,110.0000,104,51,0.40806
2779910,0.00000,112.2500,104,51,0.40147
2779920,0.01500,113.6250,104,51,0.39487
2779930,0.03500,114.1875,104,51,0.38974
2779940,0.05500,113.1250,104,51,0.37998
2779950,0.07500,111.7500,104,51,0.37411
2779960,0.09500,109.9375,104,51,0.36777
2779970,0.12000,107.8750,104,51,0.36142
2779980,0.13000,103.1875,104,51,0.34823
2779990,0.12000,100.7500,104,51,0.34139
2780000,0.10000,98.3125,103,51,0.33480
2780010,0.07500,95.8750,103,51,0.32821
2780020,0.04000,91.3125,103,51,0.31453
2780030,0.00500,89.1250,103,51,0.30891
2780040,-0.01000,87.0000,103,51,0.30403
2780050,-0.01500,84.8750,103,51,0.29792
2780060,-0.02000,80.5625,103,51,0.28474
2780070,-0.02000,78.2500,103,51,0.27912
2780080,-0.00500,75.9375,103,51,0.27521
2780090,0.02500,73.6875,103,51,0.27424
2780100,0.05500,69.9375,103,51,0.28376
2780110,0.07000,68.5000,103,51,0.29573
2780120,0.10000,67.3750,103,51,0.31282
2780130,0.12000,66.5000,103,51,0.33114
2780140,0.11000,65.3750,103,51,0.37778
2780150,0.09000,65.0625,103,51,0.40757
2780160,0.04000,64.8750,103,51,0.43980
2780170,-0.01500,64.8125,103,51,0.47326
2780180,-0.07500,64.8125,103,51,0.54042
2780190,-0.10500,64.8750,103,51,0.57216
2780200,-0.12500,64.8750,103,51,0.60171
2780210,-0.13000,64.9375,103,51,0.62857
2780220,-0.13000,64.9375,103,51,0.67302
2780230,-0.13500,64.8750,103,51,0.68791
2780240,-0.13500,64.8125,103,51,0.69866
2780250,-0.12500,64.6875,103,51,0.70867
2780260,-0.14500,64.3750,103,51,0.72308
2780270,-0.15000,64.1875,103,51,0.72674
2780280,0.08000,63.9375,103,51,0.72821
2780290,0.61000,63.6875,103,51,0.72723
2780300,0.90500,63.0000,103,51,0.71966
2780310,0.51000,62.6250,103,51,0.71331
2780320,-0.11500,62.1875,103,51,0.70525
2780330,-0.39500,61.6875,103,51,0.69646
2780340,-0.35500,60.6250,103,51,0.67595
2780350,-0.23500,60.0625,103,51,0.66374
2780360,-0.19500,59.4375,103,51,0.65055
2780370,-0.19000,58.8750,103,51,0.63590
2780380,-0.18500,57.7500,103,51,0.60464
2780390,-0.18000,57.1875,103,51,0.58877
2780400,-0.17000,56.6250,103,51,0.57314
2780410,-0.15500,56.0625,103,51,0.55800
2780420,-0.15500,55.0000,103,51,0.52943
2780430,-0.14500,54.5000,103,51,0.51770
2780440,-0.14000,54.1250,103,51,0.50745
2780450,-0.13500,54.0000,103,51,0.49719
2780460,-0.12000,55.6250,103,51,0.47717
2780470,-0.10500,58.2500,103,51,0.46764
2780480,-0.09500,62.3750,103,51,0.45861
2780490,-0.08500,67.6250,103,51,0.45006
2780500,-0.06500,79.5625,103,51,0.43419
2780510,-0.03500,85.5000,103,51,0.42711
2780520,0.00000,91.1250,103,51,0.42027
2780530,0.03000,96.2500,103,51,0.41490
2780540,0.06000,104.3125,103,51,0.40488
2780550,0.09000,107.1250,103,51,0.39902
2780560,0.10500,109.1250,103,51,0.39292
2780570,0.11500,110.2500,103,51,0.38681
2780580,0.12500,110.1250,103,51,0.37045
2780590,0.14000,109.0625,103,51,0.35800
2780600,0.14500,107.5625,103,51,0.34872
2780610,0.15000,105.6250,103,51,0.34066
2780620,0.13000,101.0625,103,51,0.32674
2780630,0.10000,98.5625,103,51,0.32137
2780640,0.06000,96.0625,103,51,0.31673
2780650,0.02000,93.5625,103,51,0.31087
2780660,-0.01500,88.7500,103,51,0.29768
2780670,-0.04000,86.3750,103,51,0.29035
2780680,-0.06500,84.1250,103,51,0.28278
2780690,-0.07500,81.8750,103,51,0.27497
2780700,-0.08500,77.1875,103,51,0.25958
2780710,-0.07500,74.6875,103,51,0.25275
2780720,-0.06000,72.1875,103,51,0.24713
2780730,-0.03500,69.8750,103,51,0.24444
2780740,-0.01000,66.2500,103,51,0.24811
2780750,0.03500,65.0000,103,51,0.25495
2780760,0.07000,64.0000,103,51,0.26618
2780770,0.07000,62.7500,103,51,0.28205
2780780,0.03000,62.4375,103,51,0.32723
2780790,-0.01500,62.3125,103,51,0.35507
2780800,-0.06000,62.3125,103,51,0.38584
2780810,-0.10500,62.3125,103,51,0.41832
2780820,-0.14000,62.6250,103,51,0.48449
2780830,-0.15000,62.8125,103,51,0.51258
2780840,-0.14500,63.0000,103,51,0.53700
2780850,-0.14500,63.1875,103,51,0.56239
2780860,-0.13500,63.3750,103,51,0.60904
2780870,-0.12500,63.4375,103,51,0.62857
2780880,-0.12000,63.4375,103,51,0.64469
2780890,-0.14000,63.4375,103,51,0.65763
2780900,-0.12500,63.3125,103,51,0.67424
2780910,0.13000,63.1875,103,51,0.67839
2780920,0.65000,62.9375,103,51,0.67985
2780930,0.85500,62.6250,103,51,0.67888
2780940,0.39000,61.8750,103,51,0.67106
2780950,-0.16000,61.4375,103,51,0.66471
2780960,-0.38500,61.0000,103,51,0.65690
2780970,-0.34500,60.5000,103,51,0.64762
2780980,-0.22000,59.3750,103,51,0.62442
2780990,-0.17000,58.8125,103,51,0.61050
2781000,-0.17000,58.1875,103,51,0.59536
2781010,-0.15500,57.0000,103,51,0.56288
2781020,-0.14500,56.4375,103,51,0.54603
2781030,-0.14000,55.9375,103,51,0.53114
2781040,-0.13000,55.3750,103,51,0.51746
2781050,-0.11500,54.8750,103,51,0.50330
2781060,-0.10500,53.9375,103,51,0.47570
2781070,-0.09500,53.6250,103,51,0.46300
2781080,-0.09000,53.6250,103,51,0.45104
2781090,-0.08500,54.1875,103,51,0.43980
2781100,-0.08500,58.5625,103,51,0.41954
2781110,-0.06500,62.8750,103,51,0.41050
2781120,-0.04000,68.1250,103,51,0.40195
2781130,-0.01500,73.8125,103,51,0.39536
2781140,0.00000,85.3750,103,51,0.38364
2781150,0.02000,90.7500,103,51,0.37778
2781160,0.04000,95.6250,103,51,0.37216
2781170,0.06500,99.8750,103,51,0.36654
2781180,0.08000,105.8750,103,51,0.35604
2781190,0.10000,107.6250,103,51,0.35116
2781200,0.12000,108.5000,103,51,0.34628
2781210,0.13000,108.6250,103,51,0.34139
2781220,0.15500,106.8125,103,51,0.33260
2781230,0.17000,105.1250,103,51,0.32943
2781240,0.17500,103.0625,103,51,0.32503
2781250,0.16500,100.7500,103,51,0.31990
2781260,0.14000,95.8125,103,51,0.30867
2781270,0.10000,93.2500,103,51,0.30281
2781280,0.06500,90.7500,103,51,0.29670
2781290,0.02500,88.3125,103,51,0.29060
2781300,-0.00500,83.6250,103,51,0.27766
2781310,-0.02500,81.3750,103,51,0.27106
2781320,-0.03500,79.1250,103,51,0.26422
2781330,-0.03500,76.8125,103,51,0.25885
2781340,-0.04000,72.1875,103,51,0.24884
2781350,-0.03500,70.0000,103,51,0.24420
2781360,-0.01000,68.0625,103,51,0.24127
2781370,0.01000,66.4375,103,51,0.24103
2781380,0.02000,64.2500,103,51,0.25201
2781390,0.05000,63.5000,103,51,0.26471
2781400,0.09000,63.0000,103,51,0.28205
2781410,0.08000,62.6875,103,51,0.30403
2781420,0.04000,62.4375,103,51,0.35482
2781430,-0.00500,62.4375,103,51,0.38022
2781440,-0.06000,62.5625,103,51,0.40977
2781450,-0.09500,62.6875,103,51,0.44151
2781460,-0.12500,63.0000,103,51,0.50549
2781470,-0.13500,63.1250,103,51,0.53553
2781480,-0.13500,63.1875,103,51,0.56313
2781490,-0.13500,63.2500,103,51,0.58803
2781500,-0.13500,63.2500,103,51,0.62759
2781510,-0.12500,63.1875,103,51,0.64225
2781520,-0.11500,63.0625,103,51,0.65348
2781530,-0.12500,62.9375,103,51,0.66032
2781540,-0.10500,62.5625,103,51,0.66667
2781550,0.17500,62.3125,103,51,0.66740
2781560,0.71000,62.0625,103,51,0.66593
2781570,0.87000,61.7500,103,51,0.66252
2781580,0.41000,61.0000,103,51,0.65055
2781590,-0.12500,60.5625,103,51,0.64200
2781600,-0.35500,60.1250,103,51,0.63175
2781610,-0.33000,59.6250,103,51,0.62027
2781620,-0.23000,58.6250,103,51,0.59463
2781630,-0.19000,58.0625,103,51,0.58193
2781640,-0.18000,57.5625,103,51,0.56752
2781650,-0.17500,57.0625,103,51,0.55214
2781660,-0.17000,56.0000,103,51,0.52063
2781670,-0.16500,55.5000,103,51,0.50525
2781680,-0.16000,55.0000,103,51,0.49060
2781690,-0.15500,54.5000,103,51,0.47692
2781700,-0.13500,53.7500,103,51,0.45275
2781710,-0.12000,53.6250,103,51,0.44200
2781720,-0.11000,53.9375,103,51,0.43199
2781730,-0.10500,57.8750,103,51,0.42393
2781740,-0.09500,62.0625,103,51,0.40977
2781750,-0.08000,67.3750,103,51,0.40244
2781760,-0.06500,73.3125,103,51,0.39536
2781770,-0.05500,79.4375,103,51,0.38852
2781780,-0.03500,91.3125,103,51,0.37631
2781790,-0.01500,96.6250,103,51,0.37045
2781800,0.01000,101.3125,103,51,0.36484
2781810,0.02000,105.2500,103,51,0.35946
2781820,0.03500,110.5000,103,51,0.35043
2781830,0.05000,111.7500,103,51,0.34725
2781840,0.06500,112.1875,103,51,0.34335
2781850,0.09000,111.8750,103,51,0.33919
2781860,0.11000,109.3750,103,51,0.32991
2781870,0.13000,107.5000,103,51,0.32503
2781880,0.14500,105.3125,103,51,0.32015
2781890,0.14500,102.9375,103,51,0.31502
2781900,0.13000,97.8750,103,51,0.30427
2781910,0.10000,95.3750,103,51,0.29866
2781920,0.07000,92.8750,103,51,0.29280
2781930,0.04000,90.5625,103,51,0.28840
2781940,0.01000,86.1250,103,51,0.27912
2781950,0.00000,84.0000,103,51,0.27302
2781960,-0.00500,81.8750,103,51,0.26667
2781970,-0.00500,79.6875,103,51,0.26007
2781980,-0.00500,75.1875,103,51,0.24884
2781990,0.00500,73.0625,103,51,0.24591
2782000,0.04000,71.1250,104,51,0.24591
2782010,0.07000,69.5625,104,51,0.24957
2782020,0.09500,67.3750,104,51,0.26935
2782030,0.13000,66.6875,104,51,0.28400
2782040,0.14500,66.1875,104,51,0.30403
2782050,0.12000,65.8125,104,51,0.32869
2782060,0.07500,65.4375,104,51,0.38926
2782070,0.01500,65.3750,104,51,0.42320
2782080,-0.04000,65.3750,104,51,0.45812
2782090,-0.09000,65.4375,104,51,0.49328
2782100,-0.11500,65.6875,104,51,0.56044
2782110,-0.12500,65.7500,104,51,0.59048
2782120,-0.13000,65.7500,104,51,0.61783
2782130,-0.13500,65.8125,104,51,0.63883
2782140,-0.14000,65.8125,104,51,0.67131
2782150,-0.14000,65.7500,104,51,0.68547
2782160,-0.13500,65.6875,104,51,0.69695
2782170,-0.16000,65.5625,104,51,0.70549
2782180,-0.08500,65.1250,104,51,0.71404
2782190,0.29500,64.8125,104,51,0.71453
2782200,0.81500,64.5000,104,51,0.71258
2782210,0.78000,64.1875,104,51,0.70842
2782220,0.21500,63.3125,104,51,0.69548
2782230,-0.24000,62.8125,104,51,0.68718
2782240,-0.39500,62.2500,104,51,0.67741
2782250,-0.32500,61.6875,104,51,0.66618
2782260,-0.24000,60.6250,104,51,0.63980
2782270,-0.22000,60.0625,104,51,0.62515
2782280,-0.22000,59.5000,104,51,0.60952
2782290,-0.22000,58.3750,104,51,0.59365
2782300,-0.21000,57.8750,104,51,0.56239
2782310,-0.20500,57.3125,104,51,0.54725
2782320,-0.20000,56.8125,104,51,0.53309
2782330,-0.18000,56.3125,104,51,0.52112
2782340,-0.15500,55.8125,104,51,0.49939
2782350,-0.13500,56.0000,104,51,0.48864
2782360,-0.12500,57.0000,104,51,0.47814
2782370,-0.11500,59.3125,104,51,0.46838
2782380,-0.09500,68.2500,104,51,0.45079
2782390,-0.07500,74.2500,104,51,0.44274
2782400,-0.06000,80.5625,104,51,0.43492
2782410,-0.04000,86.9375,104,51,0.42759
2782420,-0.02000,98.8125,104,51,0.41538
2782430,-0.00500,103.8750,104,51,0.41074
2782440,0.00500,108.1875,104,51,0.40537
2782450,0.02500,111.6875,104,51,0.40000
2782460,0.04500,115.8125,104,51,0.38926
2782470,0.06000,116.5625,104,51,0.38413
2782480,0.07000,116.4375,104,51,0.37900
2782490,0.09000,114.3125,104,51,0.37387
2782500,0.12000,112.5625,104,51,0.36337
2782510,0.13500,110.4375,104,51,0.35800
2782520,0.15000,108.1250,104,51,0.35238
2782530,0.14500,105.6875,104,51,0.34799
2782540,0.13000,100.8125,104,51,0.33895
2782550,0.10000,98.4375,104,51,0.33309
2782560,0.07000,96.1250,104,51,0.32698
2782570,0.04000,93.9375,104,51,0.32063
2782580,0.03000,89.7500,104,51,0.30745
2782590,0.01500,87.7500,104,51,0.30061
2782600,0.01500,85.6875,104,51,0.29377
2782610,0.01500,83.6250,104,51,0.28742
2782620,0.02500,79.0625,104,51,0.27912
2782630,0.05000,76.8125,104,51,0.28205
2782640,0.08000,74.7500,104,51,0.28938
2782650,0.10000,73.0625,104,51,0.29792
2782660,0.12500,70.6250,104,51,0.32625
2782670,0.13000,69.7500,104,51,0.34750
2782680,0.11000,69.1250,104,51,0.37363
2782690,0.07500,68.6875,104,51,0.40366
2782700,0.02500,68.1875,104,51,0.47253
2782710,-0.03500,68.0625,104,51,0.50940
2782720,-0.09500,67.9375,104,51,0.54628
2782730,-0.13500,67.8750,104,51,0.57778
2782740,-0.16000,67.7500,104,51,0.63492
2782750,-0.18000,67.6250,104,51,0.66349
2782760,-0.18500,67.5000,104,51,0.68987
2782770,-0.19000,67.4375,104,51,0.71331
2782780,-0.18000,67.2500,104,51,0.74994
2782790,-0.17000,67.1875,104,51,0.76313
2782800,-0.17000,67.0625,104,51,0.77265
2782810,-0.13500,66.9375,104,51,0.77900
2782820,0.10000,66.5000,104,51,0.78291
2782830,0.61000,66.2500,104,51,0.78046
2782840,0.90000,65.8750,104,51,0.77705
2782850,0.52500,65.5000,104,51,0.77216
2782860,-0.04500,64.6250,104,51,0.75800
2782870,-0.33500,64.1250,104,51,0.74847
2782880,-0.34500,63.5625,104,51,0.73773
2782890,-0.22000,63.0000,104,51,0.72552
2782900,-0.14500,61.7500,104,51,0.69744
2782910,-0.13500,61.1250,104,51,0.68181
2782920,-0.11500,60.5625,104,51,0.66520
2782930,-0.10500,60.0000,104,51,0.65006
2782940,-0.10500,59.1667,104,51,0.62751
2782950,-0.11000,58.3750,104,51,0.60488
2782960,-0.11000,57.9375,104,51,0.58950
2782970,-0.11000,57.5625,104,51,0.57485
2782980,-0.10000,57.5625,104,51,0.54750
2782990,-0.10000,58.5625,104,51,0.53529
2783000,-0.10500,60.8750,105,52,0.52381
2783010,-0.09500,64.8125,105,52,0.51306
2783020,-0.08000,76.5625,105,52,0.49475
2783030,-0.07500,83.2500,105,52,0.48718
2783040,-0.06500,89.9375,105,52,0.47961
2783050,-0.04500,96.3750,105,52,0.47204
2783060,-0.03000,107.5000,105,52,0.45714
2783070,-0.01500,111.8750,105,52,0.45006
2783080,-0.00500,115.3125,105,52,0.44322
2783090,-0.00500,117.8125,105,52,0.43663
2783100,0.01000,120.0000,105,52,0.42344
2783110,0.03000,119.8125,105,52,0.41685
2783120,0.04000,118.9375,105,52,0.41123
2783130,0.06000,117.5000,105,52,0.40610
2783140,0.08000,113.5625,105,52,0.39390
2783150,0.09500,111.2500,105,52,0.38755
2783160,0.10000,108.8750,105,52,0.38120
2783170,0.09000,106.5000,105,52,0.37436
2783180,0.07000,101.6875,105,52,0.36020
2783190,0.04500,99.4375,105,52,0.35287
2783200,0.02000,97.2500,105,52,0.34530
2783210,-0.00500,95.1875,105,52,0.33773
2783220,-0.01500,91.2500,105,52,0.32381
2783230,-0.02500,89.3125,105,52,0.31844
2783240,-0.02500,87.3125,105,52,0.31209
2783250,-0.01000,85.1250,105,52,0.30623
2783260,0.02000,80.3750,105,52,0.30012
2783270,0.05000,78.1250,105,52,0.30183
2783280,0.07500,76.1875,105,52,0.30794
2783290,0.10000,74.5625,105,52,0.31917
2783300,0.12000,72.3125,105,52,0.35751
2783310,0.11000,71.5625,105,52,0.38413
2783320,0.08000,71.0625,105,52,0.41074
2783330,0.03000,70.6250,105,52,0.43810
2783340,-0.04000,70.2500,105,52,0.50696
2783350,-0.10000,70.1250,105,52,0.54383
2783360,-0.13500,70.0625,105,52,0.58046
2783370,-0.15000,70.0625,105,52,0.61563
2783380,-0.16000,70.0000,105,52,0.67863
2783390,-0.16000,69.9375,105,52,0.70525
2783400,-0.16500,69.8125,105,52,0.72845
2783410,-0.17000,69.6875,105,52,0.74823
2783420,-0.16000,69.3750,105,52,0.77558
2783430,-0.16000,69.1875,105,52,0.78242
2783440,-0.16000,68.9375,105,52,0.78803
2783450,0.07500,68.6250,105,52,0.79170
2783460,0.61000,67.8750,105,52,0.79243
2783470,0.92000,67.4375,105,52,0.78999
2783480,0.54500,66.9375,105,52,0.78559
2783490,-0.07500,66.4375,105,52,0.77973
2783500,-0.37500,65.3750,105,52,0.76313
2783510,-0.36500,64.8125,105,52,0.75263
2783520,-0.26000,64.2500,105,52,0.74139
2783530,-0.21500,63.6875,105,52,0.72943
2783540,-0.22000,62.5000,105,52,0.70037
2783550,-0.22000,61.9375,105,52,0.68400
2783560,-0.21000,61.3750,105,52,0.66716
2783570,-0.20500,60.8125,105,52,0.65031
2783580,-0.19000,59.7500,105,52,0.61709
2783590,-0.17500,59.2500,105,52,0.60147
2783600,-0.15000,58.8750,105,52,0.58681
2783610,-0.13500,58.6250,105,52,0.57265
2783620,-0.13500,60.0625,105,52,0.54847
2783630,-0.12500,62.7500,105,52,0.53846
2783640,-0.11500,67.1250,105,52,0.52821
2783650,-0.09500,72.9375,105,52,0.51819
2783660,-0.07500,86.6875,105,52,0.49915
2783670,-0.06500,93.6875,105,52,0.49011
2783680,-0.05000,100.4375,105,52,0.48181
2783690,-0.03000,106.6250,105,52,0.47375
2783700,-0.01500,116.5625,105,52,0.45861
2783710,-0.00500,120.0000,105,52,0.45153
2783720,-0.00500,122.3750,105,52,0.44567
2783730,0.00000,123.6875,105,52,0.44054
2783740,0.01000,123.6875,105,52,0.42857
2783750,0.01500,122.6250,105,52,0.42198
2783760,0.02000,121.0625,105,52,0.41538
2783770,0.03000,119.0625,105,52,0.40879
2783780,0.05000,114.4375,105,52,0.39512
2783790,0.06000,112.0000,105,52,0.38803
2783800,0.05000,109.5625,105,52,0.38095
2783810,0.02000,107.1250,105,52,0.37363
2783820,-0.01500,102.5625,105,52,0.36020
2783830,-0.05000,100.4375,105,52,0.35482
2783840,-0.08000,98.4375,105,52,0.34823
2783850,-0.09500,96.5000,105,52,0.34115
2783860,-0.10500,92.6875,105,52,0.32601
2783870,-0.10500,90.6250,105,52,0.31844
2783880,-0.08500,88.3750,105,52,0.31184
2783890,-0.06000,86.0000,105,52,0.30745
2783900,-0.02500,81.1875,105,52,0.30818
2783910,0.01000,79.1875,105,52,0.31526
2783920,0.05000,77.5625,105,52,0.32552
2783930,0.06000,76.2500,105,52,0.33968
2783940,0.06000,74.4375,105,52,0.38584
2783950,0.03500,73.8750,105,52,0.41636
2783960,-0.01500,73.5000,105,52,0.45079
2783970,-0.08500,73.3125,105,52,0.48767
2783980,-0.14500,73.1250,105,52,0.56459
2783990,-0.17000,73.1250,105,52,0.60195
2784000,-0.18500,73.0625,106,52,0.63712
2784010,-0.18500,73.0000,106,52,0.66935
2784020,-0.18000,72.8125,106,52,0.72088
2784030,-0.17500,72.6875,106,52,0.73871
2784040,-0.17000,72.5625,106,52,0.75604
2784050,-0.18000,72.3750,106,52,0.77143
2784060,-0.21000,71.9375,106,52,0.79390
2784070,-0.15500,71.6250,106,52,0.80098
2784080,0.20000,71.2500,106,52,0.80537
2784090,0.77500,70.8750,106,52,0.80708
2784100,0.85500,69.9375,106,52,0.80391
2784110,0.22500,69.4375,106,52,0.79927
2784120,-0.31500,68.8750,106,52,0.79267
2784130,-0.45000,68.3125,106,52,0.78510
2784140,-0.35500,67.1250,106,52,0.76679
2784150,-0.26000,66.5625,106,52,0.75580
2784160,-0.25000,65.9375,106,52,0.74359
2784170,-0.26000,65.3750,106,52,0.73016
2784180,-0.25000,64.1250,106,52,0.70012
2784190,-0.24000,63.5625,106,52,0.68376
2784200,-0.23000,63.0000,106,52,0.66740
2784210,-0.22500,62.4375,106,52,0.65104
2784220,-0.22000,61.3750,106,52,0.62027
2784230,-0.21000,61.0625,106,52,0.60708
2784240,-0.19000,61.1875,106,52,0.59389
2784250,-0.17000,62.0625,106,52,0.58095
2784260,-0.16000,68.3750,106,52,0.55702
2784270,-0.14500,74.0000,106,52,0.54652
2784280,-0.12500,80.8125,106,52,0.53675
2784290,-0.10500,88.1250,106,52,0.52747
2784300,-0.09500,102.6250,106,52,0.51062
2784310,-0.08000,109.1875,106,52,0.50256
2784320,-0.06500,114.8750,106,52,0.49548
2784330,-0.05000,119.5625,106,52,0.48938
2784340,-0.04000,125.6875,106,52,0.47521
2784350,-0.03500,127.0000,106,52,0.46789
2784360,-0.02000,127.3750,106,52,0.46056
2784370,-0.00500,126.8750,106,52,0.45348
2784380,0.01000,124.1875,106,52,0.43956
2784390,0.03000,122.2500,106,52,0.43248
2784400,0.05000,120.0000,106,52,0.42564
2784410,0.06000,117.6875,106,52,0.41880
2784420,0.06000,112.8125,106,52,0.40684
2784430,0.03500,110.3750,106,52,0.40147
2784440,0.01000,108.0625,106,52,0.39512
2784450,-0.02000,105.8125,106,52,0.38803
2784460,-0.05000,101.6875,106,52,0.37265
2784470,-0.07500,99.7500,106,52,0.36459
2784480,-0.08500,97.8125,106,52,0.35653
2784490,-0.09500,95.8125,106,52,0.34872
2784500,-0.08500,91.3750,106,52,0.33480
2784510,-0.06500,88.9375,106,52,0.33016
2784520,-0.03500,86.3750,106,52,0.32821
2784530,0.00000,83.9375,106,52,0.32918
2784540,0.03000,80.0000,106,52,0.34237
2784550,0.04000,78.6250,106,52,0.35678
2784560,0.04000,77.5625,106,52,0.37680
2784570,0.03000,76.8125,106,52,0.40244
2784580,-0.00500,75.9375,106,52,0.46691
2784590,-0.07000,75.8125,106,52,0.50354
2784600,-0.13500,75.7500,106,52,0.54139
2784610,-0.18000,75.7500,106,52,0.57949
2784620,-0.19500,75.6875,106,52,0.64762
2784630,-0.20000,75.6875,106,52,0.67375
2784640,-0.20000,75.6250,106,52,0.70085
2784650,-0.20000,75.5000,106,52,0.72674
2784660,-0.20000,75.1875,106,52,0.76996
2784670,-0.20000,74.9375,106,52,0.78657
2784680,-0.23000,74.6250,106,52,0.78437
2784690,-0.21500,74.3125,106,52,0.77143
2784700,0.09000,73.5000,106,52,0.76508
2784710,0.70500,73.0000,106,52,0.76386
2784720,0.89000,72.5000,106,52,0.76117
2784730,0.27000,71.9375,106,52,0.75702
2784740,-0.35500,70.6875,106,52,0.74652
2784750,-0.49000,70.0000,106,52,0.73944
2784760,-0.38000,69.3125,106,52,0.73089
2784770,-0.27500,68.6250,106,52,0.72088
2784780,-0.25000,67.3750,106,52,0.69719
2784790,-0.24500,66.7500,106,52,0.68400
2784800,-0.23500,66.0625,106,52,0.66960
2784810,-0.23000,65.4375,106,52,0.65421
2784820,-0.21000,64.2500,106,52,0.62418
2784830,-0.18000,63.6875,106,52,0.61050
2784840,-0.16000,63.1875,106,52,0.59609
2784850,-0.13500,62.6875,106,52,0.58193
2784860,-0.10500,62.8125,106,52,0.55507
2784870,-0.08500,64.1250,106,52,0.54310
2784880,-0.06500,67.0625,106,52,0.53162
2784890,-0.04500,71.8125,106,52,0.52112
2784900,-0.01000,85.3125,106,52,0.50159
2784910,0.02000,92.9375,106,52,0.49280
2784920,0.04500,100.5000,106,52,0.48547
2784930,0.06000,107.6250,106,52,0.47888
2784940,0.07000,119.3750,106,52,0.46471
2784950,0.07500,123.6875,106,52,0.45739
2784960,0.06500,126.7500,106,52,0.45006
2784970,0.05000,128.6250,106,52,0.44274
2784980,0.05000,129.2500,106,52,0.42784
2784990,0.06000,128.5313,106,52,0.41933
2785000,0.07500,127.0000,107,53,0.41343
2785010,0.09500,125.1875,107,53,0.40635
2785020,0.11000,120.6250,107,53,0.39512
2785030,0.12000,118.1250,107,53,0.38901
2785040,0.11000,115.5000,107,53,0.38242
2785050,0.09000,112.9375,107,53,0.37558
2785060,0.07000,108.0000,107,53,0.36093
2785070,0.03000,105.7500,107,53,0.35311
2785080,-0.00500,103.5000,107,53,0.34505
2785090,-0.02500,101.3750,107,53,0.33675
2785100,-0.04000,97.0625,107,53,0.32039
2785110,-0.04500,94.8125,107,53,0.31233
2785120,-0.02500,92.3750,107,53,0.30623
2785130,0.00000,89.7500,107,53,0.30159
2785140,0.03500,84.3750,107,53,0.29499
2785150,0.08500,82.0625,107,53,0.29548
2785160,0.11000,80.1250,107,53,0.30037
2785170,0.11500,78.5625,107,53,0.31013
2785180,0.11000,76.5625,107,53,0.34652
2785190,0.08000,75.9375,107,53,0.37265
2785200,0.02000,75.6250,107,53,0.40293
2785210,-0.05500,75.4375,107,53,0.43663
2785220,-0.11000,75.4375,107,53,0.49695
2785230,-0.13500,75.5000,107,53,0.52991
2785240,-0.14000,75.5625,107,53,0.56386
2785250,-0.14500,75.5625,107,53,0.59683
2785260,-0.14500,75.6250,107,53,0.65568
2785270,-0.14000,75.6250,107,53,0.68010
2785280,-0.12500,75.5625,107,53,0.70110
2785290,-0.12000,75.4375,107,53,0.71844
2785300,-0.14500,74.8750,107,53,0.74237
2785310,-0.04500,74.5000,107,53,0.74945
2785320,0.36000,74.0625,107,53,0.75238
2785330,0.87000,73.5625,107,53,0.75263
2785340,0.78000,72.3750,107,53,0.75018
2785350,0.14500,71.7500,107,53,0.74652
2785360,-0.26500,71.0625,107,53,0.74139
2785370,-0.31000,70.3750,107,53,0.73480
2785380,-0.20000,68.9375,107,53,0.71697
2785390,-0.13000,68.2500,107,53,0.70574
2785400,-0.12500,67.5000,107,53,0.69353
2785410,-0.12500,66.8750,107,53,0.68010
2785420,-0.12000,65.5625,107,53,0.65348
2785430,-0.12500,64.8750,107,53,0.63883
2785440,-0.12000,64.2500,107,53,0.62369
2785450,-0.11500,63.6875,107,53,0.60830
2785460,-0.09500,62.6875,107,53,0.57802
2785470,-0.08500,62.3750,107,53,0.56386
2785480,-0.07500,62.3750,107,53,0.55043
2785490,-0.07000,63.1250,107,53,0.53773
2785500,-0.06000,65.1250,107,53,0.52584
2785510,-0.05500,68.6250,107,53,0.51477
2785520,-0.04000,73.8750,107,53,0.50452
2785530,-0.02500,80.3125,107,53,0.49597
2785540,-0.02500,94.6250,107,53,0.48034
2785550,-0.00500,101.6250,107,53,0.47277
2785560,0.01500,108.1250,107,53,0.46520
2785570,0.03500,113.7500,107,53,0.45788
2785580,0.04000,121.8125,107,53,0.44347
2785590,0.05000,124.0625,107,53,0.43639
2785600,0.07000,125.1875,107,53,0.42955
2785610,0.09000,125.2500,107,53,0.42271
2785620,0.11000,122.9375,107,53,0.41001
2785630,0.13000,120.9375,107,53,0.40464
2785640,0.14000,118.6250,107,53,0.39829
2785650,0.14500,116.1250,107,53,0.39145
2785660,0.14000,110.8750,107,53,0.37656
2785670,0.11000,108.2500,107,53,0.36874
2785680,0.07000,105.7500,107,53,0.36093
2785690,0.04000,103.2500,107,53,0.35287
2785700,0.01500,98.8125,107,53,0.33675
2785710,0.00000,96.6875,107,53,0.32845
2785720,-0.00500,94.6250,107,53,0.32039
2785730,0.00500,92.3750,107,53,0.31355
2785740,0.03000,87.5000,107,53,0.30037
2785750,0.06000,84.9375,107,53,0.29304
2785760,0.08500,82.4375,107,53,0.28694
2785770,0.12000,80.2500,107,53,0.28278
2785780,0.14000,77.0625,107,53,0.28425
2785790,0.12500,76.0625,107,53,0.29109
2785800,0.09000,75.3125,107,53,0.30330
2785810,0.04000,74.8750,107,53,0.32063
2785820,-0.00500,74.5625,107,53,0.36581
2785830,-0.06500,74.6250,107,53,0.38999
2785840,-0.10500,74.7500,107,53,0.41954
2785850,-0.12000,74.8750,107,53,0.45226
2785860,-0.13500,75.1250,107,53,0.51917
2785870,-0.13500,75.1875,107,53,0.55092
2785880,-0.13500,75.1875,107,53,0.58022
2785890,-0.13500,75.1875,107,53,0.60684
2785900,-0.13000,74.9375,107,53,0.65006
2785910,-0.15500,74.6875,107,53,0.66642
2785920,-0.11500,74.3750,107,53,0.67937
2785930,0.19000,74.0000,107,53,0.68742
2785940,0.71000,73.0625,107,53,0.69548
2785950,0.80500,72.5625,107,53,0.69744
2785960,0.28000,72.0000,107,53,0.69744
2785970,-0.21000,71.4375,107,53,0.69548
2785980,-0.38500,70.1250,107,53,0.68596
2785990,-0.32500,69.5000,107,53,0.67888
2786000,-0.21500,68.8125,108,53,0.67033
2786010,-0.17000,68.1250,108,53,0.66032
2786020,-0.17000,66.8125,108,53,0.63736
2786030,-0.17000,66.1875,108,53,0.62540
2786040,-0.16500,65.5625,108,53,0.61197
2786050,-0.16000,64.8750,108,53,0.59756
2786060,-0.16000,63.6250,108,53,0.56777
2786070,-0.15500,63.0625,108,53,0.55336
2786080,-0.14500,62.5625,108,53,0.53944
2786090,-0.13000,62.1875,108,53,0.52601
2786100,-0.12000,62.4375,108,53,0.50159
2786110,-0.11500,63.6250,108,53,0.49060
2786120,-0.10500,66.1875,108,53,0.48034
2786130,-0.08500,70.3125,108,53,0.47179
2786140,-0.07000,82.3750,108,53,0.45690
2786150,-0.05500,89.2500,108,53,0.44933
2786160,-0.04500,96.1250,108,53,0.44200
2786170,-0.02500,102.6250,108,53,0.43516
2786180,0.00000,113.5625,108,53,0.42222
2786190,0.02000,117.6250,108,53,0.41587
2786200,0.03000,120.5000,108,53,0.40952
2786210,0.05000,122.2500,108,53,0.40342
2786220,0.06500,122.5625,108,53,0.39267
2786230,0.09000,121.5000,108,53,0.38803
2786240,0.11000,119.8125,108,53,0.38266
2786250,0.13000,117.6875,108,53,0.37705
2786260,0.14000,112.8125,108,53,0.36435
2786270,0.12500,110.1875,108,53,0.35751
2786280,0.09500,107.5625,108,53,0.35043
2786290,0.06000,105.0000,108,53,0.34335
2786300,0.02500,100.1875,108,53,0.32918
2786310,0.00500,97.9375,108,53,0.32186
2786320,0.01000,95.7500,108,53,0.31429
2786330,0.03000,93.5625,108,53,0.30818
2786340,0.04500,89.0000,108,53,0.29621
2786350,0.07000,86.5000,108,53,0.28889
2786360,0.10000,83.9375,108,53,0.28181
2786370,0.12000,81.5000,108,53,0.27521
2786380,0.14000,77.6875,108,53,0.26691
2786390,0.15500,76.3750,108,53,0.26716
2786400,0.14000,75.5000,108,53,0.27155
2786410,0.10000,74.6875,108,53,0.28059
2786420,0.04000,74.5625,108,53,0.31062
2786430,-0.02500,74.6250,108,53,0.32943
2786440,-0.10500,74.8125,108,53,0.35409
2786450,-0.15500,75.0000,108,53,0.38315
2786460,-0.17000,75.4375,108,53,0.44835
2786470,-0.18000,75.5625,108,53,0.48181
2786480,-0.18000,75.6250,108,53,0.51404
2786490,-0.17500,75.6250,108,53,0.54432
2786500,-0.17500,75.3750,108,53,0.59634
2786510,-0.18000,75.1250,108,53,0.61734
2786520,-0.19000,74.8750,108,53,0.63468
2786530,-0.20000,74.5000,108,53,0.64664
2786540,0.01000,73.6250,108,53,0.66227
2786550,0.51500,73.0625,108,53,0.66764
2786560,0.78500,72.5000,108,53,0.67082
2786570,0.43500,71.8750,108,53,0.67155
2786580,-0.14000,70.5625,108,53,0.66789
2786590,-0.42500,69.8750,108,53,0.66325
2786600,-0.42500,69.1875,108,53,0.65714
2786610,-0.31500,68.4375,108,53,0.64933
2786620,-0.25500,67.0625,108,53,0.62979
2786630,-0.24000,66.4375,108,53,0.61929
2786640,-0.23000,65.7500,108,53,0.60708
2786650,-0.21500,65.1250,108,53,0.59389
2786660,-0.20500,63.8125,108,53,0.56508
2786670,-0.19500,63.2500,108,53,0.55067
2786680,-0.18000,62.6875,108,53,0.53675
2786690,-0.16000,62.1875,108,53,0.52332
2786700,-0.14500,61.5625,108,53,0.49915
2786710,-0.13000,61.7500,108,53,0.48816
2786720,-0.12500,62.7500,108,53,0.47912
2786730,-0.10500,64.9375,108,53,0.47131
2786740,-0.09500,74.3750,108,53,0.44689
2786750,-0.07500,81.0000,108,53,0.43687
2786760,-0.05500,88.1875,108,53,0.42833
2786770,-0.04500,95.4375,108,53,0.42076
2786780,-0.02500,108.9375,108,53,0.40708
2786790,-0.00500,114.5625,108,53,0.40049
2786800,0.01000,119.1875,108,53,0.39438
2786810,0.03000,122.6250,108,53,0.38828
2786820,0.04500,126.0000,108,53,0.37705
2786830,0.06000,126.0625,108,53,0.37241
2786840,0.08000,125.3125,108,53,0.36703
2786850,0.09500,123.9375,108,53,0.36142
2786860,0.11000,119.8750,108,53,0.34921
2786870,0.12000,117.4375,108,53,0.34261
2786880,0.11500,114.8750,108,53,0.33578
2786890,0.09000,112.3125,108,53,0.32869
2786900,0.06000,107.3750,108,53,0.31429
2786910,0.03000,105.0625,108,53,0.30720
2786920,0.01000,102.8125,108,53,0.30134
2786930,-0.01000,100.6875,108,53,0.29621
2786940,-0.02000,96.5625,108,53,0.28278
2786950,-0.01500,94.3750,108,53,0.27546
2786960,0.01000,92.0625,108,53,0.26789
2786970,0.04500,89.5000,108,53,0.26032
2786980,0.07000,84.0625,108,53,0.24811
2786990,0.10000,81.5000,108,53,0.24469
2787000,0.12000,79.3125,111,55,0.24469
2787010,0.12000,77.6875,111,55,0.24860
2787020,0.11000,75.8125,111,55,0.26862
2787030,0.08000,75.3125,111,55,0.28376
2787040,0.01500,75.0625,111,55,0.30476
2787050,-0.04500,75.0000,111,55,0.33114
2787060,-0.09000,75.1875,111,55,0.39463
2787070,-0.11000,75.3750,111,55,0.42930
2787080,-0.12500,75.5625,111,55,0.46447
2787090,-0.13500,75.7500,111,55,0.49890
2787100,-0.14000,75.9375,111,55,0.56239
2787110,-0.13500,76.0000,111,55,0.58974
2787120,-0.13500,75.9375,111,55,0.61050
2787130,-0.14000,75.7500,111,55,0.62662
2787140,-0.15500,75.3125,111,55,0.65568
2787150,-0.00500,74.9375,111,55,0.66667
2787160,0.45500,74.5000,111,55,0.67497
2787170,0.89000,74.0000,111,55,0.68059
2787180,0.67000,72.8750,111,55,0.68474
2787190,0.05000,72.2500,111,55,0.68376
2787200,-0.32500,71.6250,111,55,0.68083
2787210,-0.40000,70.9375,111,55,0.67619
2787220,-0.30000,69.6250,111,55,0.66252
2787230,-0.22500,69.0000,111,55,0.65397
2787240,-0.21000,68.3125,111,55,0.64396
2787250,-0.20000,67.6875,111,55,0.63248
2787260,-0.20000,66.3750,111,55,0.60586
2787270,-0.19000,65.7500,111,55,0.59121
2787280,-0.18000,65.1875,111,55,0.57631
2787290,-0.16500,64.5625,111,55,0.56117
2787300,-0.15000,63.5625,111,55,0.53187
2787310,-0.13500,63.2500,111,55,0.51795
2787320,-0.12500,63.3750,111,55,0.50623
2787330,-0.11500,64.1250,111,55,0.49597
2787340,-0.10000,69.7500,111,55,0.47570
2787350,-0.09000,75.1250,111,55,0.46618
2787360,-0.08500,81.8125,111,55,0.45739
2787370,-0.07500,89.1875,111,55,0.44908
2787380,-0.05500,104.1875,111,55,0.43370
2787390,-0.03500,111.0625,111,55,0.42637
2787400,-0.01500,117.2500,111,55,0.41954
2787410,-0.00500,122.3750,111,55,0.41270
2787420,0.00000,129.0000,111,55,0.40049
2787430,0.01000,130.5000,111,55,0.39560
2787440,0.02500,130.8750,111,55,0.38999
2787450,0.04500,130.3750,111,55,0.38388
2787460,0.06000,127.5625,111,55,0.37167
2787470,0.07500,125.5000,111,55,0.36508
2787480,0.08500,123.3125,111,55,0.35824
2787490,0.09000,120.9375,111,55,0.35140
2787500,0.07500,116.0625,111,55,0.33748
2787510,0.05000,113.6875,111,55,0.33040
2787520,0.01000,111.4375,111,55,0.32454
2787530,-0.01500,109.2500,111,55,0.31917
2787540,-0.04000,105.2500,111,55,0.30574
2787550,-0.04500,103.3750,111,55,0.29817
2787560,-0.04500,101.5000,111,55,0.29035
2787570,-0.02500,99.4375,111,55,0.28278
2787580,0.00000,94.6875,111,55,0.26862
2787590,0.03000,92.0000,111,55,0.26300
2787600,0.06000,89.2500,111,55,0.25958
2787610,0.08000,86.8125,111,55,0.25885
2787620,0.08000,83.0625,111,55,0.26813
2787630,0.06500,81.8125,111,55,0.27839
2787640,0.03000,80.8750,111,55,0.29426
2787650,-0.03500,80.1875,111,55,0.31600
2787660,-0.10500,79.4375,111,55,0.37387
2787670,-0.15500,79.3125,111,55,0.40781
2787680,-0.18000,79.2500,111,55,0.44396
2787690,-0.18000,79.3125,111,55,0.48059
2787700,-0.18000,79.3750,111,55,0.55067
2787710,-0.18500,79.3125,111,55,0.58266
2787720,-0.18000,79.2500,111,55,0.60781
2787730,-0.17500,79.1250,111,55,0.62833
2787740,-0.19000,78.6875,111,55,0.66764
2787750,-0.19000,78.3750,111,55,0.68376
2787760,-0.00500,78.0000,111,55,0.69695
2787770,0.48000,77.5625,111,55,0.70745
2787780,0.84000,76.5000,111,55,0.72015
2787790,0.56000,75.8750,111,55,0.72308
2787800,-0.04000,75.1875,111,55,0.72381
2787810,-0.37000,74.5625,111,55,0.72283
2787820,-0.39500,73.1875,111,55,0.71551
2787830,-0.30000,72.5000,111,55,0.70940
2787840,-0.22500,71.7500,111,55,0.70208
2787850,-0.20500,71.0625,111,55,0.69353
2787860,-0.20000,69.6875,111,55,0.67204
2787870,-0.19000,69.0000,111,55,0.65958
2787880,-0.19000,68.3125,111,55,0.64640
2787890,-0.19000,67.6250,111,55,0.63223
2787900,-0.17500,66.4375,111,55,0.60317
2787910,-0.16000,65.9375,111,55,0.58852
2787920,-0.15500,65.6875,111,55,0.57558
2787930,-0.15000,65.7500,111,55,0.56361
2787940,-0.14500,68.6250,111,55,0.53944
2787950,-0.13000,72.3750,111,55,0.52796
2787960,-0.12000,77.8750,111,55,0.51673
2787970,-0.11000,92.1250,111,55,0.50623
2787980,-0.09000,99.8125,111,55,0.48669
2787990,-0.06000,107.3750,111,55,0.47766
2788000,-0.03500,114.3750,113,56,0.46886
2788010,-0.02000,120.5625,113,56,0.46056
2788020,-0.01000,129.5000,113,56,0.44542
2788030,0.00000,132.0625,113,56,0.43883
2788040,0.01500,133.3750,113,56,0.43150
2788050,0.03000,133.6875,113,56,0.42393
2788060,0.03000,131.9375,113,56,0.40928
2788070,0.03500,130.1875,113,56,0.40195
2788080,0.05500,128.1250,113,56,0.39438
2788090,0.07000,125.8750,113,56,0.38681
2788100,0.07500,121.0000,113,56,0.37167
2788110,0.06000,118.5625,113,56,0.36386
2788120,0.03000,116.1875,113,56,0.35726
2788130,-0.00500,113.9375,113,56,0.35116
2788140,-0.03000,109.7500,113,56,0.33651
2788150,-0.04500,107.7500,113,56,0.32845
2788160,-0.05500,105.8750,113,56,0.32015
2788170,-0.05000,104.0000,113,56,0.31160
2788180,-0.02500,99.8125,113,56,0.29475
2788190,0.01000,97.3750,113,56,0.28694
2788200,0.05000,94.6875,113,56,0.28059
2788210,0.08500,91.9375,113,56,0.27643
2788220,0.10000,87.1875,113,56,0.27741
2788230,0.11000,85.3750,113,56,0.28327
2788240,0.09500,84.0000,113,56,0.29402
2788250,0.04000,82.9375,113,56,0.31038
2788260,-0.03500,81.6250,113,56,0.35922
2788270,-0.11000,81.3125,113,56,0.38974
2788280,-0.14500,81.1250,113,56,0.42320
2788290,-0.16500,81.0000,113,56,0.45836
2788300,-0.17500,80.8125,113,56,0.52894
2788310,-0.18000,80.8125,113,56,0.56239
2788320,-0.17500,80.6875,113,56,0.58926
2788330,-0.17000,80.5625,113,56,0.61197
2788340,-0.17500,80.1875,113,56,0.65665
2788350,-0.19500,79.9375,113,56,0.67570
2788360,-0.15500,79.6250,113,56,0.69206
2788370,0.13000,79.1875,113,56,0.70525
2788380,0.68000,78.1250,113,56,0.72283
2788390,0.86500,77.5625,113,56,0.72747
2788400,0.34000,76.9375,113,56,0.72967
2788410,-0.23500,76.3125,113,56,0.72967
2788420,-0.44500,74.8750,113,56,0.72381
2788430,-0.40000,74.1875,113,56,0.71819
2788440,-0.30000,73.5000,113,56,0.71184
2788450,-0.27000,72.8125,113,56,0.70403
2788460,-0.27000,71.4375,113,56,0.68449
2788470,-0.26000,70.7500,113,56,0.67277
2788480,-0.25500,70.0625,113,56,0.66032
2788490,-0.25500,69.3750,113,56,0.64689
2788500,-0.25000,68.0625,113,56,0.61832
2788510,-0.24000,67.4375,113,56,0.60342
2788520,-0.23000,67.0000,113,56,0.58999
2788530,-0.22000,66.6875,113,56,0.57729
2788540,-0.20000,68.0000,113,56,0.55092
2788550,-0.18000,70.6250,113,56,0.53773
2788560,-0.17000,75.1875,113,56,0.52527
2788570,-0.15500,81.5625,113,56,0.51331
2788580,-0.14000,97.1250,113,56,0.49084
2788590,-0.10500,105.2500,113,56,0.48083
2788600,-0.07500,113.0000,113,56,0.47106
2788610,-0.05000,120.0000,113,56,0.46178
2788620,-0.02500,130.7500,113,56,0.44640
2788630,-0.00500,134.1875,113,56,0.43858
2788640,0.01500,136.3125,113,56,0.43077
2788650,0.02000,137.1875,113,56,0.42295
2788660,0.03000,136.1875,113,56,0.40757
2788670,0.04500,134.7500,113,56,0.39976
2788680,0.07000,132.8750,113,56,0.39219
2788690,0.10500,130.8125,113,56,0.38437
2788700,0.12000,126.1250,113,56,0.36874
2788710,0.13000,123.7500,113,56,0.36068
2788720,0.12000,121.3750,113,56,0.35385
2788730,0.10500,119.1250,113,56,0.34750
2788740,0.08500,114.9375,113,56,0.33260
2788750,0.06500,113.0625,113,56,0.32454
2788760,0.04000,111.2500,113,56,0.31648
2788770,0.03000,109.4375,113,56,0.30842
2788780,0.04000,105.6250,113,56,0.29499
2788790,0.06000,103.3750,113,56,0.29084
2788800,0.08000,100.7500,113,56,0.28571
2788810,0.11500,97.8750,113,56,0.28107
2788820,0.13000,92.0625,113,56,0.27937
2788830,0.12500,89.6250,113,56,0.28303
2788840,0.11000,87.6250,113,56,0.29109
2788850,0.07500,86.1250,113,56,0.30452
2788860,0.01000,84.1875,113,56,0.34823
2788870,-0.05500,83.6875,113,56,0.37778
2788880,-0.11000,83.3750,113,56,0.41123
2788890,-0.14500,83.1875,113,56,0.44762
2788900,-0.16500,83.0000,113,56,0.52357
2788910,-0.17000,82.9375,113,56,0.56068
2788920,-0.17500,82.8750,113,56,0.59096
2788930,-0.17000,82.7500,113,56,0.61685
2788940,-0.17000,82.3750,113,56,0.66838
2788950,-0.18500,82.0000,113,56,0.69060
2788960,-0.20000,81.6250,113,56,0.70965
2788970,-0.05500,81.1875,113,56,0.72503
2788980,0.42000,80.0625,113,56,0.74652
2788990,0.90500,79.4375,113,56,0.75311
2789000,0.68500,78.7500,116,57,0.75702
2789010,0.00000,78.0000,116,57,0.75873
2789020,-0.40500,76.5625,116,57,0.75482
2789030,-0.44000,75.8125,116,57,0.75140
2789040,-0.32500,75.0625,116,57,0.74676
2789050,-0.25500,74.3750,116,57,0.74090
2789060,-0.26000,73.0000,116,57,0.72454
2789070,-0.26000,72.3750,116,57,0.71380
2789080,-0.25000,71.6875,116,57,0.70159
2789090,-0.23000,71.0000,116,57,0.68840
2789100,-0.21000,69.7500,116,57,0.65958
2789110,-0.19000,69.1250,116,57,0.64420
2789120,-0.17000,68.5625,116,57,0.63004
2789130,-0.15500,68.0000,116,57,0.61661
2789140,-0.15000,68.5625,116,57,0.58828
2789150,-0.13500,70.5000,116,57,0.57436
2789160,-0.11500,74.2500,116,57,0.56093
2789170,-0.09500,80.0000,116,57,0.54799
2789180,-0.08500,95.6875,116,57,0.52381
2789190,-0.06000,104.3125,116,57,0.51233
2789200,-0.04000,112.8125,116,57,0.50134
2789210,-0.02000,120.5625,116,57,0.49109
2789220,0.01000,132.7500,116,57,0.47424
2789230,0.03000,136.8125,116,57,0.46593
2789240,0.03000,139.4375,116,57,0.45739
2789250,0.03000,140.6875,116,57,0.44860
2789260,0.04000,140.0625,116,57,0.43150
2789270,0.05000,138.6875,116,57,0.42295
2789280,0.05000,136.8750,116,57,0.41441
2789290,0.06000,134.7500,116,57,0.40586
2789300,0.07500,129.9375,116,57,0.38877
2789310,0.08500,127.5000,116,57,0.38022
2789320,0.07500,125.0625,116,57,0.37289
2789330,0.05000,122.7500,116,57,0.36606
2789340,0.03000,118.4375,116,57,0.34969
2789350,0.01000,116.4375,116,57,0.34115
2789360,-0.02500,114.5625,116,57,0.33260
2789370,-0.04500,112.6875,116,57,0.32405
2789380,-0.03500,108.8125,116,57,0.30647
2789390,-0.01500,106.6250,116,57,0.29792
2789400,0.00500,104.0625,116,57,0.28987
2789410,0.03500,101.1875,116,57,0.28327
2789420,0.06000,95.3750,116,57,0.27766
2789430,0.06500,92.8125,116,57,0.27888
2789440,0.06500,90.6875,116,57,0.28425
2789450,0.05000,88.9375,116,57,0.29475
2789460,0.00000,86.6875,116,57,0.33284
2789470,-0.07000,86.0625,116,57,0.36044
2789480,-0.13500,85.6250,116,57,0.39243
2789490,-0.16500,85.4375,116,57,0.42808
2789500,-0.18000,85.1875,116,57,0.50525
2789510,-0.19000,85.1250,116,57,0.54408
2789520,-0.19500,85.0000,116,57,0.57656
2789530,-0.19500,84.8750,116,57,0.60464
2789540,-0.18500,84.4375,116,57,0.66129
2789550,-0.17500,84.0625,116,57,0.68596
2789560,-0.20500,83.6875,116,57,0.70745
2789570,-0.12500,83.1875,116,57,0.72527
2789580,0.31000,82.0625,116,57,0.75018
2789590,0.90000,81.4375,116,57,0.75800
2789600,0.82500,80.7500,116,57,0.76313
2789610,0.12500,80.0625,116,57,0.76581
2789620,-0.36500,78.6250,116,57,0.76288
2789630,-0.42500,77.8125,116,57,0.75971
2789640,-0.30500,77.0625,116,57,0.75580
2789650,-0.23500,76.3125,116,57,0.75043
2789660,-0.23000,74.8750,116,57,0.73553
2789670,-0.22500,74.1875,116,57,0.72576
2789680,-0.22500,73.4375,116,57,0.71477
2789690,-0.22000,72.7500,116,57,0.70232
2789700,-0.21000,71.3750,116,57,0.67399
2789710,-0.20000,70.7500,116,57,0.65836
2789720,-0.18500,70.1250,116,57,0.64347
2789730,-0.16500,69.6250,116,57,0.62930
2789740,-0.15500,69.6250,116,57,0.59927
2789750,-0.14500,71.0625,116,57,0.58462
2789760,-0.14000,74.3125,116,57,0.57045
2789770,-0.13000,79.6250,116,57,0.55702
2789780,-0.10500,95.0625,116,57,0.53236
2789790,-0.08000,103.8125,116,57,0.52112
2789800,-0.06000,112.4375,116,57,0.51038
2789810,-0.04500,120.4375,116,57,0.49988
2789820,-0.02500,133.1250,116,57,0.48230
2789830,-0.00500,137.3125,116,57,0.47326
2789840,0.00500,139.9375,116,57,0.46374
2789850,0.01000,141.1875,116,57,0.45446
2789860,0.02000,140.3750,116,57,0.43541
2789870,0.03500,138.8125,116,57,0.42613
2789880,0.04500,136.8125,116,57,0.41709
2789890,0.06000,134.5000,116,57,0.40830
2789900,0.08500,129.5000,116,57,0.39023
2789910,0.10000,126.9375,116,57,0.38095
2789920,0.09500,124.5000,116,57,0.37338
2789930,0.08000,122.0625,116,57,0.36654
2789940,0.05500,117.6250,116,57,0.34969
2789950,0.03000,115.5625,116,57,0.34066
2789960,0.00500,113.5625,116,57,0.33162
2789970,-0.00500,109.6250,116,57,0.32234
2789980,0.00500,107.4375,116,57,0.30403
2789990,0.03000,105.0000,116,57,0.29475
2790000,0.06000,102.1875,118,59,0.28596
2790010,0.10000,99.1875,118,59,0.27790
2790020,0.12500,93.3125,118,59,0.26935
2790030,0.12500,90.8125,118,59,0.26838
2790040,0.12000,88.8125,118,59,0.27131
2790050,0.11000,87.2500,118,59,0.27937
2790060,0.05000,85.3750,118,59,0.31282
2790070,-0.02000,84.9375,118,59,0.33846
2790080,-0.08000,84.6875,118,59,0.36899
2790090,-0.11000,84.6250,118,59,0.40366
2790100,-0.12500,84.5625,118,59,0.47985
2790110,-0.13500,84.5625,118,59,0.51917
2790120,-0.13500,84.5000,118,59,0.55214
2790130,-0.13000,84.3750,118,59,0.58071
2790140,-0.12500,83.9375,118,59,0.63858
2790150,-0.13500,83.6875,118,59,0.66325
2790160,-0.17000,83.3125,118,59,0.68425
2790170,-0.09000,82.8125,118,59,0.70159
2790180,0.29000,81.6250,118,59,0.72552
2790190,0.82500,80.9375,118,59,0.73309
2790200,0.80500,80.2500,118,59,0.73797
2790210,0.15500,79.5000,118,59,0.74042
2790220,-0.31500,77.9375,118,59,0.73724
2790230,-0.38500,77.1875,118,59,0.73382
2790240,-0.28000,76.3750,118,59,0.72894
2790250,-0.20000,75.6250,118,59,0.72259
2790260,-0.19500,74.1250,118,59,0.70574
2790270,-0.19500,73.4375,118,59,0.69524
2790280,-0.19000,72.6875,118,59,0.68327
2790290,-0.18000,72.0000,118,59,0.66984
2790300,-0.18000,70.5625,118,59,0.63956
2790310,-0.17000,69.9375,118,59,0.62344
2790320,-0.15000,69.3125,118,59,0.60855
2790330,-0.13500,68.8125,118,59,0.59438
2790340,-0.12500,68.7500,118,59,0.56459
2790350,-0.11500,70.0625,118,59,0.55018
2790360,-0.10000,73.0000,118,59,0.53651
2790370,-0.09500,78.0000,118,59,0.52357
2790380,-0.08500,92.6250,118,59,0.49963
2790390,-0.06500,101.0625,118,59,0.48864
2790400,-0.04000,109.4375,118,59,0.47814
2790410,-0.02000,123.8750,118,59,0.45958
2790420,-0.00500,129.3750,118,59,0.45177
2790430,0.00000,133.4375,118,59,0.44347
2790440,0.01000,136.0000,118,59,0.43468
2790450,0.02500,137.2500,118,59,0.42564
2790460,0.04000,136.3750,118,59,0.40708
2790470,0.06000,134.6875,118,59,0.39780
2790480,0.07000,132.5625,118,59,0.38877
2790490,0.09000,130.1250,118,59,0.37973
2790500,0.11500,124.7500,118,59,0.36166
2790510,0.12000,122.0000,118,59,0.35409
2790520,0.10500,119.3750,118,59,0.34725
2790530,0.08000,116.8750,118,59,0.33944
2790540,0.05500,112.1875,118,59,0.32234
2790550,0.03500,110.0625,118,59,0.31355
2790560,0.01500,108.0000,118,59,0.30476
2790570,0.00000,105.8750,118,59,0.29573
2790580,0.00500,101.0625,118,59,0.27668
2790590,0.04000,98.2500,118,59,0.26691
2790600,0.06000,95.1250,118,59,0.25763
2790610,0.09000,91.8750,118,59,0.24933
2790620,0.11000,86.1250,118,59,0.24103
2790630,0.11000,84.0625,118,59,0.23980
2790640,0.09500,82.5625,118,59,0.24225
2790650,0.04500,81.5625,118,59,0.24957
2790660,-0.03500,80.7500,118,59,0.28107
2790670,-0.11500,80.7500,118,59,0.30549
2790680,-0.15000,80.8750,118,59,0.33455
2790690,-0.15500,81.1250,118,59,0.36752
2790700,-0.16000,81.6875,118,59,0.43956
2790710,-0.17000,81.8750,118,59,0.47131
2790720,-0.17000,82.0000,118,59,0.49988
2790730,-0.16500,82.0000,118,59,0.53016
2790740,-0.15500,81.8750,118,59,0.58632
2790750,-0.16500,81.6250,118,59,0.60952
2790760,-0.17000,81.3125,118,59,0.62930
2790770,0.04500,80.8750,118,59,0.64542
2790780,0.57000,79.7500,118,59,0.66667
2790790,0.82000,79.1250,118,59,0.67253
2790800,0.41000,78.3750,118,59,0.67570
2790810,-0.16000,77.6250,118,59,0.67668
2790820,-0.40500,76.0000,118,59,0.67179
2790830,-0.37000,75.1250,118,59,0.66422
2790840,-0.25500,74.2500,118,59,0.65372
2790850,-0.20000,73.4375,118,59,0.64444
2790860,-0.20000,71.8125,118,59,0.62442
2790870,-0.20500,71.0000,118,59,0.61294
2790880,-0.21000,70.2500,118,59,0.60000
2790890,-0.20500,69.5000,118,59,0.58584
2790900,-0.20000,68.1250,118,59,0.55556
2790910,-0.18000,67.5000,118,59,0.54164
2790920,-0.15500,66.9375,118,59,0.52894
2790930,-0.13500,66.6250,118,59,0.51526
2790940,-0.12000,67.4375,118,59,0.48840
2790950,-0.11500,69.4375,118,59,0.47595
2790960,-0.10500,73.1250,118,59,0.46422
2790970,-0.08500,78.6875,118,59,0.45348
2790980,-0.07500,93.3750,118,59,0.43468
2790990,-0.06500,101.3125,118,59,0.42564
2791000,-0.05500,108.9375,121,60,0.41709
2791010,-0.04500,115.9375,121,60,0.40904
