RelativeTimeMilliseconds,ECG,ART,ART (Sys),ART (Dia),PPG
2882550,-0.18000,65.6250,148,69,0.54872
2882560,-0.17000,65.1875,148,69,0.53675
2882570,-0.15500,64.8750,148,69,0.52479
2882580,-0.13500,66.5000,148,69,0.50232
2882590,-0.12500,69.9375,148,69,0.49182
2882600,-0.11500,76.1250,148,69,0.48181
2882610,-0.10500,85.0000,148,69,0.47326
2882620,-0.09000,106.8750,148,69,0.45714
2882630,-0.07000,117.5000,148,69,0.44860
2882640,-0.04500,126.7500,148,69,0.44005
2882650,-0.03500,134.0000,148,69,0.43175
2882660,-0.02000,142.1875,148,69,0.41538
2882670,-0.01500,143.5625,148,69,0.40733
2882680,-0.00500,143.6250,148,69,0.39951
2882690,0.00000,141.0625,148,69,0.39194
2882700,0.00500,139.0000,148,69,0.37827
2882710,0.02000,136.6875,148,69,0.37289
2882720,0.04000,134.2500,148,69,0.36654
2882730,0.05000,131.6875,148,69,0.35971
2882740,0.06000,126.6875,148,69,0.34579
2882750,0.05000,124.3125,148,69,0.33871
2882760,0.03500,122.0625,148,69,0.33187
2882770,0.01000,119.9375,148,69,0.32527
2882780,-0.01500,115.8750,148,69,0.31184
2882790,-0.03500,113.7500,148,69,0.30525
2882800,-0.04000,111.5000,148,69,0.29890
2882810,-0.03500,108.9375,148,69,0.29402
2882820,-0.01000,102.6250,148,69,0.28449
2882830,0.03500,98.9375,148,69,0.27888
2882840,0.08000,95.2500,148,69,0.27326
2882850,0.12000,89.3750,148,69,0.26545
2882860,0.14500,87.4375,148,69,0.26471
2882870,0.15500,86.1250,148,69,0.26716
2882880,0.15000,85.3125,148,69,0.27424
2882890,0.11000,84.8125,148,69,0.28645
2882900,0.05000,84.1875,148,69,0.32479
2882910,-0.02000,83.9375,148,69,0.34847
2882920,-0.07500,83.6875,148,69,0.37924
2882930,-0.11000,83.3750,148,69,0.41490
2882940,-0.12500,82.5625,148,69,0.49231
2882950,-0.13500,82.0625,148,69,0.53016
2882960,-0.13500,81.5625,148,69,0.56508
2882970,-0.13500,81.0000,148,69,0.59609
2882980,-0.13500,79.8750,148,69,0.66398
2882990,-0.13500,79.2500,148,69,0.71087
2883000,-0.15000,78.6875,148,69,0.73968
2883010,-0.06500,78.0000,148,69,0.75580
2883020,0.31000,76.5625,148,69,0.76948
2883030,0.84000,75.8125,148,69,0.77192
2883040,0.82500,75.0625,148,69,0.77192
2883050,0.18500,74.3125,148,69,0.76996
2883060,-0.31500,72.7500,148,69,0.75702
2883070,-0.44500,72.0000,148,69,0.75116
2883080,-0.35000,71.2500,148,69,0.74261
2883090,-0.23500,70.5000,148,69,0.73211
2883100,-0.19000,69.1875,148,69,0.70794
2883110,-0.18000,68.5000,148,69,0.69573
2883120,-0.17000,67.8125,148,69,0.68205
2883130,-0.16000,67.1875,148,69,0.66740
2883140,-0.15500,66.0000,148,69,0.63761
2883150,-0.14500,65.5000,148,69,0.62271
2883160,-0.13000,65.1250,148,69,0.60830
2883170,-0.11500,65.1250,148,69,0.59414
2883180,-0.10000,68.5625,148,69,0.56752
2883190,-0.09000,73.6875,148,69,0.55482
2883200,-0.07500,81.6250,148,69,0.54408
2883210,-0.05500,91.9375,148,69,0.53407
2883220,-0.03500,114.3750,148,69,0.51258
2883230,-0.01500,124.3125,148,69,0.50183
2883240,0.00500,132.4375,148,69,0.49133
2883250,0.02500,138.4375,148,69,0.48107
2883260,0.04000,144.6250,148,69,0.46129
2883270,0.04500,145.2500,148,69,0.45177
2883280,0.05000,144.7500,148,69,0.44249
2883290,0.05000,143.4375,148,69,0.43321
2883300,0.05000,139.3750,148,69,0.41685
2883310,0.06000,136.9375,148,69,0.41026
2883320,0.07000,134.5000,148,69,0.40244
2883330,0.08000,132.0000,148,69,0.39414
2883340,0.08000,127.3125,148,69,0.37753
2883350,0.06000,125.1250,148,69,0.36923
2883360,0.04000,123.0625,148,69,0.36093
2883370,0.01500,119.1875,148,69,0.34505
2883380,-0.00500,117.2500,148,69,0.33748
2883390,-0.02000,115.1875,148,69,0.32991
2883400,-0.02500,112.8750,148,69,0.32430
2883410,-0.01500,110.1875,148,69,0.31941
2883420,0.01000,103.4375,148,69,0.30623
2883430,0.05000,99.6250,148,69,0.29939
2883440,0.09000,95.8750,148,69,0.29304
2883450,0.13000,92.5625,148,69,0.28791
2883460,0.14500,88.0000,148,69,0.28571
2883470,0.14500,86.7500,148,69,0.29084
2883480,0.14000,85.9375,148,69,0.30159
2883490,0.09500,85.4375,148,69,0.31917
2883500,0.02500,84.9375,148,69,0.37094
2883510,-0.04500,84.7500,148,69,0.40098
2883520,-0.09500,84.5625,148,69,0.43883
2883530,-0.12000,84.3125,148,69,0.48181
2883540,-0.13500,83.6250,148,69,0.57167
2883550,-0.14500,83.1250,148,69,0.61416
2883560,-0.14500,82.6250,148,69,0.65275
2883570,-0.14500,82.1250,148,69,0.68669
2883580,-0.15000,81.0000,148,69,0.73871
2883590,-0.16500,80.3750,148,69,0.75678
2883600,-0.17000,79.6875,148,69,0.76825
2883610,-0.00500,78.9375,148,69,0.77534
2883620,0.48500,77.4375,148,69,0.78462
2883630,0.91000,76.6875,148,69,0.78608
2883640,0.61500,75.8750,148,69,0.78535
2883650,-0.06000,75.1250,148,69,0.78291
2883660,-0.42500,73.5625,148,69,0.77216
2883670,-0.46500,72.8125,148,69,0.76410
2883680,-0.34500,72.0625,148,69,0.75433
2883690,-0.25500,71.3125,148,69,0.74310
2883700,-0.24000,70.0000,148,69,0.71746
2883710,-0.22000,69.3125,148,69,0.70427
2883720,-0.21000,68.6875,148,69,0.68962
2883730,-0.20000,68.0625,148,69,0.67424
2883740,-0.19500,66.8750,148,69,0.64298
2883750,-0.19000,66.3750,148,69,0.62759
2883760,-0.18000,66.1875,148,69,0.61270
2883770,-0.16500,66.6875,148,69,0.59829
2883780,-0.14500,73.3750,148,69,0.57070
2883790,-0.13500,81.1250,148,69,0.55751
2883800,-0.12000,91.5000,148,69,0.54628
2883810,-0.10500,103.1875,148,69,0.53626
2883820,-0.08500,125.4375,148,69,0.51477
2883830,-0.06000,134.1250,148,69,0.50379
2883840,-0.04000,140.6250,148,69,0.49280
2883850,-0.02500,144.8125,148,69,0.48205
2883860,-0.01500,147.8125,148,69,0.46203
2883870,-0.00500,147.3750,148,69,0.45250
2883880,-0.00500,146.1250,148,69,0.44322
2883890,-0.00500,144.3750,148,69,0.43419
2883900,-0.00500,140.0625,148,69,0.41783
2883910,0.01000,137.7500,148,69,0.41099
2883920,0.03000,135.3750,148,69,0.40317
2883930,0.03500,130.6875,148,69,0.38657
2883940,0.03000,128.5000,148,69,0.37827
2883950,0.01500,126.3750,148,69,0.36996
2883960,-0.01000,124.3750,148,69,0.36190
2883970,-0.03500,122.4375,148,69,0.35409
2883980,-0.06000,118.6250,148,69,0.33871
2883990,-0.07500,116.5000,148,69,0.33114
2884000,-0.07500,114.0625,148,69,0.32552
2884010,-0.05500,111.1250,148,69,0.32063
2884020,-0.02500,103.7500,148,69,0.30842
2884030,0.01000,99.7500,148,69,0.30232
2884040,0.04500,96.0000,148,69,0.29719
2884050,0.08500,92.8125,148,69,0.29377
2884060,0.10500,88.7500,148,69,0.29792
2884070,0.11000,87.6875,148,69,0.30818
2884080,0.09000,87.1250,148,69,0.33480
2884090,0.04500,86.7500,148,69,0.36459
2884100,-0.03000,86.4375,148,69,0.42051
2884110,-0.10000,86.2500,148,69,0.45446
2884120,-0.14500,86.0000,148,69,0.49670
2884130,-0.16500,85.6875,148,69,0.54286
2884140,-0.17000,84.8125,148,69,0.63468
2884150,-0.17000,84.3125,148,69,0.67595
2884160,-0.17000,83.8125,148,69,0.71209
2884170,-0.16500,83.2500,148,69,0.74261
2884180,-0.16000,82.1250,148,69,0.78779
2884190,-0.18000,81.5000,148,69,0.80293
2884200,-0.13500,80.8125,148,69,0.81197
2884210,0.18000,79.3750,148,69,0.81685
2884220,0.76500,78.6250,148,69,0.82247
2884230,0.90500,77.8125,148,69,0.82247
2884240,0.27500,77.0625,148,69,0.82051
2884250,-0.34000,76.2500,148,69,0.81685
2884260,-0.51000,74.6250,148,69,0.80391
2884270,-0.41500,73.8750,148,69,0.79463
2884280,-0.29000,73.0625,148,69,0.78364
2884290,-0.25500,72.3750,148,69,0.77070
2884300,-0.25000,71.0625,148,69,0.74212
2884310,-0.23500,70.3750,148,69,0.72796
2884320,-0.22000,69.7500,148,69,0.71233
2884330,-0.21500,69.1250,148,69,0.69597
2884340,-0.21500,68.0000,148,69,0.66300
2884350,-0.21000,67.6875,148,69,0.64713
2884360,-0.19000,67.9375,148,69,0.63199
2884370,-0.17000,69.4375,148,69,0.61734
2884380,-0.15500,79.8750,148,69,0.58926
2884390,-0.13500,89.5625,148,69,0.57582
2884400,-0.12000,101.1250,148,69,0.56410
2884410,-0.10500,113.2500,148,69,0.55360
2884420,-0.08500,134.1250,148,69,0.53040
2884430,-0.06000,141.4375,148,69,0.51893
2884440,-0.04000,146.3750,148,69,0.50769
2884450,-0.02500,149.1875,148,69,0.49670
2884460,-0.01500,150.0000,148,69,0.47546
2884470,-0.01000,148.8125,148,69,0.46520
2884480,-0.00500,147.0625,148,69,0.45519
2884490,0.00000,145.0000,148,69,0.44518
2884500,0.01000,140.3750,148,69,0.42711
2884510,0.02500,137.9375,148,69,0.42002
2884520,0.03500,135.5625,148,69,0.41172
2884530,0.04000,133.1875,148,69,0.40317
2884540,0.02500,128.7500,148,69,0.38584
2884550,0.00000,126.7500,148,69,0.37729
2884560,-0.02500,124.8125,148,69,0.36874
2884570,-0.04500,122.8750,148,69,0.36044
2884580,-0.06500,118.8125,148,69,0.34383
2884590,-0.07000,116.4375,148,69,0.33553
2884600,-0.06000,113.6250,148,69,0.32918
2884610,-0.03500,110.2500,148,69,0.32357
2884620,0.00000,102.4375,148,69,0.30989
2884630,0.03000,98.6875,148,69,0.30379
2884640,0.07000,95.4375,148,69,0.29963
2884650,0.10500,92.8750,148,69,0.29817
2884660,0.11000,89.7500,148,69,0.30965
2884670,0.10000,89.0000,148,69,0.32503
2884680,0.07500,88.6250,148,69,0.34823
2884690,0.01000,88.3750,148,69,0.37949
2884700,-0.06500,88.1250,148,69,0.45641
2884710,-0.11500,87.9375,148,69,0.49524
2884720,-0.14500,87.6875,148,69,0.54090
2884730,-0.16000,87.2500,148,69,0.58877
2884740,-0.17000,86.1875,148,69,0.67839
2884750,-0.17000,85.5625,148,69,0.71648
2884760,-0.17000,84.8750,148,69,0.74872
2884770,-0.16000,84.1875,148,69,0.77509
2884780,-0.17000,82.6875,148,69,0.81270
2884790,-0.20000,81.9375,148,69,0.82491
2884800,-0.02000,81.1875,148,69,0.83175
2884810,0.51500,80.4375,148,69,0.83492
2884820,0.97500,78.9375,148,69,0.83712
2884830,0.65000,78.1875,148,69,0.83565
2884840,-0.12500,77.4375,148,69,0.83223
2884850,-0.51500,76.6875,148,69,0.82686
2884860,-0.47500,75.1250,148,69,0.81074
2884870,-0.32500,74.3125,148,69,0.80000
2884880,-0.26000,73.6250,148,69,0.78755
2884890,-0.25000,72.8750,148,69,0.77363
2884900,-0.23500,71.5000,148,69,0.74335
2884910,-0.21500,70.8125,148,69,0.72845
2884920,-0.20000,70.1250,148,69,0.71209
2884930,-0.19000,69.4375,148,69,0.69499
2884940,-0.18000,68.3750,148,69,0.66129
2884950,-0.17000,68.2500,148,69,0.64518
2884960,-0.15500,69.0625,148,69,0.62930
2884970,-0.13500,71.7500,148,69,0.61416
2884980,-0.12500,86.2500,148,69,0.58608
2884990,-0.10500,97.5625,148,69,0.57265
2885000,-0.09000,109.8750,147,69,0.56093
2885010,-0.07000,121.8125,147,69,0.55018
2885020,-0.05000,140.3750,147,69,0.52698
2885030,-0.03000,146.0625,147,69,0.50183
2885040,-0.01500,149.3750,147,69,0.47009
2885050,0.00000,150.7500,147,69,0.44933
2885060,0.01000,149.4375,147,69,0.42125
2885070,0.02000,147.6875,147,69,0.40781
2885080,0.03000,145.5000,147,69,0.39658
2885090,0.04000,143.1875,147,69,0.38877
2885100,0.05500,138.3750,147,69,0.37314
2885110,0.07500,136.0000,147,69,0.36435
2885120,0.09000,133.6875,147,69,0.35775
2885130,0.08000,129.3750,147,69,0.34261
2885140,0.06500,127.3125,147,69,0.33480
2885150,0.04000,125.3125,147,69,0.32674
2885160,0.01000,123.3125,147,69,0.31893
2885170,-0.00500,121.2500,147,69,0.31111
2885180,-0.02000,116.5625,147,69,0.29597
2885190,-0.02500,113.6875,147,69,0.28840
2885200,-0.01000,110.3125,147,69,0.28083
2885210,0.02000,106.4375,147,69,0.27497
2885220,0.05000,98.5000,147,69,0.26569
2885230,0.09000,95.0625,147,69,0.26129
2885240,0.13000,92.3125,147,69,0.25861
2885250,0.15000,90.3125,147,69,0.25910
2885260,0.15500,88.1875,147,69,0.27497
2885270,0.14000,87.7500,147,69,0.29255
2885280,0.08500,87.5625,147,69,0.31770
2885290,0.00500,87.5000,147,69,0.34994
2885300,-0.06500,87.3125,147,69,0.41661
2885310,-0.10500,87.1250,147,69,0.45714
2885320,-0.13000,86.8125,147,69,0.49988
2885330,-0.14000,86.3750,147,69,0.54212
2885340,-0.14500,85.3125,147,69,0.61685
2885350,-0.14500,84.6875,147,69,0.64713
2885360,-0.14500,84.0000,147,69,0.67204
2885370,-0.14500,83.3125,147,69,0.69206
2885380,-0.17500,81.8125,147,69,0.71868
2885390,-0.11500,81.0625,147,69,0.72650
2885400,0.26000,80.2500,147,69,0.73040
2885410,0.82000,79.4375,147,69,0.73162
2885420,0.80000,77.8125,147,69,0.72894
2885430,0.15500,77.0000,147,69,0.72552
2885440,-0.34500,76.1875,147,69,0.72210
2885450,-0.46000,75.3750,147,69,0.71624
2885460,-0.33500,73.8125,147,69,0.69426
2885470,-0.22000,73.0625,147,69,0.68523
2885480,-0.19000,72.3125,147,69,0.67375
2885490,-0.18000,70.8750,147,69,0.64689
2885500,-0.17500,70.1875,147,69,0.63370
2885510,-0.16500,69.5000,147,69,0.61905
2885520,-0.15500,68.8750,147,69,0.60391
2885530,-0.14500,68.2500,147,69,0.58877
2885540,-0.13500,67.3750,147,69,0.55922
2885550,-0.12000,67.5625,147,69,0.54505
2885560,-0.10500,69.0000,147,69,0.53138
2885570,-0.09000,72.5625,147,69,0.51795
2885580,-0.08000,88.5000,147,69,0.49328
2885590,-0.06500,99.6875,147,69,0.48034
2885600,-0.05500,111.1875,147,69,0.46984
2885610,-0.03500,121.9375,147,69,0.46178
2885620,-0.01500,137.8750,147,69,0.44249
2885630,0.00500,142.3750,147,69,0.43248
2885640,0.02000,144.8125,147,69,0.42247
2885650,0.03000,145.4375,147,69,0.41270
2885660,0.04000,143.1250,147,69,0.39365
2885670,0.05500,140.9375,147,69,0.38437
2885680,0.07000,138.4375,147,69,0.37289
2885690,0.09000,135.6875,147,69,0.36264
2885700,0.10000,130.1250,147,69,0.35092
2885710,0.10500,127.3750,147,69,0.34139
2885720,0.10000,124.8125,147,69,0.33236
2885730,0.08000,122.3125,147,69,0.32576
2885740,0.05000,117.6250,147,69,0.30842
2885750,0.03000,115.3750,147,69,0.29963
2885760,0.01000,113.0625,147,69,0.29328
2885770,0.00000,108.0000,147,69,0.28449
2885780,0.00000,104.8750,147,69,0.26789
2885790,0.01000,101.3750,147,69,0.26276
2885800,0.03500,97.6250,147,69,0.25641
2885810,0.07500,93.9375,147,69,0.24982
2885820,0.10500,88.3125,147,69,0.24176
2885830,0.13500,86.5625,147,69,0.23883
2885840,0.15500,85.5625,147,69,0.23932
2885850,0.16500,85.0000,147,69,0.24127
2885860,0.14000,84.8750,147,69,0.26325
2885870,0.08000,84.9375,147,69,0.29255
2885880,0.00500,85.0625,147,69,0.32552
2885890,-0.06000,85.0625,147,69,0.35726
2885900,-0.10500,84.7500,147,69,0.42540
2885910,-0.12500,84.3750,147,69,0.46325
2885920,-0.14000,83.8750,147,69,0.49988
2885930,-0.14500,83.3125,147,69,0.52650
2885940,-0.15000,82.1250,147,69,0.58242
2885950,-0.15000,81.4375,147,69,0.60171
2885960,-0.15000,80.7500,147,69,0.61685
2885970,-0.16000,79.2500,147,69,0.63101
2885980,-0.15000,78.5000,147,69,0.64469
2885990,0.09500,77.7500,147,69,0.64615
2886000,0.63000,77.0000,145,68,0.64518
2886010,0.86000,76.2500,145,68,0.64274
2886020,0.37000,74.6875,145,68,0.63297
2886030,-0.22000,73.9375,145,68,0.62589
2886040,-0.45500,73.1250,145,68,0.61734
2886050,-0.41500,72.3125,145,68,0.60733
2886060,-0.26000,70.8750,145,68,0.58437
2886070,-0.21500,70.1250,145,68,0.57167
2886080,-0.20000,69.5000,145,68,0.55824
2886090,-0.19000,68.8125,145,68,0.54603
2886100,-0.18500,67.5625,145,68,0.52161
2886110,-0.17500,66.9375,145,68,0.50867
2886120,-0.17500,66.4375,145,68,0.49597
2886130,-0.17000,65.9375,145,68,0.48376
2886140,-0.15500,65.7500,145,68,0.46056
2886150,-0.13500,66.8750,145,68,0.44982
2886160,-0.12500,69.8125,145,68,0.43956
2886170,-0.11500,75.3750,145,68,0.42955
2886180,-0.10000,94.1875,145,68,0.41074
2886190,-0.08000,105.2500,145,68,0.40317
2886200,-0.06500,115.8125,145,68,0.39634
2886210,-0.05000,125.0000,145,68,0.38877
2886220,-0.03500,137.3125,145,68,0.37314
2886230,-0.01500,140.3750,145,68,0.36532
2886240,0.00000,141.6875,145,68,0.35751
2886250,0.01500,141.5625,145,68,0.34994
2886260,0.03000,138.3750,145,68,0.33529
2886270,0.05000,136.0000,145,68,0.32796
2886280,0.07000,133.2500,145,68,0.32063
2886290,0.08500,130.4375,145,68,0.31477
2886300,0.09000,124.8125,145,68,0.30330
2886310,0.09000,122.1250,145,68,0.29646
2886320,0.08000,119.5000,145,68,0.28962
2886330,0.05500,117.0000,145,68,0.28278
2886340,0.03000,112.3125,145,68,0.26911
2886350,0.01000,109.9375,145,68,0.26252
2886360,-0.00500,107.4375,145,68,0.25592
2886370,-0.01500,104.7500,145,68,0.24933
2886380,-0.00500,98.2500,145,68,0.23687
2886390,0.01500,94.6250,145,68,0.23248
2886400,0.05000,91.0625,145,68,0.22906
2886410,0.08500,88.0625,145,68,0.22491
2886420,0.11500,84.1250,145,68,0.21978
2886430,0.14000,83.2500,145,68,0.22051
2886440,0.14500,82.8750,145,68,0.22515
2886450,0.13000,82.8125,145,68,0.23468
2886460,0.08500,83.1250,145,68,0.27033
2886470,0.02000,83.2500,145,68,0.29695
2886480,-0.05000,83.2500,145,68,0.32869
2886490,-0.10500,83.1250,145,68,0.35946
2886500,-0.12500,82.5625,145,68,0.42466
2886510,-0.14000,82.1250,145,68,0.45983
2886520,-0.14500,81.6250,145,68,0.49328
2886530,-0.15000,81.0625,145,68,0.52381
2886540,-0.15500,79.9375,145,68,0.57167
2886550,-0.14500,79.3125,145,68,0.58852
2886560,-0.15500,78.6875,145,68,0.60098
2886570,-0.17000,78.0000,145,68,0.60977
2886580,-0.03500,76.5625,145,68,0.61758
2886590,0.41000,75.8125,145,68,0.61734
2886600,0.86500,75.1250,145,68,0.61538
2886610,0.66500,74.3750,145,68,0.61197
2886620,0.01000,72.8125,145,68,0.60073
2886630,-0.39000,72.0625,145,68,0.59316
2886640,-0.45500,71.3125,145,68,0.58437
2886650,-0.34500,70.5625,145,68,0.57411
2886660,-0.25000,69.1875,145,68,0.55092
2886670,-0.22000,68.5000,145,68,0.53846
2886680,-0.21000,67.8750,145,68,0.52576
2886690,-0.20000,67.2500,145,68,0.51453
2886700,-0.19000,66.0000,145,68,0.49304
2886710,-0.18000,65.4375,145,68,0.48181
2886720,-0.17000,64.9375,145,68,0.47082
2886730,-0.15500,64.6250,145,68,0.46007
2886740,-0.13500,65.5625,145,68,0.43980
2886750,-0.11500,68.2500,145,68,0.43028
2886760,-0.10500,73.6250,145,68,0.42125
2886770,-0.09500,81.8750,145,68,0.41245
2886780,-0.08500,103.5000,145,68,0.39609
2886790,-0.07500,114.3750,145,68,0.38950
2886800,-0.05500,124.0000,145,68,0.38364
2886810,-0.03000,131.6875,145,68,0.37705
2886820,-0.01000,140.8125,145,68,0.36337
2886830,0.00000,142.6250,145,68,0.35653
2886840,0.01000,142.9375,145,68,0.34969
2886850,0.02000,142.1875,145,68,0.34286
2886860,0.04000,138.4375,145,68,0.32918
2886870,0.05500,136.0000,145,68,0.32259
2886880,0.06500,133.3125,145,68,0.31600
2886890,0.08000,130.6250,145,68,0.31087
2886900,0.09000,125.3750,145,68,0.30085
2886910,0.08000,122.8750,145,68,0.29499
2886920,0.05500,120.4375,145,68,0.28889
2886930,0.03000,118.1875,145,68,0.28278
2886940,0.01000,113.8750,145,68,0.27057
2886950,-0.01000,111.6875,145,68,0.26471
2886960,-0.02000,109.2500,145,68,0.25885
2886970,-0.02000,106.5625,145,68,0.25299
2886980,0.00000,100.0625,145,68,0.24298
2886990,0.03500,96.5625,145,68,0.23980
2887000,0.08000,93.1875,145,68,0.23590
2887010,0.11000,90.3750,145,68,0.23248
2887020,0.14000,86.6250,145,68,0.23126
2887030,0.15500,85.6250,145,68,0.23541
2887040,0.15500,85.0625,145,68,0.24420
2887050,0.13500,84.8125,145,68,0.25861
2887060,0.07500,84.5000,145,68,0.30574
2887070,-0.00500,84.3125,145,68,0.34432
2887080,-0.07500,84.1250,145,68,0.38999
2887090,-0.11500,83.8125,145,68,0.42784
2887100,-0.14000,82.8750,145,68,0.49670
2887110,-0.14500,82.3750,145,68,0.53114
2887120,-0.15000,81.8750,145,68,0.56288
2887130,-0.15000,80.8125,145,68,0.59096
2887140,-0.15000,80.2500,145,68,0.63394
2887150,-0.15000,79.6250,145,68,0.64908
2887160,-0.16000,78.9375,145,68,0.66032
2887170,-0.14000,78.2500,145,68,0.66813
2887180,0.14000,76.8750,145,68,0.67424
2887190,0.68500,76.1250,145,68,0.67350
2887200,0.87000,75.3750,145,68,0.67155
2887210,0.38500,74.6250,145,68,0.66813
2887220,-0.20000,73.0625,145,68,0.65714
2887230,-0.45000,72.3125,145,68,0.64957
2887240,-0.41500,71.5625,145,68,0.64054
2887250,-0.28500,70.8750,145,68,0.63028
2887260,-0.22500,69.5000,145,68,0.60757
2887270,-0.21000,68.8125,145,68,0.59536
2887280,-0.20000,68.1875,145,68,0.58291
2887290,-0.19000,67.5000,145,68,0.57167
2887300,-0.19000,66.3125,145,68,0.54969
2887310,-0.18000,65.7500,145,68,0.53846
2887320,-0.16500,65.3750,145,68,0.52747
2887330,-0.15000,65.2500,145,68,0.51673
2887340,-0.13500,68.3125,145,68,0.49621
2887350,-0.12000,73.0625,145,68,0.48669
2887360,-0.11000,80.7500,145,68,0.47741
2887370,-0.09500,90.6875,145,68,0.46838
2887380,-0.08000,112.9375,145,68,0.45275
2887390,-0.05500,123.0000,145,68,0.44615
2887400,-0.03500,131.3750,145,68,0.43907
2887410,-0.01500,137.6250,145,68,0.43175
2887420,0.00000,144.1875,145,68,0.41661
2887430,0.01000,145.0625,145,68,0.40928
2887440,0.02000,144.7500,145,68,0.40220
2887450,0.03000,143.5625,145,68,0.39512
2887460,0.03500,139.8125,145,68,0.38071
2887470,0.04500,137.4375,145,68,0.37387
2887480,0.06000,134.9375,145,68,0.36703
2887490,0.07500,132.4375,145,68,0.36142
2887500,0.08000,127.5625,145,68,0.35067
2887510,0.07000,125.3125,145,68,0.34457
2887520,0.04000,123.1250,145,68,0.33822
2887530,0.01500,121.0000,145,68,0.33187
2887540,-0.00500,116.9375,145,68,0.31917
2887550,-0.02000,114.8750,145,68,0.31306
2887560,-0.02500,112.5000,145,68,0.30696
2887570,-0.01500,109.8125,145,68,0.30085
2887580,0.00500,103.0625,145,68,0.29109
2887590,0.04000,99.1875,145,68,0.28816
2887600,0.08000,95.3750,145,68,0.28498
2887610,0.11500,92.0000,145,68,0.28254
2887620,0.14500,87.5000,145,68,0.28498
2887630,0.15500,86.3750,145,68,0.29231
2887640,0.15000,85.6250,145,68,0.30476
2887650,0.12000,85.2500,145,68,0.32308
2887660,0.06000,84.7500,145,68,0.37778
2887670,-0.01000,84.5625,145,68,0.41245
2887680,-0.07000,84.3750,145,68,0.45031
2887690,-0.10000,84.0625,145,68,0.48425
2887700,-0.12000,83.3125,145,68,0.54994
2887710,-0.13000,82.8125,145,68,0.58315
2887720,-0.13500,82.3125,145,68,0.61343
2887730,-0.14000,81.2500,145,68,0.64005
2887740,-0.14000,80.6875,145,68,0.68010
2887750,-0.14000,80.0625,145,68,0.69353
2887760,-0.16000,79.3750,145,68,0.70330
2887770,-0.07500,78.6250,145,68,0.70989
2887780,0.32000,77.1250,145,68,0.71453
2887790,0.85000,76.3125,145,68,0.71306
2887800,0.78000,75.5625,145,68,0.71087
2887810,0.14500,74.7500,145,68,0.70745
2887820,-0.32000,73.1875,145,68,0.69597
2887830,-0.45000,72.3750,145,68,0.68791
2887840,-0.36500,71.6250,145,68,0.67863
2887850,-0.26000,70.9375,145,68,0.66813
2887860,-0.22000,69.5625,145,68,0.64371
2887870,-0.20500,68.9375,145,68,0.63053
2887880,-0.19500,68.2500,145,68,0.61709
2887890,-0.18500,67.6250,145,68,0.60464
2887900,-0.18000,66.3750,145,68,0.58046
2887910,-0.16500,65.8750,145,68,0.56801
2887920,-0.15500,65.5625,145,68,0.55604
2887930,-0.14500,65.7500,145,68,0.54408
2887940,-0.13500,70.2500,145,68,0.52137
2887950,-0.12500,76.1875,145,68,0.51062
2887960,-0.11000,84.9375,145,68,0.50012
2887970,-0.09000,95.5625,145,68,0.49011
2887980,-0.06500,117.6250,145,68,0.47228
2887990,-0.04500,127.0000,145,68,0.46496
2888000,-0.02500,134.4375,145,68,0.45690
2888010,-0.00500,139.8125,145,68,0.44860
2888020,0.01000,144.7500,145,68,0.43175
2888030,0.01500,145.0000,145,68,0.42344
2888040,0.02000,144.2500,145,68,0.41514
2888050,0.02500,142.7500,145,68,0.40684
2888060,0.04000,138.6250,145,68,0.39072
2888070,0.05000,136.2500,145,68,0.38315
2888080,0.07000,133.7500,145,68,0.37558
2888090,0.08000,131.3125,145,68,0.36947
2888100,0.08000,126.5625,145,68,0.35775
2888110,0.06000,124.3750,145,68,0.35092
2888120,0.03500,122.2500,145,68,0.34408
2888130,0.00000,120.2500,145,68,0.33748
2888140,-0.02000,116.2500,145,68,0.32430
2888150,-0.04000,114.0625,145,68,0.31795
2888160,-0.04500,111.6250,145,68,0.31184
2888170,-0.03500,108.7500,145,68,0.30549
2888180,-0.00500,101.5000,145,68,0.29499
2888190,0.03000,97.3125,145,68,0.29158
2888200,0.07500,93.2500,145,68,0.28816
2888210,0.11000,89.7500,145,68,0.28596
2888220,0.13500,85.1875,145,68,0.29011
2888230,0.14000,84.1250,145,68,0.29866
2888240,0.14000,83.5625,145,68,0.31282
2888250,0.10000,83.3125,145,68,0.33309
2888260,0.03000,83.2500,145,68,0.39145
2888270,-0.04500,83.1875,145,68,0.42735
2888280,-0.10000,83.1250,145,68,0.46569
2888290,-0.13500,82.9375,145,68,0.49963
2888300,-0.15000,82.3750,145,68,0.56337
2888310,-0.16000,81.9375,145,68,0.59512
2888320,-0.16000,81.5000,145,68,0.62369
2888330,-0.16000,81.0000,145,68,0.64835
2888340,-0.16000,79.8125,145,68,0.68449
2888350,-0.16000,79.1875,145,68,0.69646
2888360,-0.17500,78.5000,145,68,0.70476
2888370,-0.04500,77.8125,145,68,0.71013
2888380,0.40000,76.3125,145,68,0.71306
2888390,0.87500,75.5625,145,68,0.71111
2888400,0.71500,74.7500,145,68,0.70842
2888410,0.05000,73.9375,145,68,0.70427
2888420,-0.37500,72.3750,145,68,0.69158
2888430,-0.46000,71.6250,145,68,0.68303
2888440,-0.35000,70.8750,145,68,0.67302
2888450,-0.25000,70.1875,145,68,0.66154
2888460,-0.22500,69.1458,145,68,0.64188
2888470,-0.21500,68.1250,145,68,0.62125
2888480,-0.20000,67.5000,145,68,0.60684
2888490,-0.19000,66.8750,145,68,0.59389
2888500,-0.18000,65.6875,145,68,0.56899
2888510,-0.18000,65.2500,145,68,0.55604
2888520,-0.17000,65.0625,145,68,0.54335
2888530,-0.15500,65.6250,145,68,0.53114
2888540,-0.14000,72.3750,145,68,0.50842
2888550,-0.12500,79.9375,145,68,0.49768
2888560,-0.10500,90.0625,145,68,0.48742
2888570,-0.08500,101.5000,145,68,0.47766
2888580,-0.06500,123.3125,145,68,0.45958
2888590,-0.04500,131.8750,145,68,0.45201
2888600,-0.02500,138.3750,145,68,0.44396
2888610,-0.00500,142.7500,145,68,0.43565
2888620,0.00000,146.1875,145,68,0.41905
2888630,0.01000,146.0000,145,68,0.41099
2888640,0.01000,144.9375,145,68,0.40317
2888650,0.01500,143.2500,145,68,0.39512
2888660,0.02000,139.0000,145,68,0.37973
2888670,0.03500,136.5625,145,68,0.37216
2888680,0.05000,134.1875,145,68,0.36606
2888690,0.06000,131.7500,145,68,0.36093
2888700,0.05500,127.1250,145,68,0.34799
2888710,0.04000,124.9375,145,68,0.34115
2888720,0.02000,122.8750,145,68,0.33455
2888730,-0.00500,120.8750,145,68,0.32796
2888740,-0.02500,116.8750,145,68,0.31477
2888750,-0.04500,114.6250,145,68,0.30818
2888760,-0.05000,112.1250,145,68,0.30159
2888770,-0.04000,109.1250,145,68,0.29524
2888780,-0.01500,101.8750,145,68,0.28474
2888790,0.02000,98.0625,145,68,0.28181
2888800,0.06000,94.6250,145,68,0.27961
2888810,0.10000,91.7500,145,68,0.27888
2888820,0.12500,88.0000,145,68,0.28767
2888830,0.13000,87.0000,145,68,0.29963
2888840,0.12000,86.3125,145,68,0.31770
2888850,0.07000,85.9375,145,68,0.34188
2888860,0.00000,85.3750,145,68,0.40684
2888870,-0.07500,85.1875,145,68,0.44493
2888880,-0.13000,84.8750,145,68,0.47937
2888890,-0.15500,84.5000,145,68,0.51160
2888900,-0.16500,83.5625,145,68,0.58071
2888910,-0.17000,83.0625,145,68,0.61221
2888920,-0.17000,82.5000,145,68,0.63980
2888930,-0.17000,81.9375,145,68,0.66325
2888940,-0.17000,80.8125,145,68,0.69768
2888950,-0.18000,80.1875,145,68,0.70891
2888960,-0.17500,79.5000,145,68,0.71673
2888970,0.04000,78.8125,145,68,0.72186
2888980,0.58000,77.3125,145,68,0.72430
2888990,0.93500,76.5000,145,68,0.72210
2889000,0.55000,75.7500,146,68,0.71893
2889010,-0.14500,74.9375,146,68,0.71429
2889020,-0.47500,73.4375,146,68,0.70085
2889030,-0.45000,72.6875,146,68,0.69206
2889040,-0.31500,72.0000,146,68,0.68181
2889050,-0.24500,71.3125,146,68,0.67033
2889060,-0.23000,70.0000,146,68,0.64469
2889070,-0.22000,69.3125,146,68,0.63101
2889080,-0.21000,68.6875,146,68,0.61856
2889090,-0.20000,68.0625,146,68,0.60684
2889100,-0.19500,66.8750,146,68,0.58120
2889110,-0.18500,66.5000,146,68,0.56850
2889120,-0.16500,66.5000,146,68,0.55629
2889130,-0.14500,67.5000,146,68,0.54432
2889140,-0.13500,76.1875,146,68,0.51990
2889150,-0.11500,84.9375,146,68,0.50794
2889160,-0.10500,95.9375,146,68,0.49646
2889170,-0.09000,107.8125,146,68,0.48523
2889180,-0.06500,129.1875,146,68,0.46545
2889190,-0.04500,137.0000,146,68,0.45714
2889200,-0.02000,142.5625,146,68,0.44811
2889210,-0.00500,146.0000,146,68,0.43883
2889220,0.00500,147.6875,146,68,0.41978
2889230,0.01000,146.8750,146,68,0.41074
2889240,0.01000,145.3750,146,68,0.40147
2889250,0.01500,143.4375,146,68,0.39219
2889260,0.02500,138.9375,146,68,0.37436
2889270,0.03500,136.5625,146,68,0.36581
2889280,0.05000,134.1875,146,68,0.35897
2889290,0.06000,131.8750,146,68,0.35311
2889300,0.05500,127.4375,146,68,0.33919
2889310,0.04000,125.3125,146,68,0.33162
2889320,0.01500,123.3125,146,68,0.32405
2889330,-0.01500,121.2500,146,68,0.31648
2889340,-0.03500,117.1250,146,68,0.30110
2889350,-0.04500,114.6875,146,68,0.29353
2889360,-0.04500,111.9375,146,68,0.28620
2889370,-0.03500,108.6875,146,68,0.27912
2889380,-0.00500,100.8125,146,68,0.26813
2889390,0.03000,96.7500,146,68,0.26545
2889400,0.06500,93.0625,146,68,0.26325
2889410,0.10500,90.1250,146,68,0.26349
2889420,0.12000,86.6250,146,68,0.27668
2889430,0.12000,85.8750,146,68,0.29255
2889440,0.10500,85.6250,146,68,0.31551
2889450,0.06000,85.5625,146,68,0.34554
2889460,-0.01500,85.7500,146,68,0.42393
2889470,-0.09000,85.7500,146,68,0.46862
2889480,-0.13000,85.6250,146,68,0.50842
2889490,-0.15500,85.4375,146,68,0.54457
2889500,-0.17000,84.5625,146,68,0.62002
2889510,-0.17500,84.0000,146,68,0.65348
2889520,-0.17500,83.3750,146,68,0.68205
2889530,-0.17000,82.6875,146,68,0.70574
2889540,-0.17000,81.3125,146,68,0.73871
2889550,-0.19500,80.5625,146,68,0.74896
2889560,-0.16500,79.8125,146,68,0.75580
2889570,0.16000,79.0625,146,68,0.75995
2889580,0.77500,77.6250,146,68,0.75995
2889590,0.93000,76.8750,146,68,0.75653
2889600,0.31000,76.1875,146,68,0.75214
2889610,-0.33500,74.6250,146,68,0.74652
2889620,-0.53000,73.8750,146,68,0.73065
2889630,-0.42500,73.1875,146,68,0.72015
2889640,-0.29000,72.4375,146,68,0.70818
2889650,-0.25000,71.7500,146,68,0.69499
2889660,-0.24000,70.4375,146,68,0.66496
2889670,-0.23000,69.7500,146,68,0.64908
2889680,-0.22000,69.1250,146,68,0.63443
2889690,-0.21000,67.8750,146,68,0.62051
2889700,-0.20000,67.3750,146,68,0.59072
2889710,-0.19500,67.0625,146,68,0.57607
2889720,-0.18000,67.3750,146,68,0.56166
2889730,-0.17000,69.0000,146,68,0.54799
2889740,-0.15500,80.3750,146,68,0.52259
2889750,-0.14500,90.5625,146,68,0.51062
2889760,-0.13000,102.5000,146,68,0.49890
2889770,-0.11000,114.6250,146,68,0.48742
2889780,-0.08500,135.0000,146,68,0.46667
2889790,-0.06500,141.8125,146,68,0.45812
2889800,-0.04000,146.3125,146,68,0.44860
2889810,-0.03000,148.6875,146,68,0.43907
2889820,-0.01500,148.8750,146,68,0.41978
2889830,-0.01500,147.5625,146,68,0.41050
2889840,-0.01000,145.6875,146,68,0.40122
2889850,-0.00500,143.5000,146,68,0.39194
2889860,0.00000,138.8750,146,68,0.37411
2889870,0.02000,136.5000,146,68,0.36532
2889880,0.04000,134.1875,146,68,0.35800
2889890,0.04500,131.9375,146,68,0.35165
2889900,0.03500,127.6250,146,68,0.33675
2889910,0.01500,125.6250,146,68,0.32894
2889920,-0.00500,123.6875,146,68,0.32112
2889930,-0.02500,121.6875,146,68,0.31331
2889940,-0.04500,117.5000,146,68,0.29792
2889950,-0.05500,114.9375,146,68,0.29035
2889960,-0.05000,111.9375,146,68,0.28303
2889970,-0.03000,108.4375,146,68,0.27595
2889980,0.00500,100.5625,146,68,0.26496
2889990,0.04000,96.8750,146,68,0.26276
2890000,0.07500,93.7500,145,68,0.26154
2890010,0.11500,91.3125,145,68,0.26325
2890020,0.13000,88.3125,145,68,0.28181
2890030,0.12000,87.6250,145,68,0.30085
2890040,0.10000,87.2500,145,68,0.32747
2890050,0.04500,87.0625,145,68,0.36166
2890060,-0.02500,86.8125,145,68,0.44640
2890070,-0.09000,86.5625,145,68,0.49304
2890080,-0.13000,86.3125,145,68,0.53358
2890090,-0.15000,85.8750,145,68,0.56972
2890100,-0.15500,84.8125,145,68,0.64298
2890110,-0.15500,84.1250,145,68,0.67448
2890120,-0.15500,83.4375,145,68,0.70110
2890130,-0.15000,82.8125,145,68,0.72283
2890140,-0.14500,81.3750,145,68,0.75287
2890150,-0.16500,80.6875,145,68,0.76190
2890160,-0.08500,79.9375,145,68,0.76777
2890170,0.33000,79.1875,145,68,0.77070
2890180,0.90000,77.6250,145,68,0.76923
2890190,0.82000,76.8750,145,68,0.76532
2890200,0.11000,76.0625,145,68,0.76020
2890210,-0.40000,75.2500,145,68,0.75385
2890220,-0.48000,73.6875,145,68,0.73602
2890230,-0.34000,72.9375,145,68,0.72479
2890240,-0.24000,72.2500,145,68,0.71209
2890250,-0.23000,71.5000,145,68,0.69817
2890260,-0.22000,70.1250,145,68,0.66764
2890270,-0.20500,69.5000,145,68,0.65177
2890280,-0.19000,68.8125,145,68,0.63687
2890290,-0.18000,68.1875,145,68,0.62295
2890300,-0.16500,67.0625,145,68,0.59365
2890310,-0.15000,66.8125,145,68,0.57900
2890320,-0.13500,67.1875,145,68,0.56459
2890330,-0.11500,73.5000,145,68,0.55067
2890340,-0.09500,80.9375,145,68,0.52405
2890350,-0.08500,91.0625,145,68,0.51136
2890360,-0.07500,102.6875,145,68,0.49915
2890370,-0.06000,114.3125,145,68,0.48718
2890380,-0.04500,133.4375,145,68,0.46618
2890390,-0.02500,139.6875,145,68,0.45739
2890400,-0.00500,143.6875,145,68,0.44762
2890410,0.01000,145.6875,145,68,0.43761
2890420,0.02500,145.2500,145,68,0.41783
2890430,0.03000,143.6875,145,68,0.40806
2890440,0.04000,141.5625,145,68,0.39829
2890450,0.05500,139.2500,145,68,0.38852
2890460,0.08000,134.1250,145,68,0.36947
2890470,0.10000,131.5625,145,68,0.35995
2890480,0.11000,129.0000,145,68,0.35238
2890490,0.11000,126.5625,145,68,0.34579
2890500,0.10000,122.0000,145,68,0.32967
2890510,0.07500,119.4792,145,68,0.32007
2890520,0.05000,117.7500,145,68,0.31306
2890530,0.03000,115.5625,145,68,0.30476
2890540,0.01000,110.6875,145,68,0.28840
2890550,0.00500,107.6250,145,68,0.28059
2890560,0.01000,104.1250,145,68,0.27302
2890570,0.04000,100.3125,145,68,0.26569
2890580,0.07500,92.8750,145,68,0.25665
2890590,0.11000,89.8750,145,68,0.25299
2890600,0.14500,87.6250,145,68,0.25104
2890610,0.16500,86.1250,145,68,0.25226
2890620,0.16500,84.7500,145,68,0.26935
2890630,0.14500,84.5625,145,68,0.28767
2890640,0.10000,84.5000,145,68,0.31306
2890650,0.03000,84.5000,145,68,0.34505
2890660,-0.03500,84.3750,145,68,0.42393
2890670,-0.08000,84.1250,145,68,0.46716
2890680,-0.10500,83.8125,145,68,0.50501
2890690,-0.12000,83.3750,145,68,0.53822
2890700,-0.13000,82.3125,145,68,0.60440
2890710,-0.14000,81.6875,145,68,0.63223
2890720,-0.14500,81.1250,145,68,0.65543
2890730,-0.14500,80.5000,145,68,0.67375
2890740,-0.15500,79.2500,145,68,0.69744
2890750,-0.16500,78.5625,145,68,0.70379
2890760,0.01500,77.8750,145,68,0.70696
2890770,0.54000,77.1250,145,68,0.70769
2890780,0.91000,75.5625,145,68,0.70256
2890790,0.54500,74.7500,145,68,0.69792
2890800,-0.10000,73.9375,145,68,0.69206
2890810,-0.41500,73.1250,145,68,0.68449
2890820,-0.42500,71.5625,145,68,0.66496
2890830,-0.30000,70.8125,145,68,0.65299
2890840,-0.21000,70.1250,145,68,0.63980
2890850,-0.20000,69.4375,145,68,0.62589
2890860,-0.19000,68.1875,145,68,0.59609
2890870,-0.18000,67.5625,145,68,0.58095
2890880,-0.17000,66.9375,145,68,0.56777
2890890,-0.16500,65.8750,145,68,0.55556
2890900,-0.15500,65.5000,145,68,0.52943
2890910,-0.14000,65.4375,145,68,0.51673
2890920,-0.12500,66.1250,145,68,0.50452
2890930,-0.11000,68.3750,145,68,0.49255
2890940,-0.09500,80.4375,145,68,0.47009
2890950,-0.08500,90.3125,145,68,0.45934
2890960,-0.07500,101.3125,145,68,0.44884
2890970,-0.06000,112.2500,145,68,0.43883
2890980,-0.04500,129.6875,145,68,0.42271
2890990,-0.03000,135.2500,145,68,0.41416
2891000,-0.01000,138.6875,145,68,0.40513
2891010,0.00000,140.3125,145,68,0.39609
2891020,0.02000,139.5000,145,68,0.37827
2891030,0.04000,137.7500,145,68,0.36947
2891040,0.06000,135.5000,145,68,0.36093
2891050,0.08500,132.8750,145,68,0.35238
2891060,0.10000,127.2500,145,68,0.33553
2891070,0.09500,124.4375,145,68,0.32723
2891080,0.07500,121.6875,145,68,0.32063
2891090,0.05000,119.0625,145,68,0.31477
2891100,0.04000,114.1250,145,68,0.30085
2891110,0.03000,111.8125,145,68,0.29353
2891120,0.01000,109.5000,145,68,0.28620
2891130,-0.00500,107.0625,145,68,0.27912
2891140,-0.01000,101.3125,145,68,0.26496
2891150,0.00000,97.8750,145,68,0.25788
2891160,0.04500,94.0625,145,68,0.25079
2891170,0.11000,90.2500,145,68,0.24640
2891180,0.17500,83.8125,145,68,0.24396
2891190,0.20500,81.8750,145,68,0.24200
2891200,0.22500,80.7500,145,68,0.24127
2891210,0.23500,80.2500,145,68,0.24298
2891220,0.23000,80.5625,145,68,0.25861
2891230,0.18500,80.8750,145,68,0.27424
2891240,0.12500,81.2500,145,68,0.29548
2891250,0.04000,81.4375,145,68,0.32234
2891260,-0.03500,81.4375,145,68,0.38779
2891270,-0.07500,81.1875,145,68,0.42344
2891280,-0.09500,80.8750,145,68,0.45446
2891290,-0.10500,80.3750,145,68,0.48181
2891300,-0.11500,79.2500,145,68,0.53626
2891310,-0.12500,78.6875,145,68,0.55897
2891320,-0.12500,78.0625,145,68,0.57753
2891330,-0.12500,77.4375,145,68,0.59194
2891340,-0.15000,76.0000,145,68,0.61001
2891350,-0.11000,75.3125,145,68,0.61416
2891360,0.18500,74.5625,145,68,0.61587
2891370,0.72000,73.7500,145,68,0.61538
2891380,0.83000,72.3125,145,68,0.60952
2891390,0.26500,71.5625,145,68,0.60440
2891400,-0.33500,70.8125,145,68,0.59805
2891410,-0.46000,70.1250,145,68,0.59023
2891420,-0.40500,68.8750,145,68,0.57094
2891430,-0.27500,68.2500,145,68,0.55971
2891440,-0.21000,67.6250,145,68,0.54799
2891450,-0.20000,67.0000,145,68,0.53553
2891460,-0.19000,65.8125,145,68,0.50989
2891470,-0.19000,65.2500,145,68,0.49768
2891480,-0.18500,64.6875,145,68,0.48718
2891490,-0.18000,64.1875,145,68,0.47790
2891500,-0.16000,63.7500,145,68,0.45836
2891510,-0.14500,64.1250,145,68,0.44908
2891520,-0.13000,65.7500,145,68,0.43980
2891530,-0.12000,69.5000,145,68,0.43101
2891540,-0.11000,85.2500,145,68,0.41441
2891550,-0.10500,96.0000,145,68,0.40684
2891560,-0.08500,106.9375,145,68,0.39927
2891570,-0.06500,117.1250,145,68,0.39194
2891580,-0.04500,132.1250,145,68,0.38071
2891590,-0.02500,136.5000,145,68,0.37485
2891600,-0.00500,139.0000,145,68,0.36850
2891610,0.01000,139.9375,145,68,0.36215
2891620,0.02000,138.5625,145,68,0.34896
2891630,0.03000,136.9375,145,68,0.34261
2891640,0.04000,134.8750,145,68,0.33602
2891650,0.05500,132.5625,145,68,0.32943
2891660,0.07000,127.3750,145,68,0.31673
2891670,0.08000,124.7500,145,68,0.31062
2891680,0.08000,122.1250,145,68,0.30598
2891690,0.06500,119.5625,145,68,0.30208
2891700,0.04000,114.7500,145,68,0.29158
2891710,0.01500,112.4375,145,68,0.28596
2891720,-0.00500,110.1250,145,68,0.28010
2891730,-0.01500,107.6875,145,68,0.27424
2891740,-0.02500,102.1250,145,68,0.26252
2891750,-0.02500,98.8750,145,68,0.25690
2891760,-0.00500,95.3125,145,68,0.25153
2891770,0.03000,91.8125,145,68,0.24640
2891780,0.07000,86.1875,145,68,0.24176
2891790,0.10000,84.4375,145,68,0.24078
2891800,0.13500,83.3750,145,68,0.24225
2891810,0.15000,82.8125,145,68,0.24713
2891820,0.14500,82.5625,145,68,0.27082
2891830,0.10000,82.6250,145,68,0.29084
2891840,0.03000,82.6875,145,68,0.31624
2891850,-0.05500,82.6250,145,68,0.34652
2891860,-0.12000,82.3125,145,68,0.41709
2891870,-0.15500,81.9375,145,68,0.45397
2891880,-0.17000,81.5625,145,68,0.48547
2891890,-0.18000,81.0625,145,68,0.51282
2891900,-0.17500,80.0000,145,68,0.56703
2891910,-0.17000,79.4375,145,68,0.58999
2891920,-0.16000,78.8750,145,68,0.60904
2891930,-0.15000,78.3125,145,68,0.62418
2891940,-0.16000,77.0000,145,68,0.64420
2891950,-0.06000,76.2500,145,68,0.64933
2891960,0.32500,75.5000,145,68,0.65201
2891970,0.84500,74.7500,145,68,0.65226
2891980,0.80500,73.2500,145,68,0.64713
2891990,0.16500,72.5000,145,68,0.64225
2892000,-0.31000,71.8125,144,67,0.63590
2892010,-0.43500,71.0625,144,67,0.62833
2892020,-0.34500,69.6250,144,67,0.60928
2892030,-0.23000,69.0000,144,67,0.59805
2892040,-0.19000,68.3750,144,67,0.58632
2892050,-0.19000,67.7500,144,67,0.57436
2892060,-0.18000,66.5000,144,67,0.54945
2892070,-0.17000,65.8750,144,67,0.53748
2892080,-0.16000,65.2500,144,67,0.52698
2892090,-0.15500,64.6875,144,67,0.51722
2892100,-0.14000,64.2500,144,67,0.49670
2892110,-0.12500,65.0000,144,67,0.48669
2892120,-0.11000,67.3125,144,67,0.47717
2892130,-0.10500,72.0625,144,67,0.46813
2892140,-0.09500,89.5000,144,67,0.45055
2892150,-0.08000,100.4375,144,67,0.44200
2892160,-0.06000,111.2500,144,67,0.43370
2892170,-0.03500,120.9375,144,67,0.42564
2892180,-0.01500,134.8750,144,67,0.41319
2892190,0.00000,138.8125,144,67,0.40684
2892200,0.01000,141.0000,144,67,0.39976
2892210,0.01000,141.6875,144,67,0.39267
2892220,0.02000,140.1250,144,67,0.37827
2892230,0.02000,138.4375,144,67,0.37094
2892240,0.03000,136.3125,144,67,0.36386
2892250,0.04000,134.0000,144,67,0.35678
2892260,0.04000,128.9375,144,67,0.34335
2892270,0.03500,126.4375,144,67,0.33822
2892280,0.00000,124.0000,144,67,0.33382
2892290,-0.07500,121.6250,144,67,0.32845
2892300,-0.17500,117.1875,144,67,0.31648
2892310,-0.29000,115.1250,144,67,0.31038
2892320,-0.37000,112.9375,144,67,0.30403
2892330,-0.39000,110.6875,144,67,0.29792
2892340,-0.35500,105.3125,144,67,0.28571
2892350,-0.29000,102.0625,144,67,0.27961
2892360,-0.21500,98.4375,144,67,0.27375
2892370,-0.13500,94.7500,144,67,0.26838
2892380,-0.06000,88.5000,144,67,0.26374
2892390,0.00500,86.4375,144,67,0.26349
2892400,0.06000,85.0000,144,67,0.26569
2892410,0.09000,84.1875,144,67,0.27179
2892420,0.10000,83.5000,144,67,0.29915
2892430,0.08000,83.3750,144,67,0.32137
2892440,0.02500,83.1875,144,67,0.34921
2892450,-0.03500,83.0000,144,67,0.38193
2892460,-0.07500,82.3750,144,67,0.45617
2892470,-0.10000,82.0000,144,67,0.48962
2892480,-0.10500,81.5000,144,67,0.51966
2892490,-0.10500,80.5000,144,67,0.55140
2892500,-0.10500,79.9375,144,67,0.60855
2892510,-0.10000,79.3750,144,67,0.63150
2892520,-0.10000,78.8125,144,67,0.65031
2892530,-0.10500,78.1875,144,67,0.66496
2892540,-0.12500,76.8750,144,67,0.68352
2892550,0.00000,76.1250,144,67,0.68816
2892560,0.41500,75.8750,144,67,0.69035
2892570,0.84000,75.3750,144,67,0.69011
2892580,0.84500,73.8750,144,67,0.68742
2892590,0.25500,73.1250,144,67,0.68376
2892600,-0.24500,72.3750,144,67,0.67888
2892610,-0.41000,71.6250,144,67,0.67253
2892620,-0.33000,70.1250,144,67,0.65568
2892630,-0.21000,69.3750,144,67,0.64518
2892640,-0.18000,68.6875,144,67,0.63370
2892650,-0.17500,68.1250,144,67,0.62125
2892660,-0.16500,66.9375,144,67,0.59438
2892670,-0.12500,66.3125,144,67,0.58071
2892680,-0.09500,65.6875,144,67,0.56850
2892690,-0.10500,65.1250,144,67,0.55727
2892700,-0.12000,64.3125,144,67,0.53382
2892710,-0.11000,64.4375,144,67,0.52234
2892720,-0.09500,65.4375,144,67,0.51111
2892730,-0.07500,68.1250,144,67,0.50037
2892740,-0.06000,81.4375,144,67,0.48010
2892750,-0.04500,91.6250,144,67,0.47057
2892760,-0.03500,102.6250,144,67,0.46129
2892770,-0.01000,113.2500,144,67,0.45226
2892780,0.01000,130.1875,144,67,0.43614
2892790,0.03000,135.8125,144,67,0.42930
2892800,0.04500,139.4375,144,67,0.42173
2892810,0.06000,141.3750,144,67,0.41392
2892820,0.06000,141.3750,144,67,0.39805
2892830,0.07000,140.1875,144,67,0.39023
2892840,0.08000,138.4375,144,67,0.38242
2892850,0.10000,136.3750,144,67,0.37485
2892860,0.11500,131.6875,144,67,0.36020
2892870,0.12500,129.2500,144,67,0.35311
2892880,0.12500,126.8750,144,67,0.34750
2892890,0.11000,124.5000,144,67,0.34261
2892900,0.08500,120.0625,144,67,0.32991
2892910,0.06000,117.9375,144,67,0.32308
2892920,0.03500,115.8750,144,67,0.31624
2892930,0.02000,113.8125,144,67,0.30940
2892940,0.01000,109.2500,144,67,0.29573
2892950,0.02500,106.4375,144,67,0.28913
2892960,0.05000,103.2500,144,67,0.28278
2892970,0.09000,99.6250,144,67,0.27668
2892980,0.13500,92.1875,144,67,0.26838
2892990,0.17000,89.0625,144,67,0.26716
2893000,0.19500,86.7500,145,67,0.26716
2893010,0.20500,85.1250,145,67,0.26984
2893020,0.19500,83.5000,145,67,0.28742
2893030,0.16000,83.1250,145,67,0.30427
2893040,0.09500,82.9375,145,67,0.32698
2893050,0.01000,82.8125,145,67,0.35507
2893060,-0.06500,82.5000,145,67,0.42369
2893070,-0.10500,82.2500,145,67,0.46154
2893080,-0.12500,81.9375,145,67,0.49475
2893090,-0.13500,81.5000,145,67,0.52454
2893100,-0.14000,80.5000,145,67,0.58632
2893110,-0.14500,80.0000,145,67,0.61343
2893120,-0.14500,79.5000,145,67,0.63663
2893130,-0.15000,78.9375,145,67,0.65568
2893140,-0.17000,77.7500,145,67,0.68181
2893150,-0.07500,77.0625,145,67,0.68962
2893160,0.32000,76.3750,145,67,0.69451
2893170,0.84000,75.6250,145,67,0.69695
2893180,0.76500,74.1875,145,67,0.69499
2893190,0.14500,73.5000,145,67,0.69109
2893200,-0.32000,72.7500,145,67,0.68620
2893210,-0.46000,72.0000,145,67,0.67985
2893220,-0.36500,70.5625,145,67,0.67448
2893230,-0.24500,69.8750,145,67,0.68107
2893240,-0.21000,69.1875,145,67,0.67766
2893250,-0.19500,68.5625,145,67,0.66862
2893260,-0.19000,67.3750,145,67,0.64249
2893270,-0.17500,66.7500,145,67,0.62808
2893280,-0.16500,66.0625,145,67,0.61465
2893290,-0.15500,65.4375,145,67,0.60220
2893300,-0.13500,64.6250,145,67,0.57607
2893310,-0.10500,64.7500,145,67,0.56313
2893320,-0.09000,65.8750,145,67,0.55067
2893330,-0.07500,68.8750,145,67,0.53846
2893340,-0.06500,83.4375,145,67,0.51526
2893350,-0.04500,94.0625,145,67,0.50427
2893360,-0.02500,105.3125,145,67,0.49377
2893370,-0.00500,116.0000,145,67,0.48352
2893380,0.01000,132.6875,145,67,0.46545
2893390,0.02000,138.0000,145,67,0.45788
2893400,0.02000,141.3125,145,67,0.44957
2893410,0.02500,142.9375,145,67,0.44103
2893420,0.02500,142.5625,145,67,0.42442
2893430,0.02500,141.1875,145,67,0.41612
2893440,0.02500,139.3750,145,67,0.40806
2893450,0.03000,137.2500,145,67,0.40000
2893460,0.04500,132.5625,145,67,0.38388
2893470,0.06000,130.1250,145,67,0.37582
2893480,0.06000,127.8125,145,67,0.36923
2893490,0.05000,125.5000,145,67,0.36361
2893500,0.02500,121.1250,145,67,0.34994
2893510,0.00000,119.1250,145,67,0.34261
2893520,-0.01500,117.1250,145,67,0.33529
2893530,-0.02500,115.1250,145,67,0.32821
2893540,-0.02500,110.5000,145,67,0.31404
2893550,-0.01000,107.6875,145,67,0.30696
2893560,0.02000,104.4375,145,67,0.29988
2893570,0.05000,100.7500,145,67,0.29328
2893580,0.09000,93.4375,145,67,0.28376
2893590,0.13000,90.4375,145,67,0.28254
2893600,0.15500,88.1250,145,67,0.28303
2893610,0.16500,86.4375,145,67,0.28645
2893620,0.15500,84.6875,145,67,0.30720
2893630,0.12000,84.2500,145,67,0.32674
2893640,0.06000,84.0000,145,67,0.35287
2893650,-0.02000,83.8125,145,67,0.38486
2893660,-0.08500,83.4375,145,67,0.46203
2893670,-0.12500,83.1250,145,67,0.50379
2893680,-0.15500,82.7500,145,67,0.54017
2893690,-0.16000,82.3125,145,67,0.57265
2893700,-0.17000,81.3750,145,67,0.63907
2893710,-0.18000,80.8125,145,67,0.66838
2893720,-0.18500,80.2500,145,67,0.69328
2893730,-0.18500,79.6875,145,67,0.71380
2893740,-0.20500,78.3750,145,67,0.74188
2893750,-0.09500,77.6875,145,67,0.75018
2893760,0.33500,77.0000,145,67,0.75531
2893770,0.85500,76.2500,145,67,0.75775
2893780,0.72000,74.7500,145,67,0.75531
2893790,0.05000,73.9375,145,67,0.75092
2893800,-0.40500,73.1875,145,67,0.74530
2893810,-0.50000,72.4375,145,67,0.73846
2893820,-0.38500,70.9375,145,67,0.71990
2893830,-0.27500,70.2500,145,67,0.70842
2893840,-0.25000,69.5625,145,67,0.69573
2893850,-0.23500,68.9375,145,67,0.68230
2893860,-0.22500,67.6875,145,67,0.65397
2893870,-0.21000,67.1250,145,67,0.63956
2893880,-0.20500,66.5000,145,67,0.62637
2893890,-0.20000,65.9375,145,67,0.61392
2893900,-0.19500,65.1875,145,67,0.58779
2893910,-0.18000,65.4375,145,67,0.57460
2893920,-0.16500,66.9375,145,67,0.56190
2893930,-0.15500,70.5625,145,67,0.54945
2893940,-0.13500,86.5000,145,67,0.52552
2893950,-0.11500,97.6875,145,67,0.51404
2893960,-0.09500,109.2500,145,67,0.50281
2893970,-0.06500,120.0000,145,67,0.49231
2893980,-0.04500,136.1875,145,67,0.47350
2893990,-0.02500,141.0000,145,67,0.46593
2894000,-0.01500,143.8750,145,67,0.45739
2894010,-0.00500,145.0625,145,67,0.44860
2894020,0.00000,144.1250,145,67,0.43126
2894030,0.01000,142.6250,145,67,0.42271
2894040,0.02000,140.7500,145,67,0.41416
2894050,0.03500,138.6250,145,67,0.40562
2894060,0.05500,134.1250,145,67,0.38901
2894070,0.07000,131.9375,145,67,0.38071
2894080,0.07000,129.7500,145,67,0.37411
2894090,0.05500,127.6250,145,67,0.36850
2894100,0.02500,123.5000,145,67,0.35458
2894110,-0.00500,121.5625,145,67,0.34725
2894120,-0.03000,119.5625,145,67,0.33993
2894130,-0.05000,117.5625,145,67,0.33260
2894140,-0.06000,112.8750,145,67,0.31819
2894150,-0.05500,110.0625,145,67,0.31111
2894160,-0.02500,106.7500,145,67,0.30427
2894170,0.01000,102.9375,145,67,0.29792
2894180,0.05000,95.1250,145,67,0.29109
2894190,0.09000,91.8125,145,67,0.28938
2894200,0.12500,89.1875,145,67,0.28962
2894210,0.14000,87.3750,145,67,0.29377
2894220,0.13500,85.4375,145,67,0.31819
2894230,0.10000,85.1250,145,67,0.34017
2894240,0.03500,85.0000,145,67,0.36874
2894250,-0.04500,84.9375,145,67,0.40366
2894260,-0.11500,84.7500,145,67,0.48694
2894270,-0.14500,84.5000,145,67,0.53138
2894280,-0.16000,84.1875,145,67,0.56972
2894290,-0.16000,83.7500,145,67,0.60342
2894300,-0.16000,82.6875,145,67,0.67131
2894310,-0.15500,82.0625,145,67,0.70037
2894320,-0.15000,81.5000,145,67,0.72479
2894330,-0.15500,80.8750,145,67,0.74457
2894340,-0.17500,79.5625,145,67,0.77167
2894350,-0.05500,78.8750,145,67,0.77973
2894360,0.41000,78.1875,145,67,0.78462
2894370,0.94000,77.4375,145,67,0.78681
2894380,0.76000,75.9375,145,67,0.78315
2894390,0.03500,75.1875,145,67,0.77900
2894400,-0.42000,74.4375,145,67,0.77363
2894410,-0.48000,73.6875,145,67,0.76679
2894420,-0.34500,72.1875,145,67,0.74823
2894430,-0.24000,71.5000,145,67,0.73675
2894440,-0.22500,70.8125,145,67,0.72381
2894450,-0.22000,70.1250,145,67,0.70989
2894460,-0.21000,68.8125,145,67,0.67985
2894470,-0.20500,68.1875,145,67,0.66422
2894480,-0.20000,67.5625,145,67,0.65006
2894490,-0.18500,66.9375,145,67,0.63663
2894500,-0.17500,66.1875,145,67,0.60830
2894510,-0.16000,66.5000,145,67,0.59438
2894520,-0.14500,68.1875,145,67,0.58095
2894530,-0.13000,72.3125,145,67,0.56777
2894540,-0.11500,89.6875,145,67,0.54310
2894550,-0.10000,101.5000,145,67,0.53138
2894560,-0.08500,113.3750,145,67,0.52015
2894570,-0.06500,124.1875,145,67,0.50940
2894580,-0.04500,139.7500,145,67,0.49206
2894590,-0.02500,144.1250,145,67,0.48278
2894600,-0.02000,146.4375,145,67,0.47326
2894610,-0.00500,147.1875,145,67,0.46374
2894620,0.00000,145.6875,145,67,0.44542
2894630,0.01000,144.0625,145,67,0.43639
2894640,0.01000,142.0625,145,67,0.42735
2894650,0.02500,140.0000,145,67,0.41832
2894660,0.04000,135.5000,145,67,0.40049
2894670,0.06000,133.3125,145,67,0.39170
2894680,0.06000,131.0625,145,67,0.38437
2894690,0.05000,128.9375,145,67,0.37802
2894700,0.02000,124.8750,145,67,0.36313
2894710,0.00000,123.0000,145,67,0.35531
2894720,-0.02500,121.1250,145,67,0.34774
2894730,-0.03500,119.1250,145,67,0.34017
2894740,-0.04000,114.5000,145,67,0.32527
2894750,-0.03500,111.5625,145,67,0.31795
2894760,-0.01000,108.1875,145,67,0.31087
2894770,0.02000,104.4375,145,67,0.30427
2894780,0.04500,96.8750,145,67,0.29670
2894790,0.08500,93.6875,145,67,0.29475
2894800,0.11500,91.2500,145,67,0.29524
2894810,0.12000,89.4375,145,67,0.29988
2894820,0.11000,87.4375,145,67,0.32674
2894830,0.08000,87.0000,145,67,0.35043
2894840,0.01000,86.7500,145,67,0.38144
2894850,-0.06000,86.6250,145,67,0.41880
2894860,-0.11500,86.2500,145,67,0.50623
2894870,-0.14500,85.9375,145,67,0.55214
2894880,-0.16000,85.5625,145,67,0.59121
2894890,-0.16500,85.0625,145,67,0.62515
2894900,-0.16000,83.8125,145,67,0.69206
2894910,-0.16000,83.1250,145,67,0.72039
2894920,-0.16000,82.4375,145,67,0.74432
2894930,-0.16500,81.7500,145,67,0.76337
2894940,-0.18500,80.3125,145,67,0.78901
2894950,-0.01500,79.5625,145,67,0.79634
2894960,0.52000,78.7500,145,67,0.80049
2894970,1.00000,78.0625,145,67,0.80195
2894980,0.66500,76.5625,145,67,0.79756
2894990,-0.10000,75.8125,145,67,0.79341
2895000,-0.46500,75.0625,144,67,0.78779
2895010,-0.44000,74.3125,144,67,0.78095
2895020,-0.29500,72.8125,144,67,0.76215
2895030,-0.23000,72.0625,144,67,0.75043
2895040,-0.22500,71.3125,144,67,0.73724
2895050,-0.21000,70.6250,144,67,0.72308
2895060,-0.19500,69.1875,144,67,0.69280
2895070,-0.18500,68.5000,144,67,0.67717
2895080,-0.17000,67.8750,144,67,0.66276
2895090,-0.16000,67.2500,144,67,0.64908
2895100,-0.14500,66.4375,144,67,0.61978
2895110,-0.13000,66.8125,144,67,0.60562
2895120,-0.11500,68.5625,144,67,0.59170
2895130,-0.10000,72.7500,144,67,0.57827
2895140,-0.08500,90.2500,144,67,0.55238
2895150,-0.07500,101.9375,144,67,0.54017
2895160,-0.05500,113.6875,144,67,0.52845
2895170,-0.03500,124.3750,144,67,0.51697
2895180,-0.01000,139.5000,144,67,0.49841
2895190,0.01000,143.6250,144,67,0.48889
2895200,0.02500,145.6875,144,67,0.47888
2895210,0.03500,146.1250,144,67,0.46862
2895220,0.04000,144.0000,144,67,0.44811
2895230,0.05000,142.0000,144,67,0.43810
2895240,0.05500,139.8125,144,67,0.42808
2895250,0.07000,137.4375,144,67,0.41807
2895260,0.09000,132.6875,144,67,0.39902
2895270,0.10000,130.3125,144,67,0.38144
2895280,0.10000,128.0625,144,67,0.36142
2895290,0.09000,125.8750,144,67,0.34896
2895300,0.06500,121.6875,144,67,0.32943
2895310,0.04000,119.6875,144,67,0.32112
2895320,0.01500,117.6250,144,67,0.31306
2895330,0.00000,115.4375,144,67,0.30525
2895340,-0.00500,110.1250,144,67,0.29035
2895350,0.00000,106.8125,144,67,0.28303
2895360,0.02000,103.0625,144,67,0.27570
2895370,0.06000,99.1250,144,67,0.26862
2895380,0.09000,91.8750,144,67,0.26056
2895390,0.13000,89.1875,144,67,0.25812
2895400,0.15500,87.2500,144,67,0.25788
2895410,0.16000,86.0000,144,67,0.26154
2895420,0.13000,84.9375,144,67,0.28596
2895430,0.07500,84.8125,144,67,0.30794
2895440,0.00000,84.8750,144,67,0.33675
2895450,-0.07000,84.8750,144,67,0.37143
2895460,-0.11500,84.6875,144,67,0.45201
2895470,-0.13500,84.4375,144,67,0.49402
2895480,-0.14500,84.1250,144,67,0.52967
2895490,-0.14500,83.6875,144,67,0.56068
2895500,-0.14000,82.5625,144,67,0.62076
2895510,-0.13000,82.0000,144,67,0.64591
2895520,-0.12500,81.3125,144,67,0.66642
2895530,-0.13000,80.6875,144,67,0.68278
2895540,-0.12500,79.3125,144,67,0.70354
2895550,0.10000,78.5625,144,67,0.70916
2895560,0.64000,77.8125,144,67,0.71209
2895570,0.93000,77.0000,144,67,0.71258
2895580,0.47500,75.4375,144,67,0.70672
2895590,-0.16500,74.5625,144,67,0.70183
2895600,-0.43500,73.7500,144,67,0.69573
2895610,-0.40500,72.8750,144,67,0.68816
2895620,-0.27000,71.3125,144,67,0.66862
2895630,-0.20000,70.5625,144,67,0.65665
2895640,-0.19500,69.8750,144,67,0.64371
2895650,-0.18000,69.1250,144,67,0.62979
2895660,-0.17000,67.8125,144,67,0.60049
2895670,-0.16000,67.1875,144,67,0.58559
2895680,-0.15000,66.5625,144,67,0.57216
2895690,-0.13500,66.0000,144,67,0.55971
2895700,-0.11500,65.3750,144,67,0.53358
2895710,-0.09000,65.7500,144,67,0.52088
2895720,-0.07500,67.4375,144,67,0.50867
2895730,-0.06500,71.3750,144,67,0.49695
2895740,-0.06000,87.5625,144,67,0.47424
2895750,-0.05500,98.4375,144,67,0.46349
2895760,-0.04500,109.3750,144,67,0.45299
2895770,-0.02500,119.3750,144,67,0.44298
2895780,-0.00500,133.6250,144,67,0.42686
2895790,0.01500,137.6250,144,67,0.41832
2895800,0.03000,139.6250,144,67,0.40952
2895810,0.04000,140.1875,144,67,0.40073
2895820,0.06000,138.0625,144,67,0.38291
2895830,0.08000,136.0000,144,67,0.37411
2895840,0.09000,133.5625,144,67,0.36532
2895850,0.10500,131.0000,144,67,0.35653
2895860,0.11500,125.6250,144,67,0.33919
2895870,0.12000,122.9375,144,67,0.33114
2895880,0.10500,120.3125,144,67,0.32454
2895890,0.08500,117.8125,144,67,0.31893
2895900,0.05500,113.0625,144,67,0.30501
2895910,0.03000,110.7500,144,67,0.29768
2895920,0.01000,108.3750,144,67,0.29035
2895930,0.01000,105.8750,144,67,0.28303
2895940,0.01500,99.9375,144,67,0.26838
2895950,0.04000,96.5000,144,67,0.26129
2895960,0.07000,93.0000,144,67,0.25421
2895970,0.10500,89.6875,144,67,0.24762
2895980,0.13000,84.8750,144,67,0.24054
2895990,0.16000,83.4375,144,67,0.23834
2896000,0.17500,82.6875,143,67,0.23810
2896010,0.16500,82.3125,143,67,0.24127
2896020,0.13000,82.2500,143,67,0.26227
2896030,0.06500,82.3125,143,67,0.28132
2896040,-0.01500,82.4375,143,67,0.30623
2896050,-0.07500,82.3750,143,67,0.33651
2896060,-0.11000,82.0000,143,67,0.40708
2896070,-0.12500,81.6250,143,67,0.43932
2896080,-0.13500,81.1250,143,67,0.46886
2896090,-0.13500,80.6250,143,67,0.49988
2896100,-0.14000,79.4375,143,67,0.55629
2896110,-0.14000,78.8750,143,67,0.57900
2896120,-0.13500,78.2500,143,67,0.59731
2896130,-0.15500,76.9375,143,67,0.62125
2896140,-0.09500,76.1875,143,67,0.62808
2896150,0.22500,75.5000,143,67,0.63199
2896160,0.75500,74.8125,143,67,0.63321
2896170,0.82000,74.0625,143,67,0.63223
2896180,0.22500,72.6250,143,67,0.62491
2896190,-0.30500,71.8750,143,67,0.61905
2896200,-0.46000,71.1875,143,67,0.61197
2896210,-0.39000,70.5000,143,67,0.60342
2896220,-0.27000,69.0625,143,67,0.58242
2896230,-0.21000,68.3750,143,67,0.57070
2896240,-0.20000,67.6875,143,67,0.55824
2896250,-0.19000,67.0625,143,67,0.54530
2896260,-0.18500,65.8750,143,67,0.51941
2896270,-0.18000,65.2500,143,67,0.50818
2896280,-0.17000,64.6875,143,67,0.49817
2896290,-0.15500,64.1875,143,67,0.48742
2896300,-0.13500,63.7500,143,67,0.46618
2896310,-0.12000,64.5000,143,67,0.45617
2896320,-0.11000,66.8750,143,67,0.44664
2896330,-0.09500,71.6875,143,67,0.43736
2896340,-0.08500,89.1875,143,67,0.41929
2896350,-0.06500,100.0000,143,67,0.41050
2896360,-0.05000,110.5625,143,67,0.40195
2896370,-0.03000,119.8750,143,67,0.39365
2896380,-0.01000,132.8125,143,67,0.38095
2896390,0.00500,136.2500,143,67,0.37436
2896400,0.02000,137.9375,143,67,0.36752
2896410,0.03500,138.2500,143,67,0.36044
2896420,0.04500,135.8750,143,67,0.34628
2896430,0.06000,133.7500,143,67,0.33919
2896440,0.07500,131.3125,143,67,0.33236
2896450,0.09500,128.6875,143,67,0.32552
2896460,0.10000,123.3125,143,67,0.31184
2896470,0.10000,120.6875,143,67,0.30672
2896480,0.08000,118.1250,143,67,0.30208
2896490,0.05500,115.6875,143,67,0.29621
2896500,0.02500,111.1250,143,67,0.28376
2896510,0.00500,108.8750,143,67,0.27717
2896520,-0.00500,106.5000,143,67,0.27033
2896530,-0.01500,104.0000,143,67,0.26374
2896540,-0.00500,98.0625,143,67,0.25104
2896550,0.02000,94.7500,143,67,0.24493
2896560,0.06000,91.5625,143,67,0.23932
2896570,0.10500,88.6875,143,67,0.23419
2896580,0.13500,84.6875,143,67,0.22979
2896590,0.15500,83.6250,143,67,0.22930
2896600,0.16500,82.9375,143,67,0.23101
2896610,0.16000,82.6250,143,67,0.23614
2896620,0.12000,82.3750,143,67,0.26056
2896630,0.05500,82.3125,143,67,0.28083
2896640,-0.01500,82.1875,143,67,0.30623
2896650,-0.07000,82.0000,143,67,0.33626
2896660,-0.10000,81.2500,143,67,0.40464
2896670,-0.11500,80.7500,143,67,0.43565
2896680,-0.12500,80.1875,143,67,0.46374
2896690,-0.12500,79.6250,143,67,0.49328
2896700,-0.12500,78.5000,143,67,0.54652
2896710,-0.12500,77.9375,143,67,0.56777
2896720,-0.12500,77.3125,143,67,0.58510
2896730,-0.15000,76.6875,143,67,0.59853
2896740,-0.05500,75.3750,143,67,0.61587
2896750,0.33000,74.6875,143,67,0.62002
2896760,0.82500,74.0000,143,67,0.62149
2896770,0.75500,73.3125,143,67,0.62076
2896780,0.12000,71.9375,143,67,0.61392
2896790,-0.34500,71.2500,143,67,0.60830
2896800,-0.46500,70.5625,143,67,0.60147
2896810,-0.37500,69.8750,143,67,0.59341
2896820,-0.26000,68.5625,143,67,0.57363
2896830,-0.22000,67.9375,143,67,0.56239
2896840,-0.21000,67.3125,143,67,0.55067
2896850,-0.20000,66.6250,143,67,0.53871
2896860,-0.19000,65.3750,143,67,0.51453
2896870,-0.18500,64.7500,143,67,0.50427
2896880,-0.18000,64.1875,143,67,0.49499
2896890,-0.16000,63.6875,143,67,0.48498
2896900,-0.14500,63.7500,143,67,0.46545
2896910,-0.12000,65.0625,143,67,0.45592
2896920,-0.11000,68.3125,143,67,0.44689
2896930,-0.09500,74.3125,143,67,0.43810
2896940,-0.08500,93.3125,143,67,0.42125
2896950,-0.07500,104.1875,143,67,0.41343
2896960,-0.06000,114.4375,143,67,0.40562
2896970,-0.04000,123.3125,143,67,0.39805
2896980,-0.02000,135.3125,143,67,0.38608
2896990,-0.00500,138.4375,143,67,0.37973
2897000,0.01000,139.8750,143,67,0.37289
2897010,0.02500,140.0000,143,67,0.36581
2897020,0.03500,137.5000,143,67,0.35189
2897030,0.04500,135.4375,143,67,0.34530
2897040,0.06000,133.0625,143,67,0.33871
2897050,0.07000,130.5000,143,67,0.33211
2897060,0.09000,125.3125,143,67,0.31917
2897070,0.08500,122.7500,143,67,0.31429
2897080,0.07500,120.3125,143,67,0.31013
2897090,0.05000,118.0000,143,67,0.30476
2897100,0.03000,113.6875,143,67,0.29280
2897110,0.00000,111.6250,143,67,0.28645
2897120,-0.01500,109.4375,143,67,0.28010
2897130,-0.01500,107.0625,143,67,0.27399
2897140,-0.01000,101.2500,143,67,0.26178
2897150,0.01000,97.7500,143,67,0.25592
2897160,0.05000,94.0625,143,67,0.25055
2897170,0.08500,90.5625,143,67,0.24567
2897180,0.11500,85.3750,143,67,0.24225
2897190,0.14000,83.8750,143,67,0.24274
2897200,0.15000,83.0625,143,67,0.24591
2897210,0.14500,82.5625,143,67,0.25299
2897220,0.11500,82.3125,143,67,0.28230
2897230,0.05500,82.2500,143,67,0.30549
2897240,-0.02000,82.1875,143,67,0.33382
2897250,-0.08500,82.0625,143,67,0.36654
2897260,-0.11500,81.4375,143,67,0.43932
2897270,-0.13500,81.0625,143,67,0.47204
2897280,-0.14500,80.5625,143,67,0.50134
2897290,-0.15000,80.0000,143,67,0.53211
2897300,-0.15500,78.9375,143,67,0.58779
2897310,-0.15500,78.3750,143,67,0.61026
2897320,-0.15500,77.7500,143,67,0.63687
2897330,-0.17500,77.1250,143,67,0.66374
2897340,-0.12000,75.8125,143,67,0.69133
2897350,0.22500,75.1250,143,67,0.69719
2897360,0.76500,74.4375,143,67,0.69988
2897370,0.80500,73.6875,143,67,0.69963
2897380,0.22500,72.2500,143,67,0.69304
2897390,-0.29500,71.5000,143,67,0.68767
2897400,-0.47000,70.6875,143,67,0.68083
2897410,-0.40500,70.0000,143,67,0.67253
2897420,-0.28500,68.5625,143,67,0.65128
2897430,-0.24000,67.9375,143,67,0.63907
2897440,-0.22500,67.3125,143,67,0.62613
2897450,-0.21500,66.6875,143,67,0.61294
2897460,-0.20500,65.5000,143,67,0.58608
2897470,-0.19500,64.9375,143,67,0.57436
2897480,-0.18000,64.3750,143,67,0.56337
2897490,-0.17000,63.8750,143,67,0.55214
2897500,-0.15500,64.0000,143,67,0.52991
2897510,-0.14000,65.5625,143,67,0.51917
2897520,-0.12500,69.2500,143,67,0.50867
2897530,-0.11000,75.6250,143,67,0.49841
2897540,-0.09500,95.1875,143,67,0.47912
2897550,-0.08000,106.0625,143,67,0.46960
2897560,-0.05500,116.2500,143,67,0.46056
2897570,-0.03500,124.9375,143,67,0.45177
2897580,-0.01000,136.5625,143,67,0.43785
2897590,0.00500,139.5625,143,67,0.43077
2897600,0.02000,140.9375,143,67,0.42344
2897610,0.02000,141.0625,143,67,0.41587
2897620,0.03000,138.8125,143,67,0.40073
2897630,0.04000,136.9375,143,67,0.39316
2897640,0.05500,134.7500,143,67,0.38559
2897650,0.07000,132.4375,143,67,0.37827
2897660,0.08500,127.6250,143,67,0.36361
2897670,0.08000,125.2500,143,67,0.35751
2897680,0.06500,123.0000,143,67,0.35238
2897690,0.03500,120.8125,143,67,0.34603
2897700,0.00000,116.7500,143,67,0.33284
2897710,-0.02000,114.8125,143,67,0.32625
2897720,-0.03500,112.7500,143,67,0.31990
2897730,-0.04000,110.5000,143,67,0.31331
2897740,-0.03500,104.8750,143,67,0.30037
2897750,-0.01500,101.4375,143,67,0.29402
2897760,0.02000,97.6250,143,67,0.28791
2897770,0.06000,93.6875,143,67,0.28352
2897780,0.10000,87.1250,143,67,0.27912
2897790,0.13000,85.0000,143,67,0.27912
2897800,0.14500,83.6250,143,67,0.28205
2897810,0.14000,82.8750,143,67,0.28938
2897820,0.10500,82.3750,143,67,0.32015
2897830,0.04000,82.3125,143,67,0.34457
2897840,-0.03000,82.2500,143,67,0.37460
2897850,-0.09000,82.1875,143,67,0.40928
2897860,-0.12500,81.8125,143,67,0.48669
2897870,-0.14000,81.5000,143,67,0.52137
2897880,-0.14500,81.1250,143,67,0.55238
2897890,-0.15500,80.6875,143,67,0.58510
2897900,-0.16000,79.6875,143,67,0.64444
2897910,-0.16000,79.1875,143,67,0.66862
2897920,-0.16000,78.6250,143,67,0.68864
2897930,-0.17500,78.0000,143,67,0.70427
2897940,-0.11500,76.6875,143,67,0.72430
2897950,0.24000,75.9375,143,67,0.72918
2897960,0.78500,75.1875,143,67,0.73138
2897970,0.81000,74.4375,143,67,0.73089
2897980,0.23000,72.8750,143,67,0.72430
2897990,-0.28500,72.1250,143,67,0.71917
2898000,-0.46000,71.3750,143,67,0.71233
2898010,-0.38500,70.6250,143,67,0.70403
2898020,-0.27000,69.1875,143,67,0.68352
2898030,-0.22500,68.5000,143,67,0.67155
2898040,-0.22000,67.8125,143,67,0.65861
2898050,-0.21000,67.1875,143,67,0.64493
2898060,-0.19500,65.9375,143,67,0.61636
2898070,-0.19000,65.3750,143,67,0.60342
2898080,-0.18000,64.8125,143,67,0.59145
2898090,-0.17000,64.3125,143,67,0.57875
2898100,-0.15500,64.5000,143,67,0.55336
2898110,-0.14000,66.1250,143,67,0.54115
2898120,-0.12500,70.0000,143,67,0.52943
2898130,-0.11500,76.6875,143,67,0.51819
2898140,-0.09500,96.9375,143,67,0.49719
2898150,-0.08000,108.0000,143,67,0.48742
2898160,-0.06000,118.2500,143,67,0.47790
2898170,-0.04000,126.8750,143,67,0.46984
2898180,-0.01500,138.2500,143,67,0.45470
2898190,0.00000,141.1250,143,67,0.44640
2898200,0.01000,142.4375,143,67,0.43785
2898210,0.01500,142.5000,143,67,0.42930
2898220,0.02000,140.3125,143,67,0.41294
2898230,0.02500,138.4375,143,67,0.40488
2898240,0.04000,136.3125,143,67,0.39683
2898250,0.05000,131.5625,143,67,0.38071
2898260,0.06000,129.1875,143,67,0.37265
2898270,0.06000,126.8125,143,67,0.36630
2898280,0.05000,124.5625,143,67,0.36068
2898290,0.02000,122.3750,143,67,0.35433
2898300,-0.00500,118.2500,143,67,0.34066
2898310,-0.03000,116.2500,143,67,0.33358
2898320,-0.04500,114.1875,143,67,0.32650
2898330,-0.04500,112.0000,143,67,0.31941
2898340,-0.03500,106.7500,143,67,0.30549
2898350,-0.02000,103.4375,143,67,0.29890
2898360,0.01500,99.7500,143,67,0.29255
2898370,0.05000,95.8750,143,67,0.28840
2898380,0.09000,89.0625,143,67,0.28327
2898390,0.12000,86.6875,143,67,0.28278
2898400,0.13000,85.0625,143,67,0.28571
2898410,0.12500,84.0000,143,67,0.29304
2898420,0.09000,83.1250,143,67,0.32454
2898430,0.03000,83.0000,143,67,0.34945
2898440,-0.04500,82.8750,143,67,0.38022
2898450,-0.10500,82.7500,143,67,0.41563
2898460,-0.14500,82.3750,143,67,0.49475
2898470,-0.16000,82.0000,143,67,0.52991
2898480,-0.17500,81.6250,143,67,0.56142
2898490,-0.18500,81.1875,143,67,0.59463
2898500,-0.19000,80.1875,143,67,0.65470
2898510,-0.18000,79.6250,143,67,0.67912
2898520,-0.17500,79.0625,143,67,0.69915
2898530,-0.19000,78.4375,143,67,0.71502
2898540,-0.11500,77.1250,143,67,0.73529
2898550,0.26500,76.3750,143,67,0.74066
2898560,0.82500,75.6875,143,67,0.74310
2898570,0.80500,74.9375,143,67,0.74261
2898580,0.16500,73.4375,143,67,0.73651
2898590,-0.35000,72.6875,143,67,0.73162
2898600,-0.50500,71.8750,143,67,0.72552
2898610,-0.41500,71.1250,143,67,0.71770
2898620,-0.30000,69.6875,143,67,0.69792
2898630,-0.26500,69.0625,143,67,0.68620
2898640,-0.25000,68.3750,143,67,0.67326
2898650,-0.24500,67.7500,143,67,0.65934
2898660,-0.24000,66.5000,143,67,0.62979
2898670,-0.23000,65.9375,143,67,0.61636
2898680,-0.22000,65.3750,143,67,0.60366
2898690,-0.20500,64.9375,143,67,0.59023
2898700,-0.19000,65.3125,143,67,0.56313
2898710,-0.17500,67.3125,143,67,0.55043
2898720,-0.16000,71.6875,143,67,0.53822
2898730,-0.14500,78.9375,143,67,0.52674
2898740,-0.12500,100.0000,143,67,0.50501
2898750,-0.11000,111.2500,143,67,0.49475
2898760,-0.08500,121.4375,143,67,0.48474
2898770,-0.05500,136.3750,143,67,0.46838
2898780,-0.04000,140.6875,143,67,0.45983
2898790,-0.02500,143.1875,143,67,0.45079
2898800,-0.01500,144.1875,143,67,0.44200
2898810,-0.01500,144.0000,143,67,0.43321
2898820,-0.00500,141.5625,143,67,0.41612
2898830,0.00000,139.6875,143,67,0.40757
2898840,0.01000,137.6250,143,67,0.39927
2898850,0.02000,135.3125,143,67,0.39121
2898860,0.03500,130.7500,143,67,0.37534
2898870,0.04000,128.5000,143,67,0.36899
2898880,0.03000,126.3125,143,67,0.36337
2898890,0.00000,124.1875,143,67,0.35678
2898900,-0.03500,120.3125,143,67,0.34237
2898910,-0.05500,118.3750,143,67,0.33504
2898920,-0.06500,116.3750,143,67,0.32772
2898930,-0.07500,114.2500,143,67,0.32039
2898940,-0.06500,108.9375,143,67,0.30598
2898950,-0.04500,105.6250,143,67,0.29939
2898960,-0.01500,101.8750,143,67,0.29328
2898970,0.02000,98.0000,143,67,0.28913
2898980,0.06000,91.3125,143,67,0.28498
2898990,0.10000,88.9375,143,67,0.28523
2899000,0.10500,87.2500,143,67,0.28889
2899010,0.10000,86.1250,143,67,0.29719
2899020,0.07500,85.1875,143,67,0.33089
2899030,0.01000,85.0000,143,67,0.35751
2899040,-0.06500,84.8750,143,67,0.39023
2899050,-0.13500,84.7500,143,67,0.42759
2899060,-0.17000,84.3125,143,67,0.51062
2899070,-0.19000,83.8750,143,67,0.54725
2899080,-0.19500,83.4375,143,67,0.57973
2899090,-0.19500,82.9375,143,67,0.61368
2899100,-0.19500,81.8125,143,67,0.67424
2899110,-0.19000,81.2500,143,67,0.69866
2899120,-0.19000,80.6250,143,67,0.71844
2899130,-0.20500,79.9375,143,67,0.73407
2899140,-0.12000,78.5625,143,67,0.75458
2899150,0.28000,77.8125,143,67,0.75995
2899160,0.84500,77.0625,143,67,0.76264
2899170,0.81500,76.3125,143,67,0.76239
2899180,0.14500,74.8125,143,67,0.75653
2899190,-0.39000,74.0625,143,67,0.75189
2899200,-0.52000,73.3125,143,67,0.74579
2899210,-0.40500,72.5625,143,67,0.73822
2899220,-0.28000,71.1875,143,67,0.71868
2899230,-0.25000,70.5625,143,67,0.70696
2899240,-0.24000,69.9375,143,67,0.69426
2899250,-0.23500,69.2500,143,67,0.68034
2899260,-0.22000,68.0000,143,67,0.65104
2899270,-0.21000,67.3750,143,67,0.63712
2899280,-0.20000,66.8125,143,67,0.62393
2899290,-0.18000,66.3750,143,67,0.61001
2899300,-0.16500,66.6875,143,67,0.58242
2899310,-0.16000,68.8125,143,67,0.56923
2899320,-0.15000,73.4375,143,67,0.55653
2899330,-0.13500,91.6250,143,67,0.53236
2899340,-0.11500,103.3125,143,67,0.52112
2899350,-0.09500,114.9375,143,67,0.51038
2899360,-0.07500,125.3125,143,67,0.49988
2899370,-0.05500,140.0000,143,67,0.48547
2899380,-0.03500,144.0625,143,67,0.45617
2899390,-0.02000,146.1250,143,67,0.44493
2899400,-0.01500,146.7500,143,67,0.43443
2899410,-0.01000,146.2500,143,67,0.42466
2899420,-0.00500,143.3750,143,67,0.40586
2899430,0.00000,141.4375,143,67,0.39658
2899440,0.02000,139.3125,143,67,0.38755
2899450,0.03500,137.0625,143,67,0.37900
2899460,0.05000,132.5000,143,67,0.36239
2899470,0.05000,130.2500,143,67,0.35580
2899480,0.04000,128.1250,143,67,0.34969
2899490,0.01500,126.0625,143,67,0.34261
2899500,-0.01000,122.1875,143,67,0.32772
2899510,-0.03500,120.3125,143,67,0.32015
2899520,-0.05500,118.3125,143,67,0.31282
2899530,-0.05500,116.1250,143,67,0.30549
2899540,-0.05500,110.6250,143,67,0.29084
2899550,-0.03000,107.1875,143,67,0.28376
2899560,0.00000,103.3750,143,67,0.27692
2899570,0.03500,99.5625,143,67,0.27204
2899580,0.08000,93.0625,143,67,0.26667
2899590,0.11000,90.8125,143,67,0.26667
2899600,0.11500,89.1875,143,67,0.27082
2899610,0.11000,88.0625,143,67,0.28034
2899620,0.08000,87.0000,143,67,0.31917
2899630,0.02000,86.7500,143,67,0.34921
2899640,-0.05500,86.5625,143,67,0.38559
2899650,-0.11500,86.3750,143,67,0.42686
2899660,-0.15000,85.7500,143,67,0.51038
2899670,-0.16500,85.3125,143,67,0.54628
2899680,-0.17000,84.8125,143,67,0.58462
2899690,-0.17000,84.2500,143,67,0.62149
2899700,-0.16500,83.0625,143,67,0.68400
2899710,-0.16000,82.3750,143,67,0.70818
2899720,-0.17000,81.6875,143,67,0.72772
2899730,-0.20000,81.0000,143,67,0.74286
2899740,-0.09500,79.6250,143,67,0.76166
2899750,0.37000,78.9375,143,67,0.76654
2899760,0.95000,78.2500,143,67,0.76899
2899770,0.79500,77.5000,143,67,0.76850
2899780,0.03000,76.0625,143,67,0.76239
2899790,-0.46000,75.3750,143,67,0.75751
2899800,-0.52000,74.6250,143,67,0.75116
2899810,-0.37500,73.8750,143,67,0.74310
2899820,-0.28000,72.4375,143,67,0.72186
2899830,-0.26500,71.7500,143,67,0.70891
2899840,-0.26000,71.0625,143,67,0.69475
2899850,-0.25000,70.4375,143,67,0.67961
2899860,-0.23000,69.1250,143,67,0.64957
2899870,-0.22000,68.5000,143,67,0.63590
2899880,-0.21500,68.0000,143,67,0.62149
2899890,-0.21000,67.5000,143,67,0.60684
2899900,-0.19500,68.0000,143,67,0.57851
2899910,-0.18500,70.3750,143,67,0.56508
2899920,-0.17000,75.5000,143,67,0.55189
2899930,-0.15500,83.7500,143,67,0.53895
2899940,-0.13500,106.3125,143,67,0.51453
2899950,-0.11000,117.8125,143,67,0.50281
2899960,-0.08500,128.0000,143,67,0.49133
2899970,-0.06500,136.1250,143,67,0.48132
2899980,-0.04500,145.5000,143,67,0.46276
2899990,-0.02500,147.1875,143,67,0.45299
2900000,-0.01500,147.4375,142,67,0.44322
2900010,-0.00500,146.6250,142,67,0.43346
2900020,0.01000,143.2500,142,67,0.41392
2900030,0.02500,141.1250,142,67,0.40440
2900040,0.04000,138.9375,142,67,0.39487
2900050,0.06000,136.6875,142,67,0.38535
2900060,0.07500,132.1875,142,67,0.36850
2900070,0.07000,130.0000,142,67,0.36190
2900080,0.06000,127.8125,142,67,0.35433
2900090,0.03500,125.6875,142,67,0.34628
2900100,0.01500,121.5625,142,67,0.33016
2900110,-0.00500,119.5625,142,67,0.32210
2900120,-0.02000,117.3750,142,67,0.31404
2900130,-0.03500,114.9375,142,67,0.30647
2900140,-0.02500,108.8750,142,67,0.29133
2900150,-0.00500,105.1875,142,67,0.28400
2900160,0.03000,101.3750,142,67,0.27692
2900170,0.06000,97.6875,142,67,0.27204
2900180,0.09500,91.8750,142,67,0.26667
2900190,0.13000,90.0000,142,67,0.26667
2900200,0.13500,88.6875,142,67,0.27106
2900210,0.12500,87.9375,142,67,0.28083
2900220,0.10000,87.3750,142,67,0.32088
2900230,0.03500,87.2500,142,67,0.35165
2900240,-0.03500,87.1250,142,67,0.38877
2900250,-0.09500,86.9375,142,67,0.43053
2900260,-0.12500,86.1250,142,67,0.51404
2900270,-0.14500,85.5000,142,67,0.54945
2900280,-0.15500,84.8125,142,67,0.58706
2900290,-0.15500,84.1250,142,67,0.62295
2900300,-0.15500,82.8125,142,67,0.68303
2900310,-0.14500,82.1250,142,67,0.70574
2900320,-0.14500,81.5000,142,67,0.72381
2900330,-0.16500,80.7500,142,67,0.73773
2900340,-0.03500,79.2500,142,67,0.75433
2900350,0.44500,78.4375,142,67,0.75824
2900360,0.93000,77.5625,142,67,0.75971
2900370,0.69000,76.6875,142,67,0.75824
2900380,-0.12500,74.9375,142,67,0.75043
2900390,-0.41000,73.9375,142,67,0.74481
2900400,-0.43500,72.9375,142,67,0.73748
2900410,-0.30000,71.8125,142,67,0.72845
2900420,-0.21000,69.8750,142,67,0.70574
2900430,-0.19500,69.0625,142,67,0.69231
2900440,-0.18000,68.3125,142,67,0.67790
2900450,-0.17000,67.6875,142,67,0.66252
2900460,-0.16000,66.5625,142,67,0.63199
2900470,-0.15500,66.1250,142,67,0.61832
2900480,-0.14500,65.7500,142,67,0.60391
2900490,-0.13500,65.5000,142,67,0.58926
2900500,-0.11500,66.3125,142,67,0.56117
2900510,-0.10500,68.5000,142,67,0.54774
2900520,-0.09500,73.1250,142,67,0.53455
2900530,-0.08500,80.6875,142,67,0.52186
2900540,-0.07500,101.9375,142,67,0.49768
2900550,-0.05500,113.0625,142,67,0.48596
2900560,-0.04000,123.0625,142,67,0.47448
2900570,-0.02000,131.2500,142,67,0.46471
2900580,0.00000,140.8125,142,67,0.44567
2900590,0.02000,142.5625,142,67,0.43565
2900600,0.03000,142.6875,142,67,0.42540
2900610,0.04000,141.6875,142,67,0.41514
2900620,0.05000,137.7500,142,67,0.39487
2900630,0.07000,135.3125,142,67,0.38510
2900640,0.08500,132.6875,142,67,0.37582
2900650,0.10000,130.0625,142,67,0.36654
2900660,0.10000,124.9375,142,67,0.35018
2900670,0.09500,122.5000,142,67,0.34383
2900680,0.07000,120.1250,142,67,0.33626
2900690,0.04000,117.8750,142,67,0.32845
2900700,0.01500,113.5625,142,67,0.31209
2900710,0.00000,111.3750,142,67,0.30403
2900720,-0.00500,109.0625,142,67,0.29597
2900730,-0.01000,106.4375,142,67,0.28816
2900740,0.00000,100.0625,142,67,0.27253
2900750,0.03000,96.5625,142,67,0.26496
2900760,0.07000,93.2500,142,67,0.25763
2900770,0.11000,90.3750,142,67,0.25250
2900780,0.14000,86.4375,142,67,0.24664
2900790,0.15500,85.3750,142,67,0.24591
2900800,0.16000,84.7500,142,67,0.24860
2900810,0.14500,84.4375,142,67,0.25617
2900820,0.09000,84.2500,142,67,0.28962
2900830,0.01500,84.1875,142,67,0.31648
2900840,-0.05500,84.0625,142,67,0.34921
2900850,-0.10500,83.8750,142,67,0.38632
2900860,-0.12500,83.1250,142,67,0.46154
2900870,-0.14500,82.5625,142,67,0.49377
2900880,-0.14500,81.9375,142,67,0.52821
2900890,-0.15500,80.6250,142,67,0.59048
2900900,-0.15000,79.9375,142,67,0.61563
2900910,-0.14500,79.2500,142,67,0.63639
2900920,-0.15500,78.5625,142,67,0.65250
2900930,-0.16500,77.8750,142,67,0.66447
2900940,0.02000,76.3750,142,67,0.67790
2900950,0.54000,75.6250,142,67,0.68010
2900960,0.89000,74.8750,142,67,0.67985
2900970,0.50500,74.1875,142,67,0.67741
2900980,-0.14000,72.6250,142,67,0.66764
2900990,-0.43500,71.8750,142,67,0.66056
2901000,-0.43500,71.1250,142,66,0.65226
2901010,-0.30000,70.3750,142,66,0.64225
2901020,-0.21000,69.0000,142,66,0.61880
2901030,-0.19500,68.3125,142,66,0.60562
2901040,-0.18500,67.6250,142,66,0.59194
2901050,-0.17000,67.0000,142,66,0.57802
2901060,-0.16000,65.7500,142,66,0.55140
2901070,-0.16000,65.1875,142,66,0.53993
2901080,-0.15000,64.6875,142,66,0.52747
2901090,-0.13500,64.3125,142,66,0.51502
2901100,-0.12500,64.8750,142,66,0.49084
2901110,-0.11000,66.9375,142,66,0.47937
2901120,-0.09500,71.4375,142,66,0.46838
2901130,-0.08000,78.8125,142,66,0.45763
2901140,-0.06000,99.3750,142,66,0.43736
2901150,-0.04500,110.0625,142,66,0.42759
2901160,-0.02500,119.6250,142,66,0.41832
2901170,0.00000,127.3750,142,66,0.41050
2901180,0.02000,136.4375,142,66,0.39585
2901190,0.03500,138.1250,142,66,0.38779
2901200,0.05500,138.2500,142,66,0.37949
2901210,0.07000,137.3125,142,66,0.37094
2901220,0.08500,133.4375,142,66,0.35409
2901230,0.10000,130.9375,142,66,0.34603
2901240,0.12000,128.3125,142,66,0.33797
2901250,0.13000,125.6250,142,66,0.33016
2901260,0.13000,120.3125,142,66,0.31600
2901270,0.12000,117.8125,142,66,0.31062
2901280,0.10000,115.4375,142,66,0.30427
2901290,0.07000,113.1250,142,66,0.29719
2901300,0.05000,108.6250,142,66,0.28254
2901310,0.03000,106.2500,142,66,0.27521
2901320,0.02500,103.7500,142,66,0.26813
2901330,0.02500,100.9375,142,66,0.26105
2901340,0.04000,94.3750,142,66,0.24713
2901350,0.07000,90.9375,142,66,0.24029
2901360,0.10500,87.8750,142,66,0.23394
2901370,0.14000,85.3750,142,66,0.22979
2901380,0.16500,82.5625,142,66,0.22564
2901390,0.17500,82.0000,142,66,0.22613
2901400,0.17500,81.7500,142,66,0.22955
2901410,0.14000,81.7500,142,66,0.23736
2901420,0.08500,81.9375,142,66,0.28181
2901430,0.01000,81.9375,142,66,0.30867
2901440,-0.07000,81.8750,142,66,0.33822
2901450,-0.09500,81.6875,142,66,0.36996
2901460,-0.11500,81.0000,142,66,0.43346
2901470,-0.12000,80.5000,142,66,0.46081
2901480,-0.12500,79.9375,142,66,0.48987
2901490,-0.12500,79.3750,142,66,0.51795
2901500,-0.12500,78.2500,142,66,0.56484
2901510,-0.12500,77.6250,142,66,0.58242
2901520,-0.14000,77.0000,142,66,0.59634
2901530,-0.13500,76.3125,142,66,0.60659
2901540,0.08000,74.8750,142,66,0.61783
2901550,0.60000,74.1250,142,66,0.61954
2901560,0.89500,73.3750,142,66,0.61880
2901570,0.52000,72.5625,142,66,0.61661
2901580,-0.10500,71.0625,142,66,0.60781
2901590,-0.42500,70.3750,142,66,0.60147
2901600,-0.42000,69.6250,142,66,0.59389
2901610,-0.30000,68.9375,142,66,0.58535
2901620,-0.22000,67.6250,142,66,0.56508
2901630,-0.20000,67.0000,142,66,0.55409
2901640,-0.19500,66.4375,142,66,0.54237
2901650,-0.18500,65.8750,142,66,0.53040
2901660,-0.18000,64.7500,142,66,0.50842
2901670,-0.17000,64.1875,142,66,0.49939
2901680,-0.15500,63.7500,142,66,0.48962
2901690,-0.13500,63.5000,142,66,0.48010
2901700,-0.11500,65.1875,142,66,0.46154
2901710,-0.10500,68.5000,142,66,0.45275
2901720,-0.09500,74.5000,142,66,0.44420
2901730,-0.08500,83.1250,142,66,0.43590
2901740,-0.07500,104.2500,142,66,0.42027
2901750,-0.06500,114.3750,142,66,0.41270
2901760,-0.05500,123.1875,142,66,0.40635
2901770,-0.03500,130.0625,142,66,0.40098
2901780,-0.01500,137.9375,142,66,0.38852
2901790,-0.00500,139.2500,142,66,0.38217
2901800,0.00500,139.1875,142,66,0.37582
2901810,0.02000,138.1875,142,66,0.36972
2901820,0.03500,134.3750,142,66,0.35702
2901830,0.05000,132.0000,142,66,0.35067
2901840,0.07000,129.4375,142,66,0.34432
2901850,0.08500,126.8750,142,66,0.33773
2901860,0.09000,121.8125,142,66,0.32625
2901870,0.08000,119.4375,142,66,0.32210
2901880,0.05500,117.1250,142,66,0.31697
2901890,0.03000,115.0000,142,66,0.31136
2901900,0.01000,110.8125,142,66,0.29988
2901910,-0.00500,108.6250,142,66,0.29402
2901920,-0.02500,106.2500,142,66,0.28816
2901930,-0.02000,103.5625,142,66,0.28254
2901940,-0.00500,97.1875,142,66,0.27131
2901950,0.03000,93.6875,142,66,0.26593
2901960,0.07000,90.5000,142,66,0.26227
2901970,0.10000,87.8750,142,66,0.25983
2901980,0.13500,84.5000,142,66,0.25665
2901990,0.14500,83.6250,142,66,0.25836
2902000,0.14500,83.1875,142,66,0.26374
2902010,0.13000,82.9375,142,66,0.27350
2902020,0.08000,82.7500,142,66,0.30842
2902030,0.00000,82.5625,142,66,0.33382
2902040,-0.06500,82.3750,142,66,0.36386
2902050,-0.11000,82.0625,142,66,0.39707
2902060,-0.13500,81.1250,142,66,0.46300
2902070,-0.14500,80.6250,142,66,0.49133
2902080,-0.15500,80.0000,142,66,0.52088
2902090,-0.15500,79.4375,142,66,0.54921
2902100,-0.15500,78.2500,142,66,0.59707
2902110,-0.15000,77.6250,142,66,0.61563
2902120,-0.16500,77.0000,142,66,0.63028
2902130,-0.15000,76.3125,142,66,0.64127
2902140,0.12000,74.9375,142,66,0.65397
2902150,0.66000,74.2500,142,66,0.65641
2902160,0.85500,73.5000,142,66,0.65617
2902170,0.38500,72.7500,142,66,0.65397
2902180,-0.20000,71.2500,142,66,0.64615
2902190,-0.45500,70.5000,142,66,0.64005
2902200,-0.43500,69.7500,142,66,0.63272
2902210,-0.30500,69.0625,142,66,0.62418
2902220,-0.24000,67.6875,142,66,0.60415
2902230,-0.23000,67.0625,142,66,0.59267
2902240,-0.22000,66.5000,142,66,0.58071
2902250,-0.21000,65.9375,142,66,0.56874
2902260,-0.20000,64.7500,142,66,0.54603
2902270,-0.19000,64.1875,142,66,0.53626
2902280,-0.17500,63.8125,142,66,0.52576
2902290,-0.15500,63.6875,142,66,0.51526
2902300,-0.13500,66.0000,142,66,0.49499
2902310,-0.12000,69.9375,142,66,0.48523
2902320,-0.11000,76.5625,142,66,0.47595
2902330,-0.09500,85.6875,142,66,0.46716
2902340,-0.07500,106.9375,142,66,0.45006
2902350,-0.06000,116.8125,142,66,0.44176
2902360,-0.04500,125.1250,142,66,0.43468
2902370,-0.02500,131.5625,142,66,0.42857
2902380,-0.00500,138.5625,142,66,0.41465
2902390,0.01000,139.6250,142,66,0.40733
2902400,0.02000,139.5000,142,66,0.40000
2902410,0.03500,138.5000,142,66,0.39292
2902420,0.04500,134.9375,142,66,0.37875
2902430,0.06000,132.6875,142,66,0.37167
2902440,0.08000,130.3125,142,66,0.36459
2902450,0.09000,127.8750,142,66,0.35775
2902460,0.09500,123.0000,142,66,0.34603
2902470,0.08000,120.6875,142,66,0.34139
2902480,0.05000,118.5000,142,66,0.33578
2902490,0.02000,116.3750,142,66,0.32967
2902500,-0.00500,112.3125,142,66,0.31746
2902510,-0.00500,112.3125,142,66,0.31746
2902520,-0.00500,112.3125,142,66,0.31746
2902530,-0.01500,105.1875,142,66,0.29915
2902540,0.00500,98.7500,142,66,0.28718
2902550,0.03500,95.2500,142,66,0.28132
2902560,0.07000,92.0625,142,66,0.27741
2902570,0.11000,89.2500,142,66,0.27473
2902580,0.14000,85.5625,142,66,0.27179
2902590,0.15500,84.5000,142,66,0.27399
2902600,0.15000,83.8125,142,66,0.27985
2902610,0.13000,83.3125,142,66,0.29060
2902620,0.06500,82.6875,142,66,0.32772
2902630,-0.00500,82.3750,142,66,0.35409
2902640,-0.07500,82.0625,142,66,0.38486
2902650,-0.11500,81.6875,142,66,0.41856
2902660,-0.13500,80.8125,142,66,0.48498
2902670,-0.14500,80.3750,142,66,0.51306
2902680,-0.15000,79.8750,142,66,0.54261
2902690,-0.15500,79.3750,142,66,0.57094
2902700,-0.15500,78.3125,142,66,0.61832
2902710,-0.15000,77.7500,142,66,0.63639
2902720,-0.17000,77.1875,142,66,0.65055
2902730,-0.12500,76.5000,142,66,0.66129
2902740,0.18500,75.1250,142,66,0.67350
2902750,0.73500,74.3750,142,66,0.67546
2902760,0.86500,73.6250,142,66,0.67497
2902770,0.33000,72.8750,142,66,0.67277
2902780,-0.23000,71.4375,142,66,0.66471
2902790,-0.45000,70.6875,142,66,0.65885
2902800,-0.39500,69.9375,142,66,0.65177
2902810,-0.27000,69.2500,142,66,0.64322
2902820,-0.22000,67.8750,142,66,0.62295
2902830,-0.20000,67.1875,142,66,0.61148
2902840,-0.19000,66.5625,142,66,0.59951
2902850,-0.18000,65.9375,142,66,0.58706
2902860,-0.17000,64.7500,142,66,0.56337
2902870,-0.16000,64.2500,142,66,0.55287
2902880,-0.15000,63.8125,142,66,0.54164
2902890,-0.13500,63.6875,142,66,0.53065
2902900,-0.12500,66.3125,142,66,0.50940
2902910,-0.11000,70.8750,142,66,0.49939
2902920,-0.09500,78.2500,142,66,0.48962
2902930,-0.08500,88.0000,142,66,0.48010
2902940,-0.06000,109.6250,142,66,0.46203
2902950,-0.03500,119.4375,142,66,0.45324
2902960,-0.01000,127.5625,142,66,0.44567
2902970,0.00500,133.7500,142,66,0.43907
2902980,0.01500,140.1875,142,66,0.42418
2902990,0.03000,141.0000,142,66,0.41661
2903000,0.03000,140.6250,142,66,0.40904
2903010,0.04000,139.5000,142,66,0.40147
2903020,0.05000,135.8750,142,66,0.38681
2903030,0.06500,133.6875,142,66,0.37949
2903040,0.08000,131.3750,142,66,0.37241
2903050,0.09500,128.9375,142,66,0.36508
2903060,0.09500,124.1875,142,66,0.35214
2903070,0.08000,121.9375,142,66,0.34725
2903080,0.05500,119.7500,142,66,0.34139
2903090,0.02000,117.6875,142,66,0.33504
2903100,-0.00500,113.7500,142,66,0.32234
2903110,-0.02000,111.6875,142,66,0.31600
2903120,-0.02500,109.4375,142,66,0.30965
2903130,-0.02000,106.8125,142,66,0.30330
2903140,0.00500,100.3125,142,66,0.29060
2903150,0.04000,96.5625,142,66,0.28474
2903160,0.08000,92.8750,142,66,0.28083
2903170,0.12000,89.6250,142,66,0.27814
2903180,0.14500,85.1875,142,66,0.27570
2903190,0.15500,83.9375,142,66,0.27814
2903200,0.15000,83.1875,142,66,0.28474
2903210,0.13000,82.8125,142,66,0.29621
2903220,0.07000,82.3750,142,66,0.33553
2903230,-0.00500,82.1875,142,66,0.36337
2903240,-0.06500,82.0000,142,66,0.39536
2903250,-0.10500,81.7500,142,66,0.43053
2903260,-0.13000,81.0625,142,66,0.49206
2903270,-0.13500,80.6250,142,66,0.52430
2903280,-0.14500,80.1250,142,66,0.55604
2903290,-0.14500,79.6250,142,66,0.58559
2903300,-0.14500,78.5625,142,66,0.63370
2903310,-0.14500,77.9375,142,66,0.65177
2903320,-0.16500,77.3125,142,66,0.66593
2903330,-0.10500,76.6875,142,66,0.67643
2903340,0.24500,75.2500,142,66,0.68840
2903350,0.79000,74.5000,142,66,0.69060
2903360,0.82000,73.7500,142,66,0.69011
2903370,0.23500,72.9375,142,66,0.68791
2903380,-0.29000,71.3750,142,66,0.68010
2903390,-0.47500,70.6250,142,66,0.67424
2903400,-0.39500,69.9375,142,66,0.66716
2903410,-0.27500,69.1875,142,66,0.65861
2903420,-0.23000,67.9375,142,66,0.63785
2903430,-0.22000,67.3125,142,66,0.62613
2903440,-0.21000,66.6875,142,66,0.61368
2903450,-0.20000,66.0625,142,66,0.60098
2903460,-0.19000,64.8125,142,66,0.58755
2903470,-0.17500,64.3125,142,66,0.58950
2903480,-0.16000,63.9375,142,66,0.58339
2903490,-0.14500,64.0000,142,66,0.57363
2903500,-0.12500,67.6875,142,66,0.55018
2903510,-0.11500,73.0000,142,66,0.53797
2903520,-0.10500,81.1875,142,66,0.52601
2903530,-0.09000,91.4375,142,66,0.51453
2903540,-0.07000,113.3750,142,66,0.49304
2903550,-0.05000,122.8750,142,66,0.48278
2903560,-0.02500,130.5625,142,66,0.47399
2903570,-0.00500,136.1875,142,66,0.46618
2903580,0.01000,141.6250,142,66,0.44835
2903590,0.02000,142.1250,142,66,0.43932
2903600,0.02000,141.6250,142,66,0.43028
2903610,0.02000,140.4375,142,66,0.42125
2903620,0.03000,136.8125,142,66,0.40415
2903630,0.04000,134.6250,142,66,0.39560
2903640,0.05000,132.3125,142,66,0.38730
2903650,0.06500,130.0000,142,66,0.37900
2903660,0.07000,125.3125,142,66,0.36654
2903670,0.05500,123.1250,142,66,0.35946
2903680,0.03000,121.0000,142,66,0.35189
2903690,0.00500,119.0000,142,66,0.34432
2903700,-0.01500,115.1875,142,66,0.32943
2903710,-0.03500,113.1875,142,66,0.32186
2903720,-0.04500,111.0000,142,66,0.31429
2903730,-0.04000,108.4375,142,66,0.30696
2903740,-0.02500,102.0625,142,66,0.29280
2903750,0.01000,98.4375,142,66,0.28596
2903760,0.05000,94.8750,142,66,0.28132
2903770,0.09500,91.8125,142,66,0.27839
2903780,0.13000,87.4375,142,66,0.27643
2903790,0.14000,86.0625,142,66,0.28034
2903800,0.13000,85.1875,142,66,0.28913
2903810,0.10500,84.6250,142,66,0.30403
2903820,0.04000,83.8750,142,66,0.35336
2903830,-0.03500,83.6250,142,66,0.38730
2903840,-0.10500,83.3125,142,66,0.42613
2903850,-0.14000,82.9375,142,66,0.46789
2903860,-0.16000,82.1250,142,66,0.53968
2903870,-0.17000,81.6875,142,66,0.57680
2903880,-0.17500,81.1875,142,66,0.61294
2903890,-0.17500,80.1250,142,66,0.64615
2903900,-0.17500,79.5000,142,66,0.69988
2903910,-0.17000,78.9375,142,66,0.71990
2903920,-0.18500,78.3125,142,66,0.73553
2903930,-0.11500,77.6250,142,66,0.74725
2903940,0.25500,76.2500,142,66,0.76068
2903950,0.82500,75.5000,142,66,0.76313
2903960,0.83500,74.7500,142,66,0.76264
2903970,0.19000,73.1875,142,66,0.75995
2903980,-0.35000,72.4375,142,66,0.75116
2903990,-0.50000,71.6250,142,66,0.74457
2904000,-0.40500,70.9375,142,66,0.73626
2904010,-0.28500,70.2500,142,66,0.72625
2904020,-0.25000,68.9375,142,66,0.70256
2904030,-0.24500,68.3125,142,66,0.68913
2904040,-0.23000,67.6875,142,66,0.67473
2904050,-0.22000,67.0625,142,66,0.66007
2904060,-0.21500,65.8125,142,66,0.63346
2904070,-0.20500,65.3125,142,66,0.61954
2904080,-0.19000,64.9375,142,66,0.60562
2904090,-0.17500,65.0000,142,66,0.59170
2904100,-0.16000,69.1875,142,66,0.56532
2904110,-0.14500,75.1250,142,66,0.55287
2904120,-0.13000,84.0625,142,66,0.54066
2904130,-0.11500,95.0000,142,66,0.52894
2904140,-0.09500,117.5625,142,66,0.50647
2904150,-0.06500,127.0000,142,66,0.49597
2904160,-0.04500,134.5000,142,66,0.48669
2904170,-0.02500,139.8125,142,66,0.47839
2904180,-0.01500,144.6250,142,66,0.46007
2904190,-0.01000,144.8125,142,66,0.45055
2904200,-0.00500,144.0625,142,66,0.44127
2904210,-0.00500,142.6875,142,66,0.43199
2904220,0.00000,138.7500,142,66,0.41416
2904230,0.01500,136.5000,142,66,0.40537
2904240,0.03500,134.1250,142,66,0.39683
2904250,0.05000,131.8125,142,66,0.38852
2904260,0.05500,127.3125,142,66,0.37582
2904270,0.04500,125.1875,142,66,0.36899
2904280,0.02000,123.1250,142,66,0.36142
2904290,-0.00500,121.1875,142,66,0.35360
2904300,-0.02500,117.3125,142,66,0.33822
2904310,-0.04500,115.3125,142,66,0.33040
2904320,-0.04500,113.0625,142,66,0.32259
2904330,-0.04500,110.4375,142,66,0.31502
2904340,-0.02500,104.0000,142,66,0.30061
2904350,0.01500,100.3125,142,66,0.29402
2904360,0.05500,96.6875,142,66,0.28962
2904370,0.10000,93.4375,142,66,0.28718
2904380,0.13500,88.7500,142,66,0.28620
2904390,0.14000,87.3125,142,66,0.29109
2904400,0.13500,86.3750,142,66,0.30110
2904410,0.11000,85.7500,142,66,0.31746
2904420,0.05000,85.1250,142,66,0.37118
2904430,-0.02500,84.9375,142,66,0.40757
2904440,-0.09500,84.6875,142,66,0.44884
2904450,-0.13000,84.4375,142,66,0.49280
2904460,-0.14500,83.5625,142,66,0.56777
2904470,-0.14500,83.0000,142,66,0.60611
2904480,-0.14500,82.3750,142,66,0.64322
2904490,-0.14500,81.7500,142,66,0.67692
2904500,-0.14000,80.4375,142,66,0.73065
2904510,-0.13500,79.8125,142,66,0.75043
2904520,-0.16000,79.1250,142,66,0.76581
2904530,-0.07000,78.4375,142,66,0.77729
2904540,0.37000,77.0625,142,66,0.79048
2904550,0.94500,76.3125,142,66,0.79292
2904560,0.83500,75.6250,142,66,0.79219
2904570,0.11000,74.9375,142,66,0.78926
2904580,-0.39500,73.5000,142,66,0.77973
2904590,-0.48000,72.7500,142,66,0.77265
2904600,-0.34000,72.0625,142,66,0.76386
2904610,-0.23000,71.3750,142,66,0.75385
2904620,-0.21500,70.0000,142,66,0.72918
2904630,-0.20500,69.3750,142,66,0.71502
2904640,-0.19500,68.7500,142,66,0.70012
2904650,-0.18000,68.1250,142,66,0.68474
2904660,-0.17000,66.8750,142,66,0.65690
2904670,-0.16000,66.3125,142,66,0.64225
2904680,-0.14500,66.0000,142,66,0.62759
2904690,-0.13000,66.1875,142,66,0.61319
2904700,-0.12000,71.1250,142,66,0.58584
2904710,-0.10500,77.6875,142,66,0.57265
2904720,-0.09500,87.1250,142,66,0.55995
2904730,-0.07500,98.4375,142,66,0.54750
2904740,-0.05500,121.0625,142,66,0.52405
2904750,-0.03500,130.2500,142,66,0.51258
2904760,-0.01500,137.3125,142,66,0.50305
2904770,0.01500,142.1250,142,66,0.49426
2904780,0.03000,145.9375,142,66,0.47473
2904790,0.04000,145.7500,142,66,0.46471
2904800,0.04000,144.7500,142,66,0.45470
2904810,0.04500,143.0625,142,66,0.44469
2904820,0.04500,138.8750,142,66,0.42540
2904830,0.05500,136.6250,142,66,0.41587
2904840,0.07000,134.3125,142,66,0.40635
2904850,0.08500,131.9375,142,66,0.39707
2904860,0.08500,127.3750,142,66,0.38315
2904870,0.07500,125.1875,142,66,0.37558
2904880,0.05000,123.1250,142,66,0.36777
2904890,0.02500,119.1875,142,66,0.35995
2904900,0.01000,117.1875,142,66,0.34383
2904910,0.00000,115.0000,142,66,0.33578
2904920,-0.00500,112.5625,142,66,0.32772
2904930,0.00000,109.6875,142,66,0.31966
2904940,0.02500,102.6875,142,66,0.30427
2904950,0.07000,98.8125,142,66,0.29744
2904960,0.11000,95.1250,142,66,0.29255
2904970,0.16000,92.0625,142,66,0.28962
2904980,0.20000,87.8125,142,66,0.28816
2904990,0.21500,86.6250,142,66,0.29328
2905000,0.20500,85.9375,142,67,0.30427
2905010,0.17500,85.5000,142,67,0.32234
2905020,0.11000,85.1875,142,67,0.38046
2905030,0.03000,85.0625,142,67,0.41929
2905040,-0.02000,84.8750,142,67,0.46252
2905050,-0.04500,84.6250,142,67,0.50818
2905060,-0.05500,83.7500,142,67,0.58462
2905070,-0.04500,83.1875,142,67,0.62271
2905080,-0.03500,82.5625,142,67,0.65910
2905090,-0.02000,81.8750,142,67,0.69182
2905100,-0.02000,80.5000,142,67,0.74310
2905110,-0.03500,79.7500,142,67,0.76190
2905120,-0.09000,79.0625,142,67,0.77607
2905130,0.00500,78.3125,142,67,0.78632
2905140,0.46500,76.8750,142,67,0.79658
2905150,0.96000,76.1250,142,67,0.79683
2905160,0.70000,75.3750,142,67,0.79463
2905170,-0.06500,74.6250,142,67,0.79121
2905180,-0.49000,73.0625,142,67,0.77998
2905190,-0.50000,72.2500,142,67,0.77192
2905200,-0.35000,71.5000,142,67,0.76190
2905210,-0.25000,70.7500,142,67,0.75043
2905220,-0.23500,69.3750,142,67,0.72357
2905230,-0.22000,68.6875,142,67,0.70867
2905240,-0.21000,68.0000,142,67,0.69280
2905250,-0.20000,67.3750,142,67,0.67668
2905260,-0.20000,66.1250,142,67,0.64786
2905270,-0.20000,65.5625,142,67,0.63297
2905280,-0.19500,65.2500,142,67,0.61783
2905290,-0.18000,65.3125,142,67,0.60269
2905300,-0.16000,69.9375,142,67,0.57363
2905310,-0.14500,76.2500,142,67,0.55995
2905320,-0.13500,85.3750,142,67,0.54676
2905330,-0.12000,96.3750,142,67,0.53407
2905340,-0.10500,118.6250,142,67,0.50965
2905350,-0.08000,127.6875,142,67,0.49915
2905360,-0.05000,134.6250,142,67,0.48987
2905370,-0.02500,139.3125,142,67,0.47961
2905380,-0.00500,142.9375,142,67,0.45861
2905390,0.00500,142.6250,142,67,0.44835
2905400,0.02000,141.4375,142,67,0.43810
2905410,0.03500,139.6250,142,67,0.42808
2905420,0.05500,135.0000,142,67,0.40855
2905430,0.07500,132.5000,142,67,0.39902
2905440,0.09000,129.9375,142,67,0.38950
2905450,0.10000,127.4375,142,67,0.38022
2905460,0.09000,122.6875,142,67,0.36581
2905470,0.07000,120.4375,142,67,0.35775
2905480,0.04500,118.3125,142,67,0.34945
2905490,0.02000,116.2500,142,67,0.34090
2905500,0.00000,112.0625,142,67,0.32430
2905510,-0.01000,109.6875,142,67,0.30989
2905520,-0.01500,106.9375,142,67,0.29231
2905530,-0.01000,103.8750,142,67,0.27985
2905540,0.01000,96.7500,142,67,0.26129
2905550,0.05000,93.3750,142,67,0.25519
2905560,0.08000,90.4375,142,67,0.25079
2905570,0.10000,88.0625,142,67,0.24664
2905580,0.12000,85.1875,142,67,0.24396
2905590,0.12000,84.5000,142,67,0.24786
2905600,0.08500,84.0625,142,67,0.25665
2905610,0.01500,83.9375,142,67,0.27131
2905620,-0.08000,83.7500,142,67,0.31941
2905630,-0.17000,83.5625,142,67,0.35214
2905640,-0.23000,83.3125,142,67,0.38901
2905650,-0.24500,83.0000,142,67,0.42808
2905660,-0.23500,82.1250,142,67,0.49402
2905670,-0.21500,81.5625,142,67,0.52698
2905680,-0.19500,81.0000,142,67,0.55824
2905690,-0.17000,80.4375,142,67,0.58632
2905700,-0.15500,79.1875,142,67,0.62979
2905710,-0.15500,78.5000,142,67,0.64493
2905720,-0.16000,77.7500,142,67,0.65641
2905730,0.03000,77.0000,142,67,0.66447
2905740,0.54500,75.5000,142,67,0.67179
2905750,0.90500,74.7500,142,67,0.67155
2905760,0.39000,74.0000,142,67,0.66935
2905770,-0.12500,73.2500,142,67,0.66593
2905780,-0.43500,71.6250,142,67,0.65446
2905790,-0.43500,70.8750,142,67,0.64640
2905800,-0.30000,70.0625,142,67,0.63687
2905810,-0.21000,69.3125,142,67,0.62613
2905820,-0.18500,67.9375,142,67,0.60195
2905830,-0.17000,67.3125,142,67,0.58877
2905840,-0.14500,66.6875,142,67,0.57558
2905850,-0.12500,66.0625,142,67,0.56215
2905860,-0.11500,64.8750,142,67,0.53895
2905870,-0.10500,64.4375,142,67,0.52698
2905880,-0.08583,64.1875,142,67,0.51502
2905890,-0.06500,64.3750,142,67,0.50330
2905900,-0.05000,69.2500,142,67,0.48132
2905910,-0.04500,75.4375,142,67,0.47106
2905920,-0.04000,84.3125,142,67,0.46105
2905930,-0.03500,94.8125,142,67,0.45128
2905940,-0.02500,115.7500,142,67,0.43248
2905950,-0.00500,124.1875,142,67,0.42466
2905960,0.00000,130.6250,142,67,0.41758
2905970,0.01500,135.0000,142,67,0.40977
2905980,0.02500,138.1875,142,67,0.39316
2905990,0.03500,137.7500,142,67,0.38486
2906000,0.05000,136.4375,142,66,0.37680
2906010,0.07000,134.5625,142,66,0.36874
2906020,0.09000,129.6875,142,66,0.35311
2906030,0.11000,127.0625,142,66,0.34554
2906040,0.12500,124.3750,142,66,0.33773
2906050,0.12500,121.7500,142,66,0.32991
2906060,0.11500,116.6250,142,66,0.31844
2906070,0.09000,114.2500,142,66,0.31160
2906080,0.06000,112.0000,142,66,0.30403
2906090,0.04000,109.7500,142,66,0.29646
2906100,0.02000,105.1250,142,66,0.28132
2906110,0.01000,102.5625,142,66,0.27399
2906120,0.01000,99.6250,142,66,0.26691
2906130,0.02000,96.4375,142,66,0.25983
2906140,0.05000,89.7500,142,66,0.24615
2906150,0.08500,86.9375,142,66,0.24127
2906160,0.11500,84.7500,142,66,0.23785
2906170,0.14000,83.2500,142,66,0.23419
2906180,0.16000,81.6875,142,66,0.23199
2906190,0.16000,81.5000,142,66,0.23565
2906200,0.13000,81.3750,142,66,0.24371
2906210,0.06000,81.3750,142,66,0.25714
2906220,-0.01500,81.1875,142,66,0.30159
2906230,-0.08500,81.0000,142,66,0.33162
2906240,-0.13000,80.6875,142,66,0.36532
2906250,-0.15500,80.2500,142,66,0.40122
2906260,-0.16000,79.2500,142,66,0.46227
2906270,-0.16500,78.6875,142,66,0.49280
2906280,-0.16500,78.1250,142,66,0.52186
2906290,-0.16000,77.5625,142,66,0.54799
2906300,-0.16000,76.3125,142,66,0.58828
2906310,-0.17000,75.6875,142,66,0.60220
2906320,-0.18000,75.0625,142,66,0.61197
2906330,0.03500,74.3750,142,66,0.61832
2906340,0.56500,73.0625,142,66,0.62295
2906350,0.88000,72.3750,142,66,0.62173
2906360,0.48000,71.6250,142,66,0.61856
2906370,-0.19000,70.8750,142,66,0.61416
2906380,-0.51000,69.4375,142,66,0.60122
2906390,-0.50500,68.6875,142,66,0.59292
2906400,-0.36500,67.9375,142,66,0.58339
2906410,-0.28000,67.2500,142,66,0.57289
2906420,-0.25500,65.9375,142,66,0.54945
2906430,-0.24000,65.3125,142,66,0.53700
2906440,-0.22000,64.6875,142,66,0.52454
2906450,-0.21000,64.0625,142,66,0.51209
2906460,-0.20000,63.0000,142,66,0.49133
2906470,-0.19500,62.5625,142,66,0.48107
2906480,-0.17500,62.5000,142,66,0.47057
2906490,-0.15000,63.0625,142,66,0.46032
2906500,-0.12500,69.4375,142,66,0.44054
2906510,-0.11000,76.6250,142,66,0.43101
2906520,-0.09500,86.1250,142,66,0.42198
2906530,-0.07500,96.8750,142,66,0.41343
2906540,-0.05500,117.3750,142,66,0.39707
2906550,-0.03500,125.3750,142,66,0.39048
2906560,-0.01000,131.5000,142,66,0.38486
2906570,0.01000,135.5000,142,66,0.37851
2906580,0.02000,138.4375,142,66,0.36459
2906590,0.03500,137.9375,142,66,0.35751
2906600,0.05000,136.6250,142,66,0.35067
2906610,0.06000,134.8125,142,66,0.34359
2906620,0.08000,130.2500,142,66,0.32943
2906630,0.09000,127.7500,142,66,0.32259
2906640,0.10000,125.1875,142,66,0.31551
2906650,0.10000,122.5625,142,66,0.30867
2906660,0.09000,117.6250,142,66,0.29915
2906670,0.06000,115.3125,142,66,0.29377
2906680,0.03000,113.0625,142,66,0.28791
2906690,0.00500,110.8750,142,66,0.28205
2906700,-0.01000,106.3750,142,66,0.27033
2906710,-0.01500,103.8125,142,66,0.26422
2906720,-0.01500,100.8750,142,66,0.25812
2906730,0.00000,97.6250,142,66,0.25177
2906740,0.03500,90.6875,142,66,0.23956
2906750,0.07500,87.5625,142,66,0.23565
2906760,0.11000,85.1250,142,66,0.23321
2906770,0.14000,83.3750,142,66,0.23077
2906780,0.15500,81.6250,142,66,0.23175
2906790,0.15500,81.3750,142,66,0.23761
2906800,0.12500,81.3125,142,66,0.24811
2906810,0.06000,81.3125,142,66,0.26422
2906820,-0.01500,81.1250,142,66,0.31306
2906830,-0.09000,80.9375,142,66,0.34481
2906840,-0.13000,80.6250,142,66,0.37998
2906850,-0.15500,80.3125,142,66,0.41245
2906860,-0.16000,79.3750,142,66,0.47619
2906870,-0.16000,78.8125,142,66,0.50891
2906880,-0.15500,78.2500,142,66,0.53919
2906890,-0.14500,77.7500,142,66,0.56606
2906900,-0.13500,76.8750,142,66,0.59687
2906910,-0.15000,75.9375,142,66,0.62247
2906920,-0.13500,75.2500,142,66,0.63370
2906930,0.12000,74.5625,142,66,0.64151
2906940,0.66500,73.1875,142,66,0.64860
2906950,0.90000,72.5625,142,66,0.64811
2906960,0.44000,71.8750,142,66,0.64591
2906970,-0.19000,71.1875,142,66,0.64249
2906980,-0.48000,69.7500,142,66,0.63126
2906990,-0.44500,69.0625,142,66,0.62369
2907000,-0.31000,68.3750,141,66,0.61465
2907010,-0.24000,67.7500,141,66,0.60464
2907020,-0.22000,66.5000,141,66,0.58144
2907030,-0.22000,65.8125,141,66,0.56899
2907040,-0.22000,65.1875,141,66,0.55629
2907050,-0.21500,64.5625,141,66,0.54457
2907060,-0.21000,63.5000,141,66,0.52259
2907070,-0.19500,63.1875,141,66,0.51111
2907080,-0.18000,63.1875,141,66,0.49963
2907090,-0.16000,64.1250,141,66,0.48864
2907100,-0.14500,72.1250,141,66,0.46740
2907110,-0.13500,80.1250,141,66,0.45763
2907120,-0.11500,90.2500,141,66,0.44835
2907130,-0.09500,101.1875,141,66,0.43932
2907140,-0.06500,121.1250,141,66,0.42198
2907150,-0.03500,128.6875,141,66,0.41465
2907160,-0.01500,134.2500,141,66,0.40806
2907170,0.00000,137.8750,141,66,0.40098
2907180,0.01500,140.3750,141,66,0.38608
2907190,0.02500,139.8750,141,66,0.37827
2907200,0.03500,138.6250,141,66,0.37070
2907210,0.04000,136.8125,141,66,0.36313
2907220,0.05000,132.2500,141,66,0.34872
2907230,0.06500,129.7500,141,66,0.34188
2907240,0.08000,127.2500,141,66,0.33504
2907250,0.08000,124.8125,141,66,0.32991
2907260,0.06000,120.2500,141,66,0.31990
2907270,0.04000,118.1250,141,66,0.31380
2907280,0.02000,116.0625,141,66,0.30769
2907290,-0.00500,114.1250,141,66,0.30159
2907300,-0.02500,110.0000,141,66,0.28962
2907310,-0.03000,107.6250,141,66,0.28352
2907320,-0.02500,104.9375,141,66,0.27741
2907330,-0.00500,101.8125,141,66,0.27155
2907340,0.03000,94.6250,141,66,0.25983
2907350,0.07000,91.2500,141,66,0.25592
2907360,0.11000,88.3750,141,66,0.25324
2907370,0.13500,86.1875,141,66,0.25104
2907380,0.15000,83.7500,141,66,0.25372
2907390,0.14500,83.1875,141,66,0.26081
2907400,0.12500,82.8750,141,66,0.27302
2907410,0.06500,82.6875,141,66,0.29084
2907420,-0.00500,82.3750,141,66,0.34310
2907430,-0.07500,82.1250,141,66,0.37656
2907440,-0.11500,81.8125,141,66,0.41294
2907450,-0.13000,81.5000,141,66,0.44591
2907460,-0.13500,80.5625,141,66,0.51062
2907470,-0.13500,80.0000,141,66,0.54383
2907480,-0.13500,79.5000,141,66,0.57460
2907490,-0.14000,78.9375,141,66,0.60195
2907500,-0.14000,77.7500,141,66,0.64444
2907510,-0.16000,77.1250,141,66,0.65958
2907520,-0.14500,76.4375,141,66,0.67082
2907530,0.14000,75.6875,141,66,0.67863
2907540,0.70000,74.2500,141,66,0.68596
2907550,0.89000,73.5000,141,66,0.68547
2907560,0.38000,72.6875,141,66,0.69817
2907570,-0.23000,71.9375,141,66,0.71722
2907580,-0.48000,70.3750,141,66,0.72186
2907590,-0.44000,69.6250,141,66,0.71624
2907600,-0.30500,68.9375,141,66,0.70745
2907610,-0.23500,68.2500,141,66,0.69646
2907620,-0.22000,66.8750,141,66,0.67009
2907630,-0.21000,66.2500,141,66,0.65543
2907640,-0.20000,65.6250,141,66,0.64005
2907650,-0.19000,64.5000,141,66,0.62589
2907660,-0.18000,64.0000,141,66,0.59853
2907670,-0.16500,63.6875,141,66,0.58437
2907680,-0.14000,63.8750,141,66,0.57070
2907690,-0.11500,65.0000,141,66,0.55775
2907700,-0.10000,74.0625,141,66,0.53333
2907710,-0.08500,82.7500,141,66,0.52186
2907720,-0.07000,93.4375,141,66,0.51087
2907730,-0.05500,104.5625,141,66,0.50037
2907740,-0.03500,124.1875,141,66,0.47985
2907750,-0.01500,131.4375,141,66,0.47106
2907760,0.00500,136.6875,141,66,0.46300
2907770,0.01500,140.0000,141,66,0.45421
2907780,0.02000,142.0000,141,66,0.43541
2907790,0.02500,141.3750,141,66,0.42613
2907800,0.03500,140.0625,141,66,0.41709
2907810,0.04000,138.3125,141,66,0.40806
2907820,0.05500,133.9375,141,66,0.39072
2907830,0.06500,131.6250,141,66,0.38242
2907840,0.08000,129.3125,141,66,0.37411
2907850,0.08500,127.0000,141,66,0.36777
2907860,0.07500,122.6875,141,66,0.35556
2907870,0.05000,120.6250,141,66,0.34847
2907880,0.02000,118.6250,141,66,0.34115
2907890,-0.00500,116.7500,141,66,0.33358
2907900,-0.02500,112.7500,141,66,0.31819
2907910,-0.03500,110.5000,141,66,0.31013
2907920,-0.03500,107.8750,141,66,0.30232
2907930,-0.02000,104.7500,141,66,0.29475
2907940,0.01500,97.4375,141,66,0.28132
2907950,0.06000,93.7500,141,66,0.27717
2907960,0.10000,90.5625,141,66,0.27497
2907970,0.13500,88.0000,141,66,0.27350
2907980,0.15000,84.8750,141,66,0.27912
2907990,0.14500,84.0625,141,66,0.28840
2908000,0.11000,83.5625,141,66,0.30354
2908010,0.05000,83.2500,141,66,0.32503
2908020,-0.03000,82.7500,141,66,0.38779
2908030,-0.09500,82.5000,141,66,0.42735
2908040,-0.13000,82.2500,141,66,0.47033
2908050,-0.14500,81.8750,141,66,0.50891
2908060,-0.15500,81.0000,141,66,0.58388
2908070,-0.16000,80.5000,141,66,0.62222
2908080,-0.16000,80.0625,141,66,0.65788
2908090,-0.16000,79.5625,141,66,0.68938
2908100,-0.15500,78.3750,141,66,0.73871
2908110,-0.17000,77.7500,141,66,0.75629
2908120,-0.13500,77.0625,141,66,0.76948
2908130,0.15500,76.3125,141,66,0.77900
2908140,0.71500,74.8750,141,66,0.78828
2908150,0.88000,74.0625,141,66,0.78828
2908160,0.37000,73.3125,141,66,0.78608
2908170,-0.22000,72.5625,141,66,0.78266
2908180,-0.47000,71.1250,141,66,0.77118
2908190,-0.42000,70.3750,141,66,0.76288
2908200,-0.29000,69.6250,141,66,0.75311
2908210,-0.23000,68.9375,141,66,0.74164
2908220,-0.21000,67.5625,141,66,0.71429
2908230,-0.20000,66.8750,141,66,0.69939
2908240,-0.19500,66.2500,141,66,0.68400
2908250,-0.19000,65.5625,141,66,0.66984
2908260,-0.18000,64.5000,141,66,0.64176
2908270,-0.16500,64.2500,141,66,0.62735
2908280,-0.15000,64.5625,141,66,0.61319
2908290,-0.13500,66.0625,141,66,0.59902
2908300,-0.12000,75.9375,141,66,0.57216
2908310,-0.10000,84.9375,141,66,0.55946
2908320,-0.08000,95.5625,141,66,0.54725
2908330,-0.05500,106.6250,141,66,0.53529
2908340,-0.03500,125.8750,141,66,0.51282
2908350,-0.01500,132.9375,141,66,0.50354
2908360,0.00000,137.9375,141,66,0.49499
2908370,0.01500,142.6250,141,66,0.48571
2908380,0.02500,143.0000,141,66,0.46667
2908390,0.03000,142.4375,141,66,0.45714
2908400,0.03500,141.2500,141,66,0.44786
2908410,0.04000,139.5625,141,66,0.43858
2908420,0.05000,135.5000,141,66,0.42051
2908430,0.06000,133.2500,141,66,0.41172
2908440,0.07000,131.0000,141,66,0.40293
2908450,0.07500,128.8125,141,66,0.39560
2908460,0.06500,124.5000,141,66,0.38193
2908470,0.04000,122.4375,141,66,0.37387
2908480,0.01500,120.5000,141,66,0.36557
2908490,-0.01000,116.6250,141,66,0.35726
2908500,-0.03000,114.6250,141,66,0.34090
2908510,-0.04500,112.3750,141,66,0.33260
2908520,-0.04000,109.8125,141,66,0.32430
2908530,-0.02500,106.7500,141,66,0.31600
2908540,0.01000,99.5625,141,66,0.30085
2908550,0.04500,95.8750,141,66,0.29597
2908560,0.08500,92.6250,141,66,0.29304
2908570,0.12000,90.0000,141,66,0.29084
2908580,0.13500,86.6250,141,66,0.29475
2908590,0.13000,85.6875,141,66,0.30379
2908600,0.10500,85.0625,141,66,0.31868
2908610,0.04500,84.5625,141,66,0.33993
2908620,-0.03000,83.9375,141,66,0.40195
2908630,-0.09500,83.6875,141,66,0.44078
2908640,-0.13500,83.3750,141,66,0.48303
2908650,-0.15500,82.9375,141,66,0.52088
2908660,-0.16000,82.0000,141,66,0.59438
2908670,-0.16500,81.4375,141,66,0.63223
2908680,-0.17000,80.8750,141,66,0.66740
2908690,-0.16500,80.3125,141,66,0.69866
2908700,-0.16500,79.0625,141,66,0.74676
2908710,-0.18000,78.4375,141,66,0.76386
2908720,-0.14500,77.6875,141,66,0.77680
2908730,0.16000,77.0000,141,66,0.78584
2908740,0.74500,75.5000,141,66,0.79414
2908750,0.91500,74.8125,141,66,0.79341
2908760,0.37000,74.0625,141,66,0.79194
2908770,-0.25000,73.3750,141,66,0.78901
2908780,-0.49000,71.8750,141,66,0.77827
2908790,-0.42500,71.1250,141,66,0.77021
2908800,-0.28000,70.3750,141,66,0.76020
2908810,-0.22000,69.6875,141,66,0.74847
2908820,-0.21000,68.3125,141,66,0.72112
2908830,-0.21000,67.6875,141,66,0.70623
2908840,-0.20000,67.0625,141,66,0.69060
2908850,-0.20000,66.4375,141,66,0.67595
2908860,-0.19500,65.3125,141,66,0.64713
2908870,-0.18500,65.0000,141,66,0.63199
2908880,-0.17000,65.1875,141,66,0.61709
2908890,-0.15000,66.6875,141,66,0.60244
2908900,-0.13000,76.9375,141,66,0.57436
2908910,-0.11500,86.2500,141,66,0.56068
2908920,-0.10500,97.2500,141,66,0.54774
2908930,-0.08500,108.6875,141,66,0.53504
2908940,-0.06500,128.3750,141,66,0.51233
2908950,-0.03500,137.1354,141,66,0.50033
2908960,-0.02000,140.3125,141,66,0.49231
2908970,0.00000,143.2500,141,66,0.48156
2908980,0.01500,144.6250,141,66,0.46032
2908990,0.02000,143.8750,141,66,0.45006
2909000,0.02500,142.5000,142,66,0.44029
2909010,0.03000,140.6875,142,66,0.43053
2909020,0.04000,136.5000,142,66,0.41172
2909030,0.05000,134.2500,142,66,0.40269
2909040,0.06500,132.0000,142,66,0.39341
2909050,0.07000,129.8125,142,66,0.38608
2909060,0.06000,125.6250,142,66,0.37192
2909070,0.04000,123.6250,142,66,0.36386
2909080,0.01500,121.6250,142,66,0.35531
2909090,-0.00500,119.7500,142,66,0.34701
2909100,-0.02500,115.7500,142,66,0.33040
2909110,-0.04500,113.5000,142,66,0.32234
2909120,-0.04500,110.8750,142,66,0.31453
2909130,-0.02000,107.7500,142,66,0.30647
2909140,0.01000,100.3750,142,66,0.29304
2909150,0.04500,96.6250,142,66,0.28889
2909160,0.08500,93.3125,142,66,0.28449
2909170,0.12000,90.6250,142,66,0.28132
2909180,0.14000,87.1875,142,66,0.28474
2909190,0.14000,86.2500,142,66,0.29353
2909200,0.12000,85.6250,142,66,0.30842
2909210,0.07000,85.2500,142,66,0.33016
2909220,-0.00500,84.8750,142,66,0.39341
2909230,-0.07500,84.6875,142,66,0.43272
2909240,-0.12000,84.4375,142,66,0.47521
2909250,-0.14500,84.0625,142,66,0.51355
2909260,-0.14500,83.0625,142,66,0.58730
2909270,-0.15500,82.5000,142,66,0.62466
2909280,-0.16000,81.9375,142,66,0.65934
2909290,-0.16500,81.3125,142,66,0.69035
2909300,-0.17000,80.0000,142,66,0.73822
2909310,-0.19000,79.3125,142,66,0.75531
2909320,-0.17000,78.6250,142,66,0.76850
2909330,0.14000,77.8750,142,66,0.77778
2909340,0.74500,76.4375,142,66,0.78632
2909350,0.94500,75.7500,142,66,0.78608
2909360,0.36000,74.9375,142,66,0.78486
2909370,-0.33000,74.1875,142,66,0.78242
2909380,-0.56500,72.6875,142,66,0.77216
2909390,-0.47500,72.0000,142,66,0.76435
2909400,-0.32500,71.2500,142,66,0.75482
2909410,-0.27000,70.5625,142,66,0.74359
2909420,-0.26000,69.1875,142,66,0.71722
2909430,-0.24500,68.5000,142,66,0.70256
2909440,-0.23000,67.8750,142,66,0.68742
2909450,-0.22500,67.1875,142,66,0.67350
2909460,-0.22000,66.0625,142,66,0.64542
2909470,-0.21500,65.8125,142,66,0.63053
2909480,-0.20000,66.0625,142,66,0.61563
2909490,-0.18000,67.6875,142,66,0.60098
2909500,-0.17000,78.8125,142,66,0.57338
2909510,-0.15000,88.7500,142,66,0.56044
2909520,-0.13500,100.3125,142,66,0.54774
2909530,-0.11500,112.1250,142,66,0.53553
2909540,-0.08500,132.0000,142,66,0.51331
2909550,-0.06000,138.8125,142,66,0.50379
2909560,-0.03500,143.3750,142,66,0.49377
2909570,-0.01500,145.9375,142,66,0.48327
2909580,-0.00500,146.7500,142,66,0.46252
2909590,-0.00500,145.7500,142,66,0.45275
2909600,-0.00500,144.2500,142,66,0.44322
2909610,-0.00500,142.4375,142,66,0.42637
2909620,0.00500,138.3750,142,66,0.39121
2909630,0.02000,136.2500,142,66,0.37973
2909640,0.04000,134.1875,142,66,0.36972
2909650,0.05000,132.0625,142,66,0.36190
2909660,0.04500,128.0625,142,66,0.34823
2909670,0.02500,126.1250,142,66,0.34042
2909680,0.00500,124.2500,142,66,0.33260
2909690,-0.01500,122.3750,142,66,0.32479
2909700,-0.02500,118.4375,142,66,0.30916
2909710,-0.03500,116.1875,142,66,0.30159
2909720,-0.03500,113.5000,142,66,0.29402
2909730,-0.02500,110.3750,142,66,0.28645
2909740,0.01000,102.7500,142,66,0.27375
2909750,0.04000,98.8750,142,66,0.26984
2909760,0.07000,95.3750,142,66,0.26593
2909770,0.10000,92.5000,142,66,0.26325
2909780,0.11000,88.6875,142,66,0.26740
2909790,0.11000,87.6875,142,66,0.27668
2909800,0.09500,87.0625,142,66,0.29231
2909810,0.05000,86.7500,142,66,0.31477
2909820,-0.02500,86.3125,142,66,0.37924
2909830,-0.10000,86.1250,142,66,0.41954
2909840,-0.15000,85.8125,142,66,0.46276
2909850,-0.18000,85.4375,142,66,0.50134
2909860,-0.19000,84.4375,142,66,0.57485
2909870,-0.19000,83.8125,142,66,0.61197
2909880,-0.19000,83.1875,142,66,0.64591
2909890,-0.19000,82.4375,142,66,0.67570
2909900,-0.19500,81.0000,142,66,0.72186
2909910,-0.22500,80.2500,142,66,0.73822
2909920,-0.20000,79.5000,142,66,0.75067
2909930,0.12500,78.6875,142,66,0.75971
2909940,0.75500,77.1875,142,66,0.76801
2909950,0.92500,76.4375,142,66,0.76777
2909960,0.29000,75.7500,142,66,0.76654
2909970,-0.39500,75.0000,142,66,0.76435
2909980,-0.60000,73.5000,142,66,0.75507
2909990,-0.47000,72.7500,142,66,0.74774
2910000,-0.31500,72.0000,142,66,0.73871
2910010,-0.27500,71.3125,142,66,0.72821
2910020,-0.26500,69.8750,142,66,0.70232
2910030,-0.25000,69.1875,142,66,0.68767
2910040,-0.24000,68.5000,142,66,0.67228
2910050,-0.24000,67.8125,142,66,0.65788
2910060,-0.24000,66.6875,142,66,0.62882
2910070,-0.24000,66.3750,142,66,0.61343
2910080,-0.22500,66.6250,142,66,0.59829
2910090,-0.21000,68.2500,142,66,0.58339
2910100,-0.19000,79.3750,142,66,0.55531
2910110,-0.18000,89.2500,142,66,0.54188
2910120,-0.16000,100.7500,142,66,0.52894
2910130,-0.13500,112.5000,142,66,0.51624
2910140,-0.10500,132.1875,142,66,0.49353
2910150,-0.07500,138.8750,142,66,0.48400
2910160,-0.04500,143.3125,142,66,0.47375
2910170,-0.02500,145.8125,142,66,0.46349
2910180,-0.01000,146.2500,142,66,0.44249
2910190,-0.00500,145.1250,142,66,0.43223
2910200,0.00000,143.5000,142,66,0.42222
2910210,0.01000,141.5625,142,66,0.41245
2910220,0.03000,137.3125,142,66,0.39316
2910230,0.04500,135.8646,142,66,0.38677
2910240,0.06000,135.1250,142,66,0.38364
2910250,0.07500,133.0000,142,66,0.37411
2910260,0.07000,128.8125,142,66,0.35971
2910270,0.06000,126.8125,142,66,0.35165
2910280,0.03500,124.9375,142,66,0.34310
2910290,0.01500,123.0625,142,66,0.33431
2910300,-0.00500,119.1875,142,66,0.31673
2910310,-0.01000,117.0000,142,66,0.30818
2910320,-0.01500,114.5000,142,66,0.29988
2910330,0.00000,111.5000,142,66,0.29182
2910340,0.03000,104.2500,142,66,0.27643
2910350,0.06500,100.2500,142,66,0.27082
2910360,0.09000,96.5000,142,66,0.26642
2910370,0.13000,93.2500,142,66,0.26178
2910380,0.14500,88.6875,142,66,0.25763
2910390,0.15000,87.3125,142,66,0.26105
2910400,0.13000,86.4375,142,66,0.26960
2910410,0.08000,85.9375,142,66,0.28425
2910420,0.01000,85.5000,142,66,0.33480
2910430,-0.05500,85.3750,142,66,0.36996
2910440,-0.09500,85.1250,142,66,0.40977
2910450,-0.11500,84.4375,142,66,0.49109
2910460,-0.12000,84.0000,142,66,0.52625
2910470,-0.12500,83.4375,142,66,0.56410
2910480,-0.12500,82.8750,142,66,0.60049
2910490,-0.12500,82.2500,142,66,0.63370
2910500,-0.12500,80.8750,142,66,0.68620
2910510,-0.13500,80.1875,142,66,0.70549
2910520,-0.13000,79.4375,142,66,0.72039
2910530,0.10000,78.6875,142,66,0.73138
2910540,0.67000,77.1250,142,66,0.74359
2910550,0.97500,76.3750,142,66,0.74481
2910560,0.47000,75.5625,142,66,0.74383
2910570,-0.20500,74.8125,142,66,0.74212
2910580,-0.46000,73.1875,142,66,0.73431
2910590,-0.40500,72.3750,142,66,0.72772
2910600,-0.26500,71.5625,142,66,0.71966
2910610,-0.19000,70.8125,142,66,0.71013
2910620,-0.18000,69.4375,142,66,0.68620
2910630,-0.17000,68.7500,142,66,0.67253
2910640,-0.16500,68.0625,142,66,0.65788
2910650,-0.16000,67.3750,142,66,0.64371
2910660,-0.15500,66.0625,142,66,0.61514
2910670,-0.14500,65.5000,142,66,0.60000
2910680,-0.13000,65.1250,142,66,0.58462
2910690,-0.11500,66.2500,142,66,0.56947
2910700,-0.10500,69.1250,142,66,0.54066
2910710,-0.09500,74.8125,142,66,0.52698
2910720,-0.08500,83.3750,142,66,0.51380
2910730,-0.06500,94.0000,142,66,0.50134
2910740,-0.04000,115.9375,142,66,0.47790
2910750,-0.02500,125.0625,142,66,0.46813
2910760,-0.00500,132.2500,142,66,0.45910
2910770,0.01500,137.1875,142,66,0.44908
2910780,0.03000,141.1875,142,66,0.42857
2910790,0.04500,140.9375,142,66,0.41856
2910800,0.06000,139.7500,142,66,0.40830
2910810,0.08000,137.9375,142,66,0.39829
2910820,0.09500,133.3125,142,66,0.37900
2910830,0.11000,130.6875,142,66,0.36972
2910840,0.12000,128.1250,142,66,0.36044
2910850,0.12500,125.5000,142,66,0.35287
2910860,0.11000,120.6250,142,66,0.33846
2910870,0.09000,118.3750,142,66,0.33016
2910880,0.06000,116.1250,142,66,0.32186
2910890,0.03500,114.0000,142,66,0.31355
2910900,0.02000,109.5625,142,66,0.29695
2910910,0.01000,107.0625,142,66,0.28889
2910920,0.01000,104.2500,142,66,0.28083
2910930,0.03000,101.0000,142,66,0.27277
2910940,0.06000,93.8750,142,66,0.25665
2910950,0.09000,90.5000,142,66,0.25079
2910960,0.12000,87.6250,142,66,0.24615
2910970,0.15000,85.5000,142,66,0.24127
2910980,0.16500,83.1250,142,66,0.23565
2910990,0.16000,82.6875,142,66,0.23712
2911000,0.12167,82.5104,141,66,0.23915
2911010,0.06000,82.4375,141,66,0.25421
2911020,-0.01500,82.3125,141,66,0.29475
2911030,-0.07500,82.1875,141,66,0.32357
2911040,-0.11000,81.9375,141,66,0.35702
2911050,-0.13000,81.6250,141,66,0.38877
2911060,-0.14000,80.6250,141,66,0.45470
2911070,-0.14500,80.0625,141,66,0.48987
2911080,-0.14500,79.5000,141,66,0.52308
2911090,-0.13500,78.9375,141,66,0.55311
2911100,-0.13500,77.7500,141,66,0.60000
2911110,-0.15500,77.0625,141,66,0.61709
2911120,-0.11500,76.4375,141,66,0.63004
2911130,0.17500,75.7500,141,66,0.63956
2911140,0.73000,74.3125,141,66,0.64933
2911150,0.88000,73.6250,141,66,0.64982
2911160,0.31000,72.8750,141,66,0.64835
2911170,-0.27000,72.1875,141,66,0.64542
2911180,-0.48000,70.6875,141,66,0.63516
2911190,-0.42000,69.8750,141,66,0.62759
2911200,-0.28500,69.1250,141,66,0.61856
2911210,-0.22000,68.4375,141,66,0.60830
2911220,-0.20500,67.0625,141,66,0.58486
2911230,-0.19000,66.3750,141,66,0.57167
2911240,-0.18500,65.7500,141,66,0.55800
2911250,-0.18000,65.1250,141,66,0.54554
2911260,-0.18000,63.9375,141,66,0.52137
2911270,-0.17000,63.4375,141,66,0.50891
2911280,-0.15000,63.1875,141,66,0.49646
2911290,-0.12500,63.3750,141,66,0.48449
2911300,-0.10500,67.7500,141,66,0.46252
2911310,-0.09500,73.6250,141,66,0.45226
2911320,-0.08500,82.1250,141,66,0.44249
2911330,-0.07500,92.3750,141,66,0.43297
2911340,-0.05500,113.4375,141,66,0.41490
2911350,-0.04000,122.1875,141,66,0.40733
2911360,-0.02000,129.0625,141,66,0.40073
2911370,0.00000,133.8750,141,66,0.39316
2911380,0.01500,138.0000,141,66,0.37729
2911390,0.02500,137.8750,141,66,0.36923
2911400,0.03500,136.8750,141,66,0.36117
2911410,0.05000,135.1250,141,66,0.35336
2911420,0.07000,130.5000,141,66,0.33822
2911430,0.09000,127.9375,141,66,0.33065
2911440,0.10500,125.3125,141,66,0.32332
2911450,0.10500,122.6875,141,66,0.31746
2911460,0.08500,117.6250,141,66,0.30598
2911470,0.06000,115.2500,141,66,0.29939
2911480,0.02500,112.9375,141,66,0.29255
2911490,0.00000,110.6875,141,66,0.28547
2911500,-0.01500,106.0625,141,66,0.27179
2911510,-0.02000,103.5000,141,66,0.26471
2911520,-0.01500,100.6250,141,66,0.25788
2911530,0.01000,97.3750,141,66,0.25104
2911540,0.04000,90.2500,141,66,0.23761
2911550,0.08000,87.1250,141,66,0.23297
2911560,0.11000,84.6250,141,66,0.22955
2911570,0.14500,82.8750,141,66,0.22589
2911580,0.15500,81.1875,141,66,0.22271
2911590,0.15500,80.8750,141,66,0.22540
2911600,0.11500,80.8125,141,66,0.23199
2911610,0.05000,80.8125,141,66,0.24371
2911620,-0.02000,80.8125,141,66,0.28327
2911630,-0.08000,80.6875,141,66,0.31062
2911640,-0.11500,80.4375,141,66,0.34188
2911650,-0.12500,80.0625,141,66,0.37143
2911660,-0.13000,79.1250,141,66,0.43394
2911670,-0.13000,78.5625,141,66,0.46764
2911680,-0.12500,78.0000,141,66,0.51111
2911690,-0.12000,77.5000,141,66,0.53602
2911700,-0.11500,76.3125,141,66,0.58193
2911710,-0.13500,75.6875,141,66,0.59389
2911720,-0.09500,75.0625,141,66,0.60269
2911730,0.19500,74.4375,141,66,0.60855
2911740,0.76500,73.0625,141,66,0.61294
2911750,0.92000,72.3750,141,66,0.61221
2911760,0.35000,71.6250,141,66,0.61001
2911770,-0.24500,70.9375,141,66,0.60391
2911780,-0.46000,69.5000,141,66,0.59170
2911790,-0.41000,68.7500,141,66,0.57949
2911800,-0.27000,68.0625,141,66,0.56996
2911810,-0.20500,67.3750,141,66,0.55971
2911820,-0.19500,66.0000,141,66,0.53724
2911830,-0.18500,65.3750,141,66,0.52698
2911840,-0.18000,64.7500,141,66,0.51770
2911850,-0.17000,64.1875,141,66,0.50769
2911860,-0.16500,63.0625,141,66,0.48742
2911870,-0.15500,62.6250,141,66,0.47790
2911880,-0.14000,62.4375,141,66,0.46862
2911890,-0.12000,62.7500,141,66,0.45958
2911900,-0.10500,67.9375,141,66,0.44298
2911910,-0.09000,74.3125,141,66,0.43492
2911920,-0.08000,83.2500,141,66,0.42735
2911930,-0.06500,93.7500,141,66,0.41978
2911940,-0.04500,114.6875,141,66,0.40830
2911950,-0.02000,123.2500,141,66,0.40220
2911960,0.00000,130.0000,141,66,0.39585
2911970,0.01500,134.6875,141,66,0.38950
2911980,0.02500,138.9375,141,66,0.37656
2911990,0.04000,138.9375,141,66,0.37021
2912000,0.05000,138.0625,140,66,0.36386
2912010,0.06500,136.5000,140,66,0.35751
2912020,0.08000,132.2500,140,66,0.34481
2912030,0.09500,129.8750,140,66,0.33993
2912040,0.11000,127.4375,140,66,0.33553
2912050,0.11500,125.0000,140,66,0.33016
2912060,0.10000,120.3125,140,66,0.31844
2912070,0.07000,118.0625,140,66,0.31258
2912080,0.04000,115.9375,140,66,0.30672
2912090,0.02000,113.8125,140,66,0.30110
2912100,0.00500,109.5625,140,66,0.28938
2912110,0.00000,107.1875,140,66,0.28352
2912120,0.00000,104.5000,140,66,0.27766
2912130,0.02000,101.3750,140,66,0.27179
2912140,0.05500,93.9375,140,66,0.26471
2912150,0.09500,90.0000,140,66,0.26154
2912160,0.13000,86.3750,140,66,0.25958
2912170,0.15500,83.5000,140,66,0.25983
2912180,0.17000,80.3750,140,66,0.27057
2912190,0.17000,79.8125,140,66,0.28278
2912200,0.13500,79.6250,140,66,0.29988
2912210,0.07500,79.6875,140,66,0.32186
2912220,0.00000,80.0000,140,66,0.37827
2912230,-0.06500,80.0625,140,66,0.40659
2912240,-0.10000,80.0000,140,66,0.43394
2912250,-0.11500,79.8750,140,66,0.46471
2912260,-0.12500,79.1875,140,66,0.52601
2912270,-0.12500,78.6875,140,66,0.56581
2912280,-0.13000,78.1875,140,66,0.58877
2912290,-0.13000,77.6875,140,66,0.60781
2912300,-0.13500,76.6250,140,66,0.64029
2912310,-0.14500,76.0000,140,66,0.64737
2912320,-0.13000,75.3750,140,66,0.65104
2912330,0.11500,74.6875,140,66,0.65226
2912340,0.66500,73.2500,140,66,0.64957
2912350,0.94000,72.5000,140,66,0.64420
2912360,0.46500,71.8125,140,66,0.63858
2912370,-0.17500,71.1250,140,66,0.63150
2912380,-0.45500,69.6250,140,66,0.61368
2912390,-0.43500,68.8750,140,66,0.60317
2912400,-0.30500,68.1875,140,66,0.59170
2912410,-0.23000,67.5000,140,66,0.57949
2912420,-0.22000,66.2500,140,66,0.55751
2912430,-0.21000,65.6250,140,66,0.54603
2912440,-0.20000,64.9375,140,66,0.53431
2912450,-0.19000,64.3125,140,66,0.52283
2912460,-0.19000,63.1250,140,66,0.50085
2912470,-0.18000,62.6875,140,66,0.49084
2912480,-0.16000,62.4375,140,66,0.48132
2912490,-0.14500,62.6875,140,66,0.47204
2912500,-0.12500,67.6250,140,66,0.45519
2912510,-0.11000,74.0000,140,66,0.44835
2912520,-0.10000,83.0000,140,66,0.44225
2912530,-0.08500,93.6875,140,66,0.43565
2912540,-0.06500,115.0000,140,66,0.42125
2912550,-0.04500,123.8125,140,66,0.41416
2912560,-0.02500,130.7500,140,66,0.40708
