RelativeTimeMilliseconds,ECG,ART,ART (Sys),ART (Dia),PPG
3000000,-0.05500,101.3750,134,62,0.29255
3000010,-0.05500,98.1875,134,62,0.28498
3000020,-0.04000,91.5000,134,62,0.27277
3000030,-0.01500,88.5000,134,62,0.26960
3000040,0.01000,86.0625,134,62,0.26960
3000050,0.04000,84.1875,134,62,0.27302
3000060,0.06000,81.8125,134,62,0.29304
3000070,0.06000,81.1250,134,62,0.31136
3000080,0.05000,80.6875,134,62,0.33504
3000090,0.02000,80.4375,134,62,0.36410
3000100,-0.05000,80.0000,134,62,0.43394
3000110,-0.12500,79.8125,134,62,0.47253
3000120,-0.18000,79.5625,134,62,0.51160
3000130,-0.20500,79.1875,134,62,0.54994
3000140,-0.21500,78.2500,134,62,0.61587
3000150,-0.21000,77.6250,134,62,0.64054
3000160,-0.21000,77.0625,134,62,0.66520
3000170,-0.20500,76.4375,134,62,0.68791
3000180,-0.20000,75.2500,134,62,0.72454
3000190,-0.20000,74.6875,134,62,0.73797
3000200,-0.22500,74.0625,134,62,0.74823
3000210,-0.09000,73.5000,134,62,0.75556
3000220,0.39500,72.3750,134,62,0.76313
3000230,0.91000,71.7500,134,62,0.76361
3000240,0.68000,71.1875,134,62,0.76215
3000250,-0.05500,70.6250,134,62,0.75849
3000260,-0.47000,69.3750,134,62,0.74676
3000270,-0.49000,68.7500,134,62,0.73895
3000280,-0.34500,68.0625,134,62,0.72991
3000290,-0.26500,67.3750,134,62,0.71966
3000300,-0.26000,66.0000,134,62,0.69524
3000310,-0.25000,65.4375,134,62,0.68156
3000320,-0.24000,64.8125,134,62,0.66740
3000330,-0.23000,64.1875,134,62,0.65299
3000340,-0.22500,63.0000,134,62,0.62515
3000350,-0.22000,62.4375,134,62,0.61270
3000360,-0.20500,62.0000,134,62,0.60000
3000370,-0.18500,61.6875,134,62,0.58730
3000380,-0.16500,63.2500,134,62,0.56264
3000390,-0.14500,66.6875,134,62,0.55067
3000400,-0.12500,72.7500,134,62,0.53871
3000410,-0.11000,81.3125,134,62,0.52723
3000420,-0.09500,101.5625,134,62,0.50501
3000430,-0.07000,111.1250,134,62,0.49426
3000440,-0.05000,119.3125,134,62,0.48376
3000450,-0.02500,125.8125,134,62,0.47473
3000460,-0.01000,133.5000,134,62,0.45739
3000470,0.00000,134.9375,134,62,0.44811
3000480,0.01000,135.1250,134,62,0.43834
3000490,0.02000,134.4375,134,62,0.42857
3000500,0.03000,131.3125,134,62,0.40977
3000510,0.04500,129.2500,134,62,0.40073
3000520,0.06500,127.0000,134,62,0.39170
3000530,0.08000,124.6875,134,62,0.38266
3000540,0.08500,119.8750,134,62,0.36654
3000550,0.08000,117.5625,134,62,0.35995
3000560,0.06000,115.3125,134,62,0.35238
3000570,0.04000,110.9375,134,62,0.34408
3000580,0.01500,108.8750,134,62,0.32698
3000590,0.00000,106.8125,134,62,0.31844
3000600,-0.00500,104.6250,134,62,0.30989
3000610,-0.00500,102.1875,134,62,0.30159
3000620,-0.00500,96.5000,134,62,0.28498
3000630,-0.00500,93.3125,134,62,0.27692
3000640,0.02000,90.0000,134,62,0.26960
3000650,0.06000,87.0000,134,62,0.26496
3000660,0.09000,82.4375,134,62,0.26178
3000670,0.11000,80.9375,134,62,0.26398
3000680,0.14000,79.9375,134,62,0.27057
3000690,0.14000,79.2500,134,62,0.28230
3000700,0.12000,78.6875,134,62,0.32259
3000710,0.07000,78.6250,134,62,0.35067
3000720,0.00000,78.5000,134,62,0.38291
3000730,-0.06500,78.3750,134,62,0.41783
3000740,-0.11500,77.8750,134,62,0.48645
3000750,-0.14000,77.5000,134,62,0.51600
3000760,-0.14500,77.0625,134,62,0.54750
3000770,-0.14500,76.6250,134,62,0.57827
3000780,-0.14500,75.5000,134,62,0.63248
3000790,-0.14000,74.9375,134,62,0.65470
3000800,-0.13500,74.3750,134,62,0.67326
3000810,-0.14000,73.8125,134,62,0.68840
3000820,-0.16000,72.6875,134,62,0.70916
3000830,-0.02500,72.1250,134,62,0.71502
3000840,0.43000,71.5000,134,62,0.71819
3000850,0.87500,70.3125,134,62,0.71697
3000860,0.64000,69.6250,134,62,0.71429
3000870,-0.01000,68.9375,134,62,0.71038
3000880,-0.40000,68.2500,134,62,0.70501
3000890,-0.45000,67.5000,134,62,0.69817
3000900,-0.32500,66.1250,134,62,0.67985
3000910,-0.23000,65.4375,134,62,0.66862
3000920,-0.21500,64.7500,134,62,0.65617
3000930,-0.20000,64.1250,134,62,0.64274
3000940,-0.19000,62.9375,134,62,0.61563
3000950,-0.18000,62.3750,134,62,0.60317
3000960,-0.18000,61.8125,134,62,0.58999
3000970,-0.17000,61.3125,134,62,0.57656
3000980,-0.16000,60.4375,134,62,0.55043
3000990,-0.13500,60.2500,134,62,0.53797
3001000,-0.11500,60.5625,133,62,0.52601
3001010,-0.09500,62.1250,133,62,0.51477
3001020,-0.08500,71.6875,133,62,0.49280
3001030,-0.07500,79.8125,133,62,0.48230
3001040,-0.05500,89.1875,133,62,0.47204
3001050,-0.03500,98.6250,133,62,0.46325
3001060,-0.01500,114.9375,133,62,0.44640
3001070,0.00500,120.9375,133,62,0.43712
3001080,0.02000,125.1875,133,62,0.42759
3001090,0.04000,127.8750,133,62,0.41832
3001100,0.05000,128.8750,133,62,0.40000
3001110,0.07000,127.8750,133,62,0.39145
3001120,0.08500,126.1250,133,62,0.38291
3001130,0.10500,124.0000,133,62,0.37411
3001140,0.12000,119.0000,133,62,0.35873
3001150,0.12500,116.3125,133,62,0.35263
3001160,0.12000,113.6250,133,62,0.34530
3001170,0.11000,111.0000,133,62,0.33724
3001180,0.08500,106.0625,133,62,0.32039
3001190,0.05500,103.7500,133,62,0.31184
3001200,0.02500,101.4375,133,62,0.30305
3001210,0.01000,99.1875,133,62,0.29451
3001220,0.00500,94.4375,133,62,0.27814
3001230,0.01000,91.8125,133,62,0.27009
3001240,0.01000,88.9375,133,62,0.26178
3001250,0.01500,86.0625,133,62,0.25568
3001260,0.04000,81.0000,133,62,0.24469
3001270,0.07500,79.1875,133,62,0.23932
3001280,0.09500,77.8125,133,62,0.23565
3001290,0.11500,76.9375,133,62,0.23468
3001300,0.13500,76.0625,133,62,0.24518
3001310,0.14000,75.8750,133,62,0.25788
3001320,0.11000,75.8125,133,62,0.27546
3001330,0.06000,75.7500,133,62,0.29768
3001340,-0.00500,75.5625,133,62,0.34969
3001350,-0.07500,75.3750,133,62,0.37534
3001360,-0.12000,75.1250,133,62,0.40488
3001370,-0.14000,74.6875,133,62,0.43590
3001380,-0.15000,73.8125,133,62,0.49646
3001390,-0.15000,73.3125,133,62,0.52405
3001400,-0.15000,72.7500,133,62,0.54872
3001410,-0.15000,72.2500,133,62,0.57045
3001420,-0.14500,71.2500,133,62,0.60317
3001430,-0.14500,70.7500,133,62,0.61465
3001440,-0.16000,70.2500,133,62,0.62295
3001450,-0.04000,69.6875,133,62,0.62808
3001460,0.40000,68.5000,133,62,0.63175
3001470,0.87500,67.9375,133,62,0.63150
3001480,0.68000,67.3750,133,62,0.62955
3001490,0.04500,66.7500,133,62,0.62589
3001500,-0.36500,65.5625,133,62,0.61368
3001510,-0.46000,64.9375,133,62,0.60537
3001520,-0.35500,64.3125,133,62,0.59585
3001530,-0.25000,63.6875,133,62,0.58535
3001540,-0.21500,62.4375,133,62,0.56361
3001550,-0.20000,61.8750,133,62,0.55336
3001560,-0.19500,61.3125,133,62,0.54188
3001570,-0.18000,60.8125,133,62,0.53016
3001580,-0.17500,59.7500,133,62,0.50696
3001590,-0.17000,59.2500,133,62,0.49597
3001600,-0.15000,58.8125,133,62,0.48571
3001610,-0.12500,58.5625,133,62,0.47570
3001620,-0.10500,59.5625,133,62,0.45617
3001630,-0.09500,62.0000,133,62,0.44689
3001640,-0.08500,66.6250,133,62,0.43932
3001650,-0.07000,73.5625,133,62,0.43248
3001660,-0.05000,91.4375,133,62,0.41709
3001670,-0.03500,100.5000,133,62,0.40928
3001680,-0.01500,108.6875,133,62,0.40122
3001690,0.00000,115.5625,133,62,0.39341
3001700,0.02000,124.6250,133,62,0.37802
3001710,0.04500,126.8750,133,62,0.37070
3001720,0.06500,127.7500,133,62,0.36337
3001730,0.08500,127.5000,133,62,0.35604
3001740,0.10500,124.7500,133,62,0.34310
3001750,0.12000,122.6250,133,62,0.33797
3001760,0.13000,120.2500,133,62,0.33162
3001770,0.14000,117.7500,133,62,0.32821
3001780,0.13500,112.5625,133,62,0.32186
3001790,0.12000,110.0625,133,62,0.31624
3001800,0.09000,107.6250,133,62,0.31013
3001810,0.06000,105.2500,133,62,0.30403
3001820,0.03000,100.8125,133,62,0.29133
3001830,0.02000,98.6250,133,62,0.28498
3001840,0.01000,96.3125,133,62,0.28034
3001850,0.01000,93.8750,133,62,0.27619
3001860,0.01000,88.1875,133,62,0.26496
3001870,0.01500,85.0625,133,62,0.25861
3001880,0.03000,82.1250,133,62,0.25250
3001890,0.06500,79.6250,133,62,0.24713
3001900,0.09500,76.3750,133,62,0.24127
3001910,0.11500,75.5000,133,62,0.24274
3001920,0.13000,75.0000,133,62,0.24860
3001930,0.14000,74.8125,133,62,0.25885
3001940,0.12500,74.7500,133,62,0.29084
3001950,0.08000,74.7500,133,62,0.31013
3001960,0.01000,74.7500,133,62,0.33455
3001970,-0.06000,74.6250,133,62,0.36239
3001980,-0.11500,74.2500,133,62,0.42369
3001990,-0.14000,73.8750,133,62,0.45495
3002000,-0.15500,73.5000,132,61,0.48498
3002010,-0.15500,73.0000,132,61,0.51306
3002020,-0.15500,72.0625,132,61,0.56166
3002030,-0.15500,71.5625,132,61,0.58144
3002040,-0.14500,71.0625,132,61,0.59609
3002050,-0.14500,70.5625,132,61,0.60708
3002060,-0.16000,69.5625,132,61,0.62540
3002070,-0.11000,69.0625,132,61,0.63150
3002080,0.22000,68.5000,132,61,0.63541
3002090,0.77000,68.0000,132,61,0.63736
3002100,0.84500,66.8125,132,61,0.63541
3002110,0.28500,66.1875,132,61,0.63199
3002120,-0.26500,65.5625,132,61,0.62686
3002130,-0.47000,64.9375,132,61,0.62027
3002140,-0.41500,63.6875,132,61,0.60391
3002150,-0.29500,63.1250,132,61,0.59536
3002160,-0.23500,62.5000,132,61,0.58559
3002170,-0.21500,61.9375,132,61,0.57485
3002180,-0.20000,60.8125,132,61,0.55263
3002190,-0.19000,60.3125,132,61,0.54115
3002200,-0.19000,59.8125,132,61,0.52991
3002210,-0.17500,59.3125,132,61,0.51893
3002220,-0.16000,58.4375,132,61,0.49866
3002230,-0.13500,58.2500,132,61,0.48913
3002240,-0.11500,58.5000,132,61,0.48132
3002250,-0.10500,59.8125,132,61,0.47448
3002260,-0.08500,68.2500,132,61,0.45934
3002270,-0.06500,75.9375,132,61,0.45177
3002280,-0.04500,85.0000,132,61,0.44420
3002290,-0.02500,94.5000,132,61,0.43687
3002300,-0.01000,111.5000,132,61,0.42222
3002310,0.00500,118.1250,132,61,0.41514
3002320,0.02500,123.2500,132,61,0.40806
3002330,0.04000,126.7500,132,61,0.40122
3002340,0.05500,129.6875,132,61,0.38852
3002350,0.07000,129.5000,132,61,0.38364
3002360,0.08000,128.6250,132,61,0.37753
3002370,0.09000,127.1250,132,61,0.37118
3002380,0.10000,123.0625,132,61,0.35775
3002390,0.11500,120.7500,132,61,0.35116
3002400,0.12000,118.4375,132,61,0.34481
3002410,0.11000,116.0000,132,61,0.33846
3002420,0.08500,111.2500,132,61,0.32601
3002430,0.05000,109.0000,132,61,0.31990
3002440,0.02000,106.8750,132,61,0.31526
3002450,0.00000,104.7500,132,61,0.31111
3002460,-0.00500,100.4375,132,61,0.29988
3002470,-0.01500,98.0625,132,61,0.29377
3002480,-0.01500,95.5000,132,61,0.28718
3002490,-0.00500,92.6250,132,61,0.28059
3002500,0.00500,86.4375,132,61,0.26764
3002510,0.04500,83.5625,132,61,0.26252
3002520,0.08500,81.1875,132,61,0.25910
3002530,0.11000,79.3750,132,61,0.25861
3002540,0.13500,77.1875,132,61,0.26862
3002550,0.14500,76.6250,132,61,0.27888
3002560,0.14000,76.2500,132,61,0.29402
3002570,0.10000,76.0625,132,61,0.31404
3002580,0.03500,75.6875,132,61,0.36654
3002590,-0.04000,75.5625,132,61,0.39731
3002600,-0.10000,75.3125,132,61,0.42955
3002610,-0.13000,74.6875,132,61,0.46252
3002620,-0.14500,74.3125,132,61,0.52650
3002630,-0.16000,73.8750,132,61,0.55629
3002640,-0.16500,73.3750,132,61,0.58022
3002650,-0.16500,72.8750,132,61,0.59976
3002660,-0.16000,71.9375,132,61,0.63639
3002670,-0.15500,71.5000,132,61,0.65153
3002680,-0.16000,71.0000,132,61,0.66398
3002690,-0.15500,70.4375,132,61,0.67375
3002700,0.07000,69.3125,132,61,0.68620
3002710,0.59500,68.7500,132,61,0.68913
3002720,0.90000,68.1875,132,61,0.69011
3002730,0.53000,67.5625,132,61,0.68938
3002740,-0.10500,66.2500,132,61,0.68230
3002750,-0.43500,65.6250,132,61,0.67668
3002760,-0.44500,65.0000,132,61,0.66960
3002770,-0.32500,64.3750,132,61,0.66129
3002780,-0.25000,63.1875,132,61,0.64127
3002790,-0.23000,62.6250,132,61,0.63004
3002800,-0.21000,62.0000,132,61,0.61832
3002810,-0.20000,60.8750,132,61,0.60635
3002820,-0.19000,60.3125,132,61,0.58193
3002830,-0.17500,59.8125,132,61,0.57021
3002840,-0.16500,59.3125,132,61,0.55995
3002850,-0.14500,58.9375,132,61,0.55067
3002860,-0.13500,59.1875,132,61,0.53089
3002870,-0.12000,60.6875,132,61,0.52112
3002880,-0.11500,64.1250,132,61,0.51160
3002890,-0.10500,70.0625,132,61,0.50208
3002900,-0.09500,87.4375,132,61,0.48352
3002910,-0.07500,97.0000,132,61,0.47473
3002920,-0.05000,106.0000,132,61,0.46593
3002930,-0.02500,113.9375,132,61,0.45739
3002940,-0.01000,125.3750,132,61,0.44225
3002950,0.00500,128.6875,132,61,0.43614
3002960,0.02000,130.6250,132,61,0.42906
3002970,0.03000,131.2500,132,61,0.42173
3002980,0.03000,129.9375,132,61,0.40659
3002990,0.04500,128.4375,132,61,0.39927
3003000,0.05500,126.5625,132,61,0.39194
3003010,0.07000,124.3750,132,61,0.38462
3003020,0.07500,119.6875,132,61,0.36996
3003030,0.07000,117.3125,132,61,0.36264
3003040,0.06000,115.0000,132,61,0.35678
3003050,0.03500,112.7500,132,61,0.35165
3003060,0.00500,108.4375,132,61,0.33895
3003070,-0.02000,106.3750,132,61,0.33211
3003080,-0.04500,104.3750,132,61,0.32527
3003090,-0.05500,102.3125,132,61,0.31844
3003100,-0.05000,97.6875,132,61,0.30452
3003110,-0.04000,94.9375,132,61,0.29744
3003120,-0.03000,91.9375,132,61,0.29060
3003130,0.00000,88.7500,132,61,0.28425
3003140,0.03500,83.1875,132,61,0.27668
3003150,0.07000,81.1875,132,61,0.27692
3003160,0.10000,79.6875,132,61,0.27961
3003170,0.12500,78.5625,132,61,0.28620
3003180,0.12000,77.2500,132,61,0.31331
3003190,0.10000,76.8750,132,61,0.33407
3003200,0.05000,76.5625,132,61,0.35897
3003210,-0.01000,76.3125,132,61,0.38730
3003220,-0.06500,75.7500,132,61,0.45031
3003230,-0.11000,75.4375,132,61,0.48303
3003240,-0.13500,75.0625,132,61,0.51160
3003250,-0.14500,74.6875,132,61,0.53700
3003260,-0.14500,73.8125,132,61,0.59072
3003270,-0.15000,73.3125,132,61,0.61538
3003280,-0.15000,72.8750,132,61,0.63712
3003290,-0.14500,72.4375,132,61,0.65592
3003300,-0.15500,71.5000,132,61,0.68425
3003310,-0.17500,71.0000,132,61,0.69377
3003320,0.02500,111.3125,132,61,0.34872
3003330,0.02500,111.3125,132,61,0.34872
3003340,0.02500,111.3125,132,61,0.34872
3003350,0.02500,111.3125,132,61,0.34872
3003360,0.02500,111.3125,132,61,0.34872
3003370,0.02500,111.3125,132,61,0.34872
3003380,0.02500,111.3125,132,61,0.34872
3003390,0.02500,111.3125,132,61,0.34872
3003400,-0.04500,92.7500,132,61,0.29573
3003410,-0.04500,92.7500,132,61,0.29573
3003420,-0.04500,92.7500,132,61,0.29573
3003430,-0.04500,92.7500,132,61,0.29573
3003440,-0.04500,92.7500,132,61,0.29573
3003450,-0.04500,92.7500,132,61,0.29573
3003460,-0.04500,92.7500,132,61,0.29573
3003470,-0.04500,92.7500,132,61,0.29573
3003480,-0.04500,92.7500,132,61,0.29573
3003490,-0.04500,92.7500,132,61,0.29573
3003500,-0.04500,92.7500,132,61,0.29573
3003510,-0.04500,92.7500,132,61,0.29573
3003520,-0.04500,92.7500,132,61,0.29573
3003530,-0.04500,92.7500,132,61,0.29573
3003540,-0.04500,92.7500,132,61,0.29573
3003550,-0.04500,92.7500,132,61,0.29573
3003560,-0.04500,92.7500,132,61,0.29573
3003570,-0.04500,92.7500,132,61,0.29573
3003580,-0.04500,92.7500,132,61,0.29573
3003590,-0.04500,92.7500,132,61,0.29573
3003600,-0.04500,92.7500,132,61,0.29573
3003610,-0.04500,92.7500,132,61,0.29573
3003620,-0.02500,89.6875,132,61,0.29060
3003630,-0.02500,89.6875,132,61,0.29060
3003640,-0.02500,89.6875,132,61,0.29060
3003650,-0.02500,89.6875,132,61,0.29060
3003660,-0.02500,89.6875,132,61,0.29060
3003670,-0.02500,89.6875,132,61,0.29060
3003680,-0.02500,89.6875,132,61,0.29060
3003690,-0.02500,89.6875,132,61,0.29060
3003700,-0.02500,89.6875,132,61,0.29060
3003710,-0.02500,89.6875,132,61,0.29060
3003720,-0.02500,89.6875,132,61,0.29060
3003730,-0.02500,89.6875,132,61,0.29060
3003740,-0.02500,89.6875,132,61,0.29060
3003750,-0.02500,89.6875,132,61,0.29060
3003760,0.01000,86.8125,132,61,0.28596
3003770,0.04500,84.3125,132,61,0.28254
3003780,0.07500,80.7500,132,61,0.28425
3003790,0.10000,79.6250,132,61,0.29133
3003800,0.11000,78.8125,132,61,0.30330
3003810,0.09500,78.1875,132,61,0.32015
3003820,0.05000,77.3125,132,61,0.37973
3003830,-0.01500,76.9375,132,61,0.41294
3003840,-0.09000,76.6250,132,61,0.44274
3003850,-0.14500,76.2500,132,61,0.47106
3003860,-0.16000,75.3750,132,61,0.53504
3003870,-0.17000,75.0000,132,61,0.56703
3003880,-0.17000,74.5000,132,61,0.59731
3003890,-0.17000,74.0000,132,61,0.62515
3003900,-0.16500,73.0000,132,61,0.67179
3003910,-0.16000,72.5625,132,61,0.69035
3003920,-0.15500,72.0625,132,61,0.70574
3003930,-0.17000,71.5625,132,61,0.71795
3003940,-0.11500,70.5000,132,61,0.73114
3003950,0.22500,70.0000,132,61,0.73529
3003960,0.78500,69.4375,132,61,0.73822
3003970,0.89000,68.8750,132,61,0.73944
3003980,0.43000,67.6875,132,61,0.73724
3003990,-0.20500,67.1250,132,61,0.73382
3004000,-0.47000,66.5000,133,62,0.72869
3004010,-0.42500,65.8750,133,62,0.72186
3004020,-0.30000,64.6250,133,62,0.70330
3004030,-0.24000,64.0000,133,62,0.69231
3004040,-0.23000,63.4375,133,62,0.68132
3004050,-0.21500,62.8750,133,62,0.67033
3004060,-0.20000,61.6875,133,62,0.64567
3004070,-0.20000,61.1250,133,62,0.63297
3004080,-0.19500,60.6250,133,62,0.62051
3004090,-0.18500,60.1250,133,62,0.60830
3004100,-0.17000,59.6250,133,62,0.58486
3004110,-0.15000,60.1875,133,62,0.57363
3004120,-0.13000,62.1875,133,62,0.56288
3004130,-0.11000,66.4375,133,62,0.55189
3004140,-0.08500,82.3125,133,62,0.53358
3004150,-0.07000,92.3125,133,62,0.52430
3004160,-0.05000,102.1875,133,62,0.51477
3004170,-0.03500,111.3125,133,62,0.50525
3004180,-0.02000,125.1250,133,62,0.48718
3004190,-0.00500,129.5625,133,62,0.47839
3004200,0.01000,132.3125,133,62,0.46960
3004210,0.02000,133.6875,133,62,0.46129
3004220,0.03000,133.2500,133,62,0.44493
3004230,0.04000,131.9375,133,62,0.43663
3004240,0.05500,130.1875,133,62,0.42979
3004250,0.07000,125.8750,133,62,0.42393
3004260,0.08500,123.5000,133,62,0.40952
3004270,0.09000,121.1875,133,62,0.40171
3004280,0.08000,118.8750,133,62,0.39414
3004290,0.06000,116.5625,133,62,0.38657
3004300,0.03000,112.3125,133,62,0.37143
3004310,0.00000,110.3125,133,62,0.36386
3004320,-0.02000,108.3750,133,62,0.35653
3004330,-0.04000,106.4375,133,62,0.34945
3004340,-0.04500,102.3125,133,62,0.33919
3004350,-0.05000,99.8750,133,62,0.33309
3004360,-0.05000,97.1250,133,62,0.32625
3004370,-0.03500,94.1250,133,62,0.31917
3004380,-0.00500,88.1250,133,62,0.30720
3004390,0.02500,85.5625,133,62,0.30379
3004400,0.05000,83.4375,133,62,0.30354
3004410,0.08000,81.8750,133,62,0.30745
3004420,0.10000,79.8125,133,62,0.33065
3004430,0.10500,79.2500,133,62,0.35018
3004440,0.08500,78.8125,133,62,0.37094
3004450,0.03000,78.5000,133,62,0.39365
3004460,-0.04500,77.9375,133,62,0.45299
3004470,-0.11500,77.6250,133,62,0.48620
3004480,-0.15500,77.2500,133,62,0.51990
3004490,-0.17000,76.8750,133,62,0.55336
3004500,-0.17000,75.9375,133,62,0.61563
3004510,-0.17000,75.4375,133,62,0.64298
3004520,-0.17000,74.8750,133,62,0.66716
3004530,-0.17000,74.3125,133,62,0.68816
3004540,-0.17000,73.3125,133,62,0.71502
3004550,-0.18000,72.7500,133,62,0.72576
3004560,-0.20000,72.2500,133,62,0.73480
3004570,-0.04500,71.6875,133,62,0.74188
3004580,0.44500,70.5625,133,62,0.75043
3004590,0.93000,69.9375,133,62,0.75214
3004600,0.72000,69.3750,133,62,0.75189
3004610,-0.14500,68.1250,133,62,0.74628
3004620,-0.45000,67.5000,133,62,0.74090
3004630,-0.47500,66.8750,133,62,0.73382
3004640,-0.34500,66.2500,133,62,0.72576
3004650,-0.25500,65.6250,133,62,0.71673
3004660,-0.24000,64.5000,133,62,0.69451
3004670,-0.23000,63.9375,133,62,0.68205
3004680,-0.22000,63.3750,133,62,0.66935
3004690,-0.21000,62.8125,133,62,0.65665
3004700,-0.20500,61.6875,133,62,0.63150
3004710,-0.20000,61.1875,133,62,0.61929
3004720,-0.19000,60.8125,133,62,0.60733
3004730,-0.17500,60.6250,133,62,0.59585
3004740,-0.15500,63.3125,133,62,0.57656
3004750,-0.14000,67.6875,133,62,0.56679
3004760,-0.12000,74.7500,133,62,0.55653
3004770,-0.10000,83.9375,133,62,0.54652
3004780,-0.08500,104.1875,133,62,0.52698
3004790,-0.06500,113.3125,133,62,0.51722
3004800,-0.03500,121.0000,133,62,0.50769
3004810,-0.01500,127.0000,133,62,0.49841
3004820,-0.00500,133.7500,133,62,0.48010
3004830,0.00500,134.8125,133,62,0.47106
3004840,0.01500,134.8125,133,62,0.46349
3004850,0.02000,134.0000,133,62,0.45665
3004860,0.04000,130.7500,133,62,0.44103
3004870,0.06000,128.6875,133,62,0.43297
3004880,0.07000,126.5000,133,62,0.42491
3004890,0.08000,124.2500,133,62,0.41685
3004900,0.09000,119.6875,133,62,0.40073
3004910,0.08000,117.5625,133,62,0.39267
3004920,0.06000,115.4375,133,62,0.38486
3004930,0.02500,113.3750,133,62,0.37680
3004940,0.00000,109.4375,133,62,0.36435
3004950,-0.02000,107.5625,133,62,0.35751
3004960,-0.03000,105.5000,133,62,0.34994
3004970,-0.03500,103.2500,133,62,0.34212
3004980,-0.03500,97.6875,133,62,0.32650
3004990,-0.04000,94.4375,133,62,0.31917
3005000,-0.03500,90.9375,132,62,0.31282
3005010,-0.01000,87.6250,132,62,0.30769
3005020,0.02000,82.3750,132,62,0.30525
3005030,0.05000,80.6875,132,62,0.30989
3005040,0.08000,79.5625,132,62,0.31770
3005050,0.08000,78.8125,132,62,0.32918
3005060,0.07000,78.1250,132,62,0.36850
3005070,0.04000,78.0625,132,62,0.39512
3005080,-0.01500,78.0000,132,62,0.42515
3005090,-0.09500,77.9375,132,62,0.45763
3005100,-0.16000,77.5000,132,62,0.52601
3005110,-0.19000,77.1250,132,62,0.55971
3005120,-0.21000,76.6875,132,62,0.59194
3005130,-0.22000,76.1875,132,62,0.62222
3005140,-0.22500,75.1250,132,62,0.66569
3005150,-0.22500,74.5000,132,62,0.68498
3005160,-0.22000,73.8750,132,62,0.70256
3005170,-0.22500,73.2500,132,62,0.71746
3005180,-0.25000,72.1250,132,62,0.73895
3005190,-0.20500,71.5625,132,62,0.74579
3005200,0.12500,71.0000,132,62,0.75018
3005210,0.72500,70.4375,132,62,0.75263
3005220,0.90000,69.3125,132,62,0.75214
3005230,0.28500,68.6875,132,62,0.74921
3005240,-0.33500,68.1250,132,62,0.74481
3005250,-0.51000,67.1354,132,62,0.73557
3005260,-0.41500,66.1250,132,62,0.72454
3005270,-0.29000,65.5000,132,62,0.71477
3005280,-0.25000,64.8125,132,62,0.70354
3005290,-0.25000,64.1875,132,62,0.69133
3005300,-0.24000,62.8750,132,62,0.66520
3005310,-0.23000,62.1875,132,62,0.65153
3005320,-0.21500,61.5625,132,62,0.63785
3005330,-0.20000,60.9375,132,62,0.62418
3005340,-0.18500,59.8750,132,62,0.60122
3005350,-0.17000,59.6250,132,62,0.58974
3005360,-0.15000,59.8750,132,62,0.57851
3005370,-0.12500,61.4375,132,62,0.56752
3005380,-0.11000,71.1875,132,62,0.54628
3005390,-0.09500,79.6875,132,62,0.53602
3005400,-0.08000,89.4375,132,62,0.52601
3005410,-0.06500,99.4375,132,62,0.51600
3005420,-0.04500,116.6875,132,62,0.49670
3005430,-0.02500,123.0625,132,62,0.48864
3005440,-0.00500,127.6875,132,62,0.48132
3005450,0.01000,130.5625,132,62,0.47302
3005460,0.03000,132.2500,132,62,0.45568
3005470,0.04500,131.6250,132,62,0.44664
3005480,0.06000,130.2500,132,62,0.43785
3005490,0.08000,128.5000,132,62,0.42906
3005500,0.10500,124.1875,132,62,0.41221
3005510,0.12500,121.8750,132,62,0.40415
3005520,0.13500,119.5000,132,62,0.39585
3005530,0.12000,117.1875,132,62,0.38779
3005540,0.10000,112.7500,132,62,0.37534
3005550,0.07000,110.5625,132,62,0.36825
3005560,0.04000,108.4375,132,62,0.36068
3005570,0.01500,106.3125,132,62,0.35311
3005580,0.00000,102.0000,132,62,0.33797
3005590,-0.00500,99.6250,132,62,0.33040
3005600,-0.01000,96.9375,132,62,0.32283
3005610,-0.00500,93.9375,132,62,0.31526
3005620,0.00000,87.6875,132,62,0.30110
3005630,0.03000,84.8750,132,62,0.29646
3005640,0.06000,82.5625,132,62,0.29377
3005650,0.08000,80.6875,132,62,0.29255
3005660,0.11000,78.3125,132,62,0.29963
3005670,0.13000,77.6875,132,62,0.31038
3005680,0.12000,77.3125,132,62,0.32650
3005690,0.08000,77.1250,132,62,0.34750
3005700,0.02500,76.8125,132,62,0.40269
3005710,-0.03500,76.6875,132,62,0.43468
3005720,-0.08500,76.5000,132,62,0.46838
3005730,-0.11000,76.1875,132,62,0.50232
3005740,-0.12000,75.3125,132,62,0.55824
3005750,-0.12000,74.7500,132,62,0.58608
3005760,-0.12000,74.1250,132,62,0.61294
3005770,-0.12000,73.5625,132,62,0.63761
3005780,-0.11500,72.4375,132,62,0.67741
3005790,-0.11500,71.8750,132,62,0.69231
3005800,-0.14500,71.3125,132,62,0.70403
3005810,-0.11000,70.7500,132,62,0.71306
3005820,0.19500,69.6250,132,62,0.72308
3005830,0.75000,69.0625,132,62,0.72405
3005840,0.87500,68.4375,132,62,0.72308
3005850,0.28500,67.7500,132,62,0.72137
3005860,-0.28500,66.3750,132,62,0.71111
3005870,-0.46000,65.6875,132,62,0.70134
3005880,-0.38500,65.0000,132,62,0.69182
3005890,-0.25500,64.3125,132,62,0.68132
3005900,-0.20000,63.0000,132,62,0.65739
3005910,-0.18500,62.3750,132,62,0.64420
3005920,-0.16000,61.8125,132,62,0.63028
3005930,-0.14500,61.2500,132,62,0.61612
3005940,-0.11500,60.0625,132,62,0.59096
3005950,-0.09500,59.5625,132,62,0.57802
3005960,-0.05500,59.0625,132,62,0.56508
3005970,-0.02500,58.6875,132,62,0.55238
3005980,-0.01500,58.9375,132,62,0.52772
3005990,-0.01500,60.6250,132,62,0.51575
3006000,-0.01500,64.3125,132,61,0.50427
3006010,-0.01500,70.5000,132,61,0.49304
3006020,-0.01500,88.0000,132,61,0.47131
3006030,-0.01500,97.3125,132,61,0.46227
3006040,-0.01000,105.9375,132,61,0.45397
3006050,0.00000,113.3125,132,61,0.44469
3006060,0.02000,123.1250,132,61,0.42589
3006070,0.03500,125.5625,132,61,0.41636
3006080,0.05500,126.5000,132,61,0.40659
3006090,0.07500,126.3125,132,61,0.39707
3006100,0.09500,123.5000,132,61,0.37778
3006110,0.11000,121.4375,132,61,0.36825
3006120,0.13000,119.0000,132,61,0.35922
3006130,0.14000,116.4375,132,61,0.35043
3006140,0.14000,111.1875,132,61,0.33675
3006150,0.13000,108.5625,132,61,0.32918
3006160,0.10500,106.0000,132,61,0.32112
3006170,0.07500,103.5625,132,61,0.31306
3006180,0.05000,98.9375,132,61,0.29695
3006190,0.03000,96.7500,132,61,0.28864
3006200,0.02000,94.4375,132,61,0.28059
3006210,0.01000,92.0000,132,61,0.27277
3006220,0.01000,86.5000,132,61,0.25690
3006230,0.00500,83.4375,132,61,0.25079
3006240,0.01000,80.5625,132,61,0.24542
3006250,0.03500,78.0000,132,61,0.23907
3006260,0.06000,74.6250,132,61,0.22833
3006270,0.07000,73.7500,132,61,0.22613
3006280,0.09500,73.3125,132,61,0.22784
3006290,0.11500,73.1250,132,61,0.23419
3006300,0.10500,73.2500,132,61,0.26325
3006310,0.06000,73.3125,132,61,0.28571
3006320,-0.00500,73.4375,132,61,0.31258
3006330,-0.07500,73.4375,132,61,0.34286
3006340,-0.12500,73.1875,132,61,0.39927
3006350,-0.15500,72.8750,132,61,0.43004
3006360,-0.16000,72.5000,132,61,0.46178
3006370,-0.16500,72.0625,132,61,0.49280
3006380,-0.16500,71.0000,132,61,0.54823
3006390,-0.16500,70.5000,132,61,0.57143
3006400,-0.16500,70.0000,132,61,0.59121
3006410,-0.17000,69.5000,132,61,0.60757
3006420,-0.19000,68.4375,132,61,0.63053
3006430,-0.15500,67.9375,132,61,0.63663
3006440,0.14000,67.4375,132,61,0.63980
3006450,0.69000,66.9375,132,61,0.64200
3006460,0.85500,65.8750,132,61,0.64127
3006470,0.32500,65.3125,132,61,0.63834
3006480,-0.25000,64.7500,132,61,0.63370
3006490,-0.47500,64.1250,132,61,0.62735
3006500,-0.43500,62.9375,132,61,0.61001
3006510,-0.30500,62.3125,132,61,0.59927
3006520,-0.23500,61.6875,132,61,0.58755
3006530,-0.22000,61.1250,132,61,0.57485
3006540,-0.20500,60.0000,132,61,0.55238
3006550,-0.18500,59.5000,132,61,0.54042
3006560,-0.17000,58.9375,132,61,0.52821
3006570,-0.16000,58.4375,132,61,0.51624
3006580,-0.15000,57.6250,132,61,0.49328
3006590,-0.13500,57.3750,132,61,0.48278
3006600,-0.12000,57.5000,132,61,0.47277
3006610,-0.11000,58.5625,132,61,0.46325
3006620,-0.09500,66.1875,132,61,0.44518
3006630,-0.07500,73.3750,132,61,0.43761
3006640,-0.05500,82.1250,132,61,0.43101
3006650,-0.04500,91.3125,132,61,0.42369
3006660,-0.03500,108.0625,132,61,0.40855
3006670,-0.01500,114.6250,132,61,0.40073
3006680,0.00000,119.6250,132,61,0.39292
3006690,0.02000,123.0000,132,61,0.38510
3006700,0.04000,125.6250,132,61,0.36947
3006710,0.05000,125.3125,132,61,0.36166
3006720,0.06000,124.2500,132,61,0.35409
3006730,0.08000,122.5625,132,61,0.34652
3006740,0.10000,118.1875,132,61,0.33529
3006750,0.11000,115.7500,132,61,0.32918
3006760,0.11000,113.1875,132,61,0.32283
3006770,0.09500,110.6875,132,61,0.31600
3006780,0.07000,105.8750,132,61,0.30183
3006790,0.03500,103.5625,132,61,0.29475
3006800,0.00000,101.3750,132,61,0.28742
3006810,-0.03000,99.3125,132,61,0.28010
3006820,-0.05500,95.0000,132,61,0.26520
3006830,-0.08500,92.6875,132,61,0.25958
3006840,-0.11000,90.0625,132,61,0.25495
3006850,-0.13000,87.2500,132,61,0.24908
3006860,-0.14000,81.7500,132,61,0.23614
3006870,-0.12500,79.4375,132,61,0.23028
3006880,-0.09500,77.6250,132,61,0.22589
3006890,-0.07500,76.3125,132,61,0.22393
3006900,-0.06500,74.8125,132,61,0.23101
3006910,-0.04500,74.4375,132,61,0.24176
3006920,-0.04500,74.1875,132,61,0.25812
3006930,-0.07500,74.0000,132,61,0.27937
3006940,-0.12500,73.6875,132,61,0.32625
3006950,-0.18000,73.5000,132,61,0.35580
3006960,-0.23500,73.2500,132,61,0.38828
3006970,-0.28000,72.9375,132,61,0.42222
3006980,-0.31000,72.1250,132,61,0.49035
3006990,-0.32500,71.6250,132,61,0.52210
3007000,-0.32500,71.1250,131,61,0.55165
3007010,-0.32500,70.6250,131,61,0.57827
3007020,-0.31000,69.6875,131,61,0.62173
3007030,-0.29500,69.1875,131,61,0.63639
3007040,-0.28500,68.8125,131,61,0.64713
3007050,-0.30000,68.3750,131,61,0.65690
3007060,-0.19000,67.5000,131,61,0.67033
3007070,0.22000,67.0000,131,61,0.67350
3007080,0.73500,66.4375,131,61,0.67448
3007090,0.64500,65.8750,131,61,0.67350
3007100,0.02000,64.7500,131,61,0.66593
3007110,-0.44000,64.1250,131,61,0.65958
3007120,-0.57000,63.5000,131,61,0.65153
3007130,-0.47000,62.9375,131,61,0.64274
3007140,-0.33500,61.7500,131,61,0.62271
3007150,-0.28000,61.1875,131,61,0.61099
3007160,-0.25500,60.6875,131,61,0.59853
3007170,-0.23500,60.1250,131,61,0.58608
3007180,-0.21000,59.0625,131,61,0.56117
3007190,-0.19500,58.5625,131,61,0.54921
3007200,-0.17500,58.0625,131,61,0.53773
3007210,-0.15500,57.6250,131,61,0.52674
3007220,-0.13500,57.5000,131,61,0.50574
3007230,-0.11500,58.4375,131,61,0.49719
3007240,-0.09500,60.9375,131,61,0.48913
3007250,-0.07000,65.6250,131,61,0.48034
3007260,-0.04500,81.3125,131,61,0.46227
3007270,-0.02000,90.6250,131,61,0.45324
3007280,0.00500,99.6250,131,61,0.44396
3007290,0.03000,107.8125,131,61,0.43492
3007300,0.05500,116.8125,131,61,0.42198
3007310,0.08000,123.8750,131,61,0.40928
3007320,0.10500,126.2500,131,61,0.40098
3007330,0.12000,127.3750,131,61,0.39414
3007340,0.13500,126.7500,131,61,0.38095
3007350,0.15000,125.4375,131,61,0.37338
3007360,0.16500,123.7500,131,61,0.36557
3007370,0.18500,121.6875,131,61,0.35775
3007380,0.20000,117.1250,131,61,0.34261
3007390,0.21000,114.7500,131,61,0.33504
3007400,0.20000,112.4375,131,61,0.32772
3007410,0.17500,110.1250,131,61,0.32039
3007420,0.14500,105.6875,131,61,0.30549
3007430,0.11000,103.6250,131,61,0.29963
3007440,0.09000,101.5625,131,61,0.29451
3007450,0.07500,99.4375,131,61,0.28816
3007460,0.07000,94.8125,131,61,0.27399
3007470,0.06500,92.1875,131,61,0.26642
3007480,0.06000,89.3125,131,61,0.25910
3007490,0.06500,86.3125,131,61,0.25177
3007500,0.09000,81.0000,131,61,0.23980
3007510,0.13000,79.0625,131,61,0.23687
3007520,0.16000,77.6250,131,61,0.23761
3007530,0.18000,76.6250,131,61,0.24200
3007540,0.20000,75.5000,131,61,0.26422
3007550,0.18500,75.1875,131,61,0.28327
3007560,0.15500,74.8750,131,61,0.30745
3007570,0.09500,74.6875,131,61,0.33626
3007580,0.03000,74.2500,131,61,0.40317
3007590,-0.03500,73.9375,131,61,0.43907
3007600,-0.07500,73.5000,131,61,0.47521
3007610,-0.10000,72.5625,131,61,0.51062
3007620,-0.11500,72.0625,131,61,0.57607
3007630,-0.12500,71.5625,131,61,0.60098
3007640,-0.12500,71.0000,131,61,0.62125
3007650,-0.12500,70.5000,131,61,0.64127
3007660,-0.12500,69.5625,131,61,0.67521
3007670,-0.13000,69.1250,131,61,0.68816
3007680,-0.14500,68.6875,131,61,0.69817
3007690,0.01500,67.7500,131,61,0.70574
3007700,0.48500,67.3125,131,61,0.71282
3007710,0.90500,66.8125,131,61,0.71306
3007720,0.68000,66.2500,131,61,0.71136
3007730,0.02000,65.6250,131,61,0.70769
3007740,-0.38500,64.4375,131,61,0.69597
3007750,-0.46000,63.8125,131,61,0.68816
3007760,-0.35500,63.1875,131,61,0.67888
3007770,-0.25000,62.6250,131,61,0.66813
3007780,-0.22000,61.4375,131,61,0.64396
3007790,-0.21500,60.8750,131,61,0.63077
3007800,-0.20000,60.2500,131,61,0.61734
3007810,-0.19000,59.6875,131,61,0.60366
3007820,-0.17500,58.6250,131,61,0.57705
3007830,-0.16500,58.0625,131,61,0.56557
3007840,-0.15000,57.6250,131,61,0.55482
3007850,-0.13500,57.5000,131,61,0.54335
3007860,-0.13000,59.3750,131,61,0.52112
3007870,-0.12500,62.8125,131,61,0.51038
3007880,-0.10500,68.7500,131,61,0.50012
3007890,-0.08500,85.9375,131,61,0.49011
3007900,-0.07000,95.1875,131,61,0.47082
3007910,-0.05500,103.8750,131,61,0.46935
3007920,-0.03000,111.4375,131,61,0.47204
3007930,-0.00500,117.6250,131,61,0.47033
3007940,0.02000,125.3750,131,61,0.45983
3007950,0.03000,127.1250,131,61,0.45226
3007960,0.04000,127.6875,131,61,0.44420
3007970,0.04000,127.3750,131,61,0.43565
3007980,0.05000,124.9375,131,61,0.41832
3007990,0.06500,123.1250,131,61,0.40952
3008000,0.08000,121.0625,131,61,0.40098
3008010,0.10000,118.8750,131,61,0.39072
3008020,0.11000,114.3750,131,61,0.37509
3008030,0.10000,112.1250,131,61,0.36972
3008040,0.07000,109.8750,131,61,0.36484
3008050,0.04000,107.6875,131,61,0.35849
3008060,0.00500,103.5000,131,61,0.34383
3008070,-0.01500,101.4375,131,61,0.33602
3008080,-0.02500,99.3750,131,61,0.32821
3008090,-0.03000,97.1875,131,61,0.32015
3008100,-0.02500,92.0625,131,61,0.30427
3008110,-0.02000,89.0625,131,61,0.29646
3008120,-0.00500,85.8750,131,61,0.28938
3008130,0.02500,82.7500,131,61,0.28474
3008140,0.06500,77.7500,131,61,0.28132
3008150,0.09000,76.1875,131,61,0.28327
3008160,0.11500,75.1250,131,61,0.28938
3008170,0.13000,74.5000,131,61,0.30061
3008180,0.12000,73.8125,131,61,0.33968
3008190,0.08000,73.6875,131,61,0.36679
3008200,0.02000,73.5625,131,61,0.39756
3008210,-0.05000,73.3750,131,61,0.43150
3008220,-0.10500,72.9375,131,61,0.50379
3008230,-0.13500,72.6250,131,61,0.53553
3008240,-0.15000,72.2500,131,61,0.56386
3008250,-0.15500,71.8750,131,61,0.59414
3008260,-0.15500,70.9375,131,61,0.65153
3008270,-0.15500,70.4375,131,61,0.67595
3008280,-0.15500,69.9375,131,61,0.69719
3008290,-0.15500,69.5000,131,61,0.71502
3008300,-0.16000,68.6875,131,61,0.74042
3008310,-0.15000,68.1875,131,61,0.74896
3008320,0.08000,67.7500,131,61,0.75482
3008330,0.50500,67.1875,131,61,0.75751
3008340,0.92000,66.1250,131,61,0.75726
3008350,0.66500,65.6250,131,61,0.75531
3008360,0.00000,65.0000,131,61,0.75189
3008370,-0.39500,64.4375,131,61,0.74701
3008380,-0.46000,63.2500,131,61,0.73162
3008390,-0.34500,62.6875,131,61,0.72137
3008400,-0.25000,62.0625,131,61,0.70989
3008410,-0.22000,61.4375,131,61,0.69695
3008420,-0.20000,60.3125,131,61,0.66813
3008430,-0.19000,59.6875,131,61,0.65446
3008440,-0.19000,59.1250,131,61,0.64151
3008450,-0.19000,58.5000,131,61,0.62808
3008460,-0.19000,57.5625,131,61,0.60122
3008470,-0.17500,57.3125,131,61,0.58828
3008480,-0.16000,57.5000,131,61,0.57558
3008490,-0.15000,58.6875,131,61,0.56337
3008500,-0.14500,66.9375,131,61,0.54042
3008510,-0.12500,74.4375,131,61,0.52943
3008520,-0.11000,83.3750,131,61,0.51868
3008530,-0.08500,92.6875,131,61,0.50965
3008540,-0.06500,109.5625,131,61,0.49231
3008550,-0.04000,116.2500,131,61,0.48303
3008560,-0.01500,121.4375,131,61,0.47375
3008570,0.00000,125.1250,131,61,0.46471
3008580,0.01000,128.3750,131,61,0.44615
3008590,0.02000,128.4375,131,61,0.43712
3008600,0.02000,127.8125,131,61,0.42833
3008610,0.03000,126.5625,131,61,0.41954
3008620,0.04000,123.0000,131,61,0.40220
3008630,0.06000,120.9375,131,61,0.39536
3008640,0.07000,118.7500,131,61,0.38950
3008650,0.07000,116.5000,131,61,0.38217
3008660,0.05000,112.0625,131,61,0.36630
3008670,0.02000,110.0000,131,61,0.35824
3008680,-0.01500,107.9375,131,61,0.34994
3008690,-0.05000,105.9375,131,61,0.34188
3008700,-0.08500,102.0000,131,61,0.32601
3008710,-0.10500,99.9375,131,61,0.31819
3008720,-0.11500,97.7500,131,61,0.31038
3008730,-0.12500,92.4375,131,61,0.30427
3008740,-0.12500,89.4375,131,61,0.29206
3008750,-0.10000,86.3750,131,61,0.28547
3008760,-0.05000,83.5000,131,61,0.27985
3008770,0.01000,81.1875,131,61,0.27668
3008780,0.05000,77.9375,131,61,0.28181
3008790,0.08000,77.0000,131,61,0.29182
3008800,0.09000,76.2500,131,61,0.30745
3008810,0.07000,75.8125,131,61,0.32869
3008820,0.03000,75.1250,131,61,0.38193
3008830,-0.02000,74.8125,131,61,0.40928
3008840,-0.09000,74.5625,131,61,0.44200
3008850,-0.16000,74.2500,131,61,0.47790
3008860,-0.20000,73.5000,131,61,0.55140
3008870,-0.22000,73.0625,131,61,0.58706
3008880,-0.23000,72.5625,131,61,0.62051
3008890,-0.24000,72.1250,131,61,0.65128
3008900,-0.25000,71.1875,131,61,0.70281
3008910,-0.25000,70.6875,131,61,0.72308
3008920,-0.25000,70.2500,131,61,0.73993
3008930,-0.26000,69.8125,131,61,0.75140
3008940,-0.25500,68.8125,131,61,0.76581
3008950,-0.03000,68.3125,131,61,0.77118
3008960,0.52000,67.7500,131,61,0.77460
3008970,0.87000,67.2500,131,61,0.77582
3008980,0.44000,66.2500,131,61,0.77338
3008990,-0.25000,65.7500,131,61,0.76948
3009000,-0.57000,65.1875,132,61,0.76361
3009010,-0.56000,64.5625,132,61,0.75604
3009020,-0.42000,63.4375,132,61,0.73675
3009030,-0.32500,62.8750,132,61,0.72283
3009040,-0.30500,62.2500,132,61,0.70916
3009050,-0.29500,61.6875,132,61,0.69890
3009060,-0.29000,60.5000,132,61,0.67350
3009070,-0.28000,59.9375,132,61,0.65983
3009080,-0.27000,59.4375,132,61,0.64615
3009090,-0.26000,59.0000,132,61,0.63248
3009100,-0.25500,58.5625,132,61,0.60586
3009110,-0.24000,59.2500,132,61,0.59267
3009120,-0.22500,61.3125,132,61,0.57998
3009130,-0.20000,65.5625,132,61,0.56899
3009140,-0.18000,80.9375,132,61,0.54823
3009150,-0.16000,90.5000,132,61,0.53724
3009160,-0.14500,99.9375,132,61,0.52625
3009170,-0.12000,108.6250,132,61,0.51551
3009180,-0.09500,121.7500,132,61,0.49499
3009190,-0.07000,126.0000,132,61,0.48498
3009200,-0.05500,128.7500,132,61,0.47546
3009210,-0.04500,130.1875,132,61,0.46618
3009220,-0.04000,130.1875,132,61,0.44982
3009230,-0.03500,129.1250,132,61,0.44298
3009240,-0.03500,127.6875,132,61,0.43516
3009250,-0.02500,125.8750,132,61,0.42711
3009260,-0.01500,121.7500,132,61,0.41026
3009270,-0.00500,119.5625,132,61,0.40171
3009280,-0.01500,117.3750,132,61,0.39316
3009290,-0.03000,115.1875,132,61,0.38437
3009300,-0.06500,111.0625,132,61,0.36728
3009310,-0.09500,109.0625,132,61,0.35897
3009320,-0.12500,107.1250,132,61,0.35067
3009330,-0.14500,105.1875,132,61,0.34408
3009340,-0.15500,101.1250,132,61,0.33162
3009350,-0.15500,98.7500,132,61,0.32405
3009360,-0.15500,96.0625,132,61,0.31624
3009370,-0.15000,93.1250,132,61,0.30842
3009380,-0.13000,86.9375,132,61,0.29451
3009390,-0.09500,84.2500,132,61,0.29011
3009400,-0.05500,82.0000,132,61,0.28913
3009410,-0.02500,79.0000,132,61,0.30085
3009420,0.00000,78.0625,132,61,0.31282
3009430,0.02000,77.4375,132,61,0.32845
3009440,0.00000,76.9375,132,61,0.35043
3009450,-0.03500,76.6250,132,61,0.37802
3009460,-0.09500,76.0000,132,61,0.44542
3009470,-0.16500,75.7500,132,61,0.48278
3009480,-0.22500,75.4375,132,61,0.52137
3009490,-0.25500,75.0625,132,61,0.55971
3009500,-0.27000,74.1250,132,61,0.63126
3009510,-0.27500,73.6250,132,61,0.66325
3009520,-0.27500,73.1250,132,61,0.69182
3009530,-0.27000,72.6250,132,61,0.71331
3009540,-0.26000,71.6875,132,61,0.74652
3009550,-0.25000,71.2500,132,61,0.76093
3009560,-0.26000,70.8125,132,61,0.77265
3009570,-0.23000,70.3125,132,61,0.78193
3009580,0.08000,69.4375,132,61,0.79292
3009590,0.68500,68.9375,132,61,0.79536
3009600,0.88500,68.4375,132,61,0.79585
3009610,0.30000,67.9375,132,61,0.79463
3009620,-0.39500,66.8125,132,61,0.78730
3009630,-0.63000,66.1875,132,61,0.78095
3009640,-0.51500,65.5625,132,61,0.77314
3009650,-0.35500,64.9375,132,61,0.76361
3009660,-0.29000,63.6875,132,61,0.74042
3009670,-0.27000,63.0000,132,61,0.72723
3009680,-0.26000,62.3750,132,61,0.71331
3009690,-0.24500,61.8125,132,61,0.69890
3009700,-0.24000,60.6875,132,61,0.66984
3009710,-0.23000,60.1250,132,61,0.65568
3009720,-0.22500,59.7500,132,61,0.64200
3009730,-0.22000,59.5000,132,61,0.62979
3009740,-0.21000,60.8750,132,61,0.60708
3009750,-0.19500,64.0000,132,61,0.59536
3009760,-0.17000,69.6250,132,61,0.58364
3009770,-0.15000,77.6250,132,61,0.57216
3009780,-0.12000,97.0000,132,61,0.54969
3009790,-0.08500,106.3750,132,61,0.53871
3009800,-0.05500,114.5625,132,61,0.52796
3009810,-0.02500,121.1875,132,61,0.51746
3009820,0.00000,129.3125,132,61,0.49866
3009830,0.02000,131.1250,132,61,0.49084
3009840,0.03000,131.6875,132,61,0.48205
3009850,0.03500,131.3750,132,61,0.47302
3009860,0.04000,128.8750,132,61,0.45470
3009870,0.05000,127.0625,132,61,0.44567
3009880,0.05000,125.0000,132,61,0.43663
3009890,0.06500,122.8750,132,61,0.42784
3009900,0.07500,118.5625,132,61,0.41026
3009910,0.07000,116.5000,132,61,0.40122
3009920,0.05000,114.4375,132,61,0.39219
3009930,0.02000,112.5000,132,61,0.38510
3009940,-0.00500,108.6250,132,61,0.37143
3009950,-0.03000,106.6875,132,61,0.36361
3009960,-0.05000,104.6875,132,61,0.34921
3009970,-0.06000,100.3125,132,61,0.31819
3009980,-0.06500,97.6875,132,61,0.30745
3009990,-0.07000,94.7500,132,61,0.29817
3010000,-0.07000,91.6250,131,61,0.28987
3010010,-0.05500,88.4375,131,61,0.28278
3010020,-0.01500,83.1250,131,61,0.27546
3010030,0.01500,81.1875,131,61,0.27643
3010040,0.03500,79.8125,131,61,0.28059
3010050,0.05000,78.7500,131,61,0.28938
3010060,0.05000,77.6250,131,61,0.33358
3010070,0.04000,77.3750,131,61,0.35311
3010080,0.00500,77.1250,131,61,0.37973
3010090,-0.06000,76.8750,131,61,0.41123
3010100,-0.14500,76.3125,131,61,0.48156
3010110,-0.21000,76.0000,131,61,0.51770
3010120,-0.24000,75.5625,131,61,0.55311
3010130,-0.25000,75.0000,131,61,0.58217
3010140,-0.25500,73.8750,131,61,0.63272
3010150,-0.25000,73.2500,131,61,0.65665
3010160,-0.25500,72.6250,131,61,0.67814
3010170,-0.25000,72.0625,131,61,0.69695
3010180,-0.25500,70.8750,131,61,0.72454
3010190,-0.28000,70.3750,131,61,0.73382
3010200,-0.24500,69.8750,131,61,0.74066
3010210,0.07000,69.3750,131,61,0.74530
3010220,0.68000,68.4375,131,61,0.74725
3010230,0.87500,68.0000,131,61,0.74481
3010240,0.22500,67.5625,131,61,0.74164
3010250,-0.48000,67.0625,131,61,0.73724
3010260,-0.67500,66.0000,131,61,0.72357
3010270,-0.55500,65.5000,131,61,0.71453
3010280,-0.40000,64.9375,131,61,0.70427
3010290,-0.34000,64.3750,131,61,0.69255
3010300,-0.33500,63.1250,131,61,0.66642
3010310,-0.32500,62.5000,131,61,0.65250
3010320,-0.32000,61.8750,131,61,0.63834
3010330,-0.31500,61.1875,131,61,0.62540
3010340,-0.31000,60.0000,131,61,0.60024
3010350,-0.30500,59.5000,131,61,0.58730
3010360,-0.30500,59.1250,131,61,0.57485
3010370,-0.29000,59.2500,131,61,0.56239
3010380,-0.28000,63.4375,131,61,0.53822
3010390,-0.26000,68.8750,131,61,0.52650
3010400,-0.24000,76.7500,131,61,0.51526
3010410,-0.22000,86.0625,131,61,0.50427
3010420,-0.20000,105.0000,131,61,0.48400
3010430,-0.17500,113.1250,131,61,0.47521
3010440,-0.15000,119.7500,131,61,0.46569
3010450,-0.12500,124.6250,131,61,0.45592
3010460,-0.11000,129.5000,131,61,0.43687
3010470,-0.10500,130.0000,131,61,0.42735
3010480,-0.09500,129.5000,131,61,0.41807
3010490,-0.08500,128.3125,131,61,0.40879
3010500,-0.07500,124.6875,131,61,0.39072
3010510,-0.06000,122.5000,131,61,0.38193
3010520,-0.04500,120.1875,131,61,0.37338
3010530,-0.03500,117.8750,131,61,0.36630
3010540,-0.04500,113.1875,131,61,0.35287
3010550,-0.06500,110.9375,131,61,0.34505
3010560,-0.09500,108.8125,131,61,0.33724
3010570,-0.12000,106.7500,131,61,0.32943
3010580,-0.14000,102.6250,131,61,0.31331
3010590,-0.15500,100.5000,131,61,0.30525
3010600,-0.15500,98.1875,131,61,0.29719
3010610,-0.16000,95.6250,131,61,0.28913
3010620,-0.16000,89.7500,131,61,0.27546
3010630,-0.15000,86.5625,131,61,0.27082
3010640,-0.12000,83.6250,131,61,0.26545
3010650,-0.07500,81.0625,131,61,0.26056
3010660,-0.04500,77.6250,131,61,0.25812
3010670,-0.00500,76.6250,131,61,0.26276
3010680,0.02000,76.0000,131,61,0.27253
3010690,0.01000,75.6250,131,61,0.28767
3010700,-0.03000,75.3750,131,61,0.33382
3010710,-0.09000,75.3125,131,61,0.36386
3010720,-0.16000,75.2500,131,61,0.39243
3010730,-0.22000,75.1250,131,61,0.42100
3010740,-0.26000,74.5625,131,61,0.48864
3010750,-0.27500,74.1875,131,61,0.52332
3010760,-0.28000,73.7500,131,61,0.55653
3010770,-0.28000,73.2500,131,61,0.58730
3010780,-0.28000,72.1250,131,61,0.63883
3010790,-0.27000,71.6250,131,61,0.65934
3010800,-0.27000,71.1875,131,61,0.67668
3010810,-0.28000,70.6875,131,61,0.69060
3010820,-0.24000,69.6875,131,61,0.70794
3010830,0.05500,69.1250,131,61,0.71160
3010840,0.60500,68.5625,131,61,0.71429
3010850,0.74000,68.0000,131,61,0.71551
3010860,0.16500,66.7500,131,61,0.71282
3010870,-0.41500,66.1250,131,61,0.70916
3010880,-0.61500,65.4375,131,61,0.70354
3010890,-0.54000,64.7500,131,61,0.69646
3010900,-0.39500,63.4375,131,61,0.67790
3010910,-0.32000,62.8125,131,61,0.66642
3010920,-0.30000,62.1875,131,61,0.65495
3010930,-0.27500,61.6250,131,61,0.64347
3010940,-0.26000,60.5625,131,61,0.61685
3010950,-0.25000,60.0625,131,61,0.60293
3010960,-0.25000,59.5625,131,61,0.58901
3010970,-0.24000,59.1875,131,61,0.57558
3010980,-0.22500,58.6250,131,61,0.55018
3010990,-0.21500,58.9375,131,61,0.53797
3011000,-0.20000,60.3750,130,61,0.52625
3011010,-0.18000,63.6250,130,61,0.51477
3011020,-0.16500,76.6250,130,61,0.49402
3011030,-0.14500,85.3125,130,61,0.48547
3011040,-0.12500,94.1250,130,61,0.47595
3011050,-0.09500,102.4375,130,61,0.46593
3011060,-0.06500,115.3750,130,61,0.44664
3011070,-0.03500,119.5625,130,61,0.43712
3011080,-0.01000,122.1875,130,61,0.42564
3011090,0.01500,123.5000,130,61,0.41538
3011100,0.03500,122.8125,130,61,0.40000
3011110,0.06000,121.3750,130,61,0.39170
3011120,0.08000,119.5000,130,61,0.38462
3011130,0.09000,117.3750,130,61,0.37851
3011140,0.10000,112.5000,130,61,0.36386
3011150,0.10000,109.9375,130,61,0.35580
3011160,0.08000,107.3125,130,61,0.34774
3011170,0.04500,104.8125,130,61,0.33968
3011180,0.01000,100.1250,130,61,0.32332
3011190,-0.01500,97.9375,130,61,0.31526
3011200,-0.03500,95.7500,130,61,0.30696
3011210,-0.03500,93.5625,130,61,0.29890
3011220,-0.03500,88.7500,130,61,0.28474
3011230,-0.02500,86.0625,130,61,0.27937
3011240,-0.02500,83.2500,130,61,0.27277
3011250,-0.01500,80.5625,130,61,0.26545
3011260,0.01000,76.2500,130,61,0.25128
3011270,0.05000,74.8125,130,61,0.24591
3011280,0.07000,73.8750,130,61,0.24274
3011290,0.09000,73.2500,130,61,0.24298
3011300,0.12000,72.8125,130,61,0.25690
3011310,0.13000,72.7500,130,61,0.27179
3011320,0.10000,72.7500,130,61,0.28864
3011330,0.04000,72.6875,130,61,0.30818
3011340,-0.02500,72.4375,130,61,0.36142
3011350,-0.07500,72.1875,130,61,0.39170
3011360,-0.11500,71.8125,130,61,0.42295
3011370,-0.14000,71.4375,130,61,0.45397
3011380,-0.15500,70.5000,130,61,0.51184
3011390,-0.15500,69.9375,130,61,0.53748
3011400,-0.15000,69.4375,130,61,0.56044
3011410,-0.14500,68.8750,130,61,0.58046
3011420,-0.13500,67.8750,130,61,0.60904
3011430,-0.13500,67.3750,130,61,0.61758
3011440,-0.13000,66.8750,130,61,0.62515
3011450,0.04500,66.4375,130,61,0.63077
3011460,0.54500,65.5000,130,61,0.63639
3011470,0.94000,65.0000,130,61,0.63663
3011480,0.62000,64.5000,130,61,0.63516
3011490,-0.02500,64.0000,130,61,0.63199
3011500,-0.38500,62.8750,130,61,0.62100
3011510,-0.43500,62.3125,130,61,0.61319
3011520,-0.31500,61.7500,130,61,0.60488
3011530,-0.20500,61.2500,130,61,0.59609
3011540,-0.18000,60.1875,130,61,0.57411
3011550,-0.16000,59.6875,130,61,0.56215
3011560,-0.15000,59.1250,130,61,0.54994
3011570,-0.14000,58.0625,130,61,0.53773
3011580,-0.13500,57.5625,130,61,0.51429
3011590,-0.12000,57.0625,130,61,0.50305
3011600,-0.10500,56.6875,130,61,0.49255
3011610,-0.09000,56.5000,130,61,0.48278
3011620,-0.07500,58.3125,130,61,0.46520
3011630,-0.06000,61.6875,130,61,0.45788
3011640,-0.04000,67.4375,130,61,0.44982
3011650,-0.01500,75.2500,130,61,0.44176
3011660,0.00000,92.6875,130,61,0.42613
3011670,0.02000,100.8125,130,61,0.41832
3011680,0.04000,107.9375,130,61,0.41074
3011690,0.06000,113.6250,130,61,0.40293
3011700,0.08000,120.5625,130,61,0.38779
3011710,0.10000,122.0000,130,61,0.38022
3011720,0.12000,122.3125,130,61,0.37387
3011730,0.13500,121.7500,130,61,0.36825
3011740,0.15000,118.7500,130,61,0.35409
3011750,0.16500,116.6875,130,61,0.34701
3011760,0.18500,114.3750,130,61,0.33968
3011770,0.19500,109.5000,130,61,0.33236
3011780,0.19000,107.0625,130,61,0.31770
3011790,0.17500,104.6250,130,61,0.31062
3011800,0.15000,102.3750,130,61,0.30379
3011810,0.12000,100.1250,130,61,0.29670
3011820,0.09000,95.8750,130,61,0.28425
3011830,0.07000,93.6875,130,61,0.27985
3011840,0.06000,91.3750,130,61,0.27448
3011850,0.06000,88.8750,130,61,0.26813
3011860,0.06000,83.1250,130,61,0.25446
3011870,0.05500,80.0000,130,61,0.24713
3011880,0.06000,76.9375,130,61,0.24029
3011890,0.08500,74.3125,130,61,0.23419
3011900,0.12000,71.0625,130,61,0.22784
3011910,0.14500,70.3125,130,61,0.22955
3011920,0.17500,70.0625,130,61,0.23492
3011930,0.20500,70.0000,130,61,0.24396
3011940,0.21000,70.3125,130,61,0.27643
3011950,0.18500,70.4375,130,61,0.29963
3011960,0.13000,70.6250,130,61,0.32674
3011970,0.07000,70.6875,130,61,0.35678
3011980,0.00500,70.5000,130,61,0.42051
3011990,-0.03500,70.3125,130,61,0.45201
3012000,-0.05500,70.0000,129,60,0.48230
3012010,-0.06000,69.5625,129,60,0.51282
3012020,-0.06000,68.6875,129,60,0.56435
3012030,-0.06500,68.1875,129,60,0.58169
3012040,-0.06500,67.6875,129,60,0.59805
3012050,-0.06000,67.2500,129,60,0.61270
3012060,-0.06000,66.3125,129,60,0.63443
3012070,-0.07000,65.8750,129,60,0.64151
3012080,0.06000,65.3750,129,60,0.64640
3012090,0.49500,64.8750,129,60,0.64933
3012100,0.96500,63.8750,129,60,0.64860
3012110,0.81500,63.3125,129,60,0.64542
3012120,0.15500,62.8125,129,60,0.64225
3012130,-0.29000,62.2500,129,60,0.63736
3012140,-0.39500,61.1250,129,60,0.62198
3012150,-0.30000,60.5000,129,60,0.61221
3012160,-0.18000,59.8750,129,60,0.60147
3012170,-0.13500,59.2500,129,60,0.58999
3012180,-0.12500,58.1875,129,60,0.56532
3012190,-0.11500,57.6875,129,60,0.55263
3012200,-0.10500,57.1250,129,60,0.53993
3012210,-0.09000,56.6250,129,60,0.52772
3012220,-0.07500,55.7500,129,60,0.50623
3012230,-0.06000,55.4375,129,60,0.49744
3012240,-0.04500,55.3750,129,60,0.48840
3012250,-0.03500,56.0625,129,60,0.47937
3012260,-0.02500,62.3125,129,60,0.46203
3012270,-0.00500,68.6875,129,60,0.45372
3012280,0.01000,76.8125,129,60,0.44567
3012290,0.02500,85.6250,129,60,0.43761
3012300,0.04500,102.4375,129,60,0.42247
3012310,0.07000,109.4375,129,60,0.41514
3012320,0.09000,115.0000,129,60,0.40904
3012330,0.10500,119.1250,129,60,0.40366
3012340,0.11500,123.3125,129,60,0.39096
3012350,0.12500,123.6875,129,60,0.38437
3012360,0.13000,123.3125,129,60,0.37778
3012370,0.14000,122.2500,129,60,0.37143
3012380,0.15000,118.8750,129,60,0.35897
3012390,0.16500,116.7500,129,60,0.35263
3012400,0.17000,114.5000,129,60,0.34628
3012410,0.16500,112.1250,129,60,0.33993
3012420,0.15000,108.6563,129,60,0.33240
3012430,0.13000,105.2500,129,60,0.32503
3012440,0.10000,103.0625,129,60,0.31917
3012450,0.07000,101.0000,129,60,0.31306
3012460,0.04500,96.9375,129,60,0.30061
3012470,0.04000,94.8750,129,60,0.29451
3012480,0.04000,92.6250,129,60,0.28840
3012490,0.04500,90.1875,129,60,0.28230
3012500,0.04500,84.6250,129,60,0.26984
3012510,0.05000,81.8125,129,60,0.26398
3012520,0.07500,79.3125,129,60,0.26032
3012530,0.12000,77.3125,129,60,0.25861
3012540,0.14500,74.7500,129,60,0.25983
3012550,0.16000,74.0625,129,60,0.26569
3012560,0.18500,73.5000,129,60,0.27619
3012570,0.20500,73.1875,129,60,0.29158
3012580,0.18500,72.6875,129,60,0.33626
3012590,0.14000,72.5000,129,60,0.36410
3012600,0.07500,72.2500,129,60,0.39438
3012610,0.01500,72.0000,129,60,0.42613
3012620,-0.02500,71.2500,129,60,0.48010
3012630,-0.04500,70.8125,129,60,0.50842
3012640,-0.04500,70.3125,129,60,0.53675
3012650,-0.04500,69.8750,129,60,0.56361
3012660,-0.04000,68.8750,129,60,0.61050
3012670,-0.03500,68.4375,129,60,0.63004
3012680,-0.02333,67.9375,129,60,0.64664
3012690,-0.01500,67.0000,129,60,0.66032
3012700,-0.02000,66.5625,129,60,0.68010
3012710,0.03500,66.0625,129,60,0.68645
3012720,0.34500,65.6250,129,60,0.68987
3012730,0.90000,65.0625,129,60,0.69109
3012740,1.06000,64.0625,129,60,0.69011
3012750,0.51500,63.5625,129,60,0.68742
3012760,-0.05500,63.0000,129,60,0.68303
3012770,-0.26500,62.4375,129,60,0.67692
3012780,-0.22500,61.3750,129,60,0.66081
3012790,-0.09500,60.8125,129,60,0.65104
3012800,-0.02000,60.3125,129,60,0.64029
3012810,-0.00500,59.8125,129,60,0.62882
3012820,0.00500,58.7500,129,60,0.60757
3012830,0.01500,58.1875,129,60,0.59634
3012840,0.02000,57.6875,129,60,0.58486
3012850,0.02500,57.1875,129,60,0.57338
3012860,0.04000,56.4375,129,60,0.55116
3012870,0.05500,56.5000,129,60,0.54066
3012880,0.06500,57.2500,129,60,0.53040
3012890,0.07500,59.4375,129,60,0.52015
3012900,0.08500,70.3125,129,60,0.50037
3012910,0.09000,78.5625,129,60,0.49109
3012920,0.11000,87.5000,129,60,0.48327
3012930,0.12500,96.2500,129,60,0.47595
3012940,0.14500,111.2500,129,60,0.46032
3012950,0.16500,116.7500,129,60,0.45250
3012960,0.18500,120.8125,129,60,0.44469
3012970,0.19500,123.4375,129,60,0.43687
3012980,0.20500,125.2500,129,60,0.42125
3012990,0.20500,124.8125,129,60,0.41343
3013000,0.21000,123.8750,129,60,0.40586
3013010,0.21500,122.3750,129,60,0.39853
3013020,0.21500,118.6250,129,60,0.38706
3013030,0.21500,116.5000,129,60,0.38046
3013040,0.21000,114.3750,129,60,0.37363
3013050,0.20000,112.1875,129,60,0.36679
3013060,0.18000,107.9375,129,60,0.35263
3013070,0.15500,105.8750,129,60,0.34554
3013080,0.12000,103.8750,129,60,0.33846
3013090,0.10000,101.9375,129,60,0.33162
3013100,0.08500,98.0000,129,60,0.31795
3013110,0.08000,95.8125,129,60,0.31087
3013120,0.08000,93.3750,129,60,0.30525
3013130,0.07500,90.6875,129,60,0.29866
3013140,0.07500,84.9375,129,60,0.28669
3013150,0.08500,82.1875,129,60,0.28156
3013160,0.12000,79.8750,129,60,0.27741
3013170,0.14500,78.0625,129,60,0.27570
3013180,0.16000,75.6875,129,60,0.28400
3013190,0.17500,74.8750,129,60,0.29548
3013200,0.19000,74.2500,129,60,0.31184
3013210,0.17500,73.7500,129,60,0.33260
3013220,0.13000,73.0625,129,60,0.37705
3013230,0.06500,72.7500,129,60,0.40464
3013240,0.00000,72.4375,129,60,0.43492
3013250,-0.05500,72.1250,129,60,0.46667
3013260,-0.09500,71.3125,129,60,0.52943
3013270,-0.11500,70.8750,129,60,0.55897
3013280,-0.12500,70.4375,129,60,0.58657
3013290,-0.12500,70.0000,129,60,0.61172
3013300,-0.12000,69.0625,129,60,0.65372
3013310,-0.11500,68.6875,129,60,0.67009
3013320,-0.11000,68.2500,129,60,0.68181
3013330,-0.12500,67.8125,129,60,0.69011
3013340,-0.11500,66.9375,129,60,0.70379
3013350,0.14000,66.4375,129,60,0.70842
3013360,0.68500,65.9375,129,60,0.71136
3013370,0.93500,65.4375,129,60,0.71258
3013380,0.48500,64.2500,129,60,0.70989
3013390,-0.14500,63.6875,129,60,0.70574
3013400,-0.44500,63.0625,129,60,0.70012
3013410,-0.44000,62.4375,129,60,0.69304
3013420,-0.31000,61.2500,129,60,0.67619
3013430,-0.23500,60.6875,129,60,0.66593
3013440,-0.21500,60.1250,129,60,0.65470
3013450,-0.20000,59.6250,129,60,0.64298
3013460,-0.19000,58.5625,129,60,0.61807
3013470,-0.18500,58.0000,129,60,0.60562
3013480,-0.18000,57.5000,129,60,0.59365
3013490,-0.17000,57.0000,129,60,0.58193
3013500,-0.16000,56.6875,129,60,0.55922
3013510,-0.15000,57.4375,129,60,0.54823
3013520,-0.14000,59.6250,129,60,0.53846
3013530,-0.12500,64.0000,129,60,0.52967
3013540,-0.11500,79.2500,129,60,0.51087
3013550,-0.09500,88.3125,129,60,0.50134
3013560,-0.07000,97.1875,129,60,0.49206
3013570,-0.04000,112.1250,129,60,0.48303
3013580,-0.01500,117.6250,129,60,0.46545
3013590,0.00000,121.6250,129,60,0.45665
3013600,0.01000,124.2500,129,60,0.44786
3013610,0.02000,125.6250,129,60,0.43932
3013620,0.03500,125.4375,129,60,0.42540
3013630,0.05000,124.3750,129,60,0.41807
3013640,0.06000,122.9375,129,60,0.41074
3013650,0.07000,121.1250,129,60,0.40317
3013660,0.08500,116.9375,129,60,0.38803
3013670,0.09000,114.6875,129,60,0.38046
3013680,0.09000,112.5000,129,60,0.37314
3013690,0.07000,110.2500,129,60,0.36581
3013700,0.04000,105.9375,129,60,0.35116
3013710,0.00000,103.9375,129,60,0.34383
3013720,-0.02000,102.0000,129,60,0.33797
3013730,-0.03500,100.0000,129,60,0.33284
3013740,-0.04500,95.9375,129,60,0.32015
3013750,-0.04500,93.5625,129,60,0.31306
3013760,-0.04500,90.9375,129,60,0.30598
3013770,-0.04500,88.0625,129,60,0.29890
3013780,-0.03500,82.1250,129,60,0.28645
3013790,-0.00500,79.6875,129,60,0.28254
3013800,0.03500,77.6875,129,60,0.28132
3013810,0.06000,76.1875,129,60,0.28376
3013820,0.09000,74.3750,129,60,0.29939
3013830,0.11000,73.8750,129,60,0.31404
3013840,0.10000,73.5625,129,60,0.33358
3013850,0.07000,73.2500,129,60,0.35751
3013860,0.02000,72.7500,129,60,0.41465
3013870,-0.04000,72.5000,129,60,0.44615
3013880,-0.09500,72.1875,129,60,0.47814
3013890,-0.14000,71.8750,129,60,0.50989
3013900,-0.16000,71.0000,129,60,0.56972
3013910,-0.16500,70.5000,129,60,0.59683
3013920,-0.17000,70.0625,129,60,0.61832
3013930,-0.17000,69.6250,129,60,0.63590
3013940,-0.16500,68.7500,129,60,0.66911
3013950,-0.16000,68.3125,129,60,0.68278
3013960,-0.16000,67.8750,129,60,0.69402
3013970,-0.16000,67.4375,129,60,0.70281
3013980,0.03500,66.5000,129,60,0.71404
3013990,0.56500,66.0000,129,60,0.71648
3014000,0.96000,65.5000,129,60,0.71722
3014010,0.59000,65.0000,129,60,0.71624
3014020,-0.11000,63.8750,129,60,0.70891
3014030,-0.46500,63.2500,129,60,0.70330
3014040,-0.49000,62.6875,129,60,0.69597
3014050,-0.35500,62.0625,129,60,0.68718
3014060,-0.25000,61.0000,129,60,0.68254
3014070,-0.23500,60.4375,129,60,0.67497
3014080,-0.22500,59.9375,129,60,0.66422
3014090,-0.22000,59.3750,129,60,0.65201
3014100,-0.21000,58.2500,129,60,0.62637
3014110,-0.20000,57.7500,129,60,0.61343
3014120,-0.19000,57.3750,129,60,0.60171
3014130,-0.17500,57.0625,129,60,0.59072
3014140,-0.16000,58.0625,129,60,0.56777
3014150,-0.14500,60.6875,129,60,0.55360
3014160,-0.12000,65.5625,129,60,0.54090
3014170,-0.09500,72.8125,129,60,0.53211
3014180,-0.07000,91.0000,129,60,0.51258
3014190,-0.05000,100.0625,129,60,0.50256
3014200,-0.03500,108.2500,129,60,0.49255
3014210,-0.01000,115.0625,129,60,0.48303
3014220,0.01000,124.1250,129,60,0.46740
3014230,0.02500,126.4375,129,60,0.45934
3014240,0.03500,127.5000,129,60,0.45104
3014250,0.04000,127.0000,129,60,0.43443
3014260,0.03500,125.8750,129,60,0.42613
3014270,0.03500,124.3125,129,60,0.41783
3014280,0.04000,122.5000,129,60,0.40952
3014290,0.04500,120.4375,129,60,0.40122
3014300,0.05000,116.1875,129,60,0.38437
3014310,0.04000,114.0625,129,60,0.37753
3014320,0.02000,111.9375,129,60,0.37143
3014330,-0.03000,107.8750,129,60,0.36410
3014340,-0.08500,105.9375,129,60,0.34896
3014350,-0.15500,103.9375,129,60,0.34164
3014360,-0.25000,102.0000,129,60,0.33431
3014370,-0.42500,99.9375,129,60,0.32698
3014380,-0.71500,95.2500,129,60,0.30916
3014390,-1.18500,92.5000,129,60,0.30305
3014400,-1.89500,89.5000,129,60,0.29621
3014410,-2.69000,86.3750,129,60,0.28938
3014420,-3.11500,80.8125,129,60,0.28278
3014430,-3.01000,78.7500,129,60,0.28205
3014440,-2.58500,77.1875,129,60,0.28449
3014450,-1.98000,76.0000,129,60,0.29133
3014460,-1.34500,74.6250,129,60,0.32137
3014470,-0.80500,74.0938,129,60,0.34672
3014480,-0.43500,73.9375,129,60,0.37265
3014490,-0.23000,73.6875,129,60,0.40440
3014500,-0.12000,73.1875,129,60,0.47399
3014510,-0.04500,72.8750,129,60,0.50549
3014520,0.02000,72.5000,129,60,0.53431
3014530,0.08000,72.1250,129,60,0.57338
3014540,0.11000,71.1250,129,60,0.63321
3014550,0.13500,70.6250,129,60,0.65788
3014560,0.16000,70.0625,129,60,0.68571
3014570,0.18000,69.5625,129,60,0.70891
3014580,0.19500,68.5000,129,60,0.73724
3014590,0.19500,68.0000,129,60,0.74969
3014600,0.17500,67.4375,129,60,0.75995
3014610,0.29000,66.9375,129,60,0.76581
3014620,0.72000,65.9375,129,60,0.76777
3014630,1.27000,65.3750,129,60,0.76654
3014640,1.19500,64.8750,129,60,0.76410
3014650,0.47500,64.3125,129,60,0.75995
3014660,-0.03500,63.1875,129,60,0.74945
3014670,-0.11000,62.5625,129,60,0.74188
3014680,0.02000,61.9375,129,60,0.72967
3014690,0.12500,60.8125,129,60,0.71722
3014700,0.14500,60.2500,129,60,0.69206
3014710,0.15000,59.7500,129,60,0.68010
3014720,0.16500,59.2500,129,60,0.66716
3014730,0.18500,58.6875,129,60,0.65372
3014740,0.20500,57.6875,129,60,0.62711
3014750,0.22000,57.2500,129,60,0.61416
3014760,0.22500,56.9375,129,60,0.60147
3014770,0.23500,56.8750,129,60,0.58926
3014780,0.24500,59.5625,129,60,0.56508
3014790,0.26500,63.8125,129,60,0.55311
3014800,0.28000,70.5000,129,60,0.54139
3014810,0.29000,88.5625,129,60,0.52210
3014820,0.29500,97.9375,129,60,0.51209
3014830,0.30500,106.4375,129,60,0.50159
3014840,0.31500,113.5625,129,60,0.49084
3014850,0.33000,119.1875,129,60,0.48034
3014860,0.35000,125.5625,129,60,0.46032
3014870,0.35500,126.6875,129,60,0.45031
3014880,0.36000,126.8125,129,60,0.44029
3014890,0.36500,126.1250,129,60,0.43053
3014900,0.36500,123.2500,129,60,0.41319
3014910,0.37000,121.3750,129,60,0.40610
3014920,0.37500,119.3125,129,60,0.39805
3014930,0.38000,117.1875,129,60,0.38950
3014940,0.39000,112.8125,129,60,0.37216
3014950,0.38000,110.6250,129,60,0.36386
3014960,0.35500,108.5000,129,60,0.35556
3014970,0.32500,106.3750,129,60,0.34725
3014980,0.29500,102.3125,129,60,0.33089
3014990,0.26500,100.3125,129,60,0.32259
3015000,0.23500,98.1875,128,60,0.31429
3015010,0.22500,95.9375,128,60,0.30769
3015020,0.21000,90.7500,128,60,0.29524
3015030,0.20000,87.8125,128,60,0.28791
3015040,0.20000,84.9375,128,60,0.28059
3015050,0.21500,82.2500,128,60,0.27473
3015060,0.23500,78.1250,128,60,0.27204
3015070,0.26000,76.7500,128,60,0.27717
3015080,0.28000,75.6875,128,60,0.28767
3015090,0.30000,75.0000,128,60,0.30403
3015100,0.31000,74.0625,128,60,0.34921
3015110,0.30500,73.8125,128,60,0.37411
3015120,0.28500,73.6250,128,60,0.40464
3015130,0.22000,73.3750,128,60,0.43834
3015140,0.14000,72.8125,128,60,0.50940
3015150,0.07000,72.5000,128,60,0.54432
3015160,0.03000,72.0625,128,60,0.57778
3015170,0.01000,71.6250,128,60,0.60879
3015180,0.01000,70.5625,128,60,0.66154
3015190,0.01000,70.0000,128,60,0.68254
3015200,0.01000,69.5000,128,60,0.70037
3015210,0.01500,68.9375,128,60,0.71282
3015220,0.02000,67.9375,128,60,0.72967
3015230,-0.00500,67.3750,128,60,0.73602
3015240,-0.01000,66.8750,128,60,0.74066
3015250,0.25500,66.3750,128,60,0.74335
3015260,0.82500,65.4375,128,60,0.74335
3015270,1.07500,64.9375,128,60,0.74066
3015280,0.56000,64.4375,128,60,0.73626
3015290,-0.14500,63.8750,128,60,0.72991
3015300,-0.43500,62.7500,128,60,0.71306
3015310,-0.36000,62.1875,128,60,0.70354
3015320,-0.22000,61.6250,128,60,0.69255
3015330,-0.17000,61.0625,128,60,0.68034
3015340,-0.16500,59.8125,128,60,0.65397
3015350,-0.15000,59.2500,128,60,0.64029
3015360,-0.13000,58.6250,128,60,0.62711
3015370,-0.10500,58.0625,128,60,0.61392
3015380,-0.08500,56.9375,128,60,0.58852
3015390,-0.07500,56.4375,128,60,0.57656
3015400,-0.06000,56.0625,128,60,0.56484
3015410,-0.04000,56.1250,128,60,0.55458
3015420,-0.02500,60.0000,128,60,0.53553
3015430,-0.01500,65.3125,128,60,0.52552
3015440,-0.00500,72.8750,128,60,0.51575
3015450,0.01000,82.0000,128,60,0.50598
3015460,0.03000,100.3750,128,60,0.48645
3015470,0.05000,108.1250,128,60,0.47692
3015480,0.07000,114.3750,128,60,0.46740
3015490,0.08000,120.0208,128,60,0.45812
3015500,0.09000,123.7500,128,60,0.44103
3015510,0.10500,124.2500,128,60,0.43394
3015520,0.12000,123.8125,128,60,0.42589
3015530,0.14000,122.7500,128,60,0.41734
3015540,0.17500,119.2500,128,60,0.39976
3015550,0.21500,117.1250,128,60,0.39121
3015560,0.24500,114.8750,128,60,0.38242
3015570,0.26500,112.6250,128,60,0.37387
3015580,0.27000,108.1875,128,60,0.35726
3015590,0.25000,106.0000,128,60,0.34896
3015600,0.21500,103.8750,128,60,0.34066
3015610,0.17500,101.8125,128,60,0.33431
3015620,0.14500,97.6875,128,60,0.32234
3015630,0.12500,95.5625,128,60,0.31502
3015640,0.11000,93.3125,128,60,0.30720
3015650,0.10500,90.8125,128,60,0.29915
3015660,0.10000,85.3750,128,60,0.28278
3015670,0.09500,82.5625,128,60,0.27521
3015680,0.12000,80.0625,128,60,0.26886
3015690,0.15000,77.8750,128,60,0.26447
3015700,0.17500,74.9375,128,60,0.26593
3015710,0.20000,74.0625,128,60,0.27253
3015720,0.24500,73.5000,128,60,0.28425
3015730,0.25000,73.0625,128,60,0.30134
3015740,0.22000,72.6250,128,60,0.35018
3015750,0.15500,72.5000,128,60,0.38046
3015760,0.10500,72.3125,128,60,0.41294
3015770,0.05000,72.0625,128,60,0.44664
3015780,0.00000,71.3750,128,60,0.51429
3015790,-0.02500,70.9375,128,60,0.54652
3015800,-0.03000,70.4375,128,60,0.57680
3015810,-0.04000,69.9375,128,60,0.60098
3015820,-0.04500,68.9375,128,60,0.64078
3015830,-0.04500,68.4375,128,60,0.65885
3015840,-0.04500,68.0000,128,60,0.67424
3015850,-0.06500,67.5000,128,60,0.68694
3015860,-0.07500,66.5625,128,60,0.70403
3015870,0.12000,66.1250,128,60,0.70891
3015880,0.62000,65.6875,128,60,0.71160
3015890,0.98000,65.1875,128,60,0.71233
3015900,0.62500,64.2500,128,60,0.70818
3015910,-0.06000,63.7500,128,60,0.70061
3015920,-0.41500,63.1250,128,60,0.69402
3015930,-0.43500,62.5000,128,60,0.68596
3015940,-0.28000,61.2500,128,60,0.66032
3015950,-0.21000,60.6875,128,60,0.64860
3015960,-0.18500,60.0625,128,60,0.63614
3015970,-0.16500,59.5000,128,60,0.62320
3015980,-0.14500,58.3750,128,60,0.59731
3015990,-0.12500,57.8125,128,60,0.58437
3016000,-0.11000,57.3125,127,59,0.57314
3016010,-0.09500,56.7500,127,59,0.56288
3016020,-0.07500,56.0000,127,59,0.54066
3016030,-0.04500,56.1250,127,59,0.52967
3016040,-0.01500,57.1250,127,59,0.51893
3016050,-0.00500,59.6875,127,59,0.50891
3016060,-0.00500,71.3125,127,59,0.48938
3016070,-0.00500,79.6250,127,59,0.47961
3016080,0.00000,88.3125,127,59,0.47033
3016090,0.01500,104.0000,127,59,0.45763
3016100,0.03000,110.0625,127,59,0.43492
3016110,0.04000,114.6875,127,59,0.42564
3016120,0.06000,117.8125,127,59,0.41685
3016130,0.08000,119.5625,127,59,0.40830
3016140,0.10000,119.7500,127,59,0.39170
3016150,0.12000,118.6250,127,59,0.38339
3016160,0.14500,116.9375,127,59,0.37534
3016170,0.16500,114.9375,127,59,0.36752
3016180,0.18000,110.1875,127,59,0.35238
3016190,0.19000,107.7500,127,59,0.34652
3016200,0.18500,105.2500,127,59,0.34139
3016210,0.16500,102.8125,127,59,0.33504
3016220,0.13000,98.2500,127,59,0.32063
3016230,0.10000,96.0625,127,59,0.31331
3016240,0.07000,94.0000,127,59,0.30574
3016250,0.04500,91.9375,127,59,0.29817
3016260,0.04000,87.4375,127,59,0.28327
3016270,0.03000,84.8750,127,59,0.27595
3016280,0.03000,82.2500,127,59,0.26862
3016290,0.03500,79.5625,127,59,0.26203
3016300,0.04000,75.1250,127,59,0.25543
3016310,0.06500,73.6250,127,59,0.25421
3016320,0.11000,72.5000,127,59,0.25592
3016330,0.13000,71.8125,127,59,0.26178
3016340,0.15000,71.1875,127,59,0.28840
3016350,0.17500,71.0625,127,59,0.30916
3016360,0.17000,71.0000,127,59,0.33407
3016370,0.13000,70.9375,127,59,0.36239
3016380,0.06500,70.6250,127,59,0.42418
3016390,0.00000,70.4375,127,59,0.45177
3016400,-0.05000,70.1250,127,59,0.47692
3016410,-0.09500,69.3125,127,59,0.54212
3016420,-0.10500,68.8125,127,59,0.56581
3016430,-0.11500,68.3125,127,59,0.58681
3016440,-0.11500,67.8125,127,59,0.61368
3016450,-0.11500,67.3125,127,59,0.62784
3016460,-0.11500,66.3750,127,59,0.64786
3016470,-0.10500,65.9375,127,59,0.65421
3016480,-0.11500,65.5000,127,59,0.65836
3016490,-0.10500,65.0625,127,59,0.66007
3016500,0.11500,64.1875,127,59,0.65788
3016510,0.64000,63.7500,127,59,0.65495
3016520,0.95000,63.3750,127,59,0.65177
3016530,0.53500,62.8125,127,59,0.64420
3016540,-0.09000,61.8125,127,59,0.62808
3016550,-0.39500,61.3125,127,59,0.61832
3016560,-0.41500,60.8125,127,59,0.60757
3016570,-0.29000,60.2500,127,59,0.59609
3016580,-0.20500,59.2500,127,59,0.57338
3016590,-0.19500,58.7500,127,59,0.56337
3016600,-0.18500,58.2500,127,59,0.55263
3016610,-0.18000,57.8125,127,59,0.54188
3016620,-0.18000,56.8750,127,59,0.52112
3016630,-0.18500,56.4375,127,59,0.51111
3016640,-0.18500,56.0625,127,59,0.50134
3016650,-0.17000,55.7500,127,59,0.49206
3016660,-0.15500,56.6250,127,59,0.47399
3016670,-0.14000,58.7500,127,59,0.46569
3016680,-0.13000,63.0000,127,59,0.45739
3016690,-0.13000,69.4375,127,59,0.45031
3016700,-0.12500,86.1875,127,59,0.43687
3016710,-0.10500,94.6875,127,59,0.42955
3016720,-0.08500,102.3750,127,59,0.42198
3016730,-0.06500,108.8750,127,59,0.41416
3016740,-0.04000,117.6875,127,59,0.39927
3016750,-0.01500,120.0000,127,59,0.39219
3016760,-0.00500,121.0625,127,59,0.38510
3016770,0.01000,121.1875,127,59,0.37802
3016780,0.02500,119.1875,127,59,0.36532
3016790,0.04000,117.4375,127,59,0.36044
3016800,0.05500,115.4375,127,59,0.35482
3016810,0.06500,113.2500,127,59,0.34872
3016820,0.07000,108.6875,127,59,0.33553
3016830,0.06000,106.3750,127,59,0.32894
3016840,0.04000,104.1250,127,59,0.32210
3016850,0.00500,101.9375,127,59,0.31526
3016860,-0.02500,97.7500,127,59,0.30208
3016870,-0.06000,95.7500,127,59,0.29573
3016880,-0.09000,93.6875,127,59,0.28913
3016890,-0.11000,91.5000,127,59,0.28425
3016900,-0.11000,86.5625,127,59,0.27473
3016910,-0.10500,83.8125,127,59,0.26935
3016920,-0.09500,81.0625,127,59,0.26374
3016930,-0.08500,78.6250,127,59,0.26325
3016940,-0.05500,74.9375,127,59,0.27937
3016950,-0.01000,73.7500,127,59,0.29499
3016960,0.02500,72.8750,127,59,0.31551
3016970,0.05000,72.2500,127,59,0.34066
3016980,0.09000,71.6250,127,59,0.39048
3016990,0.10000,71.3750,127,59,0.41978
3017000,0.08000,71.2500,127,59,0.45104
3017010,0.03000,71.0625,127,59,0.48254
3017020,-0.02500,70.5000,127,59,0.54237
3017030,-0.08000,70.1250,127,59,0.56947
3017040,-0.12000,69.6875,127,59,0.59389
3017050,-0.14000,69.2500,127,59,0.61587
3017060,-0.14500,68.2500,127,59,0.65128
3017070,-0.14500,67.7500,127,59,0.66447
3017080,-0.13500,67.3125,127,59,0.67350
3017090,-0.12500,66.8750,127,59,0.67937
3017100,-0.11500,66.0625,127,59,0.68816
3017110,-0.11500,65.6875,127,59,0.69011
3017120,-0.12500,65.2500,127,59,0.69011
3017130,0.03500,64.8125,127,59,0.68864
3017140,0.50500,63.9375,127,59,0.67985
3017150,0.95000,63.4375,127,59,0.67302
3017160,0.74500,63.0000,127,59,0.66471
3017170,0.10000,62.5000,127,59,0.65519
3017180,-0.30000,61.4375,127,59,0.63516
3017190,-0.37500,60.9375,127,59,0.62393
3017200,-0.26000,60.4375,127,59,0.61197
3017210,-0.16000,59.8750,127,59,0.59976
3017220,-0.13500,58.9375,127,59,0.57509
3017230,-0.13500,58.5000,127,59,0.56313
3017240,-0.11500,58.0000,127,59,0.55140
3017250,-0.10000,57.5625,127,59,0.54017
3017260,-0.09500,56.7500,127,59,0.51893
3017270,-0.09500,56.3750,127,59,0.50891
3017280,-0.08500,56.1875,127,59,0.50012
3017290,-0.07333,56.3021,127,59,0.49178
3017300,-0.06500,57.2500,127,59,0.48327
3017310,-0.06500,59.5625,127,59,0.47399
3017320,-0.05500,64.0000,127,59,0.46471
3017330,-0.04500,70.6875,127,59,0.45568
3017340,-0.04000,87.6875,127,59,0.43810
3017350,-0.02500,96.0625,127,59,0.42955
3017360,-0.02000,103.6875,127,59,0.42100
3017370,-0.00500,110.1250,127,59,0.41270
3017380,0.01000,118.8750,127,59,0.39829
3017390,0.02500,121.2500,127,59,0.39267
3017400,0.03000,122.4375,127,59,0.38608
3017410,0.03000,122.6875,127,59,0.37900
3017420,0.03000,121.2500,127,59,0.36410
3017430,0.04500,119.8125,127,59,0.35678
3017440,0.05500,118.0000,127,59,0.34945
3017450,0.06500,116.0000,127,59,0.34237
3017460,0.06000,111.7500,127,59,0.32869
3017470,0.04500,109.5625,127,59,0.32161
3017480,0.01000,107.4375,127,59,0.31502
3017490,-0.01500,105.3750,127,59,0.31013
3017500,-0.06000,101.4375,127,59,0.30037
3017510,-0.09000,99.5000,127,59,0.29451
3017520,-0.11000,97.5625,127,59,0.28816
3017530,-0.12000,95.5625,127,59,0.28181
3017540,-0.12500,90.8125,127,59,0.27033
3017550,-0.12500,88.1250,127,59,0.26667
3017560,-0.12500,85.2500,127,59,0.26545
3017570,-0.11000,82.5000,127,59,0.26789
3017580,-0.07500,78.0000,127,59,0.28449
3017590,-0.04500,76.5000,127,59,0.29792
3017600,-0.02500,75.3750,127,59,0.31673
3017610,0.01000,74.5625,127,59,0.34042
3017620,0.03000,73.6250,127,59,0.39878
3017630,0.01000,73.3125,127,59,0.43126
3017640,-0.03000,73.0625,127,59,0.46447
3017650,-0.08500,72.8125,127,59,0.49744
3017660,-0.14500,72.2500,127,59,0.57411
3017670,-0.19500,71.9375,127,59,0.60122
3017680,-0.22000,71.5625,127,59,0.63443
3017690,-0.23000,71.1250,127,59,0.65079
3017700,-0.23000,70.1875,127,59,0.68107
3017710,-0.23000,69.6875,127,59,0.69304
3017720,-0.23500,69.1875,127,59,0.70281
3017730,-0.23000,68.6875,127,59,0.71038
3017740,-0.22500,67.7500,127,59,0.71868
3017750,-0.24500,67.3125,127,59,0.71990
3017760,-0.16500,66.8750,127,59,0.71917
3017770,0.19000,66.3750,127,59,0.71697
3017780,0.71500,65.3125,127,59,0.70745
3017790,0.74000,64.7500,127,59,0.70061
3017800,0.15000,64.1875,127,59,0.69255
3017810,-0.35000,63.6250,127,59,0.68303
3017820,-0.52000,62.4375,127,59,0.66105
3017830,-0.45000,61.8750,127,59,0.64908
3017840,-0.33500,61.3125,127,59,0.63663
3017850,-0.28500,60.7500,127,59,0.62418
3017860,-0.27500,59.6250,127,59,0.59927
3017870,-0.26000,59.1250,127,59,0.58803
3017880,-0.24000,58.6250,127,59,0.57802
3017890,-0.22000,58.0625,127,59,0.56752
3017900,-0.20500,57.1250,127,59,0.54701
3017910,-0.18000,56.7500,127,59,0.53651
3017920,-0.15500,56.5000,127,59,0.52625
3017930,-0.14000,56.6250,127,59,0.51600
3017940,-0.13500,59.9375,127,59,0.49621
3017950,-0.11500,64.4375,127,59,0.48694
3017960,-0.09500,71.0000,127,59,0.47790
3017970,-0.07500,79.0000,127,59,0.46911
3017980,-0.05500,95.8125,127,59,0.45519
3017990,-0.03500,103.3125,127,59,0.44762
3018000,-0.01000,109.6875,127,59,0.43956
3018010,0.01500,114.7500,127,59,0.43150
3018020,0.03000,120.7500,127,59,0.41587
3018030,0.04000,121.8750,127,59,0.40806
3018040,0.05000,122.0625,127,59,0.40024
3018050,0.06500,121.4375,127,59,0.39243
3018060,0.08000,118.7500,127,59,0.37705
3018070,0.09500,116.9375,127,59,0.37094
3018080,0.10500,114.9375,127,59,0.36581
3018090,0.11000,110.6250,127,59,0.35971
3018100,0.10000,108.4375,127,59,0.34603
3018110,0.08000,106.3125,127,59,0.33895
3018120,0.05000,104.2500,127,59,0.33260
3018130,0.02000,102.2500,127,59,0.32601
3018140,-0.01500,98.4375,127,59,0.31111
3018150,-0.03000,96.5000,127,59,0.30330
3018160,-0.03500,94.4375,127,59,0.29597
3018170,-0.04000,92.2500,127,59,0.28938
3018180,-0.04000,87.1250,127,59,0.28449
3018190,-0.03500,84.3125,127,59,0.28571
3018200,-0.02000,81.6250,127,59,0.29060
3018210,0.02000,79.3125,127,59,0.30012
3018220,0.05000,76.0000,127,59,0.33578
3018230,0.07000,74.9375,127,59,0.36117
3018240,0.09500,74.1250,127,59,0.39048
3018250,0.11500,73.5000,127,59,0.42247
3018260,0.10000,72.6875,127,59,0.48962
3018270,0.05500,72.3125,127,59,0.51893
3018280,-0.00500,72.0625,127,59,0.54554
3018290,-0.07500,71.7500,127,59,0.57411
3018300,-0.12500,71.0625,127,59,0.62833
3018310,-0.15500,70.6875,127,59,0.65226
3018320,-0.17000,70.3125,127,59,0.67326
3018330,-0.18000,69.8750,127,59,0.69109
3018340,-0.18000,69.0000,127,59,0.71844
3018350,-0.18000,68.6250,127,59,0.72796
3018360,-0.17000,68.2500,127,59,0.73480
3018370,-0.15500,67.8750,127,59,0.73944
3018380,-0.16500,67.1875,127,59,0.74042
3018390,-0.11000,66.8125,127,59,0.73919
3018400,0.22500,66.4375,127,59,0.73651
3018410,0.76500,66.0000,127,59,0.73211
3018420,0.83000,65.0625,127,59,0.71770
3018430,0.28000,64.5625,127,59,0.70842
3018440,-0.25500,64.0000,127,59,0.69768
3018450,-0.47000,63.4375,127,59,0.68571
3018460,-0.42000,62.3125,127,59,0.65983
3018470,-0.31000,61.6875,127,59,0.64737
3018480,-0.27000,61.1250,127,59,0.63541
3018490,-0.26000,60.5000,127,59,0.62271
3018500,-0.24500,59.3750,127,59,0.59683
3018510,-0.23000,58.8125,127,59,0.58437
3018520,-0.22000,58.1875,127,59,0.57216
3018530,-0.21500,57.6250,127,59,0.56020
3018540,-0.20000,56.5625,127,59,0.53748
3018550,-0.17000,56.1875,127,59,0.52674
3018560,-0.15000,56.3125,127,59,0.51624
3018570,-0.13500,57.3125,127,59,0.50623
3018580,-0.12500,64.5625,127,59,0.48987
3018590,-0.11500,71.3125,127,59,0.48132
3018600,-0.10000,79.3750,127,59,0.47253
3018610,-0.08500,87.8125,127,59,0.46325
3018620,-0.06500,103.3750,127,59,0.44542
3018630,-0.05000,109.6250,127,59,0.43687
3018640,-0.03500,114.5000,127,59,0.42833
3018650,-0.01500,118.0625,127,59,0.41978
3018660,-0.01000,121.4375,127,59,0.40317
3018670,0.00000,121.6250,127,59,0.39634
3018680,0.01000,121.1250,127,59,0.39048
3018690,0.03000,120.0000,127,59,0.38339
3018700,0.04000,116.7500,127,59,0.36752
3018710,0.06000,114.7500,127,59,0.35946
3018720,0.06500,112.6250,127,59,0.35116
3018730,0.05500,110.5000,127,59,0.34286
3018740,0.02500,106.3125,127,59,0.32698
3018750,0.00000,104.3125,127,59,0.31941
3018760,-0.03500,102.3125,127,59,0.31160
3018770,-0.05500,100.4375,127,59,0.30354
3018780,-0.07000,96.6875,127,59,0.29182
3018790,-0.08000,94.6875,127,59,0.28547
3018800,-0.08500,92.5625,127,59,0.27961
3018810,-0.07500,90.1250,127,59,0.27497
3018820,-0.07000,84.4375,127,59,0.27473
3018830,-0.05500,81.4375,127,59,0.28083
3018840,-0.02000,78.6875,127,59,0.29182
3018850,0.02000,76.3750,127,59,0.30842
3018860,0.04000,73.3750,127,59,0.35629
3018870,0.07000,72.5625,127,59,0.38193
3018880,0.08000,72.0625,127,59,0.40806
3018890,0.06500,71.7500,127,59,0.43883
3018900,0.02500,71.3750,127,59,0.50476
3018910,-0.02500,71.2500,127,59,0.53748
3018920,-0.09500,71.0625,127,59,0.56899
3018930,-0.15000,70.8125,127,59,0.59805
3018940,-0.18000,70.2500,127,59,0.64835
3018950,-0.19500,69.8750,127,59,0.66911
3018960,-0.20000,69.4375,127,59,0.68669
3018970,-0.20000,68.9375,127,59,0.70134
3018980,-0.20000,67.9375,127,59,0.71770
3018990,-0.19000,67.4375,127,59,0.72357
3019000,-0.18000,67.0000,126,59,0.72796
3019010,-0.20000,66.5000,126,59,0.73040
3019020,-0.15500,65.5625,126,59,0.72967
3019030,0.17000,65.0625,126,59,0.72674
3019040,0.73500,64.5625,126,59,0.72210
3019050,0.89000,64.0625,126,59,0.71575
3019060,0.31500,62.9375,126,59,0.69768
3019070,-0.28000,62.4375,126,59,0.68742
3019080,-0.50000,61.8750,126,59,0.67643
3019090,-0.44500,61.3125,126,59,0.66374
3019100,-0.32000,60.2500,126,59,0.63541
3019110,-0.27000,59.7500,126,59,0.62100
3019120,-0.25500,59.2500,126,59,0.60635
3019130,-0.24000,58.7500,126,59,0.59194
3019140,-0.22000,57.6875,126,59,0.56508
3019150,-0.21000,57.1875,126,59,0.55238
3019160,-0.20000,56.7500,126,59,0.53993
3019170,-0.18500,56.3125,126,59,0.52796
3019180,-0.18000,55.7500,126,59,0.50867
3019190,-0.17000,56.0625,126,59,0.49890
3019200,-0.16000,57.4375,126,59,0.48889
3019210,-0.14500,60.7500,126,59,0.47888
3019220,-0.13000,74.2500,126,59,0.45958
3019230,-0.11500,83.2500,126,59,0.45006
3019240,-0.08500,92.3750,126,59,0.44103
3019250,-0.05500,100.8750,126,59,0.43223
3019260,-0.03500,114.5000,126,59,0.41538
3019270,-0.01500,119.1250,126,59,0.40830
3019280,0.00500,122.3125,126,59,0.40220
3019290,0.02000,124.1250,126,59,0.39512
3019300,0.04000,124.6250,126,59,0.37998
3019310,0.05000,123.8125,126,59,0.37216
3019320,0.07000,122.4375,126,59,0.36410
3019330,0.09000,120.8125,126,59,0.35580
3019340,0.11000,116.9375,126,59,0.33919
3019350,0.13000,114.9375,126,59,0.33114
3019360,0.12500,112.8750,126,59,0.32308
3019370,0.11000,110.7500,126,59,0.31526
3019380,0.08500,106.7500,126,59,0.30403
3019390,0.06000,104.8125,126,59,0.29768
3019400,0.04500,102.8750,126,59,0.29035
3019410,0.03000,100.9375,126,59,0.28278
3019420,0.03000,97.0625,126,59,0.26862
3019430,0.03500,94.8750,126,59,0.26276
3019440,0.03000,92.5000,126,59,0.25885
3019450,0.01000,89.8125,126,59,0.25812
3019460,-0.03000,84.0000,126,59,0.27057
3019470,-0.05500,81.3750,126,59,0.28254
3019480,-0.05000,79.1250,126,59,0.29841
3019490,-0.02500,77.3125,126,59,0.32039
3019500,0.02000,74.9375,126,59,0.37875
3019510,0.02500,74.1875,126,59,0.41319
3019520,-0.03500,73.6875,126,59,0.44933
3019530,-0.10000,73.3750,126,59,0.48620
3019540,-0.17500,72.8125,126,59,0.55775
3019550,-0.27500,72.5000,126,59,0.59096
3019560,-0.35500,72.2500,126,59,0.62149
3019570,-0.39000,71.9375,126,59,0.64908
3019580,-0.39500,71.0625,126,59,0.68767
3019590,-0.38000,70.6250,126,59,0.70452
3019600,-0.35000,70.1250,126,59,0.71966
3019610,-0.31000,69.6875,126,59,0.73236
3019620,-0.26500,68.8125,126,59,0.75018
3019630,-0.22000,68.3750,126,59,0.75556
3019640,-0.21500,67.9375,126,59,0.75873
3019650,-0.17000,67.5000,126,59,0.75946
3019660,0.15500,66.8750,126,59,0.75580
3019670,0.77000,66.6250,126,59,0.75140
3019680,0.99000,66.2500,126,59,0.74530
3019690,0.46000,65.8750,126,59,0.73797
3019700,-0.18000,64.8750,126,59,0.71893
3019710,-0.41500,64.2500,126,59,0.70720
3019720,-0.31500,63.6250,126,59,0.69451
3019730,-0.16500,62.9375,126,59,0.68107
3019740,-0.11000,61.5000,126,59,0.65299
3019750,-0.10000,60.7500,126,59,0.63883
3019760,-0.08500,60.0625,126,59,0.62491
3019770,-0.06500,59.3125,126,59,0.61270
3019780,-0.05500,58.0000,126,59,0.58950
3019790,-0.05500,57.3750,126,59,0.57753
3019800,-0.06000,56.8125,126,59,0.56557
3019810,-0.05000,56.3125,126,59,0.55385
3019820,-0.03500,56.4375,126,59,0.53138
3019830,-0.02500,58.0625,126,59,0.52039
3019840,-0.02000,61.7500,126,59,0.50965
3019850,-0.01000,67.8750,126,59,0.49915
3019860,0.00000,85.5000,126,59,0.47863
3019870,0.01000,94.9375,126,59,0.47009
3019880,0.02000,103.7500,126,59,0.46252
3019890,0.03500,111.3750,126,59,0.45421
3019900,0.04000,122.0000,126,59,0.43639
3019910,0.05000,124.9375,126,59,0.42735
3019920,0.05000,126.5000,126,59,0.41856
3019930,0.05500,127.0000,126,59,0.40977
3019940,0.06000,125.6875,126,59,0.39292
3019950,0.07500,124.3125,126,59,0.38462
3019960,0.09000,122.6875,126,59,0.37656
3019970,0.11000,120.8125,126,59,0.36996
3019980,0.12500,116.8750,126,59,0.35726
3019990,0.13000,114.8750,126,59,0.34969
3020000,0.11500,112.8125,125,58,0.34164
3020010,0.09000,110.7500,125,58,0.33382
3020020,0.06000,106.6875,125,58,0.31819
3020030,0.03500,104.6875,125,58,0.31013
3020040,0.01500,102.6875,125,58,0.30208
3020050,0.00000,100.5625,125,58,0.29402
3020060,-0.02000,95.9375,125,58,0.28107
3020070,-0.03500,93.2500,125,58,0.27814
3020080,-0.04500,90.2500,125,58,0.27839
3020090,-0.04500,87.1250,125,58,0.28181
3020100,-0.03500,81.4375,125,58,0.30379
3020110,0.00000,79.1250,125,58,0.32308
3020120,0.02500,77.3750,125,58,0.34823
3020130,0.05000,76.0000,125,58,0.37802
3020140,0.06000,74.4375,125,58,0.44664
3020150,0.06500,74.0625,125,58,0.48352
3020160,0.04000,73.7500,125,58,0.52039
3020170,-0.01000,73.5625,125,58,0.54969
3020180,-0.09000,73.3750,125,58,0.60195
3020190,-0.16000,73.1875,125,58,0.63028
3020200,-0.20000,72.8750,125,58,0.65714
3020210,-0.22000,72.5625,125,58,0.68132
3020220,-0.23000,71.6250,125,58,0.72039
3020230,-0.24000,71.1250,125,58,0.73504
3020240,-0.24500,70.5625,125,58,0.74676
3020250,-0.24000,70.0000,125,58,0.75580
3020260,-0.23000,68.9375,125,58,0.76679
3020270,-0.23000,68.4375,125,58,0.76801
3020280,-0.18000,67.9375,125,58,0.76703
3020290,0.14500,67.4375,125,58,0.76532
3020300,0.79500,66.3750,125,58,0.75775
3020310,1.09000,65.8750,125,58,0.75140
3020320,0.55500,65.3750,125,58,0.74335
3020330,-0.12500,64.8750,125,58,0.73358
3020340,-0.35500,63.7500,125,58,0.70965
3020350,-0.27000,63.1250,125,58,0.69621
3020360,-0.13000,62.5000,125,58,0.68230
3020370,-0.08500,61.8125,125,58,0.66911
3020380,-0.10000,60.5625,125,58,0.64298
3020390,-0.11000,60.0000,125,58,0.62955
3020400,-0.12500,59.3750,125,58,0.61636
3020410,-0.13500,58.8125,125,58,0.60342
3020420,-0.13500,57.6875,125,58,0.57802
3020430,-0.14000,57.1875,125,58,0.56581
3020440,-0.13500,56.7500,125,58,0.55409
3020450,-0.13000,56.5000,125,58,0.54261
3020460,-0.12000,58.3750,125,58,0.51990
3020470,-0.10500,61.8750,125,58,0.51038
3020480,-0.09500,67.8125,125,58,0.50134
3020490,-0.07500,75.7500,125,58,0.49158
3020500,-0.06000,93.9375,125,58,0.47204
3020510,-0.04500,102.4375,125,58,0.46227
3020520,-0.03000,109.8125,125,58,0.45226
3020530,-0.03000,115.8125,125,58,0.44249
3020540,-0.05000,123.3750,125,58,0.42344
3020550,-0.07500,125.0625,125,58,0.41441
3020560,-0.11500,125.6250,125,58,0.40562
3020570,-0.18000,125.2500,125,58,0.39853
3020580,-0.32500,122.5625,125,58,0.38510
3020590,-0.52000,120.6250,125,58,0.37705
3020600,-0.66000,118.4375,125,58,0.36850
3020610,-0.64000,116.1250,125,58,0.35971
3020620,-0.64000,116.1250,125,58,0.35971
3020630,-0.64000,116.1250,125,58,0.35971
3020640,-0.25500,104.2500,125,58,0.31477
3020650,-0.20000,104.2500,125,58,0.31477
3020660,-0.18000,99.9375,125,58,0.29768
3020670,-0.16500,97.8750,125,58,0.29084
3020680,-0.11500,95.8125,125,58,0.28547
3020690,-0.03000,93.5625,125,58,0.27888
3020700,0.08000,88.5000,125,58,0.26789
3020710,0.21500,85.6875,125,58,0.26618
3020720,0.33000,82.8125,125,58,0.26862
3020730,0.40000,80.2500,125,58,0.27619
3020740,0.43000,76.3125,125,58,0.30794
3020750,0.45500,74.9375,125,58,0.33187
3020760,0.47500,74.0000,125,58,0.36020
3020770,0.45500,73.3125,125,58,0.38755
3020780,0.37000,72.5625,125,58,0.44664
3020790,0.24000,72.3125,125,58,0.48034
3020800,0.09000,72.1250,125,58,0.51429
3020810,-0.03500,71.9375,125,58,0.54725
3020820,-0.12500,71.4375,125,58,0.60781
3020830,-0.18000,71.1250,125,58,0.63370
3020840,-0.24500,70.7500,125,58,0.65641
3020850,-0.36000,70.3750,125,58,0.67570
3020860,-0.51500,69.6250,125,58,0.70452
3020870,-0.61500,69.3125,125,58,0.71282
3020880,-0.60500,68.9375,125,58,0.71770
3020890,-0.53500,68.5000,125,58,0.72186
3020900,-0.41500,67.7500,125,58,0.72552
3020910,-0.06500,67.2500,125,58,0.72454
3020920,0.56000,66.8125,125,58,0.72186
3020930,0.85500,66.3125,125,58,0.71746
3020940,0.38500,65.1875,125,58,0.70379
3020950,-0.21000,64.6250,125,58,0.69451
3020960,-0.43000,64.0000,125,58,0.68376
3020970,-0.36500,62.6250,125,58,0.67277
3020980,-0.22000,61.9375,125,58,0.64908
3020990,-0.14000,61.2500,125,58,0.63565
3021000,-0.12500,60.5625,124,58,0.62173
3021010,-0.10500,59.9375,124,58,0.60781
3021020,-0.08500,58.5625,124,58,0.58071
3021030,-0.07000,57.9375,124,58,0.56777
3021040,-0.06500,57.3125,124,58,0.55507
3021050,-0.05500,56.7500,124,58,0.54261
3021060,-0.03500,55.8125,124,58,0.51868
3021070,-0.01500,55.6875,124,58,0.50867
3021080,0.00000,56.0625,124,58,0.49963
3021090,0.01500,57.6875,124,58,0.49011
3021100,0.02000,67.0625,124,58,0.47057
3021110,0.03000,74.8125,124,58,0.46105
3021120,0.04500,83.4375,124,58,0.45153
3021130,0.06500,92.0000,124,58,0.44249
3021140,0.08500,106.8125,124,58,0.42515
3021150,0.11000,112.3125,124,58,0.41636
3021160,0.13000,116.3125,124,58,0.40781
3021170,0.15500,118.9375,124,58,0.40098
3021180,0.17500,120.5000,124,58,0.38730
3021190,0.19500,119.8750,124,58,0.37924
3021200,0.22000,118.6250,124,58,0.37094
3021210,0.23500,116.8125,124,58,0.36239
3021220,0.24500,112.4375,124,58,0.34554
3021230,0.24500,110.0000,124,58,0.33724
3021240,0.23000,107.5000,124,58,0.32894
3021250,0.20500,105.0000,124,58,0.32063
3021260,0.16500,100.0625,124,58,0.30379
3021270,0.13000,97.6875,124,58,0.29719
3021280,0.09500,95.3750,124,58,0.29158
3021290,0.07000,93.1250,124,58,0.28449
3021300,0.06000,88.4375,124,58,0.26886
3021310,0.05500,85.9375,124,58,0.26154
3021320,0.05000,83.1875,124,58,0.25543
3021330,0.05500,80.4375,124,58,0.25128
3021340,0.07000,75.3125,124,58,0.25299
3021350,0.11000,73.3750,124,58,0.26056
3021360,0.13500,71.9375,124,58,0.27350
3021370,0.15500,70.9375,124,58,0.28889
3021380,0.19000,69.9375,124,58,0.33114
3021390,0.21000,69.6875,124,58,0.35897
3021400,0.19000,69.5625,124,58,0.38926
3021410,0.14000,69.5000,124,58,0.42100
3021420,0.08000,69.4375,124,58,0.48449
3021430,0.02000,69.3750,124,58,0.51453
3021440,-0.02500,69.2500,124,58,0.54237
3021450,-0.05500,69.0625,124,58,0.56752
3021460,-0.07000,68.4375,124,58,0.60928
3021470,-0.07500,68.0625,124,58,0.62344
3021480,-0.08000,67.6875,124,58,0.63394
3021490,-0.07500,67.3125,124,58,0.64347
3021500,-0.07000,66.5625,124,58,0.65641
3021510,-0.07500,66.1875,124,58,0.65958
3021520,-0.09500,65.8125,124,58,0.66081
3021530,0.01000,65.3750,124,58,0.66007
3021540,0.42000,64.5000,124,58,0.65275
3021550,0.92000,64.0000,124,58,0.64664
3021560,0.80500,63.5000,124,58,0.63907
3021570,0.16500,62.9375,124,58,0.63101
3021580,-0.29000,61.8750,124,58,0.61172
3021590,-0.42500,61.3125,124,58,0.60000
3021600,-0.34000,60.7500,124,58,0.58755
3021610,-0.22500,59.6250,124,58,0.57460
3021620,-0.19000,59.0625,124,58,0.54847
3021630,-0.18000,58.5000,124,58,0.53602
3021640,-0.17000,57.9375,124,58,0.52405
3021650,-0.16000,57.4375,124,58,0.51258
3021660,-0.15500,56.4375,124,58,0.49206
3021670,-0.15000,55.9375,124,58,0.48376
3021680,-0.13500,55.5000,124,58,0.47448
3021690,-0.11000,55.1875,124,58,0.46520
3021700,-0.09000,55.5625,124,58,0.44737
3021710,-0.08500,57.1875,124,58,0.43883
3021720,-0.08500,60.8125,124,58,0.43053
3021730,-0.07500,66.6875,124,58,0.42247
3021740,-0.05500,82.9375,124,58,0.40635
3021750,-0.01500,91.5000,124,58,0.39878
3021760,0.01000,99.5000,124,58,0.39121
3021770,0.02000,106.4375,124,58,0.38486
3021780,0.03500,116.5000,124,58,0.37289
3021790,0.05000,119.5000,124,58,0.36606
3021800,0.07000,121.1875,124,58,0.35897
3021810,0.08500,121.8125,124,58,0.35189
3021820,0.10000,120.4375,124,58,0.33797
3021830,0.12000,118.8750,124,58,0.33089
3021840,0.13000,116.8750,124,58,0.32405
3021850,0.13000,114.6875,124,58,0.31722
3021860,0.14000,109.8125,124,58,0.30549
3021870,0.13000,107.3125,124,58,0.30110
3021880,0.10000,104.8750,124,58,0.29548
3021890,0.06500,102.4375,124,58,0.28938
3021900,0.03000,97.8125,124,58,0.27595
3021910,0.00000,95.6250,124,58,0.26862
3021920,-0.01500,93.3750,124,58,0.26129
3021930,-0.02000,91.1250,124,58,0.25397
3021940,-0.01500,86.0625,124,58,0.24200
3021950,-0.01500,83.3125,124,58,0.23907
3021960,-0.01500,80.5000,124,58,0.23907
3021970,-0.00500,77.8125,124,58,0.24274
3021980,0.02500,73.7500,124,58,0.26252
3021990,0.05500,72.5000,124,58,0.27985
3022000,0.07500,71.7500,124,58,0.30232
3022010,0.10000,71.2500,124,58,0.32918
3022020,0.12000,70.8125,124,58,0.39219
3022030,0.10500,70.6875,124,58,0.42637
3022040,0.06500,70.6250,124,58,0.46081
3022050,0.00500,70.5000,124,58,0.49451
3022060,-0.05500,70.1875,124,58,0.55336
3022070,-0.10500,69.9375,124,58,0.57607
3022080,-0.13500,69.6250,124,58,0.59902
3022090,-0.15500,69.3125,124,58,0.62027
3022100,-0.16000,68.5625,124,58,0.65470
3022110,-0.16000,68.1875,124,58,0.66789
3022120,-0.16000,67.7500,124,58,0.67814
3022130,-0.15500,67.3125,124,58,0.68571
3022140,-0.15500,66.4375,124,58,0.69353
3022150,-0.17000,66.0000,124,58,0.69426
3022160,-0.12500,65.5625,124,58,0.69304
3022170,0.18500,65.1250,124,58,0.68987
3022180,0.73500,64.1250,124,58,0.67863
3022190,0.87000,63.6250,124,58,0.67082
3022200,0.34500,63.1250,124,58,0.66154
3022210,-0.23000,62.5625,124,58,0.65104
3022220,-0.47500,61.4375,124,58,0.61954
3022230,-0.43500,60.8750,124,58,0.60488
3022240,-0.31000,60.3125,124,58,0.59121
3022250,-0.24000,59.7500,124,58,0.57802
3022260,-0.22500,58.6875,124,58,0.55482
3022270,-0.21000,58.1250,124,58,0.54530
3022280,-0.20000,57.6250,124,58,0.53504
3022290,-0.19500,57.0625,124,58,0.52479
3022300,-0.19000,56.0625,124,58,0.50525
3022310,-0.17500,55.6250,124,58,0.49597
3022320,-0.16000,55.3125,124,58,0.48694
3022330,-0.14500,55.3750,124,58,0.47814
3022340,-0.13500,58.6250,124,58,0.46129
3022350,-0.12000,63.1875,124,58,0.45324
3022360,-0.10500,69.8750,124,58,0.44542
3022370,-0.08500,78.1875,124,58,0.43883
3022380,-0.06500,95.6250,124,58,0.42637
3022390,-0.04000,103.5000,124,58,0.41929
3022400,-0.01500,110.2500,124,58,0.41197
3022410,0.00000,115.6875,124,58,0.40488
3022420,0.02000,122.6250,124,58,0.39096
3022430,0.04000,124.1875,124,58,0.38437
3022440,0.05000,124.7500,124,58,0.37778
3022450,0.06000,124.5000,124,58,0.37118
3022460,0.07500,122.1250,124,58,0.35922
3022470,0.09000,120.3125,124,58,0.35433
3022480,0.10000,118.2500,124,58,0.34872
3022490,0.11000,116.0000,124,58,0.34237
3022500,0.11000,111.3750,124,58,0.32894
3022510,0.09000,109.0625,124,58,0.32234
3022520,0.06000,106.7500,124,58,0.31551
3022530,0.03000,104.5625,124,58,0.30867
3022540,0.00000,100.3125,124,58,0.29524
3022550,-0.02000,98.2500,124,58,0.28864
3022560,-0.02500,96.1250,124,58,0.28230
3022570,-0.02500,93.8750,124,58,0.27790
3022580,-0.02500,88.6250,124,58,0.27326
3022590,-0.01500,85.7500,124,58,0.27375
3022600,0.00000,82.8125,124,58,0.27790
3022610,0.03000,80.1250,124,58,0.28669
3022620,0.06000,76.1875,124,58,0.31941
3022630,0.07500,74.9375,124,58,0.34286
3022640,0.10000,74.0000,124,58,0.37021
3022650,0.12500,73.3750,124,58,0.40049
3022660,0.12000,72.5625,124,58,0.46129
3022670,0.08000,72.2500,124,58,0.48816
3022680,0.02000,72.0000,124,58,0.51770
3022690,-0.03500,71.7500,124,58,0.54750
3022700,-0.08500,71.1875,124,58,0.60342
3022710,-0.12500,70.8750,124,58,0.62808
3022720,-0.14500,70.5000,124,58,0.64982
3022730,-0.15000,70.1250,124,58,0.66862
3022740,-0.15500,69.3125,124,58,0.69695
3022750,-0.16000,68.9375,124,58,0.70672
3022760,-0.16000,68.5000,124,58,0.71404
3022770,-0.15500,68.1250,124,58,0.71819
3022780,-0.16500,67.3125,124,58,0.72039
3022790,-0.14500,66.8750,124,58,0.71990
3022800,0.10000,66.3750,124,58,0.71795
3022810,0.63000,65.9375,124,58,0.71404
3022820,0.91000,64.8750,124,58,0.70134
3022830,0.46500,64.3750,124,58,0.69304
3022840,-0.16000,63.8750,124,58,0.68352
3022850,-0.46000,63.3125,124,58,0.67277
3022860,-0.46500,62.1250,124,58,0.65031
3022870,-0.34500,61.5000,124,58,0.63932
3022880,-0.26000,60.9375,124,58,0.62735
3022890,-0.24000,60.3125,124,58,0.61490
3022900,-0.22000,59.1875,124,58,0.58999
3022910,-0.21000,58.6250,124,58,0.57802
3022920,-0.20000,58.0625,124,58,0.56630
3022930,-0.19000,57.5000,124,58,0.55507
3022940,-0.18000,56.5000,124,58,0.53333
3022950,-0.16500,56.1875,124,58,0.52308
3022960,-0.15000,56.2500,124,58,0.51306
3022970,-0.14000,57.1875,124,58,0.50452
3022980,-0.12500,64.3750,124,58,0.48816
3022990,-0.11500,71.3125,124,58,0.47961
3023000,-0.09500,79.6875,124,58,0.47082
3023010,-0.07500,88.5625,124,58,0.46227
3023020,-0.05500,105.0625,124,58,0.44542
3023030,-0.03000,111.7500,124,58,0.43712
3023040,-0.01000,117.1875,124,58,0.42906
3023050,0.00500,121.3125,124,58,0.42125
3023060,0.04000,125.6875,124,58,0.40684
3023070,0.08000,126.3125,124,58,0.40122
3023080,0.09000,126.1250,124,58,0.39463
3023090,0.09000,125.3125,124,58,0.38755
3023100,0.09000,122.2500,124,58,0.37314
3023110,0.09000,120.2500,124,58,0.36581
3023120,0.10000,118.0625,124,58,0.35849
3023130,0.09000,115.8125,124,58,0.35092
3023140,0.07500,111.2500,124,58,0.33626
3023150,0.04500,109.0000,124,58,0.32918
3023160,0.01500,106.8125,124,58,0.32210
3023170,-0.01000,104.6875,124,58,0.31673
3023180,-0.02500,100.5625,124,58,0.30574
3023190,-0.03500,98.4375,124,58,0.29939
3023200,-0.03500,96.1875,124,58,0.29328
3023210,-0.03500,93.7500,124,58,0.28816
3023220,-0.02500,88.0000,124,58,0.28498
3023230,-0.01500,84.9375,124,58,0.28938
3023240,0.01000,82.0625,124,58,0.29866
3023250,0.05000,79.5625,124,58,0.31331
3023260,0.07000,75.9375,124,58,0.35385
3023270,0.09500,74.8125,124,58,0.37607
3023280,0.12000,74.0625,124,58,0.40342
3023290,0.10500,73.5000,124,58,0.43419
3023300,0.07000,72.7500,124,58,0.49988
3023310,0.01000,72.5000,124,58,0.53236
3023320,-0.04500,72.1875,124,58,0.56361
3023330,-0.10000,71.9375,124,58,0.59292
3023340,-0.13500,71.3750,124,58,0.64444
3023350,-0.15500,71.0000,124,58,0.66569
3023360,-0.16500,70.6250,124,58,0.68132
3023370,-0.17000,70.2500,124,58,0.69304
3023380,-0.17500,69.5000,124,58,0.71429
3023390,-0.17500,69.1250,124,58,0.72186
3023400,-0.17000,68.7500,124,58,0.72723
3023410,-0.17500,68.3125,124,58,0.73040
3023420,-0.18000,67.3750,124,58,0.73138
3023430,0.01000,66.9375,124,58,0.72943
3023440,0.50000,66.4375,124,58,0.72576
3023450,0.89000,65.9375,124,58,0.72039
3023460,0.61500,64.8125,124,58,0.70525
3023470,-0.05500,64.1875,124,58,0.69621
3023480,-0.45000,63.6250,124,58,0.68596
3023490,-0.49000,63.0625,124,58,0.67448
3023500,-0.37000,61.8125,124,58,0.64908
3023510,-0.27000,61.2500,124,58,0.63590
3023520,-0.24000,60.6250,124,58,0.62271
3023530,-0.23000,60.0625,124,58,0.60977
3023540,-0.21500,58.8750,124,58,0.58413
3023550,-0.21000,58.3125,124,58,0.57192
3023560,-0.20000,57.7500,124,58,0.56142
3023570,-0.19000,57.2500,124,58,0.55189
3023580,-0.16500,56.5625,124,58,0.53138
3023590,-0.14500,56.7500,124,58,0.52112
3023600,-0.13500,57.7500,124,58,0.51111
3023610,-0.12000,60.4375,124,58,0.50110
3023620,-0.10500,72.5000,124,58,0.48181
3023630,-0.08500,81.0000,124,58,0.47253
3023640,-0.06500,89.9375,124,58,0.46349
3023650,-0.04500,98.6875,124,58,0.45470
3023660,-0.02500,113.3125,124,58,0.43907
3023670,-0.01000,118.6875,124,58,0.43272
3023680,0.01000,122.6875,124,58,0.42540
3023690,0.02000,125.4375,124,58,0.41783
3023700,0.02500,127.4375,124,58,0.40269
3023710,0.03000,127.1250,124,58,0.39512
3023720,0.03000,126.1875,124,58,0.38779
3023730,0.03500,124.7500,124,58,0.38022
3023740,0.05000,120.9375,124,58,0.36508
3023750,0.06000,118.7500,124,58,0.35751
3023760,0.06500,116.4375,124,58,0.35140
3023770,0.05000,114.1250,124,58,0.34628
3023780,0.02000,109.5625,124,58,0.33309
3023790,-0.01500,107.4375,124,58,0.32601
3023800,-0.04000,105.3750,124,58,0.31868
3023810,-0.06500,101.3125,124,58,0.30379
3023820,-0.07500,99.2500,124,58,0.29646
3023830,-0.08500,97.0625,124,58,0.28987
3023840,-0.08500,94.6250,124,58,0.28498
3023850,-0.09000,92.0000,124,58,0.28230
3023860,-0.08500,86.0000,124,58,0.28767
3023870,-0.06500,83.0625,124,58,0.29597
3023880,-0.02500,80.4375,124,58,0.30916
3023890,0.01000,78.3125,124,58,0.32747
3023900,0.04000,75.5000,124,58,0.37729
3023910,0.08000,74.6250,124,58,0.40733
3023920,0.09000,74.0000,124,58,0.43932
3023930,0.07500,73.5000,124,58,0.47228
3023940,0.04000,72.8125,124,58,0.53822
3023950,-0.01500,72.5625,124,58,0.56947
3023960,-0.07500,72.3125,124,58,0.59487
3023970,-0.11500,72.0000,124,58,0.61661
3023980,-0.14500,71.3750,124,58,0.66007
3023990,-0.15500,71.0625,124,58,0.67888
3024000,-0.16000,70.6250,124,58,0.69524
3024010,-0.17000,70.2500,124,58,0.70867
3024020,-0.17000,69.4375,124,58,0.72747
3024030,-0.17000,69.0625,124,58,0.73309
3024040,-0.17000,68.6250,124,58,0.73651
3024050,-0.19000,68.2500,124,58,0.73773
3024060,-0.08500,67.3750,124,58,0.73480
3024070,0.33500,66.8750,124,58,0.73089
3024080,0.88000,66.3750,124,58,0.72601
3024090,0.79500,65.3125,124,58,0.71966
3024100,0.11000,64.7500,124,58,0.70256
3024110,-0.40500,64.1875,124,58,0.69206
3024120,-0.52000,63.5625,124,58,0.68059
3024130,-0.39500,63.0000,124,58,0.66838
3024140,-0.26500,61.7500,124,58,0.64274
3024150,-0.23000,61.1250,124,58,0.62955
3024160,-0.21500,60.5000,124,58,0.61758
3024170,-0.20000,59.9375,124,58,0.60635
3024180,-0.18500,58.8125,124,58,0.58266
3024190,-0.18000,58.2500,124,58,0.57094
3024200,-0.18000,57.6875,124,58,0.55922
3024210,-0.17000,57.2500,124,58,0.54799
3024220,-0.15500,57.0000,124,58,0.52601
3024230,-0.14000,57.8125,124,58,0.51502
3024240,-0.12500,60.2500,124,58,0.50452
3024250,-0.11000,64.9375,124,58,0.49475
3024260,-0.09500,80.6250,124,58,0.47497
3024270,-0.07500,89.9375,124,58,0.46422
3024280,-0.04500,99.0000,124,58,0.45421
3024290,-0.02000,107.3125,124,58,0.44469
3024300,0.00000,120.0000,124,58,0.42637
3024310,0.02000,124.1875,124,58,0.41734
3024320,0.03000,126.9375,124,58,0.40879
3024330,0.04500,128.5000,124,58,0.40024
3024340,0.05500,128.6250,124,58,0.38364
3024350,0.06000,127.5625,124,58,0.37558
3024360,0.07000,126.0625,124,58,0.36899
3024370,0.08000,124.2500,124,58,0.36288
3024380,0.09500,120.0000,124,58,0.34774
3024390,0.10000,117.7500,124,58,0.33968
3024400,0.10000,115.5000,124,58,0.33162
3024410,0.07000,113.3125,124,58,0.32357
3024420,0.04000,108.9375,124,58,0.30794
3024430,0.01000,106.8750,124,58,0.30012
3024440,-0.01500,104.8750,124,58,0.29231
3024450,-0.03000,102.8750,124,58,0.28449
3024460,-0.03500,98.7500,124,58,0.27179
3024470,-0.03000,96.4375,124,58,0.26838
3024480,-0.03000,93.8750,124,58,0.26545
3024490,-0.03000,91.0000,124,58,0.26471
3024500,-0.01500,85.1250,124,58,0.27643
3024510,0.01000,82.5000,124,58,0.29035
3024520,0.04500,80.3125,124,58,0.30989
3024530,0.06500,78.6250,124,58,0.33455
3024540,0.09500,76.4375,124,58,0.39658
3024550,0.12000,75.8125,124,58,0.43175
3024560,0.12000,75.3125,124,58,0.46349
3024570,0.09000,74.8750,124,58,0.49353
3024580,0.03000,74.3125,124,58,0.56044
3024590,-0.04500,74.0625,124,58,0.59316
3024600,-0.11000,73.7500,124,58,0.62369
3024610,-0.15000,73.3750,124,58,0.65128
3024620,-0.16500,72.5625,124,58,0.69695
3024630,-0.17000,72.0625,124,58,0.71477
3024640,-0.17500,71.5625,124,58,0.72918
3024650,-0.18000,71.0000,124,58,0.74042
3024660,-0.18000,70.0000,124,58,0.75311
3024670,-0.18000,69.5625,124,58,0.75482
3024680,-0.18000,69.1250,124,58,0.75580
3024690,-0.20000,68.6250,124,58,0.75531
3024700,-0.04500,67.5625,124,58,0.74994
3024710,0.46000,67.0625,124,58,0.74457
3024720,0.97500,66.5625,124,58,0.73773
3024730,0.72000,66.0625,124,58,0.72967
3024740,-0.05500,65.1250,124,58,0.70891
3024750,-0.50000,64.5625,124,58,0.69695
3024760,-0.52500,64.0000,124,58,0.68523
3024770,-0.36500,62.8750,124,58,0.67302
3024780,-0.26000,62.3125,124,58,0.64615
3024790,-0.24500,61.7500,124,58,0.63223
3024800,-0.24000,61.2500,124,58,0.61856
3024810,-0.23000,60.6875,124,58,0.60513
3024820,-0.22000,59.5000,124,58,0.57949
3024830,-0.20000,58.9375,124,58,0.56703
3024840,-0.18500,58.4375,124,58,0.55507
3024850,-0.17000,58.0000,124,58,0.54335
3024860,-0.16000,57.8750,124,58,0.52186
3024870,-0.14500,59.0625,124,58,0.51282
3024880,-0.13500,62.0625,124,58,0.50305
3024890,-0.11500,67.5625,124,58,0.49304
3024900,-0.09500,84.6875,124,58,0.47302
3024910,-0.07500,94.2500,124,58,0.46325
3024920,-0.04500,103.3750,124,58,0.45348
3024930,-0.03000,111.4375,124,58,0.44396
3024940,-0.01000,123.1875,124,58,0.42515
3024950,0.01000,126.7500,124,58,0.41587
3024960,0.02000,128.8750,124,58,0.40830
3024970,0.03500,129.7500,124,58,0.40171
3024980,0.05000,128.8125,124,58,0.38559
3024990,0.06000,127.4375,124,58,0.37729
3025000,0.06000,125.7500,123,58,0.36874
3025010,0.06500,123.8125,123,58,0.36068
3025020,0.08000,119.5000,123,58,0.34432
3025030,0.08500,117.2500,123,58,0.33626
3025040,0.07500,115.0000,123,58,0.32821
3025050,0.05000,112.8125,123,58,0.32039
3025060,0.02000,108.5625,123,58,0.30647
3025070,-0.00500,106.5000,123,58,0.30110
3025080,-0.03000,104.5000,123,58,0.29451
3025090,-0.05000,102.4375,123,58,0.28694
3025100,-0.06000,98.1250,123,58,0.27253
3025110,-0.06000,95.5625,123,58,0.26716
3025120,-0.05500,92.7500,123,58,0.26422
3025130,-0.05000,89.6875,123,58,0.26471
3025140,-0.03000,83.6250,123,58,0.28107
3025150,0.00500,81.0625,123,58,0.29768
3025160,0.04000,79.0000,123,58,0.31673
3025170,0.07000,77.3750,123,58,0.33895
3025180,0.09500,75.5000,123,58,0.40000
3025190,0.10000,75.0000,123,58,0.43541
3025200,0.09000,74.6250,123,58,0.47253
3025210,0.05000,74.4375,123,58,0.50965
3025220,-0.02000,74.0625,123,58,0.58022
3025230,-0.09000,73.8125,123,58,0.61221
3025240,-0.14500,73.5625,123,58,0.64103
3025250,-0.16500,73.2500,123,58,0.66691
3025260,-0.17000,72.4375,123,58,0.70134
3025270,-0.18000,71.9375,123,58,0.71600
3025280,-0.18000,71.4375,123,58,0.72869
3025290,-0.18000,70.8750,123,58,0.73895
3025300,-0.17000,69.8125,123,58,0.75189
3025310,-0.16500,69.2500,123,58,0.75531
3025320,-0.18500,68.7500,123,58,0.75653
3025330,-0.14500,68.2500,123,58,0.75580
3025340,0.19000,67.2500,123,58,0.74945
3025350,0.79000,66.7500,123,58,0.74383
3025360,0.94000,66.2500,123,58,0.73700
3025370,0.12500,65.3125,123,58,0.71917
3025380,-0.37000,64.6875,123,58,0.70794
3025390,-0.55500,64.1250,123,58,0.69548
3025400,-0.43500,63.5000,123,58,0.68205
3025410,-0.29000,62.8750,123,58,0.66789
3025420,-0.24500,61.6250,123,58,0.63858
3025430,-0.24000,61.0000,123,58,0.62393
3025440,-0.22500,60.3750,123,58,0.61001
3025450,-0.21000,59.8125,123,58,0.59658
3025460,-0.19000,58.6250,123,58,0.57363
3025470,-0.18000,58.0625,123,58,0.56215
3025480,-0.17000,57.5625,123,58,0.55043
3025490,-0.15500,57.1875,123,58,0.53895
3025500,-0.13500,57.5625,123,58,0.51600
3025510,-0.11500,59.5000,123,58,0.50476
3025520,-0.10000,63.5625,123,58,0.49377
3025530,-0.08500,70.0000,123,58,0.48303
3025540,-0.06500,87.3750,123,58,0.46227
3025550,-0.05500,96.4375,123,58,0.45226
3025560,-0.02000,104.8125,123,58,0.44371
3025570,0.01500,111.9375,123,58,0.43590
3025580,0.01500,121.8125,123,58,0.41832
3025590,0.01000,124.5000,123,58,0.40904
3025600,0.01000,125.9375,123,58,0.39976
3025610,0.03000,126.2500,123,58,0.39048
3025620,0.05000,124.6875,123,58,0.37314
3025630,0.07000,123.1875,123,58,0.36459
3025640,0.08500,121.3125,123,58,0.35653
3025650,0.09000,119.1875,123,58,0.34823
3025660,0.10000,114.6250,123,58,0.33553
3025670,0.09500,112.3125,123,58,0.32821
3025680,0.08000,110.0000,123,58,0.32039
3025690,0.05500,107.7500,123,58,0.31209
3025700,0.02500,103.3125,123,58,0.29548
3025710,0.00000,101.1250,123,58,0.28718
3025720,-0.01500,99.0625,123,58,0.27888
3025730,-0.03000,96.8750,123,58,0.27082
3025740,-0.04000,93.1250,123,58,0.26060
3025750,-0.04000,89.1250,123,58,0.25275
3025760,-0.03000,86.1875,123,58,0.25177
3025770,-0.00500,83.1875,123,58,0.25421
3025780,0.02500,78.1250,123,58,0.27082
3025790,0.04000,76.3125,123,58,0.28718
3025800,0.07500,74.9375,123,58,0.30867
3025810,0.11000,74.0000,123,58,0.33504
3025820,0.12000,73.0000,123,58,0.39829
3025830,0.09000,72.7500,123,58,0.43321
3025840,0.03000,72.6250,123,58,0.46838
3025850,-0.03000,72.5000,123,58,0.50305
3025860,-0.08500,72.2500,123,58,0.55751
3025870,-0.12500,72.0625,123,58,0.58413
3025880,-0.14500,71.7500,123,58,0.60952
3025890,-0.14500,71.4375,123,58,0.63248
3025900,-0.15000,70.6250,123,58,0.67009
3025910,-0.14500,70.1875,123,58,0.68425
3025920,-0.14500,69.7500,123,58,0.69548
3025930,-0.14500,69.2500,123,58,0.70379
3025940,-0.15500,68.3750,123,58,0.71331
3025950,-0.13500,67.9375,123,58,0.71477
3025960,0.11000,67.4375,123,58,0.71355
3025970,0.66000,66.5000,123,58,0.71038
3025980,0.93500,66.0000,123,58,0.70085
3025990,0.44000,65.4375,123,58,0.69377
3026000,-0.20500,64.8750,123,57,0.68498
3026010,-0.46500,64.2500,123,57,0.67473
3026020,-0.42500,63.0000,123,57,0.65079
3026030,-0.27500,62.3125,123,57,0.63785
3026040,-0.19000,61.6875,123,57,0.62418
3026050,-0.18000,61.0625,123,57,0.61050
3026060,-0.16000,59.8125,123,57,0.58657
3026070,-0.15500,59.1875,123,57,0.57411
3026080,-0.15500,58.5625,123,57,0.56166
3026090,-0.14500,57.9375,123,57,0.54945
3026100,-0.12500,56.8750,123,57,0.52625
3026110,-0.11000,56.4375,123,57,0.51502
3026120,-0.09500,56.2500,123,57,0.50403
3026130,-0.07500,56.6250,123,57,0.49328
3026140,-0.06500,61.3750,123,57,0.47228
3026150,-0.05000,66.8750,123,57,0.46227
3026160,-0.03500,74.2500,123,57,0.45397
3026170,-0.02000,82.6875,123,57,0.44664
3026180,-0.00500,99.0625,123,57,0.42979
3026190,0.00500,105.9375,123,57,0.42125
3026200,0.02000,111.5000,123,57,0.41294
3026210,0.03500,115.6250,123,57,0.40488
3026220,0.06000,119.8125,123,57,0.38877
3026230,0.08000,120.1875,123,57,0.38071
3026240,0.11000,119.6250,123,57,0.37265
3026250,0.13000,118.4375,123,57,0.36435
3026260,0.14500,114.6875,123,57,0.35165
3026270,0.15500,112.3750,123,57,0.34457
3026280,0.15500,109.9375,123,57,0.33700
3026290,0.15500,107.5000,123,57,0.32918
3026300,0.13000,102.5000,123,57,0.31306
3026310,0.10500,100.1250,123,57,0.30525
3026320,0.07000,97.7500,123,57,0.29744
3026330,0.04000,95.5000,123,57,0.28987
3026340,0.01500,90.9375,123,57,0.27448
3026350,0.00500,88.6250,123,57,0.26691
3026360,0.00000,86.1875,123,57,0.26129
3026370,-0.00500,83.5625,123,57,0.25690
3026380,-0.00500,78.4375,123,57,0.24982
3026390,-0.00500,76.1875,123,57,0.25006
3026400,0.01000,74.3750,123,57,0.25421
3026410,0.04000,73.0625,123,57,0.26325
3026420,0.06000,71.3750,123,57,0.29646
3026430,0.09000,70.9375,123,57,0.31990
3026440,0.12000,70.6250,123,57,0.34725
3026450,0.13000,70.3750,123,57,0.37680
3026460,0.08500,70.0625,123,57,0.42979
3026470,0.03500,69.8750,123,57,0.45836
3026480,-0.03000,69.6875,123,57,0.48694
3026490,-0.08500,69.4375,123,57,0.51477
3026500,-0.12500,68.8125,123,57,0.56337
3026510,-0.14000,68.4375,123,57,0.58339
3026520,-0.14000,68.0000,123,57,0.60024
3026530,-0.14000,67.6250,123,57,0.61416
3026540,-0.14000,66.7500,123,57,0.63394
3026550,-0.13500,66.3125,123,57,0.64005
3026560,-0.13000,65.8750,123,57,0.64322
3026570,-0.13500,65.5000,123,57,0.64444
3026580,-0.13500,64.6875,123,57,0.64274
3026590,0.07000,64.2500,123,57,0.63956
3026600,0.59500,63.8750,123,57,0.63492
3026610,0.93500,63.4375,123,57,0.62882
3026620,0.53500,62.5000,123,57,0.61245
3026630,-0.11500,62.0625,123,57,0.60244
3026640,-0.42500,61.5000,123,57,0.59170
3026650,-0.43500,60.9375,123,57,0.58022
3026660,-0.31000,59.8125,123,57,0.55946
3026670,-0.22000,59.2500,123,57,0.54847
3026680,-0.20500,58.6875,123,57,0.53700
3026690,-0.19000,58.1250,123,57,0.52552
3026700,-0.17000,57.0000,123,57,0.50281
3026710,-0.16000,56.4375,123,57,0.49182
3026720,-0.14500,55.9375,123,57,0.48156
3026730,-0.13000,55.4375,123,57,0.47204
3026740,-0.11500,54.6875,123,57,0.45348
3026750,-0.10500,54.7500,123,57,0.44469
3026760,-0.09500,55.6875,123,57,0.43712
3026770,-0.08500,58.1250,123,57,0.43028
3026780,-0.06500,69.6875,123,57,0.41465
3026790,-0.04500,77.9375,123,57,0.40684
3026800,-0.02500,86.5000,123,57,0.39902
3026810,-0.01000,94.8125,123,57,0.39145
3026820,0.00500,108.5625,123,57,0.37631
3026830,0.02500,113.5625,123,57,0.36899
3026840,0.04500,117.1875,123,57,0.36166
3026850,0.06500,119.4375,123,57,0.35458
3026860,0.08500,120.5000,123,57,0.34383
3026870,0.10500,119.7500,123,57,0.33773
3026880,0.12000,118.4375,123,57,0.33114
3026890,0.13000,116.6250,123,57,0.32454
3026900,0.14000,112.1875,123,57,0.31111
3026910,0.14500,109.7500,123,57,0.30403
3026920,0.14000,107.3125,123,57,0.29719
3026930,0.11500,104.9375,123,57,0.29035
3026940,0.08000,100.3125,123,57,0.27692
3026950,0.05000,98.1250,123,57,0.27179
3026960,0.01500,96.0000,123,57,0.26764
3026970,-0.01500,93.9375,123,57,0.26203
3026980,-0.03500,89.6250,123,57,0.24933
3026990,-0.04000,87.2500,123,57,0.24322
3027000,-0.04500,84.6250,123,57,0.23834
3027010,-0.04500,79.1250,123,57,0.23541
3027020,-0.04000,76.6250,123,57,0.23932
3027030,-0.02500,74.5625,123,57,0.24762
3027040,0.00000,73.0000,123,57,0.26105
3027050,0.02000,71.9375,123,57,0.27985
3027060,0.03500,70.6875,123,57,0.32283
3027070,0.07000,70.4375,123,57,0.35018
3027080,0.08500,70.1875,123,57,0.38071
3027090,0.06000,70.0625,123,57,0.41294
3027100,0.00000,69.8125,123,57,0.47741
3027110,-0.06500,69.6250,123,57,0.50794
3027120,-0.11500,69.3750,123,57,0.53651
3027130,-0.15500,69.0625,123,57,0.56264
3027140,-0.18500,68.3125,123,57,0.60659
3027150,-0.17000,67.8750,123,57,0.62198
3027160,-0.12500,67.3750,123,57,0.63370
3027170,-0.11000,66.9375,123,57,0.64469
3027180,-0.14500,66.0000,123,57,0.66129
3027190,-0.17000,65.5625,123,57,0.66667
3027200,-0.16500,65.1875,123,57,0.67009
3027210,-0.16500,64.7500,123,57,0.67131
3027220,-0.06500,63.9375,123,57,0.66789
3027230,0.31000,63.5625,123,57,0.66349
3027240,0.83500,63.1250,123,57,0.65739
3027250,0.81500,62.6875,123,57,0.64933
3027260,0.17500,61.6875,123,57,0.63150
3027270,-0.32000,61.2500,123,57,0.62076
3027280,-0.46500,60.6875,123,57,0.60879
3027290,-0.38000,60.1250,123,57,0.59634
3027300,-0.25500,58.8750,123,57,0.57094
3027310,-0.20000,58.2500,123,57,0.55849
3027320,-0.19000,57.6875,123,57,0.54652
3027330,-0.18500,57.1250,123,57,0.53504
3027340,-0.18000,56.1250,123,57,0.51331
3027350,-0.17500,55.6250,123,57,0.50403
3027360,-0.16500,55.1250,123,57,0.49573
3027370,-0.15000,54.7500,123,57,0.48669
3027380,-0.13500,54.5625,123,57,0.46838
3027390,-0.11500,55.4375,123,57,0.45958
3027400,-0.09500,57.8125,123,57,0.45055
3027410,-0.07500,62.1875,123,57,0.44151
3027420,-0.05000,76.7500,123,57,0.42418
3027430,-0.02000,85.3750,123,57,0.41563
3027440,0.00000,93.7500,123,57,0.40757
3027450,0.01000,101.3750,123,57,0.39951
3027460,0.02500,113.3125,123,57,0.38730
3027470,0.04000,117.2500,123,57,0.38071
3027480,0.05000,119.8125,123,57,0.37387
3027490,0.07000,121.2500,123,57,0.36679
3027500,0.08000,121.2500,123,57,0.35263
3027510,0.09000,120.1875,123,57,0.34579
3027520,0.10000,118.6250,123,57,0.33871
3027530,0.12000,114.6875,123,57,0.32405
3027540,0.13000,112.5000,123,57,0.31673
3027550,0.13500,110.2500,123,57,0.31087
3027560,0.12000,108.0625,123,57,0.30623
3027570,0.09500,105.8750,123,57,0.30037
3027580,0.06000,101.6875,123,57,0.28718
3027590,0.03000,99.6875,123,57,0.28010
3027600,0.00500,97.7500,123,57,0.27302
3027610,-0.00500,95.7500,123,57,0.26569
3027620,-0.01500,91.5000,123,57,0.25201
3027630,-0.01500,89.0625,123,57,0.24689
3027640,-0.00500,86.3750,123,57,0.24371
3027650,-0.00500,83.3750,123,57,0.24347
3027660,0.00000,77.2500,123,57,0.25348
3027670,0.03000,74.6250,123,57,0.26496
3027680,0.06500,72.5625,123,57,0.28156
3027690,0.09500,71.1250,123,57,0.30330
3027700,0.12500,69.6875,123,57,0.35922
3027710,0.15500,69.3750,123,57,0.39121
3027720,0.16000,69.2500,123,57,0.42466
3027730,0.13000,69.1250,123,57,0.45836
3027740,0.07500,69.0000,123,57,0.52357
3027750,0.01500,68.8750,123,57,0.54994
3027760,-0.03500,68.7500,123,57,0.57265
3027770,-0.08000,68.5000,123,57,0.59634
3027780,-0.10500,68.0000,123,57,0.63858
3027790,-0.12000,67.6250,123,57,0.65617
3027800,-0.13000,67.1875,123,57,0.67082
3027810,-0.13500,66.7500,123,57,0.68230
3027820,-0.13500,65.8750,123,57,0.69768
3027830,-0.13500,65.5000,123,57,0.70183
3027840,-0.13500,65.1250,123,57,0.70427
3027850,-0.13500,64.7500,123,57,0.70476
3027860,0.07000,63.8750,123,57,0.70012
3027870,0.58000,63.3750,123,57,0.69573
3027880,0.93000,62.8750,123,57,0.68987
3027890,0.59500,62.3750,123,57,0.68254
3027900,-0.05500,61.3125,123,57,0.66300
3027910,-0.41000,60.8125,123,57,0.65128
3027920,-0.44000,60.1875,123,57,0.63883
3027930,-0.31500,59.5625,123,57,0.62564
3027940,-0.23000,58.3125,123,57,0.59805
3027950,-0.21000,57.7500,123,57,0.58535
3027960,-0.20500,57.1875,123,57,0.57363
3027970,-0.20000,56.6250,123,57,0.56117
3027980,-0.19500,55.5625,123,57,0.53675
3027990,-0.18500,55.0625,123,57,0.52527
3028000,-0.17000,54.6250,124,57,0.51429
3028010,-0.15500,54.2500,124,57,0.50354
3028020,-0.14500,54.6250,124,57,0.48352
3028030,-0.13500,56.3125,124,57,0.47424
3028040,-0.12500,59.8750,124,57,0.46496
3028050,-0.10500,65.6250,124,57,0.45568
3028060,-0.08500,81.8125,124,57,0.44078
3028070,-0.05500,90.3750,124,57,0.43321
3028080,-0.04000,98.3750,124,57,0.42515
3028090,-0.02500,105.4375,124,57,0.41685
3028100,-0.01500,115.8750,124,57,0.40098
3028110,-0.00500,119.1250,124,57,0.39316
3028120,0.00000,121.1250,124,57,0.38584
3028130,0.01000,122.0625,124,57,0.37827
3028140,0.02000,121.5625,124,57,0.36337
3028150,0.03000,120.4375,124,57,0.35726
3028160,0.04000,118.8750,124,57,0.35165
3028170,0.05000,117.0625,124,57,0.34457
3028180,0.06000,112.9375,124,57,0.32918
3028190,0.07000,110.6875,124,57,0.32137
3028200,0.06000,108.5000,124,57,0.31404
3028210,0.05000,106.3125,124,57,0.30672
3028220,0.02000,102.1250,124,57,0.29231
3028230,0.00000,100.1875,124,57,0.28498
3028240,-0.01500,98.2500,124,57,0.27790
3028250,-0.01500,96.3125,124,57,0.27082
3028260,-0.01000,92.1250,124,57,0.26178
3028270,-0.00500,89.6875,124,57,0.25788
3028280,-0.00500,87.0625,124,57,0.25543
3028290,0.00500,84.2500,124,57,0.25617
3028300,0.02000,78.9375,124,57,0.27033
3028310,0.05500,76.8125,124,57,0.28498
3028320,0.09000,75.1250,124,57,0.30501
3028330,0.11500,73.8750,124,57,0.32991
3028340,0.14500,72.1875,124,57,0.39096
3028350,0.17000,71.6875,124,57,0.42027
3028360,0.15000,71.2500,124,57,0.45617
3028370,0.10500,70.8750,124,57,0.49963
3028380,0.04000,70.2500,124,57,0.57411
3028390,-0.01500,69.9375,124,57,0.60684
3028400,-0.06000,69.6250,124,57,0.63663
3028410,-0.09000,68.8125,124,57,0.66300
3028420,-0.10000,68.4375,124,57,0.70647
3028430,-0.10500,68.0000,124,57,0.72332
3028440,-0.10500,67.5625,124,57,0.73724
3028450,-0.09500,67.1875,124,57,0.74823
3028460,-0.07500,66.3750,124,57,0.75897
3028470,-0.05500,65.9375,124,57,0.76239
3028480,-0.06500,65.5000,124,57,0.76435
3028490,-0.01000,65.0000,124,57,0.76459
3028500,0.32000,64.0625,124,57,0.76093
3028510,0.86000,63.5625,124,57,0.75653
3028520,0.93500,63.1250,124,57,0.75018
3028530,0.37000,62.1250,124,57,0.74188
3028540,-0.18500,61.5625,124,57,0.72088
3028550,-0.40000,61.0000,124,57,0.70940
3028560,-0.33500,60.4375,124,57,0.69768
3028570,-0.21000,59.8750,124,57,0.68449
3028580,-0.16000,58.7500,124,57,0.65617
3028590,-0.15500,58.1875,124,57,0.64200
3028600,-0.15500,57.6250,124,57,0.62808
3028610,-0.16500,56.5000,124,57,0.60147
3028620,-0.17500,56.0000,124,57,0.58877
3028630,-0.17000,55.5000,124,57,0.57631
3028640,-0.15500,55.0625,124,57,0.56435
3028650,-0.14000,54.7500,124,57,0.55263
3028660,-0.13500,55.8125,124,57,0.53333
3028670,-0.13500,58.3125,124,57,0.52308
3028680,-0.14500,63.1250,124,57,0.51282
3028690,-0.14500,70.0625,124,57,0.50256
3028700,-0.15000,87.2500,124,57,0.48205
3028710,-0.14500,95.6875,124,57,0.47179
3028720,-0.13500,103.3750,124,57,0.46154
3028730,-0.12500,109.8750,124,57,0.45177
3028740,-0.12000,118.8125,124,57,0.43297
3028750,-0.11000,121.3125,124,57,0.42540
3028760,-0.10000,122.6250,124,57,0.41856
3028770,-0.08500,122.5625,124,57,0.41074
3028780,-0.07500,121.5625,124,57,0.39390
3028790,-0.06500,120.1250,124,57,0.38535
3028800,-0.05000,118.3750,124,57,0.37680
3028810,-0.03500,116.4375,124,57,0.36874
3028820,-0.02500,112.1875,124,57,0.35287
3028830,-0.01500,110.0625,124,57,0.34481
3028840,-0.02500,107.8750,124,57,0.33700
3028850,-0.05000,105.8125,124,57,0.33089
3028860,-0.08000,101.8125,124,57,0.31893
3028870,-0.10500,99.9375,124,57,0.31136
3028880,-0.13000,98.0625,124,57,0.30330
3028890,-0.14500,96.0625,124,57,0.29548
3028900,-0.15500,91.7500,124,57,0.28181
3028910,-0.14500,89.2500,124,57,0.27766
3028920,-0.14500,86.3750,124,57,0.27692
3028930,-0.13500,83.4375,124,57,0.28034
3028940,-0.12000,77.9375,124,57,0.30330
3028950,-0.08500,75.8125,124,57,0.32039
3028960,-0.06500,74.1875,124,57,0.34042
3028970,-0.04500,72.1875,124,57,0.36630
3028980,-0.01000,71.6250,124,57,0.43028
3028990,0.01000,71.1875,124,57,0.46520
3029000,-0.01000,70.8750,125,58,0.50085
3029010,-0.05500,70.6875,125,58,0.53626
3029020,-0.12000,70.1875,125,58,0.60269
3029030,-0.17000,69.9375,125,58,0.63248
3029040,-0.21500,69.6250,125,58,0.65983
3029050,-0.23000,68.8750,125,58,0.68132
3029060,-0.23000,68.4375,125,58,0.71526
3029070,-0.23500,67.9375,125,58,0.73040
3029080,-0.24000,67.5000,125,58,0.74310
3029090,-0.24000,67.0000,125,58,0.75336
3029100,-0.24000,66.1875,125,58,0.76630
3029110,-0.24000,65.7500,125,58,0.76948
3029120,-0.25000,65.3125,125,58,0.77021
3029130,-0.12500,64.8750,125,58,0.76923
3029140,0.34000,63.9375,125,58,0.76190
3029150,0.86500,63.5000,125,58,0.75580
3029160,0.69500,63.0000,125,58,0.74847
3029170,-0.02500,62.5625,125,58,0.73968
3029180,-0.50000,61.5000,125,58,0.71795
3029190,-0.57000,61.0000,125,58,0.70549
3029200,-0.43500,60.3750,125,58,0.69231
3029210,-0.31500,59.8125,125,58,0.67839
3029220,-0.28000,58.6875,125,58,0.65006
3029230,-0.25500,58.1250,125,58,0.63590
3029240,-0.23000,57.6250,125,58,0.62222
3029250,-0.20500,57.0625,125,58,0.61001
3029260,-0.18500,56.0000,125,58,0.58681
3029270,-0.16000,55.5000,125,58,0.57485
3029280,-0.13500,55.1250,125,58,0.56313
3029290,-0.11500,55.0000,125,58,0.55140
3029300,-0.09000,57.0000,125,58,0.52869
3029310,-0.07000,60.6250,125,58,0.51770
3029320,-0.05500,66.5000,125,58,0.50696
3029330,-0.03500,74.3750,125,58,0.49646
3029340,-0.01500,92.2500,125,58,0.47643
3029350,0.00500,100.6875,125,58,0.46813
3029360,0.03000,108.0000,125,58,0.46081
3029370,0.05000,114.0625,125,58,0.45250
3029380,0.07000,121.8125,125,58,0.43468
3029390,0.09000,123.6875,125,58,0.42589
3029400,0.11000,124.5000,125,58,0.41734
3029410,0.12000,124.4375,125,58,0.40904
3029420,0.12500,122.4375,125,58,0.39267
3029430,0.12500,120.8750,125,58,0.38462
3029440,0.12500,119.0625,125,58,0.37631
3029450,0.13500,117.0625,125,58,0.36972
3029460,0.14000,112.8125,125,58,0.35653
3029470,0.13500,110.6250,125,58,0.34896
3029480,0.12000,108.5000,125,58,0.34139
3029490,0.09000,106.3750,125,58,0.33382
3029500,0.06000,102.3125,125,58,0.31819
3029510,0.04000,100.3750,125,58,0.31038
3029520,0.02000,98.5000,125,58,0.30232
3029530,0.01000,96.5000,125,58,0.29451
3029540,0.00000,92.0000,125,58,0.28230
3029550,0.00000,89.3750,125,58,0.28059
3029560,-0.00500,86.5625,125,58,0.28205
3029570,0.00000,83.7500,125,58,0.28669
3029580,0.01500,78.8125,125,58,0.31111
3029590,0.04000,76.9375,125,58,0.33138
3029600,0.06000,75.5625,125,58,0.35702
3029610,0.09000,73.7500,125,58,0.38706
3029620,0.11000,73.1875,125,58,0.45617
3029630,0.12500,72.8125,125,58,0.49255
3029640,0.12000,72.5000,125,58,0.52894
3029650,0.10000,72.2500,125,58,0.55995
3029660,0.04000,71.6875,125,58,0.61709
3029670,-0.03500,71.3750,125,58,0.64591
3029680,-0.09000,71.0000,125,58,0.67277
3029690,-0.11500,70.5625,125,58,0.69695
3029700,-0.13000,69.5625,125,58,0.73651
3029710,-0.14000,69.0000,125,58,0.75140
3029720,-0.14500,68.5000,125,58,0.76313
3029730,-0.13500,67.9375,125,58,0.77216
3029740,-0.13000,66.8750,125,58,0.78291
3029750,-0.12500,66.4375,125,58,0.78413
3029760,-0.14500,65.9375,125,58,0.78339
3029770,-0.11500,65.4375,125,58,0.78193
3029780,0.20500,64.5000,125,58,0.77485
3029790,0.82500,64.0625,125,58,0.76923
3029800,1.03000,63.6250,125,58,0.76190
3029810,0.45500,63.2500,125,58,0.75287
3029820,-0.24500,62.3125,125,58,0.73016
3029830,-0.50000,61.8125,125,58,0.71722
3029840,-0.40000,61.2500,125,58,0.70330
3029850,-0.25000,60.7500,125,58,0.69035
3029860,-0.19500,59.6250,125,58,0.66447
3029870,-0.18000,59.1250,125,58,0.65079
3029880,-0.17000,58.5625,125,58,0.63712
3029890,-0.15500,58.0000,125,58,0.62369
3029900,-0.15500,57.0000,125,58,0.59805
3029910,-0.14500,56.5000,125,58,0.58584
3029920,-0.13500,56.0625,125,58,0.57411
3029930,-0.13000,55.8125,125,58,0.56239
3029940,-0.12500,56.8750,125,58,0.53993
3029950,-0.11500,59.5000,125,58,0.53040
3029960,-0.10000,64.4375,125,58,0.52161
3029970,-0.08000,71.6250,125,58,0.51209
3029980,-0.06000,89.5625,125,58,0.49206
3029990,-0.03500,98.4375,125,58,0.48205
3030000,-0.01500,106.4375,125,58,0.47228
3030010,0.00500,113.1250,125,58,0.46252
3030020,0.03000,122.0625,125,58,0.44347
3030030,0.05000,124.3750,125,58,0.43419
3030040,0.06000,125.4375,125,58,0.42515
3030050,0.07000,125.5000,125,58,0.41758
3030060,0.07500,123.6875,125,58,0.40342
3030070,0.08000,122.1875,125,58,0.39536
3030080,0.08500,120.4375,125,58,0.38706
3030090,0.09000,118.5000,125,58,0.37875
