RelativeTimeMilliseconds,ECG,ART,ART (Sys),ART (Dia),PPG
3299990,-0.14000,84.6250,131,59,0.53553
3300000,-0.14500,84.1875,132,59,0.57558
3300010,-0.14500,83.7500,132,59,0.61319
3300020,-0.15500,82.5625,132,59,0.67668
3300030,-0.18000,81.9375,132,59,0.70208
3300040,-0.22000,81.2500,132,59,0.72308
3300050,-0.24500,80.5625,132,59,0.73993
3300060,-0.24000,79.3125,132,59,0.76093
3300070,-0.23000,78.6875,132,59,0.76581
3300080,-0.19500,78.0625,132,59,0.76996
3300090,-0.14500,76.7500,132,59,0.77411
3300100,-0.11500,76.1875,132,59,0.77387
3300110,-0.08000,75.5625,132,59,0.77216
3300120,-0.05500,74.9375,132,59,0.76899
3300130,-0.05500,74.3125,132,59,0.76459
3300140,-0.06000,73.1250,132,59,0.75116
3300150,0.15500,72.5000,132,59,0.74212
3300160,0.72500,71.9375,132,59,0.73236
3300170,1.17000,70.9375,132,59,0.72161
3300180,0.81500,70.5000,132,59,0.69621
3300190,0.00000,70.0000,132,59,0.68205
3300200,-0.43500,69.5625,132,59,0.66740
3300210,-0.42500,69.1250,132,59,0.65226
3300220,-0.25000,68.1250,132,59,0.62271
3300230,-0.14500,67.6875,132,59,0.60830
3300240,-0.11000,67.2500,132,59,0.59414
3300250,-0.10500,66.8125,132,59,0.58071
3300260,-0.10500,65.8750,132,59,0.55604
3300270,-0.10500,65.3750,132,59,0.54579
3300280,-0.10500,64.8750,132,59,0.53480
3300290,-0.11500,64.4375,132,59,0.52357
3300300,-0.12500,64.0000,132,59,0.50159
3300310,-0.13500,64.6250,132,59,0.49084
3300320,-0.13000,66.7500,132,59,0.48034
3300330,-0.12500,71.2500,132,59,0.47009
3300340,-0.12500,87.3750,132,59,0.44982
3300350,-0.12500,97.6250,132,59,0.44029
3300360,-0.11000,108.1250,132,59,0.43223
3300370,-0.08500,118.0000,132,59,0.42491
3300380,-0.05500,134.0000,132,59,0.40781
3300390,-0.03500,139.6250,132,59,0.39902
3300400,-0.00500,143.6250,132,59,0.39048
3300410,0.00500,146.0625,132,59,0.38217
3300420,0.01000,147.4375,132,59,0.36606
3300430,0.02000,146.8125,132,59,0.35824
3300440,0.03000,145.6250,132,59,0.35092
3300450,0.03000,144.0625,132,59,0.34359
3300460,0.03000,140.1250,132,59,0.33089
3300470,0.03000,138.0625,132,59,0.32601
3300480,0.03500,135.8750,132,59,0.32015
3300490,0.04000,133.7500,132,59,0.31404
3300500,0.03000,129.6875,132,59,0.30159
3300510,0.01000,127.8125,132,59,0.29524
3300520,-0.01000,125.9375,132,59,0.28889
3300530,-0.03000,124.1875,132,59,0.28254
3300540,-0.04500,120.5000,132,59,0.27033
3300550,-0.06500,118.5000,132,59,0.26447
3300560,-0.07500,116.3125,132,59,0.26032
3300570,-0.08000,113.8125,132,59,0.25714
3300580,-0.07500,107.4375,132,59,0.25128
3300590,-0.06500,103.6875,132,59,0.25104
3300600,-0.06500,99.9375,132,59,0.25397
3300610,-0.07500,96.4375,132,59,0.26105
3300620,-0.08000,90.9375,132,59,0.29206
3300630,-0.06500,89.0000,132,59,0.31746
3300640,-0.04500,87.6250,132,59,0.34921
3300650,-0.02500,86.6875,132,59,0.38681
3300660,-0.01500,85.5000,132,59,0.46642
3300670,-0.00500,85.1250,132,59,0.50256
3300680,0.01500,84.8125,132,59,0.54286
3300690,0.01000,84.5000,132,59,0.58315
3300700,-0.01500,83.6250,132,59,0.65568
3300710,-0.06000,83.1250,132,59,0.68571
3300720,-0.11000,82.5625,132,59,0.71111
3300730,-0.15500,81.8750,132,59,0.73211
3300740,-0.17000,80.4375,132,59,0.76117
3300750,-0.17500,79.6875,132,59,0.76337
3300760,-0.17000,78.8750,132,59,0.75800
3300770,-0.17000,78.1250,132,59,0.75482
3300780,-0.16000,76.6250,132,59,0.75263
3300790,-0.15500,75.9375,132,59,0.75140
3300800,-0.14500,75.3125,132,59,0.74921
3300810,-0.16000,74.6875,132,59,0.74579
3300820,-0.13500,73.6250,132,59,0.73553
3300830,0.19000,73.0625,132,59,0.72821
3300840,0.80000,72.5625,132,59,0.71941
3300850,0.98500,72.0625,132,59,0.70916
3300860,0.38000,71.0000,132,59,0.68596
3300870,-0.32000,70.5000,132,59,0.67399
3300880,-0.57500,69.8750,132,59,0.66081
3300890,-0.48500,69.3125,132,59,0.64664
3300900,-0.34000,68.0000,132,59,0.61758
3300910,-0.28500,67.3125,132,59,0.60317
3300920,-0.27000,66.6875,132,59,0.58926
3300930,-0.24000,66.1250,132,59,0.57558
3300940,-0.20000,64.9375,132,59,0.54969
3300950,-0.16000,64.3750,132,59,0.53748
3300960,-0.13000,63.8750,132,59,0.52698
3300970,-0.11500,63.5000,132,59,0.51722
3300980,-0.10500,63.3125,132,59,0.49597
3300990,-0.08500,64.2500,132,59,0.48547
3301000,-0.06500,66.8125,133,61,0.47521
3301010,-0.05000,71.6250,133,61,0.46520
3301020,-0.04000,88.0000,133,61,0.44542
3301030,-0.03500,98.0625,133,61,0.43590
3301040,-0.02500,108.1250,133,61,0.42662
3301050,-0.01500,117.4375,133,61,0.41758
3301060,-0.00500,132.0625,133,61,0.40122
3301070,0.01500,137.0000,133,61,0.39463
3301080,0.04000,140.4375,133,61,0.38730
3301090,0.06000,142.4375,133,61,0.37973
3301100,0.07000,143.0000,133,61,0.36435
3301110,0.08000,142.1250,133,61,0.35678
3301120,0.08500,140.7500,133,61,0.34945
3301130,0.09000,139.0000,133,61,0.34237
3301140,0.09500,134.9375,133,61,0.32821
3301150,0.10000,132.8125,133,61,0.32112
3301160,0.10500,130.6875,133,61,0.31575
3301170,0.09000,126.4375,133,61,0.30549
3301180,0.07000,124.4375,133,61,0.29939
3301190,0.04000,122.4375,133,61,0.29328
3301200,0.01500,120.6250,133,61,0.28718
3301210,-0.00500,118.8125,133,61,0.28107
3301220,-0.00500,115.0625,133,61,0.26911
3301230,-0.00500,112.9375,133,61,0.26300
3301240,0.01000,110.5000,133,61,0.25714
3301250,0.03000,107.6250,133,61,0.25177
3301260,0.05000,100.6875,133,61,0.24664
3301270,0.06500,97.0000,133,61,0.24786
3301280,0.06500,93.5625,133,61,0.25128
3301290,0.05000,90.6250,133,61,0.25836
3301300,0.05000,86.5000,133,61,0.28669
3301310,0.06000,85.2500,133,61,0.30891
3301320,0.07000,84.3958,133,61,0.33020
3301330,0.10000,83.6875,133,61,0.36850
3301340,0.14000,82.8750,133,61,0.44176
3301350,0.15500,82.5000,133,61,0.47985
3301360,0.14000,82.1875,133,61,0.51233
3301370,0.09000,81.8125,133,61,0.54090
3301380,0.02000,80.8750,133,61,0.59878
3301390,-0.03500,80.3125,133,61,0.62393
3301400,-0.07500,79.6875,133,61,0.64542
3301410,-0.09500,79.0625,133,61,0.66300
3301420,-0.10500,77.7500,133,61,0.68742
3301430,-0.11500,77.1250,133,61,0.69524
3301440,-0.12500,76.5000,133,61,0.70037
3301450,-0.12500,75.9375,133,61,0.70330
3301460,-0.12500,74.8750,133,61,0.70354
3301470,-0.13500,74.3750,133,61,0.70110
3301480,-0.12000,73.8750,133,61,0.69792
3301490,0.14000,73.3750,133,61,0.69377
3301500,0.70000,72.3750,133,61,0.68156
3301510,0.98000,71.8125,133,61,0.67350
3301520,0.53000,71.1875,133,61,0.66398
3301530,-0.14500,70.5625,133,61,0.65324
3301540,-0.46500,69.1875,133,61,0.62882
3301550,-0.44500,68.5000,133,61,0.61538
3301560,-0.31000,67.8125,133,61,0.60293
3301570,-0.23500,67.1250,133,61,0.59096
3301580,-0.22000,65.8750,133,61,0.56508
3301590,-0.21000,65.2500,133,61,0.55238
3301600,-0.20000,64.6875,133,61,0.53993
3301610,-0.19500,63.5625,133,61,0.52772
3301620,-0.18500,63.0625,133,61,0.50427
3301630,-0.17500,62.6250,133,61,0.49328
3301640,-0.16000,62.3750,133,61,0.48254
3301650,-0.14000,62.5000,133,61,0.47204
3301660,-0.11500,66.1875,133,61,0.45348
3301670,-0.10500,71.0625,133,61,0.44591
3301680,-0.10000,78.3125,133,61,0.43761
3301690,-0.09500,87.2500,133,61,0.42882
3301700,-0.07500,106.6250,133,61,0.41074
3301710,-0.05500,115.5625,133,61,0.40220
3301720,-0.02500,123.2500,133,61,0.39390
3301730,0.00000,129.4375,133,61,0.38584
3301740,0.03000,137.1875,133,61,0.37045
3301750,0.05000,138.8750,133,61,0.36288
3301760,0.06500,139.4375,133,61,0.35678
3301770,0.07000,139.0625,133,61,0.35140
3301780,0.07000,136.4375,133,61,0.33846
3301790,0.07500,134.5000,133,61,0.33162
3301800,0.08000,132.3750,133,61,0.32479
3301810,0.09000,130.1250,133,61,0.31819
3301820,0.10000,125.5000,133,61,0.30574
3301830,0.10000,123.2500,133,61,0.29963
3301840,0.09000,121.1250,133,61,0.29353
3301850,0.06000,119.0000,133,61,0.28742
3301860,0.03000,115.1875,133,61,0.27937
3301870,0.00000,113.3125,133,61,0.27448
3301880,-0.02500,111.3750,133,61,0.26911
3301890,-0.04500,109.2500,133,61,0.26349
3301900,-0.05000,104.0625,133,61,0.25250
3301910,-0.04500,100.8125,133,61,0.24762
3301920,-0.03500,97.1875,133,61,0.24371
3301930,-0.03000,93.3750,133,61,0.24176
3301940,-0.03000,86.8125,133,61,0.24615
3301950,-0.02500,84.5000,133,61,0.25421
3301960,-0.01500,82.8125,133,61,0.26496
3301970,-0.00500,81.7500,133,61,0.27912
3301980,0.01000,80.6875,133,61,0.32357
3301990,0.03000,80.4375,133,61,0.35287
3302000,0.05500,80.3125,134,61,0.38535
3302010,0.08500,80.1250,134,61,0.41954
3302020,0.11000,79.7500,134,61,0.48864
3302030,0.10000,79.5000,134,61,0.52112
3302040,0.06000,79.0625,134,61,0.55067
3302050,-0.00500,78.6250,134,61,0.57680
3302060,-0.06500,77.5000,134,61,0.61245
3302070,-0.11500,76.8750,134,61,0.62711
3302080,-0.14500,76.1875,134,61,0.63956
3302090,-0.16000,75.5625,134,61,0.64957
3302100,-0.16000,74.1875,134,61,0.66227
3302110,-0.16000,73.5625,134,61,0.66545
3302120,-0.15500,73.0000,134,61,0.66667
3302130,-0.14500,72.4375,134,61,0.66642
3302140,-0.14000,71.5000,134,61,0.66105
3302150,-0.15000,71.0625,134,61,0.65617
3302160,-0.02500,70.6250,134,61,0.65031
3302170,0.42000,70.1875,134,61,0.64322
3302180,0.93500,69.1875,134,61,0.62491
3302190,0.81000,68.6250,134,61,0.61392
3302200,0.14000,68.0625,134,61,0.60220
3302210,-0.35000,66.7500,134,61,0.58974
3302220,-0.47500,66.1250,134,61,0.56386
3302230,-0.37000,65.4375,134,61,0.55116
3302240,-0.24500,64.8125,134,61,0.53871
3302250,-0.20000,64.1875,134,61,0.52650
3302260,-0.18000,63.0000,134,61,0.50647
3302270,-0.17000,62.5000,134,61,0.49646
3302280,-0.17000,62.0000,134,61,0.48645
3302290,-0.16500,61.5625,134,61,0.47643
3302300,-0.16000,60.8125,134,61,0.45739
3302310,-0.15000,60.5625,134,61,0.44811
3302320,-0.13000,60.6875,134,61,0.43907
3302330,-0.11000,61.5625,134,61,0.43004
3302340,-0.08500,64.0833,134,61,0.42125
3302350,-0.07500,68.6875,134,61,0.41270
3302360,-0.06500,75.8125,134,61,0.40440
3302370,-0.05000,84.7500,134,61,0.39756
3302380,-0.03000,104.3750,134,61,0.38510
3302390,-0.00500,113.5000,134,61,0.37827
3302400,0.01500,121.3750,134,61,0.37118
3302410,0.04000,127.8125,134,61,0.36410
3302420,0.05500,136.0625,134,61,0.35018
3302430,0.07000,138.0625,134,61,0.34335
3302440,0.07000,138.8750,134,61,0.33675
3302450,0.07000,138.6875,134,61,0.33040
3302460,0.07000,136.5625,134,61,0.31941
3302470,0.07500,134.8750,134,61,0.31526
3302480,0.08000,132.9375,134,61,0.31038
3302490,0.09000,130.8750,134,61,0.30501
3302500,0.09500,126.4375,134,61,0.29353
3302510,0.09500,124.3125,134,61,0.28791
3302520,0.07500,122.1875,134,61,0.28254
3302530,0.04000,120.2500,134,61,0.27717
3302540,0.00500,116.4375,134,61,0.26642
3302550,-0.02000,114.6250,134,61,0.26105
3302560,-0.04000,112.8125,134,61,0.25568
3302570,-0.04500,110.8750,134,61,0.25201
3302580,-0.04500,106.1875,134,61,0.24518
3302590,-0.03500,103.1875,134,61,0.24103
3302600,-0.02500,99.8125,134,61,0.23785
3302610,-0.02000,96.1250,134,61,0.23590
3302620,-0.02000,89.3125,134,61,0.24005
3302630,-0.01500,86.6875,134,61,0.24737
3302640,-0.01500,84.7500,134,61,0.25910
3302650,-0.00500,82.4375,134,61,0.29744
3302660,0.01000,81.8125,134,61,0.32015
3302670,0.03500,81.3125,134,61,0.34457
3302680,0.06000,81.0000,134,61,0.37485
3302690,0.09500,80.6875,134,61,0.40855
3302700,0.12500,80.0625,134,61,0.47912
3302710,0.12000,79.6250,134,61,0.51331
3302720,0.07500,79.1875,134,61,0.54505
3302730,0.01000,78.6250,134,61,0.57363
3302740,-0.06500,77.4375,134,61,0.62002
3302750,-0.12000,76.8125,134,61,0.63761
3302760,-0.14500,76.1250,134,61,0.65177
3302770,-0.15500,75.4375,134,61,0.66105
3302780,-0.15500,74.1875,134,61,0.67228
3302790,-0.15500,73.5625,134,61,0.67595
3302800,-0.15000,73.0000,134,61,0.67790
3302810,-0.14000,72.4375,134,61,0.67814
3302820,-0.14000,71.5000,134,61,0.67448
3302830,-0.14500,71.0000,134,61,0.67106
3302840,0.02000,70.5625,134,61,0.66642
3302850,0.49500,70.0625,134,61,0.66056
3302860,0.96000,69.0625,134,61,0.64542
3302870,0.77500,68.5625,134,61,0.63687
3302880,0.07000,68.0000,134,61,0.62686
3302890,-0.39000,67.5000,134,61,0.61587
3302900,-0.46500,66.3125,134,61,0.59194
3302910,-0.35500,65.7500,134,61,0.57949
3302920,-0.25000,65.1250,134,61,0.56703
3302930,-0.22000,64.5625,134,61,0.55458
3302940,-0.21500,63.5000,134,61,0.53138
3302950,-0.21000,62.9375,134,61,0.52039
3302960,-0.21000,62.4375,134,61,0.50989
3302970,-0.20500,61.8750,134,61,0.50085
3302980,-0.20000,60.9375,134,61,0.48400
3302990,-0.19500,60.6250,134,61,0.47497
3303000,-0.18000,60.5625,136,62,0.46618
3303010,-0.16500,60.9375,136,62,0.45739
3303020,-0.15500,65.9375,136,62,0.44005
3303030,-0.14000,71.7500,136,62,0.43150
3303040,-0.13500,79.8125,136,62,0.42320
3303050,-0.11500,89.2500,136,62,0.41514
3303060,-0.09000,108.7500,136,62,0.40098
3303070,-0.05500,117.3750,136,62,0.39536
3303080,-0.02500,124.6875,136,62,0.38901
3303090,0.00500,130.4375,136,62,0.38217
3303100,0.03000,137.3125,136,62,0.36874
3303110,0.05000,138.6875,136,62,0.36215
3303120,0.05500,139.0625,136,62,0.35580
3303130,0.05000,138.6875,136,62,0.34994
3303140,0.04500,136.2500,136,62,0.33822
3303150,0.05000,134.6250,136,62,0.33260
3303160,0.05500,132.7500,136,62,0.32698
3303170,0.06000,130.7500,136,62,0.32283
3303180,0.07000,126.7500,136,62,0.31429
3303190,0.06500,124.8125,136,62,0.30916
3303200,0.04500,122.9375,136,62,0.30403
3303210,0.02000,121.0625,136,62,0.29866
3303220,-0.01000,117.6875,136,62,0.28791
3303230,-0.02500,116.0000,136,62,0.28278
3303240,-0.04500,114.3125,136,62,0.27766
3303250,-0.04500,112.4375,136,62,0.27253
3303260,-0.02500,107.9375,136,62,0.26447
3303270,0.00000,105.0625,136,62,0.26252
3303280,0.03500,101.6250,136,62,0.26056
3303290,0.08000,97.8750,136,62,0.26007
3303300,0.13500,90.4375,136,62,0.26667
3303310,0.16500,87.5000,136,62,0.27521
3303320,0.19000,85.1875,136,62,0.28840
3303330,0.21500,83.5000,136,62,0.30623
3303340,0.25500,81.6250,136,62,0.35556
3303350,0.28000,81.1875,136,62,0.38608
3303360,0.29000,80.8750,136,62,0.41905
3303370,0.32500,80.5625,136,62,0.44908
3303380,0.34000,80.0625,136,62,0.50842
3303390,0.31000,79.7500,136,62,0.53968
3303400,0.23500,79.4375,136,62,0.56947
3303410,0.14000,79.0000,136,62,0.59683
3303420,0.04000,78.0625,136,62,0.64225
3303430,-0.03500,77.6250,136,62,0.65983
3303440,-0.07500,77.1250,136,62,0.67448
3303450,-0.09500,76.6250,136,62,0.68596
3303460,-0.11500,75.7500,136,62,0.69963
3303470,-0.12500,75.3125,136,62,0.70208
3303480,-0.13500,75.0000,136,62,0.70379
3303490,-0.13500,74.6250,136,62,0.70452
3303500,-0.14500,74.0625,136,62,0.70232
3303510,-0.14500,73.8125,136,62,0.69939
3303520,0.06500,73.5000,136,62,0.69499
3303530,0.57500,73.1875,136,62,0.68938
3303540,0.92000,72.5000,136,62,0.67375
3303550,0.59000,72.0625,136,62,0.66398
3303560,-0.07000,71.6250,136,62,0.65299
3303570,-0.43500,71.1250,136,62,0.64225
3303580,-0.47500,70.0625,136,62,0.61905
3303590,-0.36500,69.4375,136,62,0.60635
3303600,-0.29000,68.8750,136,62,0.59341
3303610,-0.27000,68.3125,136,62,0.58046
3303620,-0.26500,67.2500,136,62,0.55556
3303630,-0.25500,66.6875,136,62,0.54359
3303640,-0.25500,66.1250,136,62,0.53211
3303650,-0.25000,65.6250,136,62,0.52112
3303660,-0.24000,64.8125,136,62,0.50159
3303670,-0.22500,64.6250,136,62,0.49353
3303680,-0.22000,64.8125,136,62,0.48474
3303690,-0.21000,65.8125,136,62,0.47619
3303700,-0.19500,73.0625,136,62,0.45910
3303710,-0.18000,80.0625,136,62,0.45079
3303720,-0.17000,88.8125,136,62,0.44298
3303730,-0.16000,98.3125,136,62,0.43541
3303740,-0.14000,116.6250,136,62,0.42100
3303750,-0.11500,124.1875,136,62,0.41416
3303760,-0.10000,130.3750,136,62,0.40855
3303770,-0.08500,134.9375,136,62,0.40366
3303780,-0.07500,139.8125,136,62,0.39267
3303790,-0.06500,140.5000,136,62,0.38706
3303800,-0.06000,140.3125,136,62,0.38144
3303810,-0.06000,139.5625,136,62,0.37582
3303820,-0.06000,136.8750,136,62,0.36459
3303830,-0.05500,135.1875,136,62,0.35922
3303840,-0.04500,133.3750,136,62,0.35409
3303850,-0.03500,131.5000,136,62,0.34921
3303860,-0.03500,127.6250,136,62,0.34090
3303870,-0.04500,125.7500,136,62,0.33773
3303880,-0.06500,123.9375,136,62,0.33382
3303890,-0.08500,122.2500,136,62,0.32943
3303900,-0.10500,119.0000,136,62,0.31990
3303910,-0.12500,117.3750,136,62,0.31526
3303920,-0.13000,115.6875,136,62,0.31062
3303930,-0.12500,113.7500,136,62,0.30623
3303940,-0.11500,108.7500,136,62,0.29841
3303950,-0.09500,105.5625,136,62,0.29548
3303960,-0.08500,101.9375,136,62,0.29451
3303970,-0.07500,98.1250,136,62,0.29573
3303980,-0.06500,91.1875,136,62,0.30525
3303990,-0.05500,88.6250,136,62,0.31551
3304000,-0.05000,86.6875,137,62,0.33065
3304010,-0.03000,85.3125,137,62,0.35067
3304020,-0.01000,83.8125,137,62,0.40464
3304030,0.01000,83.3750,137,62,0.43687
3304040,0.04000,83.0000,137,62,0.47106
3304050,0.07000,82.6875,137,62,0.50623
3304060,0.07000,82.0000,137,62,0.56947
3304070,0.04000,81.5625,137,62,0.59414
3304080,-0.02000,81.1250,137,62,0.61954
3304090,-0.08500,80.6250,137,62,0.64347
3304100,-0.12000,79.5000,137,62,0.68303
3304110,-0.13500,78.9375,137,62,0.69817
3304120,-0.14500,78.3125,137,62,0.71038
3304130,-0.15000,77.6875,137,62,0.71990
3304140,-0.15500,76.4375,137,62,0.73211
3304150,-0.15000,75.8750,137,62,0.73529
3304160,-0.13500,75.2500,137,62,0.73602
3304170,-0.12500,74.7500,137,62,0.73480
3304180,-0.11500,73.7500,137,62,0.73065
3304190,0.04000,73.2500,137,62,0.72698
3304200,0.50500,72.7500,137,62,0.72210
3304210,1.01500,72.3125,137,62,0.71575
3304220,0.86500,71.3125,137,62,0.69817
3304230,0.18500,70.7500,137,62,0.68742
3304240,-0.28000,70.1875,137,62,0.67570
3304250,-0.38000,69.6250,137,62,0.66325
3304260,-0.28000,68.4375,137,62,0.63810
3304270,-0.19000,67.8750,137,62,0.62613
3304280,-0.17500,67.3125,137,62,0.61343
3304290,-0.17000,66.7500,137,62,0.60073
3304300,-0.17000,65.5625,137,62,0.57558
3304310,-0.17000,65.0000,137,62,0.56361
3304320,-0.17000,64.5000,137,62,0.55214
3304330,-0.17000,64.0000,137,62,0.54090
3304340,-0.17000,63.1875,137,62,0.51966
3304350,-0.16000,63.1875,137,62,0.50940
3304360,-0.16000,64.0000,137,62,0.50061
3304370,-0.16000,66.3125,137,62,0.49280
3304380,-0.16000,78.1250,137,62,0.47546
3304390,-0.15500,87.1250,137,62,0.46667
3304400,-0.13500,97.0000,137,62,0.45788
3304410,-0.11500,106.8750,137,62,0.44933
3304420,-0.09500,123.9375,137,62,0.43248
3304430,-0.06500,130.2500,137,62,0.42442
3304440,-0.05500,135.0000,137,62,0.41661
3304450,-0.04500,138.2500,137,62,0.40879
3304460,-0.04500,140.9375,137,62,0.39536
3304470,-0.04000,140.8750,137,62,0.39023
3304480,-0.03500,140.1875,137,62,0.38413
3304490,-0.02500,139.0625,137,62,0.37778
3304500,-0.01500,135.8750,137,62,0.36508
3304510,0.01000,134.0625,137,62,0.35873
3304520,0.03000,132.1875,137,62,0.35238
3304530,0.05000,130.3125,137,62,0.34628
3304540,0.06000,126.6875,137,62,0.33431
3304550,0.05000,124.9375,137,62,0.32845
3304560,0.03000,123.2500,137,62,0.32405
3304570,0.01000,121.6250,137,62,0.32063
3304580,-0.01500,118.1875,137,62,0.31136
3304590,-0.03500,116.4375,137,62,0.30623
3304600,-0.04500,114.5000,137,62,0.30134
3304610,-0.04500,112.2500,137,62,0.29646
3304620,-0.04500,106.5625,137,62,0.28864
3304630,-0.04500,103.1250,137,62,0.28645
3304640,-0.04000,99.5000,137,62,0.28645
3304650,-0.03500,96.0000,137,62,0.28962
3304660,-0.03500,90.5000,137,62,0.30647
3304670,-0.03500,88.5625,137,62,0.31941
3304680,-0.04000,87.1250,137,62,0.33822
3304690,-0.02500,86.1250,137,62,0.36215
3304700,0.00000,84.7500,137,62,0.42344
3304710,0.02000,84.3125,137,62,0.45836
3304720,0.03000,83.8750,137,62,0.49426
3304730,0.06000,83.5000,137,62,0.53016
3304740,0.07500,82.6250,137,62,0.59634
3304750,0.06000,82.0625,137,62,0.62515
3304760,0.01500,81.5000,137,62,0.64737
3304770,-0.04500,80.2500,137,62,0.66496
3304780,-0.11500,79.6250,137,62,0.69719
3304790,-0.16500,78.9375,137,62,0.71013
3304800,-0.18000,78.2500,137,62,0.72039
3304810,-0.18000,77.5000,137,62,0.72845
3304820,-0.17500,76.1250,137,62,0.73773
3304830,-0.17000,75.4375,137,62,0.73968
3304840,-0.17000,74.8125,137,62,0.73993
3304850,-0.17000,74.1875,137,62,0.73895
3304860,-0.17000,73.1250,137,62,0.73724
3304870,-0.18000,72.6250,137,62,0.73309
3304880,-0.02500,72.1250,137,62,0.72723
3304890,0.44000,71.3125,137,62,0.71990
3304900,0.96000,70.8750,137,62,0.70012
3304910,0.83000,70.3750,137,62,0.68840
3304920,0.09000,69.9375,137,62,0.67570
3304930,-0.41500,69.3750,137,62,0.66227
3304940,-0.46000,68.2500,137,62,0.63419
3304950,-0.32500,67.6250,137,62,0.62002
3304960,-0.24000,67.0625,137,62,0.60733
3304970,-0.22000,65.9375,137,62,0.59560
3304980,-0.21500,65.3750,137,62,0.57045
3304990,-0.21000,64.8125,137,62,0.55800
3305000,-0.20500,64.3125,139,63,0.54603
3305010,-0.20000,63.8125,139,63,0.53455
3305020,-0.19500,62.8750,139,63,0.51209
3305030,-0.18500,62.5000,139,63,0.50110
3305040,-0.17000,62.4375,139,63,0.49060
3305050,-0.16000,63.0000,139,63,0.48034
3305060,-0.14000,69.1875,139,63,0.46203
3305070,-0.12000,76.0000,139,63,0.45446
3305080,-0.09500,84.9375,139,63,0.44591
3305090,-0.07500,95.0625,139,63,0.43687
3305100,-0.05500,114.8750,139,63,0.41880
3305110,-0.03000,123.2500,139,63,0.41001
3305120,-0.00500,130.0625,139,63,0.40122
3305130,0.01000,135.1250,139,63,0.39267
3305140,0.03000,140.5625,139,63,0.37680
3305150,0.05000,141.3125,139,63,0.36947
3305160,0.05500,141.1875,139,63,0.36337
3305170,0.06000,140.3125,139,63,0.35824
3305180,0.05500,137.5000,139,63,0.34554
3305190,0.05000,135.7500,139,63,0.33895
3305200,0.05500,133.8750,139,63,0.33211
3305210,0.06000,132.0625,139,63,0.32552
3305220,0.06500,128.4375,139,63,0.31282
3305230,0.06000,126.7500,139,63,0.30647
3305240,0.04500,125.0000,139,63,0.30037
3305250,0.02000,123.3750,139,63,0.29426
3305260,-0.00500,120.1250,139,63,0.28425
3305270,-0.02500,118.5000,139,63,0.28083
3305280,-0.03500,116.7500,139,63,0.27643
3305290,-0.04000,114.8750,139,63,0.27155
3305300,-0.04000,110.0000,139,63,0.26129
3305310,-0.04000,106.8750,139,63,0.25690
3305320,-0.04000,103.3750,139,63,0.25397
3305330,-0.03500,99.5625,139,63,0.25324
3305340,-0.02500,92.4375,139,63,0.26105
3305350,-0.02500,89.6250,139,63,0.27155
3305360,-0.02500,87.4375,139,63,0.28498
3305370,-0.00500,85.7500,139,63,0.30183
3305380,0.03000,83.6250,139,63,0.35385
3305390,0.05000,83.0000,139,63,0.38730
3305400,0.07000,82.6250,139,63,0.42393
3305410,0.10000,82.3125,139,63,0.46227
3305420,0.10667,81.6875,139,63,0.51905
3305430,0.09000,81.3125,139,63,0.57387
3305440,0.05000,80.8750,139,63,0.60635
3305450,-0.00500,80.3750,139,63,0.63516
3305460,-0.05500,79.1250,139,63,0.67839
3305470,-0.08000,78.4375,139,63,0.69182
3305480,-0.08500,77.7500,139,63,0.70427
3305490,-0.08500,77.0625,139,63,0.71502
3305500,-0.08500,75.5625,139,63,0.72991
3305510,-0.09500,74.8750,139,63,0.73407
3305520,-0.10000,74.1875,139,63,0.73651
3305530,-0.10500,73.5000,139,63,0.73724
3305540,-0.12500,72.3125,139,63,0.73431
3305550,-0.13500,71.7500,139,63,0.73065
3305560,0.08000,71.2500,139,63,0.72552
3305570,0.63000,70.7500,139,63,0.71893
3305580,1.03500,69.8750,139,63,0.70208
3305590,0.68000,69.4375,139,63,0.69158
3305600,-0.11500,68.9375,139,63,0.67985
3305610,-0.51500,68.4375,139,63,0.66691
3305620,-0.47000,67.3750,139,63,0.63907
3305630,-0.31000,66.8125,139,63,0.62466
3305640,-0.24000,66.1875,139,63,0.61026
3305650,-0.22500,65.6250,139,63,0.59585
3305660,-0.22000,64.3750,139,63,0.57094
3305670,-0.21000,63.8125,139,63,0.55849
3305680,-0.20000,63.1875,139,63,0.54579
3305690,-0.19000,62.5625,139,63,0.53358
3305700,-0.18000,61.5625,139,63,0.50989
3305710,-0.16500,61.1875,139,63,0.49866
3305720,-0.15000,61.0625,139,63,0.48767
3305730,-0.13500,61.5625,139,63,0.47692
3305740,-0.11500,67.3125,139,63,0.45617
3305750,-0.09500,73.6875,139,63,0.44591
3305760,-0.08000,82.2500,139,63,0.43712
3305770,-0.05500,92.0625,139,63,0.42930
3305780,-0.03000,111.6875,139,63,0.41148
3305790,-0.00500,120.0625,139,63,0.40244
3305800,0.02000,126.8125,139,63,0.39341
3305810,0.04000,131.8750,139,63,0.38486
3305820,0.05000,137.1875,139,63,0.36801
3305830,0.06000,137.8750,139,63,0.35971
3305840,0.06000,137.6250,139,63,0.35165
3305850,0.06000,136.7500,139,63,0.34359
3305860,0.06000,133.7500,139,63,0.33211
3305870,0.06000,131.8750,139,63,0.32601
3305880,0.06500,129.8750,139,63,0.31941
3305890,0.08000,127.8750,139,63,0.31282
3305900,0.09000,123.9375,139,63,0.30012
3305910,0.08500,122.0625,139,63,0.29377
3305920,0.06500,120.1875,139,63,0.28742
3305930,0.02500,118.3750,139,63,0.28107
3305940,-0.00500,114.9375,139,63,0.26813
3305950,-0.02000,113.1875,139,63,0.26178
3305960,-0.03000,111.3750,139,63,0.25739
3305970,-0.03000,109.3125,139,63,0.25372
3305980,-0.02500,104.1250,139,63,0.24420
3305990,-0.02000,100.8125,139,63,0.23956
3306000,-0.01500,97.3125,139,63,0.23614
3306010,-0.01500,93.6875,139,63,0.23443
3306020,-0.02500,87.6250,139,63,0.24005
3306030,-0.01500,85.4375,139,63,0.25446
3306040,0.01000,83.7500,139,63,0.27131
3306050,0.04000,82.5625,139,63,0.28645
3306060,0.06500,81.1875,139,63,0.32723
3306070,0.10000,80.7500,139,63,0.35604
3306080,0.11500,80.5000,139,63,0.38877
3306090,0.10000,80.1875,139,63,0.42393
3306100,0.04500,79.5000,139,63,0.49475
3306110,-0.02000,79.0625,139,63,0.52796
3306120,-0.08000,78.6250,139,63,0.55849
3306130,-0.12000,78.0625,139,63,0.58559
3306140,-0.13000,76.7500,139,63,0.62930
3306150,-0.13500,76.0000,139,63,0.64542
3306160,-0.13500,75.2500,139,63,0.65665
3306170,-0.13500,74.5000,139,63,0.66422
3306180,-0.14000,73.1875,139,63,0.67619
3306190,-0.14000,72.5625,139,63,0.67961
3306200,-0.15500,72.0000,139,63,0.68132
3306210,-0.16000,71.5000,139,63,0.68156
3306220,0.05500,70.5000,139,63,0.67766
3306230,0.58500,70.0000,139,63,0.67350
3306240,0.90500,69.5625,139,63,0.66813
3306250,0.50000,69.1250,139,63,0.66105
3306260,-0.19500,68.0625,139,63,0.64518
3306270,-0.54000,67.4375,139,63,0.63516
3306280,-0.54000,66.8125,139,63,0.62418
3306290,-0.39500,66.1875,139,63,0.61221
3306300,-0.30000,64.8750,139,63,0.58657
3306310,-0.27000,64.2500,139,63,0.57363
3306320,-0.25000,63.6250,139,63,0.56068
3306330,-0.22500,63.0000,139,63,0.54823
3306340,-0.20500,61.8750,139,63,0.52405
3306350,-0.18500,61.3750,139,63,0.51258
3306360,-0.16500,60.8750,139,63,0.50256
3306370,-0.14500,60.5000,139,63,0.49353
3306380,-0.13000,60.2500,139,63,0.47399
3306390,-0.11500,60.8750,139,63,0.46398
3306400,-0.10000,62.8750,139,63,0.45421
3306410,-0.08500,66.8750,139,63,0.44469
3306420,-0.07500,81.5000,139,63,0.42589
3306430,-0.06000,90.8125,139,63,0.41685
3306440,-0.04000,100.1875,139,63,0.40806
3306450,-0.02500,108.8750,139,63,0.39951
3306460,-0.01500,122.5625,139,63,0.38657
3306470,0.00000,127.0625,139,63,0.37949
3306480,0.01500,129.9375,139,63,0.37216
3306490,0.03000,131.4375,139,63,0.36459
3306500,0.04000,131.0625,139,63,0.34969
3306510,0.05500,129.8125,139,63,0.34261
3306520,0.07000,128.0625,139,63,0.33529
3306530,0.10000,126.0625,139,63,0.32821
3306540,0.11000,121.5000,139,63,0.31429
3306550,0.12000,119.1875,139,63,0.30769
3306560,0.11500,116.8750,139,63,0.30256
3306570,0.10000,114.6250,139,63,0.29841
3306580,0.07000,110.3750,139,63,0.28767
3306590,0.04500,108.3750,139,63,0.28205
3306600,0.02000,106.3750,139,63,0.27619
3306610,0.00500,104.4375,139,63,0.27033
3306620,0.00500,100.0625,139,63,0.25861
3306630,0.01000,97.3750,139,63,0.25299
3306640,0.02000,94.3750,139,63,0.24762
3306650,0.02000,91.0625,139,63,0.24249
3306660,0.02000,84.5000,139,63,0.23785
3306670,0.01500,81.8750,139,63,0.23687
3306680,0.01000,79.8750,139,63,0.23785
3306690,0.01000,78.5625,139,63,0.24200
3306700,0.01000,77.2500,139,63,0.26203
3306710,0.02000,77.0000,139,63,0.27888
3306720,0.04000,76.9375,139,63,0.30037
3306730,0.05000,76.9375,139,63,0.32552
3306740,0.07500,76.8125,139,63,0.38413
3306750,0.10000,76.6250,139,63,0.41514
3306760,0.09500,76.3750,139,63,0.44225
3306770,0.06000,76.0000,139,63,0.46618
3306780,-0.00500,74.9375,139,63,0.51526
3306790,-0.06500,74.3125,139,63,0.53675
3306800,-0.11000,73.6250,139,63,0.55556
3306810,-0.13000,72.8750,139,63,0.57118
3306820,-0.13500,71.3750,139,63,0.59389
3306830,-0.13500,70.6250,139,63,0.60122
3306840,-0.13500,69.9375,139,63,0.60635
3306850,-0.13500,68.6250,139,63,0.60952
3306860,-0.13500,68.0625,139,63,0.60977
3306870,-0.13500,67.5000,139,63,0.60781
3306880,-0.15500,67.1250,139,63,0.60488
3306890,-0.00500,66.5000,139,63,0.59536
3306900,0.34000,66.1875,139,63,0.59219
3306910,0.89000,65.8750,139,63,0.58950
3306920,0.82500,65.5625,139,63,0.58315
3306930,0.15500,64.7500,139,63,0.57485
3306940,-0.37500,64.1875,139,63,0.55433
3306950,-0.55500,63.5625,139,63,0.54286
3306960,-0.50500,62.9375,139,63,0.53260
3306970,-0.39500,62.3125,139,63,0.52308
3306980,-0.33500,61.1875,139,63,0.50305
3306990,-0.34000,60.6875,139,63,0.49328
3307000,-0.36500,60.2500,139,62,0.48400
3307010,-0.38500,59.7500,139,62,0.47521
3307020,-0.40500,58.8125,139,62,0.45910
3307030,-0.41000,58.3125,139,62,0.45128
3307040,-0.40000,57.9375,139,62,0.44371
3307050,-0.37000,57.6250,139,62,0.43639
3307060,-0.31500,58.1875,139,62,0.42222
3307070,-0.27000,60.0625,139,62,0.41734
3307080,-0.23000,64.0000,139,62,0.41123
3307090,-0.19000,70.3750,139,62,0.40464
3307100,-0.15500,88.1250,139,62,0.39145
3307110,-0.10000,97.6875,139,62,0.38486
3307120,-0.03500,106.7500,139,62,0.37827
3307130,0.03000,114.6250,139,62,0.37192
3307140,0.08500,125.8125,139,62,0.35922
3307150,0.13000,129.1250,139,62,0.35287
3307160,0.15500,131.0625,139,62,0.34823
3307170,0.16500,131.8125,139,62,0.34408
3307180,0.16500,130.9375,139,62,0.33407
3307190,0.15500,129.6250,139,62,0.32894
3307200,0.14000,127.9375,139,62,0.32357
3307210,0.12000,125.9375,139,62,0.31819
3307220,0.11500,121.6250,139,62,0.30794
3307230,0.11500,119.3750,139,62,0.30281
3307240,0.11000,117.1250,139,62,0.29792
3307250,0.09000,114.9375,139,62,0.29304
3307260,0.07000,110.8125,139,62,0.28694
3307270,0.04000,108.8750,139,62,0.28327
3307280,0.01000,107.0000,139,62,0.27888
3307290,-0.01000,105.0625,139,62,0.27424
3307300,-0.02500,100.7500,139,62,0.26496
3307310,-0.04000,98.1875,139,62,0.26032
3307320,-0.05000,95.1875,139,62,0.25592
3307330,-0.05500,91.8750,139,62,0.25226
3307340,-0.05500,85.0625,139,62,0.24982
3307350,-0.05500,82.2500,139,62,0.25226
3307360,-0.04500,80.0625,139,62,0.25763
3307370,-0.03000,78.5625,139,62,0.26618
3307380,-0.01500,77.0000,139,62,0.29621
3307390,0.01500,76.6875,139,62,0.31795
3307400,0.06000,76.5625,139,62,0.34359
3307410,0.10000,76.4375,139,62,0.37216
3307420,0.13500,76.1875,139,62,0.43492
3307430,0.16500,76.0000,139,62,0.46716
3307440,0.16000,75.7500,139,62,0.49841
3307450,0.12500,75.4375,139,62,0.52796
3307460,0.06500,74.5625,139,62,0.57192
3307470,-0.00500,74.0000,139,62,0.59170
3307480,-0.05000,73.4375,139,62,0.60977
3307490,-0.08000,72.8125,139,62,0.62540
3307500,-0.09500,71.5000,139,62,0.64860
3307510,-0.11500,70.8125,139,62,0.65617
3307520,-0.13000,70.1250,139,62,0.66154
3307530,-0.13500,69.4375,139,62,0.66471
3307540,-0.14000,68.2500,139,62,0.66569
3307550,-0.15000,67.6875,139,62,0.66374
3307560,-0.17000,67.1875,139,62,0.66056
3307570,-0.10500,66.6875,139,62,0.65641
3307580,0.23000,65.8125,139,62,0.64469
3307590,0.77500,65.3750,139,62,0.63687
3307600,0.85000,64.9375,139,62,0.62808
3307610,0.24000,64.5000,139,62,0.61832
3307620,-0.33500,63.5625,139,62,0.59634
3307630,-0.53500,63.0625,139,62,0.58462
3307640,-0.47500,62.5000,139,62,0.57265
3307650,-0.35000,61.9375,139,62,0.56093
3307660,-0.29000,61.0000,139,62,0.54115
3307670,-0.27000,60.5000,139,62,0.53138
3307680,-0.25000,60.0625,139,62,0.52137
3307690,-0.24500,59.5625,139,62,0.51160
3307700,-0.23500,58.6250,139,62,0.49328
3307710,-0.23000,58.1875,139,62,0.48474
3307720,-0.21500,57.8125,139,62,0.47643
3307730,-0.19500,57.6250,139,62,0.46838
3307740,-0.16500,58.5000,139,62,0.45250
3307750,-0.14000,60.8125,139,62,0.44591
3307760,-0.11500,65.3125,139,62,0.43980
3307770,-0.10000,72.1250,139,62,0.43297
3307780,-0.08000,90.2500,139,62,0.41880
3307790,-0.05000,99.7500,139,62,0.41148
3307800,-0.02000,108.6250,139,62,0.40391
3307810,0.00500,116.2500,139,62,0.39658
3307820,0.03000,127.1250,139,62,0.38217
3307830,0.05000,130.2500,139,62,0.37558
3307840,0.06000,132.0625,139,62,0.36899
3307850,0.06500,132.7500,139,62,0.36288
3307860,0.07000,131.8125,139,62,0.35433
3307870,0.06500,130.5625,139,62,0.34921
3307880,0.06500,129.0000,139,62,0.34383
3307890,0.07000,127.1875,139,62,0.33822
3307900,0.08000,123.3125,139,62,0.32747
3307910,0.09500,121.2500,139,62,0.32210
3307920,0.10500,119.3125,139,62,0.31673
3307930,0.10000,117.4375,139,62,0.31136
3307940,0.07500,113.8125,139,62,0.30110
3307950,0.05000,112.1250,139,62,0.29744
3307960,0.03000,110.3750,139,62,0.29451
3307970,0.01000,108.6875,139,62,0.29060
3307980,0.00500,104.8750,139,62,0.28132
3307990,0.01000,102.5000,139,62,0.27668
3308000,0.01500,99.7500,139,63,0.27253
3308010,0.02500,96.6250,139,63,0.26911
3308020,0.04000,90.0625,139,63,0.26667
3308030,0.04500,87.1875,139,63,0.26911
3308040,0.05500,84.8125,139,63,0.27521
3308050,0.05500,82.9375,139,63,0.28571
3308060,0.06000,80.4375,139,63,0.31404
3308070,0.07000,79.6250,139,63,0.33480
3308080,0.08500,79.0000,139,63,0.36850
3308090,0.10000,78.5000,139,63,0.40171
3308100,0.13000,77.6250,139,63,0.45641
3308110,0.16500,77.1875,139,63,0.48816
3308120,0.17000,76.6875,139,63,0.51990
3308130,0.14000,76.1250,139,63,0.55018
3308140,0.07500,75.0625,139,63,0.60317
3308150,0.00000,74.4375,139,63,0.62247
3308160,-0.05500,73.8125,139,63,0.63761
3308170,-0.09000,73.1875,139,63,0.65201
3308180,-0.10500,71.9375,139,63,0.67570
3308190,-0.11000,71.3125,139,63,0.68400
3308200,-0.11500,70.7500,139,63,0.69011
3308210,-0.11000,70.1875,139,63,0.69402
3308220,-0.10500,69.1250,139,63,0.69646
3308230,-0.10500,68.6250,139,63,0.69524
3308240,-0.12000,68.1875,139,63,0.69280
3308250,-0.06000,67.3125,139,63,0.68889
3308260,0.26500,66.9375,139,63,0.67766
3308270,0.82000,66.5000,139,63,0.67057
3308280,0.95500,66.0625,139,63,0.66252
3308290,0.37500,65.6875,139,63,0.65348
3308300,-0.22500,64.7500,139,63,0.63297
3308310,-0.45000,64.2500,139,63,0.62173
3308320,-0.40000,63.6875,139,63,0.61026
3308330,-0.28000,63.1250,139,63,0.59878
3308340,-0.21000,62.0000,139,63,0.57558
3308350,-0.20000,61.5000,139,63,0.56532
3308360,-0.19000,61.0000,139,63,0.55604
3308370,-0.19000,60.5000,139,63,0.54628
3308380,-0.19000,59.5625,139,63,0.52698
3308390,-0.19000,59.1250,139,63,0.51746
3308400,-0.18000,58.6875,139,63,0.50818
3308410,-0.16000,58.4375,139,63,0.49915
3308420,-0.14500,59.2500,139,63,0.48107
3308430,-0.12500,61.5000,139,63,0.47228
3308440,-0.11000,65.8750,139,63,0.46374
3308450,-0.10000,72.6250,139,63,0.45519
3308460,-0.08500,90.6875,139,63,0.44200
3308470,-0.06500,100.1875,139,63,0.43516
3308480,-0.03500,109.0625,139,63,0.42808
3308490,-0.01500,116.8750,139,63,0.42100
3308500,0.01000,128.1250,139,63,0.40684
3308510,0.03500,131.4375,139,63,0.40000
3308520,0.05500,133.3750,139,63,0.39316
3308530,0.06000,134.1875,139,63,0.38632
3308540,0.07000,133.5000,139,63,0.37338
3308550,0.07000,132.3125,139,63,0.36850
3308560,0.08000,130.7500,139,63,0.36435
3308570,0.09000,128.9375,139,63,0.35922
3308580,0.10000,125.1250,139,63,0.34799
3308590,0.11000,123.1250,139,63,0.34212
3308600,0.11500,121.1250,139,63,0.33651
3308610,0.10000,119.2500,139,63,0.33065
3308620,0.08000,115.5000,139,63,0.31941
3308630,0.05500,113.7500,139,63,0.31380
3308640,0.03000,112.0625,139,63,0.30842
3308650,0.01000,110.3750,139,63,0.30305
3308660,-0.00500,106.6875,139,63,0.29597
3308670,-0.01000,104.5000,139,63,0.29158
3308680,-0.01000,102.0000,139,63,0.28718
3308690,0.00000,99.0000,139,63,0.28327
3308700,0.00500,92.3125,139,63,0.27961
3308710,0.00000,89.1250,139,63,0.28156
3308720,0.00000,86.3125,139,63,0.28694
3308730,0.00000,84.0000,139,63,0.29670
3308740,0.00000,80.9375,139,63,0.32967
3308750,0.02000,79.9375,139,63,0.34969
3308760,0.03500,79.2500,139,63,0.37167
3308770,0.04500,78.6250,139,63,0.39878
3308780,0.07000,77.7500,139,63,0.46227
3308790,0.10000,77.3125,139,63,0.49548
3308800,0.10000,76.9375,139,63,0.52821
3308810,0.07000,75.9375,139,63,0.55922
3308820,0.01000,75.3750,139,63,0.61416
3308830,-0.04500,74.8125,139,63,0.63712
3308840,-0.09000,74.1875,139,63,0.65714
3308850,-0.11500,73.5625,139,63,0.67399
3308860,-0.12500,72.3125,139,63,0.69426
3308870,-0.13000,71.6875,139,63,0.70183
3308880,-0.13500,71.0625,139,63,0.70794
3308890,-0.14000,69.9375,139,63,0.71258
3308900,-0.14500,69.4375,139,63,0.71697
3308910,-0.15500,68.9375,139,63,0.71697
3308920,-0.17000,68.5000,139,63,0.71526
3308930,-0.07500,68.0625,139,63,0.71209
3308940,0.30000,67.2500,139,63,0.70183
3308950,0.87000,66.8125,139,63,0.70208
3308960,0.91000,66.3125,139,63,0.70501
3308970,0.25500,65.8750,139,63,0.70110
3308980,-0.32500,64.7500,139,63,0.68303
3308990,-0.50000,64.1875,139,63,0.67131
3309000,-0.43000,63.5625,139,63,0.65885
3309010,-0.31000,63.0000,139,63,0.64591
3309020,-0.26500,61.9375,139,63,0.61954
3309030,-0.26000,61.4375,139,63,0.60659
3309040,-0.26000,60.9375,139,63,0.59414
3309050,-0.27500,59.8750,139,63,0.57118
3309060,-0.29000,59.4375,139,63,0.56142
3309070,-0.32000,59.0000,139,63,0.55116
3309080,-0.34500,58.6875,139,63,0.54090
3309090,-0.37000,58.5000,139,63,0.53065
3309100,-0.39000,59.7500,139,63,0.50794
3309110,-0.41500,62.5000,139,63,0.49719
3309120,-0.45000,67.6875,139,63,0.48938
3309130,-0.51500,75.1250,139,63,0.48107
3309140,-0.58000,93.8750,139,63,0.46374
3309150,-0.59000,103.3750,139,63,0.45617
3309160,-0.53500,112.0000,139,63,0.44957
3309170,-0.44500,119.3125,139,63,0.44200
3309180,-0.37500,129.3750,139,63,0.42637
3309190,-0.36500,132.1250,139,63,0.41856
3309200,-0.36500,133.6875,139,63,0.41099
3309210,-0.34500,134.1875,139,63,0.40366
3309220,-0.32000,133.1250,139,63,0.38901
3309230,-0.31500,131.9375,139,63,0.38193
3309240,-0.32500,130.4375,139,63,0.37485
3309250,-0.34500,128.7500,139,63,0.36923
3309260,-0.36500,125.1250,139,63,0.35897
3309270,-0.36500,123.2500,139,63,0.35287
3309280,-0.33000,121.3125,139,63,0.34676
3309290,-0.30000,119.5000,139,63,0.34066
3309300,-0.29000,116.0000,139,63,0.32894
3309310,-0.28500,114.2500,139,63,0.32308
3309320,-0.26500,112.5625,139,63,0.31722
3309330,-0.23500,110.8750,139,63,0.31136
3309340,-0.19000,107.1250,139,63,0.29915
3309350,-0.14000,104.8750,139,63,0.29475
3309360,-0.08000,102.1875,139,63,0.29158
3309370,-0.02500,99.1875,139,63,0.28816
3309380,0.02500,92.3125,139,63,0.28498
3309390,0.06000,89.0625,139,63,0.28718
3309400,0.09000,86.2500,139,63,0.29328
3309410,0.11000,84.0000,139,63,0.30403
3309420,0.12000,81.0000,139,63,0.34017
3309430,0.13000,80.1250,139,63,0.36532
3309440,0.15500,79.5000,139,63,0.39463
3309450,0.18500,79.0625,139,63,0.42271
3309460,0.20000,78.3125,139,63,0.48352
3309470,0.21500,78.0000,139,63,0.51795
3309480,0.24500,77.6250,139,63,0.55238
3309490,0.24500,77.1875,139,63,0.58535
3309500,0.21500,76.1250,139,63,0.64347
3309510,0.15500,75.6250,139,63,0.66789
3309520,0.09500,75.0000,139,63,0.68889
3309530,0.03500,74.4375,139,63,0.70647
3309540,-0.00500,73.1250,139,63,0.73260
3309550,-0.02000,72.5000,139,63,0.74017
3309560,-0.02500,71.8750,139,63,0.74457
3309570,-0.03000,71.2500,139,63,0.74823
3309580,-0.03500,70.1250,139,63,0.75165
3309590,-0.03500,69.5625,139,63,0.75116
3309600,-0.03500,69.0000,139,63,0.74921
3309610,-0.04500,68.5000,139,63,0.74603
3309620,-0.05000,67.6875,139,63,0.73529
3309630,0.15500,67.3125,139,63,0.72772
3309640,0.69000,66.8750,139,63,0.71868
3309650,1.15500,66.1250,139,63,0.70916
3309660,0.87000,65.6875,139,63,0.68767
3309670,0.09000,65.2500,139,63,0.67521
3309680,-0.35500,64.7500,139,63,0.66252
3309690,-0.36500,64.2500,139,63,0.64933
3309700,-0.22000,63.1875,139,63,0.62271
3309710,-0.12000,62.6250,139,63,0.60952
3309720,-0.09500,62.0625,139,63,0.59683
3309730,-0.09500,61.5000,139,63,0.58437
3309740,-0.08500,60.5000,139,63,0.56117
3309750,-0.08000,60.0000,139,63,0.55140
3309760,-0.08500,59.5000,139,63,0.54237
3309770,-0.08500,59.0625,139,63,0.53284
3309780,-0.08500,58.5000,139,63,0.51331
3309790,-0.07000,58.7500,139,63,0.50379
3309800,-0.04500,60.0000,139,63,0.49426
3309810,-0.03000,63.1875,139,63,0.48474
3309820,-0.01500,76.6250,139,63,0.46667
3309830,0.00500,86.1250,139,63,0.45788
3309840,0.02000,96.1875,139,63,0.44908
3309850,0.03000,106.0000,139,63,0.44176
3309860,0.05000,122.2500,139,63,0.42808
3309870,0.07000,128.0000,139,63,0.42076
3309880,0.08500,132.1250,139,63,0.41319
3309890,0.09500,134.6875,139,63,0.40562
3309900,0.11000,136.4375,139,63,0.39121
3309910,0.12000,136.0625,139,63,0.38437
3309920,0.12500,135.1875,139,63,0.37778
3309930,0.12000,134.0000,139,63,0.37094
3309940,0.12000,130.9375,139,63,0.35775
3309950,0.12000,129.2500,139,63,0.35263
3309960,0.13000,127.5000,139,63,0.34823
3309970,0.13000,125.6875,139,63,0.34286
3309980,0.13000,122.1250,139,63,0.33089
3309990,0.10500,120.3750,139,63,0.32503
3310000,0.07500,118.6875,139,63,0.31917
3310010,0.04000,117.0000,139,63,0.31331
3310020,0.01000,113.6875,139,63,0.30208
3310030,-0.01500,111.9375,139,63,0.29646
3310040,-0.03500,110.0625,139,63,0.29109
3310050,-0.04500,107.8750,139,63,0.28742
3310060,-0.04500,102.1875,139,63,0.28205
3310070,-0.03500,98.7500,139,63,0.28010
3310080,-0.03500,95.0625,139,63,0.27985
3310090,-0.04500,91.5625,139,63,0.28278
3310100,-0.05500,85.9375,139,63,0.30134
3310110,-0.06500,84.0000,139,63,0.31844
3310120,-0.06000,82.5625,139,63,0.34066
3310130,-0.03500,81.5625,139,63,0.37729
3310140,-0.02000,80.4375,139,63,0.44176
3310150,-0.02000,80.0625,139,63,0.47082
3310160,-0.00500,79.8125,139,63,0.50012
3310170,0.00000,79.5000,139,63,0.53431
3310180,-0.02000,78.8125,139,63,0.60464
3310190,-0.06500,78.3750,139,63,0.63712
3310200,-0.12500,77.8750,139,63,0.66667
3310210,-0.18000,77.3125,139,63,0.69304
3310220,-0.22000,76.0625,139,63,0.73480
3310230,-0.22500,75.3750,139,63,0.75043
3310240,-0.22000,74.6875,139,63,0.76313
3310250,-0.21000,74.0000,139,63,0.77143
3310260,-0.19500,72.7500,139,63,0.78095
3310270,-0.18000,72.0625,139,63,0.78388
3310280,-0.17000,71.5000,139,63,0.78559
3310290,-0.15500,70.9375,139,63,0.78559
3310300,-0.16000,69.9375,139,63,0.78095
3310310,-0.11500,69.5000,139,63,0.77631
3310320,0.20500,69.0625,139,63,0.77045
3310330,0.84000,68.6250,139,63,0.76313
3310340,1.11500,67.7500,139,63,0.74359
3310350,0.52000,67.3125,139,63,0.73284
3310360,-0.22000,66.8125,139,63,0.72137
3310370,-0.47500,66.3125,139,63,0.70867
3310380,-0.37500,65.2500,139,63,0.68083
3310390,-0.21500,64.6875,139,63,0.66667
3310400,-0.14500,64.0625,139,63,0.65275
3310410,-0.13000,63.4375,139,63,0.63907
3310420,-0.11500,62.3125,139,63,0.61270
3310430,-0.09500,61.7500,139,63,0.60024
3310440,-0.07500,61.1875,139,63,0.58828
3310450,-0.06500,60.6250,139,63,0.57753
3310460,-0.05500,59.8125,139,63,0.55751
3310470,-0.04500,59.6250,139,63,0.54725
3310480,-0.03500,59.9375,139,63,0.53700
3310490,-0.02500,61.4375,139,63,0.52674
3310500,-0.02000,70.7500,139,63,0.50647
3310510,-0.02500,78.8125,139,63,0.49670
3310520,-0.01500,88.3750,139,63,0.48718
3310530,0.00000,98.3750,139,63,0.47766
3310540,0.02000,111.7708,139,63,0.46414
3310550,0.04000,123.6250,139,63,0.45153
3310560,0.07000,129.0000,139,63,0.44469
3310570,0.09000,132.7500,139,63,0.43712
3310580,0.09500,135.9375,139,63,0.42100
3310590,0.10000,136.0000,139,63,0.41319
3310600,0.10000,135.5000,139,63,0.40537
3310610,0.10000,134.5000,139,63,0.39780
3310620,0.09000,131.6875,139,63,0.38291
3310630,0.08000,130.0625,139,63,0.37582
3310640,0.08000,128.3750,139,63,0.36874
3310650,0.09000,126.6875,139,63,0.36313
3310660,0.10000,123.1875,139,63,0.35263
3310670,0.09500,121.5000,139,63,0.34652
3310680,0.08000,119.8125,139,63,0.34017
3310690,0.05500,118.1875,139,63,0.33382
3310700,0.03000,114.9375,139,63,0.32112
3310710,0.01000,113.1875,139,63,0.31453
3310720,0.00000,111.3750,139,63,0.30818
3310730,0.00000,109.3125,139,63,0.30183
3310740,0.00500,104.0625,139,63,0.29084
3310750,0.02000,100.7500,139,63,0.28791
3310760,0.03000,97.1250,139,63,0.28694
3310770,0.03000,93.3750,139,63,0.28742
3310780,0.03500,86.8750,139,63,0.29719
3310790,0.03500,84.5000,139,63,0.30842
3310800,0.05000,82.6875,139,63,0.32503
3310810,0.09000,81.3750,139,63,0.34676
3310820,0.14000,80.0000,139,63,0.40488
3310830,0.17500,79.6250,139,63,0.43980
3310840,0.20500,79.4375,139,63,0.47668
3310850,0.23000,79.2500,139,63,0.50965
3310860,0.25000,78.9375,139,63,0.57338
3310870,0.23000,78.6250,139,63,0.60659
3310880,0.16500,78.2500,139,63,0.63810
3310890,0.09000,77.3125,139,63,0.66667
3310900,0.02000,76.6875,139,63,0.71355
3310910,-0.01500,76.0625,139,63,0.73162
3310920,-0.03500,75.4375,139,63,0.74628
3310930,-0.05000,74.7500,139,63,0.75775
3310940,-0.06000,73.3750,139,63,0.77265
3310950,-0.07000,72.7500,139,63,0.77558
3310960,-0.07500,72.1250,139,63,0.77631
3310970,-0.08500,71.5625,139,63,0.77631
3310980,-0.10500,70.5000,139,63,0.77314
3310990,-0.11000,70.0625,139,63,0.76948
3311000,0.08000,69.6250,137,62,0.75507
3311010,0.60500,69.1875,137,62,0.73480
3311020,1.00000,68.3125,137,62,0.70720
3311030,0.60500,67.8125,137,62,0.69475
3311040,-0.13000,67.3750,137,62,0.68230
3311050,-0.49000,66.8750,137,62,0.67009
3311060,-0.49000,65.7500,137,62,0.64518
3311070,-0.34500,65.1250,137,62,0.63199
3311080,-0.25000,64.5625,137,62,0.61856
3311090,-0.24000,63.3750,137,62,0.60513
3311100,-0.23000,62.8750,137,62,0.57900
3311110,-0.23000,62.3125,137,62,0.56654
3311120,-0.23000,61.8125,137,62,0.55433
3311130,-0.23000,61.2500,137,62,0.54261
3311140,-0.23000,60.3750,137,62,0.52137
3311150,-0.21500,60.0000,137,62,0.50989
3311160,-0.19500,60.0000,137,62,0.49915
3311170,-0.18000,60.6875,137,62,0.49109
3311180,-0.16500,66.8125,137,62,0.47302
3311190,-0.15000,73.3125,137,62,0.46374
3311200,-0.13500,81.7500,137,62,0.45470
3311210,-0.10500,100.6875,137,62,0.43663
3311220,-0.09000,109.5000,137,62,0.42759
3311230,-0.07000,117.1250,137,62,0.41856
3311240,-0.05500,123.1875,137,62,0.40977
3311250,-0.04000,127.6250,137,62,0.40269
3311260,-0.02500,132.0625,137,62,0.38901
3311270,-0.01500,132.5000,137,62,0.38169
3311280,0.00000,132.1250,137,62,0.37436
3311290,0.00500,131.1250,137,62,0.36703
3311300,0.01500,128.1875,137,62,0.35263
3311310,0.02250,126.3125,137,62,0.34579
3311320,0.03000,124.3125,137,62,0.33919
3311330,0.04000,122.3125,137,62,0.33260
3311340,0.04000,118.2500,137,62,0.32088
3311350,0.03000,116.2500,137,62,0.31648
3311360,0.01000,114.3750,137,62,0.31111
3311370,-0.01500,112.5625,137,62,0.30525
3311380,-0.04000,109.1250,137,62,0.29353
3311390,-0.06000,107.3125,137,62,0.28767
3311400,-0.06500,105.3750,137,62,0.28181
3311410,-0.06500,103.1875,137,62,0.27595
3311420,-0.06000,97.6875,137,62,0.26471
3311430,-0.05500,94.5000,137,62,0.25983
3311440,-0.06000,91.2500,137,62,0.25641
3311450,-0.06000,88.3750,137,62,0.25568
3311460,-0.05500,83.8750,137,62,0.26154
3311470,-0.04500,82.3750,137,62,0.26911
3311480,-0.03500,81.3125,137,62,0.28107
3311490,0.00000,80.5625,137,62,0.29768
3311500,0.02500,79.6250,137,62,0.34530
3311510,0.05500,79.3125,137,62,0.37509
3311520,0.09000,79.0000,137,62,0.40733
3311530,0.11000,78.7500,137,62,0.44103
3311540,0.09500,78.0625,137,62,0.50354
3311550,0.04500,77.5625,137,62,0.52894
3311560,-0.02500,77.0625,137,62,0.55507
3311570,-0.09500,76.4375,137,62,0.57998
3311580,-0.13500,75.1875,137,62,0.62198
3311590,-0.16000,74.5625,137,62,0.63834
3311600,-0.17500,73.9375,137,62,0.65201
3311610,-0.18000,72.6875,137,62,0.66300
3311620,-0.18000,72.0625,137,62,0.67717
3311630,-0.18000,71.5000,137,62,0.68107
3311640,-0.17500,71.0000,137,62,0.68303
3311650,-0.17500,70.5000,137,62,0.68278
3311660,-0.19500,69.6875,137,62,0.67766
3311670,-0.06500,69.2500,137,62,0.67375
3311680,0.38500,68.8750,137,62,0.66838
3311690,0.85000,68.4375,137,62,0.66178
3311700,0.64000,67.6250,137,62,0.64518
3311710,-0.01500,67.1250,137,62,0.63516
3311720,-0.43000,66.5625,137,62,0.62442
3311730,-0.50500,65.9375,137,62,0.61319
3311740,-0.38500,64.8125,137,62,0.59072
3311750,-0.28000,64.2500,137,62,0.58046
3311760,-0.25000,63.6875,137,62,0.56947
3311770,-0.24000,63.0625,137,62,0.55849
3311780,-0.22500,61.9375,137,62,0.53724
3311790,-0.21000,61.3750,137,62,0.52698
3311800,-0.20500,60.8750,137,62,0.51697
3311810,-0.19500,60.4375,137,62,0.50696
3311820,-0.18000,59.8125,137,62,0.48816
3311830,-0.15500,59.9375,137,62,0.47912
3311840,-0.14000,60.8125,137,62,0.47009
3311850,-0.13000,63.0625,137,62,0.46252
3311860,-0.12500,74.0000,137,62,0.44811
3311870,-0.11500,82.3125,137,62,0.44029
3311880,-0.09500,91.3750,137,62,0.43248
3311890,-0.07500,100.3750,137,62,0.42442
3311900,-0.06000,115.6875,137,62,0.40879
3311910,-0.04500,121.3125,137,62,0.40122
3311920,-0.03500,125.3750,137,62,0.39390
3311930,-0.02000,128.0000,137,62,0.38657
3311940,-0.01500,129.6250,137,62,0.37338
3311950,-0.00500,129.1250,137,62,0.36825
3311960,0.00000,128.1250,137,62,0.36239
3311970,0.00500,126.6875,137,62,0.35604
3311980,0.02000,123.1250,137,62,0.34359
3311990,0.04000,121.1250,137,62,0.33724
3312000,0.05500,119.0625,136,62,0.33089
3312010,0.06000,117.0625,136,62,0.32454
3312020,0.05000,113.1875,136,62,0.31258
3312030,0.02000,111.3750,136,62,0.30672
3312040,-0.00500,109.5625,136,62,0.30085
3312050,-0.03500,107.8125,136,62,0.29646
3312060,-0.05500,104.1250,136,62,0.28816
3312070,-0.06500,102.0625,136,62,0.28303
3312080,-0.06500,99.6875,136,62,0.27741
3312090,-0.06000,93.6875,136,62,0.27204
3312100,-0.06000,90.3125,136,62,0.26252
3312110,-0.06000,87.0000,136,62,0.25934
3312120,-0.05500,84.0625,136,62,0.25812
3312130,-0.04500,81.7500,136,62,0.25958
3312140,-0.04000,79.0000,136,62,0.27253
3312150,-0.03500,78.3125,136,62,0.28327
3312160,-0.03500,77.9375,136,62,0.29866
3312170,-0.01500,77.5625,136,62,0.31844
3312180,0.00000,77.5000,136,62,0.38144
3312190,0.01500,77.3125,136,62,0.40513
3312200,0.04500,77.1250,136,62,0.43297
3312210,0.08000,76.8750,136,62,0.46227
3312220,0.07000,76.0625,136,62,0.51966
3312230,0.03500,75.5625,136,62,0.54554
3312240,-0.02500,75.0000,136,62,0.56850
3312250,-0.08500,74.3750,136,62,0.58632
3312260,-0.12500,73.1250,136,62,0.61319
3312270,-0.15000,72.5000,136,62,0.62466
3312280,-0.16000,71.8750,136,62,0.63394
3312290,-0.17000,70.5000,136,62,0.64127
3312300,-0.17000,69.9375,136,62,0.64982
3312310,-0.17000,69.3750,136,62,0.65153
3312320,-0.17000,68.8750,136,62,0.65177
3312330,-0.16000,68.5000,136,62,0.65079
3312340,-0.16500,67.7500,136,62,0.64469
3312350,-0.08500,67.4375,136,62,0.63980
3312360,0.27500,67.1250,136,62,0.63346
3312370,0.81000,66.3750,136,62,0.62589
3312380,0.81500,66.0000,136,62,0.60708
3312390,0.23500,65.5625,136,62,0.59634
3312400,-0.26500,65.0625,136,62,0.58510
3312410,-0.44500,64.5000,136,62,0.57338
3312420,-0.37500,63.3750,136,62,0.55018
3312430,-0.25500,62.8125,136,62,0.53919
3312440,-0.20000,62.3125,136,62,0.52869
3312450,-0.18500,61.8125,136,62,0.51966
3312460,-0.17500,60.8750,136,62,0.50256
3312470,-0.18000,60.5000,136,62,0.49353
3312480,-0.18000,60.0000,136,62,0.48498
3312490,-0.16500,59.5625,136,62,0.47668
3312500,-0.15000,58.9375,136,62,0.46105
3312510,-0.13500,58.8750,136,62,0.45324
3312520,-0.12500,59.5000,136,62,0.44542
3312530,-0.11000,61.4375,136,62,0.43785
3312540,-0.09000,71.3750,136,62,0.42393
3312550,-0.07000,79.2500,136,62,0.41832
3312560,-0.04500,88.1250,136,62,0.41172
3312570,-0.02000,97.1250,136,62,0.40464
3312580,0.00000,113.0625,136,62,0.39048
3312590,0.01500,120.5625,136,62,0.38238
3312600,0.03000,123.8125,136,62,0.37680
3312610,0.05000,127.0000,136,62,0.37021
3312620,0.07000,129.8125,136,62,0.35775
3312630,0.09000,129.8125,136,62,0.35189
3312640,0.11000,129.1250,136,62,0.34603
3312650,0.12500,127.9375,136,62,0.34139
3312660,0.13000,124.6250,136,62,0.33260
3312670,0.14500,122.6875,136,62,0.32723
3312680,0.15500,120.7500,136,62,0.32186
3312690,0.16500,118.7500,136,62,0.31648
3312700,0.16000,114.8750,136,62,0.30549
3312710,0.13500,113.0000,136,62,0.30012
3312720,0.10000,111.2500,136,62,0.29475
3312730,0.07000,109.5000,136,62,0.28962
3312740,0.03500,105.9375,136,62,0.28083
3312750,0.01500,104.0000,136,62,0.27766
3312760,0.01000,101.8750,136,62,0.27350
3312770,0.02000,99.3750,136,62,0.26886
3312780,0.03000,93.3750,136,62,0.26007
3312790,0.03500,90.1875,136,62,0.25690
3312800,0.04000,87.2500,136,62,0.25543
3312810,0.04000,84.8125,136,62,0.25641
3312820,0.04000,81.5625,136,62,0.26862
3312830,0.04000,80.5625,136,62,0.28107
3312840,0.03000,79.8750,136,62,0.29548
3312850,0.04000,79.3750,136,62,0.31258
3312860,0.06000,78.7500,136,62,0.36044
3312870,0.08500,78.5000,136,62,0.38926
3312880,0.11500,78.2500,136,62,0.41978
3312890,0.15500,77.9375,136,62,0.45104
3312900,0.16000,77.1875,136,62,0.51184
3312910,0.13000,76.6875,136,62,0.53993
3312920,0.06500,76.1250,136,62,0.56557
3312930,0.00000,75.5625,136,62,0.58828
3312940,-0.05500,74.3750,136,62,0.62222
3312950,-0.08500,73.7500,136,62,0.63321
3312960,-0.10500,73.1875,136,62,0.64347
3312970,-0.12000,72.5625,136,62,0.65201
3312980,-0.13000,71.4375,136,62,0.66374
3312990,-0.14000,70.9375,136,62,0.66691
3313000,-0.14000,70.4375,136,61,0.66838
3313010,-0.13500,70.0000,136,61,0.66838
3313020,-0.14500,69.2500,136,61,0.66374
3313030,-0.12500,68.8750,136,61,0.65934
3313040,0.11000,68.5625,136,61,0.65372
3313050,0.62000,68.2500,136,61,0.65348
3313060,0.91500,67.5000,136,61,0.65079
3313070,0.55500,67.1250,136,61,0.64298
3313080,-0.06500,66.6250,136,61,0.63297
3313090,-0.39500,66.1250,136,61,0.62173
3313100,-0.41500,65.1250,136,61,0.59805
3313110,-0.31500,64.5625,136,61,0.58608
3313120,-0.24500,64.0625,136,61,0.57436
3313130,-0.23000,63.6250,136,61,0.56313
3313140,-0.22500,62.6875,136,61,0.54286
3313150,-0.21500,62.1875,136,61,0.53431
3313160,-0.21000,61.6875,136,61,0.52503
3313170,-0.21000,61.1875,136,61,0.51355
3313180,-0.20000,60.3750,136,61,0.49597
3313190,-0.19000,60.2500,136,61,0.48816
3313200,-0.17500,60.5625,136,61,0.47839
3313210,-0.16000,61.8750,136,61,0.46960
3313220,-0.15000,69.9375,136,61,0.45568
3313230,-0.13500,77.0000,136,61,0.44811
3313240,-0.11500,85.3125,136,61,0.44176
3313250,-0.08500,94.0625,136,61,0.43614
3313260,-0.07000,110.2500,136,61,0.42222
3313270,-0.05500,116.7500,136,61,0.41490
3313280,-0.03500,121.8750,136,61,0.40781
3313290,-0.01500,125.6250,136,61,0.40073
3313300,-0.00500,129.1250,136,61,0.38486
3313310,0.01000,129.4375,136,61,0.37949
3313320,0.01500,129.0000,136,61,0.37387
3313330,0.02000,128.0000,136,61,0.36801
3313340,0.02000,125.0625,136,61,0.35775
3313350,0.03000,123.2500,136,61,0.35385
3313360,0.04000,121.4375,136,61,0.34921
3313370,0.05000,119.5000,136,61,0.34432
3313380,0.06000,115.7500,136,61,0.33382
3313390,0.05000,114.0625,136,61,0.32845
3313400,0.02500,112.3750,136,61,0.32283
3313410,-0.00500,110.6875,136,61,0.31722
3313420,-0.03500,107.4375,136,61,0.30501
3313430,-0.04500,105.6875,136,61,0.29890
3313440,-0.05500,103.7500,136,61,0.29597
3313450,-0.05500,101.5000,136,61,0.29328
3313460,-0.05000,95.9375,136,61,0.28474
3313470,-0.04500,92.7500,136,61,0.28083
3313480,-0.03500,89.5000,136,61,0.27839
3313490,-0.03000,86.6250,136,61,0.27790
3313500,-0.02500,82.4375,136,61,0.28620
3313510,-0.02500,81.1250,136,61,0.29695
3313520,-0.02500,80.1875,136,61,0.31233
3313530,-0.01500,79.5000,136,61,0.33211
3313540,0.00500,78.6250,136,61,0.38046
3313550,0.02000,78.2500,136,61,0.40537
3313560,0.04500,77.9375,136,61,0.43468
3313570,0.08000,77.5625,136,61,0.46593
3313580,0.10500,76.7500,136,61,0.52991
3313590,0.09000,76.2500,136,61,0.56020
3313600,0.04000,75.6875,136,61,0.58828
3313610,-0.02500,75.1250,136,61,0.61368
3313620,-0.08500,73.8750,136,61,0.65543
3313630,-0.12500,73.3125,136,61,0.67179
3313640,-0.14500,72.6875,136,61,0.68327
3313650,-0.15500,72.0625,136,61,0.69133
3313660,-0.15500,70.9375,136,61,0.70427
3313670,-0.15500,70.3750,136,61,0.70842
3313680,-0.15000,69.9375,136,61,0.71087
3313690,-0.13500,69.5000,136,61,0.71136
3313700,-0.13500,68.7500,136,61,0.70794
3313710,-0.13500,68.3750,136,61,0.70427
3313720,0.02000,68.0000,136,61,0.69915
3313730,0.46500,67.6250,136,61,0.69255
3313740,0.92000,66.7500,136,61,0.67595
3313750,0.75500,66.2500,136,61,0.66667
3313760,0.10000,65.7500,136,61,0.65592
3313770,-0.33000,65.1875,136,61,0.64420
3313780,-0.42500,64.1250,136,61,0.61954
3313790,-0.34000,63.5625,136,61,0.60684
3313800,-0.25000,62.9375,136,61,0.59438
3313810,-0.22000,62.4375,136,61,0.58217
3313820,-0.21000,61.3750,136,61,0.55897
3313830,-0.20000,60.8750,136,61,0.54774
3313840,-0.20000,60.4375,136,61,0.53797
3313850,-0.20000,59.9375,136,61,0.52943
3313860,-0.19500,59.0625,136,61,0.51111
3313870,-0.18500,58.8125,136,61,0.50183
3313880,-0.17000,58.8750,136,61,0.49280
3313890,-0.15500,59.6875,136,61,0.48400
3313900,-0.14500,66.1875,136,61,0.46667
3313910,-0.13500,72.7500,136,61,0.45812
3313920,-0.11500,80.9375,136,61,0.45006
3313930,-0.09000,89.8750,136,61,0.44200
3313940,-0.06500,107.0000,136,61,0.42662
3313950,-0.05000,114.1875,136,61,0.42027
3313960,-0.03500,120.0000,136,61,0.41270
3313970,-0.01500,124.3125,136,61,0.40488
3313980,0.00000,129.0000,136,61,0.38999
3313990,0.02000,129.6875,136,61,0.38266
3314000,0.03500,129.6250,136,61,0.37534
3314010,0.04000,129.0000,136,61,0.36825
3314020,0.04000,126.4375,136,61,0.35482
3314030,0.04500,124.7500,136,61,0.34823
3314040,0.04500,122.8750,136,61,0.34310
3314050,0.05500,121.0000,136,61,0.33895
3314060,0.06000,117.1875,136,61,0.32821
3314070,0.06500,115.3125,136,61,0.32210
3314080,0.05000,113.4375,136,61,0.31624
3314090,0.02000,111.6875,136,61,0.31038
3314100,-0.00500,108.3125,136,61,0.29866
3314110,-0.02500,106.6250,136,61,0.29304
3314120,-0.04500,104.8750,136,61,0.28742
3314130,-0.04500,102.8750,136,61,0.28181
3314140,-0.04000,98.0625,136,61,0.27228
3314150,-0.02500,95.0625,136,61,0.26960
3314160,-0.02000,91.9375,136,61,0.26740
3314170,-0.01500,88.9375,136,61,0.26642
3314180,-0.02000,84.0000,136,61,0.27131
3314190,-0.02000,82.3125,136,61,0.28498
3314200,-0.02000,81.0000,136,61,0.30061
3314210,-0.01500,80.0625,136,61,0.31477
3314220,0.00000,78.8125,136,61,0.36923
3314230,0.02000,78.3750,136,61,0.40269
3314240,0.04000,78.0000,136,61,0.42393
3314250,0.07500,77.6250,136,61,0.44786
3314260,0.11000,76.8125,136,61,0.50842
3314270,0.11500,76.3750,136,61,0.53944
3314280,0.08000,75.8750,136,61,0.56923
3314290,0.02000,75.3750,136,61,0.59658
3314300,-0.04500,74.1875,136,61,0.64274
3314310,-0.09500,73.6250,136,61,0.66105
3314320,-0.13500,73.0625,136,61,0.67643
3314330,-0.15000,72.5000,136,61,0.68864
3314340,-0.16000,71.3750,136,61,0.70452
3314350,-0.16000,70.8125,136,61,0.70818
3314360,-0.15500,70.3125,136,61,0.71111
3314370,-0.14500,69.8125,136,61,0.71282
3314380,-0.14500,68.8750,136,61,0.71184
3314390,-0.15500,68.5000,136,61,0.70916
3314400,-0.11500,68.0625,136,61,0.70525
3314410,0.15500,67.3125,136,61,0.70012
3314420,0.80500,66.9375,136,61,0.68156
3314430,0.94000,66.5000,136,61,0.67424
3314440,0.45000,66.0625,136,61,0.66569
3314450,-0.17500,65.5625,136,61,0.65324
3314460,-0.43500,64.5000,136,61,0.63150
3314470,-0.40000,63.9375,136,61,0.62051
3314480,-0.28000,63.3750,136,61,0.60611
3314490,-0.23000,62.8750,136,61,0.59292
3314500,-0.22500,61.8750,136,61,0.57338
3314510,-0.22000,61.3750,136,61,0.56020
3314520,-0.21500,60.8750,136,61,0.54847
3314530,-0.21000,60.4375,136,61,0.54017
3314540,-0.20500,59.5625,136,61,0.52063
3314550,-0.20000,59.2500,136,61,0.51184
3314560,-0.19000,59.0625,136,61,0.50501
3314570,-0.17500,59.3750,136,61,0.49719
3314580,-0.16000,63.7500,136,61,0.47692
3314590,-0.14500,69.1875,136,61,0.46984
3314600,-0.13000,76.6875,136,61,0.46178
3314610,-0.11000,85.5625,136,61,0.45128
3314620,-0.09500,103.8750,136,61,0.43541
3314630,-0.07500,111.9375,136,61,0.42808
3314640,-0.05500,118.6250,136,61,0.42198
3314650,-0.03500,123.8750,136,61,0.41636
3314660,-0.02000,130.0000,136,61,0.40317
3314670,-0.01500,131.1875,136,61,0.39438
3314680,-0.01500,131.4375,136,61,0.38632
3314690,-0.01500,131.0000,136,61,0.38046
3314700,-0.01500,128.8750,136,61,0.36630
3314710,-0.01500,127.3750,136,61,0.35922
3314720,-0.02000,125.6875,136,61,0.35409
3314730,-0.01500,123.9375,136,61,0.34847
3314740,0.00000,120.2500,136,61,0.33748
3314750,0.02000,118.4375,136,61,0.33358
3314760,0.03000,116.6250,136,61,0.32723
3314770,0.03000,114.8750,136,61,0.32112
3314780,0.01000,111.4375,136,61,0.31184
3314790,-0.01500,109.7500,136,61,0.30501
3314800,-0.03000,108.0625,136,61,0.29744
3314810,-0.03500,106.2500,136,61,0.29231
3314820,-0.03500,102.1250,136,61,0.28254
3314830,-0.03500,99.5000,136,61,0.27741
3314840,-0.03500,96.4375,136,61,0.27546
3314850,-0.02500,93.1875,136,61,0.27497
3314860,-0.02000,87.1250,136,61,0.28327
3314870,-0.01000,84.8125,136,61,0.29377
3314880,-0.01000,82.9375,136,61,0.30916
3314890,-0.01500,81.6250,136,61,0.32918
3314900,-0.01500,79.9375,136,61,0.38266
3314910,0.00000,79.3750,136,61,0.41490
3314920,0.02500,79.0000,136,61,0.44005
3314930,0.05000,78.6875,136,61,0.46642
3314940,0.07000,78.0625,136,61,0.52918
3314950,0.10500,77.6875,136,61,0.55873
3314960,0.12000,77.2500,136,61,0.59634
3314970,0.11000,76.7500,136,61,0.62759
3314980,0.06000,75.6875,136,61,0.67619
3314990,0.00500,75.1250,136,61,0.69475
3315000,-0.05500,74.5000,135,61,0.71013
3315010,-0.09500,73.8750,135,61,0.72234
3315020,-0.11500,72.6250,135,61,0.73871
3315030,-0.13500,72.0000,135,61,0.74237
3315040,-0.14500,71.3750,135,61,0.74383
3315050,-0.14500,70.8125,135,61,0.74457
3315060,-0.14000,69.6875,135,61,0.74286
3315070,-0.13500,69.1875,135,61,0.74017
3315080,-0.13500,68.7500,135,61,0.73602
3315090,-0.14500,68.3125,135,61,0.73065
3315100,-0.08000,67.6250,135,61,0.71551
3315110,0.25500,67.2500,135,61,0.70574
3315120,0.83500,66.8750,135,61,0.69451
3315130,0.98000,66.5000,135,61,0.68327
3315140,0.34500,65.6875,135,61,0.65885
3315150,-0.30000,65.1875,135,61,0.64567
3315160,-0.48000,64.6875,135,61,0.63248
3315170,-0.38000,64.1875,135,61,0.61929
3315180,-0.26500,63.1250,135,61,0.59389
3315190,-0.23000,62.6875,135,61,0.58169
3315200,-0.23000,62.1875,135,61,0.56996
3315210,-0.22000,61.7500,135,61,0.55849
3315220,-0.22000,60.8125,135,61,0.53651
3315230,-0.21000,60.3750,135,61,0.52723
3315240,-0.21000,59.9375,135,61,0.51844
3315250,-0.19500,59.6250,135,61,0.50891
3315260,-0.17500,59.5625,135,61,0.48938
3315270,-0.16000,60.6875,135,61,0.47985
3315280,-0.15000,63.5625,135,61,0.47033
3315290,-0.13500,68.7500,135,61,0.46105
3315300,-0.11500,85.1875,135,61,0.44225
3315310,-0.09500,94.8125,135,61,0.43297
3315320,-0.07500,104.1250,135,61,0.42393
3315330,-0.05500,112.6250,135,61,0.41636
3315340,-0.04500,125.1875,135,61,0.40244
3315350,-0.02500,129.0625,135,61,0.39487
3315360,-0.01000,131.5000,135,61,0.38730
3315370,0.00000,132.6875,135,61,0.37973
3315380,0.01000,132.5625,135,61,0.36459
3315390,0.02000,131.6875,135,61,0.35726
3315400,0.03000,130.4375,135,61,0.35018
3315410,0.04000,128.9375,135,61,0.34310
3315420,0.05500,125.6875,135,61,0.32943
3315430,0.07000,123.9375,135,61,0.32430
3315440,0.08000,122.1875,135,61,0.31990
3315450,0.09000,120.4375,135,61,0.31453
3315460,0.07500,117.0000,135,61,0.30256
3315470,0.05000,115.3125,135,61,0.29646
3315480,0.01500,113.6250,135,61,0.29035
3315490,-0.00500,112.0000,135,61,0.28449
3315500,-0.02500,108.6250,135,61,0.27326
3315510,-0.03500,106.6875,135,61,0.26764
3315520,-0.03500,104.4375,135,61,0.26252
3315530,-0.02500,101.7500,135,61,0.25934
3315540,-0.01500,95.3750,135,61,0.25763
3315550,-0.00500,91.8750,135,61,0.25958
3315560,0.00000,88.6875,135,61,0.26520
3315570,0.00000,86.0000,135,61,0.27521
3315580,0.00500,82.2500,135,61,0.31087
3315590,0.01500,81.0625,135,61,0.33651
3315600,0.03500,80.3125,135,61,0.36679
3315610,0.06500,79.7500,135,61,0.40098
3315620,0.08500,79.0625,135,61,0.47619
3315630,0.10000,78.8750,135,61,0.50989
3315640,0.13000,78.6250,135,61,0.54066
3315650,0.13000,78.3125,135,61,0.57387
3315660,0.10500,77.6979,135,61,0.62080
3315670,0.06000,77.0000,135,61,0.66471
3315680,0.00000,76.4375,135,61,0.68889
3315690,-0.05500,75.8125,135,61,0.70940
3315700,-0.09500,74.5000,135,61,0.74066
3315710,-0.11500,73.8750,135,61,0.75165
3315720,-0.13000,73.2500,135,61,0.75971
3315730,-0.13500,72.6250,135,61,0.76410
3315740,-0.13500,71.4375,135,61,0.76728
3315750,-0.13000,70.8750,135,61,0.76728
3315760,-0.12500,70.3750,135,61,0.76606
3315770,-0.12000,69.8750,135,61,0.76337
3315780,-0.13500,69.0625,135,61,0.75385
3315790,-0.06500,68.6875,135,61,0.74701
3315800,0.27500,68.2500,135,61,0.73846
3315810,0.83000,67.8750,135,61,0.72845
3315820,0.92000,66.9375,135,61,0.70452
3315830,0.30500,66.3750,135,61,0.69206
3315840,-0.27000,65.8125,135,61,0.67961
3315850,-0.43500,65.1875,135,61,0.66642
3315860,-0.34500,64.0000,135,61,0.63858
3315870,-0.23000,63.3750,135,61,0.62466
3315880,-0.19000,62.8750,135,61,0.61099
3315890,-0.19000,62.3125,135,61,0.59780
3315900,-0.19000,61.2500,135,61,0.57314
3315910,-0.18500,60.7500,135,61,0.56142
3315920,-0.18000,60.3125,135,61,0.55018
3315930,-0.18000,59.8750,135,61,0.54042
3315940,-0.17000,59.2500,135,61,0.52186
3315950,-0.16000,59.3125,135,61,0.51184
3315960,-0.14000,60.0625,135,61,0.50183
3315970,-0.12500,62.2500,135,61,0.49158
3315980,-0.11500,73.0000,135,61,0.47057
3315990,-0.09500,81.2500,135,61,0.46032
3316000,-0.06500,90.3125,134,61,0.45031
3316010,-0.03500,99.3125,134,61,0.44054
3316020,-0.01000,114.8750,134,61,0.42173
3316030,0.00000,120.6250,134,61,0.41416
3316040,0.01500,124.7500,134,61,0.40733
3316050,0.03000,127.4375,134,61,0.39976
3316060,0.04500,129.3750,134,61,0.38364
3316070,0.05000,129.0625,134,61,0.37558
3316080,0.05000,128.1875,134,61,0.36777
3316090,0.05000,126.9375,134,61,0.35995
3316100,0.06000,123.5625,134,61,0.34530
3316110,0.06500,121.6250,134,61,0.33822
3316120,0.08000,119.6875,134,61,0.33138
3316130,0.08500,117.7500,134,61,0.32601
3316140,0.09000,113.9375,134,61,0.31551
3316150,0.08000,112.1250,134,61,0.30891
3316160,0.06000,110.4375,134,61,0.30208
3316170,0.03000,108.7500,134,61,0.29499
3316180,0.01000,105.4375,134,61,0.28156
3316190,-0.01000,103.6250,134,61,0.27521
3316200,-0.01500,101.5625,134,61,0.26886
3316210,-0.01500,99.1250,134,61,0.26300
3316220,-0.00500,93.2500,134,61,0.25372
3316230,0.00000,90.0625,134,61,0.25250
3316240,0.01000,87.0625,134,61,0.25348
3316250,0.01500,84.5000,134,61,0.25690
3316260,0.02000,80.8750,134,61,0.27546
3316270,0.03000,79.7500,134,61,0.29182
3316280,0.05000,78.9375,134,61,0.31282
3316290,0.07500,78.3125,134,61,0.33846
3316300,0.09000,77.6250,134,61,0.39976
3316310,0.12000,77.3750,134,61,0.43321
3316320,0.15000,77.0625,134,61,0.46716
3316330,0.14000,76.7500,134,61,0.49670
3316340,0.09500,76.0000,134,61,0.55043
3316350,0.03000,75.5625,134,61,0.57729
3316360,-0.02500,75.0000,134,61,0.60171
3316370,-0.06500,74.4375,134,61,0.62320
3316380,-0.09000,73.2500,134,61,0.65739
3316390,-0.09500,72.6250,134,61,0.67009
3316400,-0.09500,72.0000,134,61,0.67985
3316410,-0.09500,71.4375,134,61,0.68718
3316420,-0.09500,70.3750,134,61,0.69475
3316430,-0.09500,69.8750,134,61,0.69475
3316440,-0.09500,69.4375,134,61,0.69426
3316450,-0.11500,69.0000,134,61,0.69255
3316460,-0.08500,68.1875,134,61,0.68523
3316470,0.20000,67.7500,134,61,0.67961
3316480,0.74500,67.3125,134,61,0.67253
3316490,0.91500,66.8125,134,61,0.66422
3316500,0.43000,65.7500,134,61,0.64396
3316510,-0.15500,65.1250,134,61,0.63248
3316520,-0.41000,64.5625,134,61,0.62027
3316530,-0.38000,63.9375,134,61,0.60855
3316540,-0.26000,62.7500,134,61,0.58559
3316550,-0.20000,62.2500,134,61,0.57363
3316560,-0.19000,61.6875,134,61,0.56166
3316570,-0.17500,61.1875,134,61,0.55018
3316580,-0.16000,60.2500,134,61,0.52796
3316590,-0.15500,59.8125,134,61,0.51746
3316600,-0.15500,59.3750,134,61,0.50720
3316610,-0.14500,59.0000,134,61,0.49719
3316620,-0.12500,58.6250,134,61,0.47912
3316630,-0.11500,59.1250,134,61,0.47179
3316640,-0.10500,60.8125,134,61,0.46349
3316650,-0.09500,64.3125,134,61,0.45470
3316660,-0.08000,77.5000,134,61,0.43712
3316670,-0.06000,86.0000,134,61,0.42857
3316680,-0.03500,94.6250,134,61,0.42002
3316690,-0.01500,102.8125,134,61,0.41148
3316700,-0.00500,115.8125,134,61,0.39487
3316710,0.01000,120.1250,134,61,0.38657
3316720,0.03000,123.0000,134,61,0.37851
3316730,0.04000,124.5625,134,61,0.37192
3316740,0.06000,124.7500,134,61,0.35971
3316750,0.07000,123.8125,134,61,0.35263
3316760,0.08000,122.3750,134,61,0.34579
3316770,0.08500,120.6875,134,61,0.33895
3316780,0.09500,116.7500,134,61,0.32503
3316790,0.11000,114.7500,134,61,0.31819
3316800,0.12000,112.6875,134,61,0.31136
3316810,0.12500,110.6875,134,61,0.30476
3316820,0.11000,106.9375,134,61,0.29328
3316830,0.08000,105.1250,134,61,0.28913
3316840,0.04500,103.3750,134,61,0.28400
3316850,0.01500,101.6250,134,61,0.27814
3316860,-0.00500,97.7500,134,61,0.26593
3316870,-0.00500,95.4375,134,61,0.25983
3316880,0.00000,92.8125,134,61,0.25397
3316890,0.00500,89.8750,134,61,0.24860
3316900,0.01000,83.5000,134,61,0.24151
3316910,0.00000,80.6875,134,61,0.24127
3316920,-0.00500,78.4375,134,61,0.24420
3316930,-0.00500,76.8750,134,61,0.25031
3316940,-0.01000,75.2500,134,61,0.27375
3316950,-0.01000,74.9375,134,61,0.29231
3316960,-0.00500,74.8125,134,61,0.31477
3316970,0.01000,74.8125,134,61,0.34066
3316980,0.03500,74.7500,134,61,0.40000
3316990,0.07500,74.6250,134,61,0.43101
3317000,0.11000,74.4375,133,61,0.46178
3317010,0.13000,74.1250,133,61,0.49158
3317020,0.11500,73.3125,133,61,0.54188
3317030,0.06000,72.8125,133,61,0.56044
3317040,-0.00500,72.2500,133,61,0.57851
3317050,-0.06000,71.6875,133,61,0.59512
3317060,-0.10500,70.4375,133,61,0.62076
3317070,-0.12500,69.8125,133,61,0.62979
3317080,-0.13500,69.1875,133,61,0.63639
3317090,-0.13500,68.5625,133,61,0.64078
3317100,-0.13500,67.4375,133,61,0.64469
3317110,-0.13500,66.9375,133,61,0.64444
3317120,-0.13000,66.4375,133,61,0.64249
3317130,-0.12500,66.0625,133,61,0.63907
3317140,-0.13500,65.3750,133,61,0.62198
3317150,-0.00500,65.0000,133,61,0.61319
3317160,0.40000,64.6875,133,61,0.60415
3317170,0.87500,64.3750,133,61,0.59438
3317180,0.78500,63.6250,133,61,0.57289
3317190,0.15500,63.2500,133,61,0.56142
3317200,-0.30500,62.7500,133,61,0.54969
3317210,-0.42500,62.2500,133,61,0.53822
3317220,-0.34500,61.3125,133,61,0.51770
3317230,-0.24000,60.8125,133,61,0.50916
3317240,-0.20500,60.3125,133,61,0.50012
3317250,-0.20000,59.8125,133,61,0.49133
3317260,-0.18500,58.9375,133,61,0.47448
3317270,-0.18000,58.4375,133,61,0.46618
3317280,-0.17500,58.0000,133,61,0.45812
3317290,-0.17000,57.5625,133,61,0.45031
3317300,-0.15000,57.0625,133,61,0.43492
3317310,-0.13000,57.3125,133,61,0.42735
3317320,-0.11500,58.4375,133,61,0.41978
3317330,-0.10500,61.1250,133,61,0.41368
3317340,-0.09500,72.7500,133,61,0.40171
3317350,-0.08000,81.0000,133,61,0.39512
3317360,-0.06500,89.6875,133,61,0.38852
3317370,-0.04500,98.1875,133,61,0.38193
3317380,-0.02500,112.5625,133,61,0.36850
3317390,-0.01500,117.8125,133,61,0.36190
3317400,0.00000,121.7500,133,61,0.35556
3317410,0.02000,124.2500,133,61,0.34945
3317420,0.03000,126.0000,133,61,0.33895
3317430,0.03500,125.6250,133,61,0.33504
3317440,0.04500,124.7500,133,61,0.33040
3317450,0.05000,123.3750,133,61,0.32527
3317460,0.06500,119.9375,133,61,0.31477
3317470,0.08500,118.0625,133,61,0.30940
3317480,0.10000,116.1250,133,61,0.30427
3317490,0.10000,114.1875,133,61,0.29915
3317500,0.09000,110.5000,133,61,0.28938
3317510,0.07000,108.7500,133,61,0.28449
3317520,0.04000,107.0000,133,61,0.27961
3317530,0.01000,105.3750,133,61,0.27595
3317540,-0.00500,102.0000,133,61,0.26935
3317550,-0.01500,100.1875,133,61,0.26471
3317560,-0.02000,98.0625,133,61,0.25983
3317570,-0.02000,92.9375,133,61,0.25495
3317580,-0.01500,89.9375,133,61,0.24811
3317590,-0.01500,86.9375,133,61,0.24737
3317600,-0.01500,84.3125,133,61,0.24933
3317610,-0.01500,82.1250,133,61,0.25470
3317620,-0.01500,79.1875,133,61,0.27643
3317630,-0.01500,78.2500,133,61,0.29133
3317640,-0.01000,77.5625,133,61,0.31111
3317650,0.00000,77.0625,133,61,0.33504
3317660,0.03000,76.3750,133,61,0.39194
3317670,0.04000,76.0625,133,61,0.42295
3317680,0.06500,75.6875,133,61,0.45421
3317690,0.09500,75.3125,133,61,0.48498
3317700,0.11000,74.5000,133,61,0.54212
3317710,0.08500,73.9479,133,61,0.57257
3317720,0.03500,73.5000,133,61,0.58974
3317730,-0.02000,73.0000,133,61,0.60708
3317740,-0.06500,71.8125,133,61,0.63346
3317750,-0.10500,71.2500,133,61,0.64469
3317760,-0.12000,70.6250,133,61,0.65372
3317770,-0.13500,70.0625,133,61,0.66081
3317780,-0.14000,68.9375,133,61,0.66960
3317790,-0.14500,68.3750,133,61,0.67155
3317800,-0.14000,67.8750,133,61,0.67204
3317810,-0.13500,67.4375,133,61,0.67106
3317820,-0.13500,66.6250,133,61,0.66496
3317830,-0.12500,66.2500,133,61,0.66007
3317840,0.05000,65.9375,133,61,0.65397
3317850,0.52500,65.5625,133,61,0.64664
3317860,0.93500,64.8125,133,61,0.62906
3317870,0.67000,64.3750,133,61,0.61880
3317880,0.04000,63.8750,133,61,0.60806
3317890,-0.33500,63.3125,133,61,0.59683
3317900,-0.41500,62.1875,133,61,0.57460
3317910,-0.31500,61.6875,133,61,0.56386
3317920,-0.23000,61.1250,133,61,0.55336
3317930,-0.21000,60.6250,133,61,0.54408
3317940,-0.20000,59.6250,133,61,0.52698
3317950,-0.19000,59.1875,133,61,0.51819
3317960,-0.18000,58.6875,133,61,0.50940
3317970,-0.17500,58.2500,133,61,0.50061
3317980,-0.16500,57.5625,133,61,0.48376
3317990,-0.15500,57.4375,133,61,0.47546
3318000,-0.13500,57.6875,133,61,0.46740
3318010,-0.13500,58.9375,133,61,0.45934
3318020,-0.12500,66.5625,133,61,0.44469
3318030,-0.11500,73.5000,133,61,0.43858
3318040,-0.10000,81.7500,133,61,0.43175
3318050,-0.07500,90.4375,133,61,0.42442
3318060,-0.05000,106.6250,133,61,0.40977
3318070,-0.03000,113.1875,133,61,0.40269
3318080,-0.01500,118.4375,133,61,0.39560
3318090,0.00000,122.3125,133,61,0.38877
3318100,0.01000,126.2500,133,61,0.37582
3318110,0.02000,126.6875,133,61,0.36947
3318120,0.02500,126.3750,133,61,0.36313
3318130,0.02500,124.3750,133,61,0.35800
3318140,0.03500,122.8125,133,61,0.34896
3318150,0.04000,121.1250,133,61,0.34359
3318160,0.05000,119.3125,133,61,0.33797
3318170,0.06000,117.4375,133,61,0.33211
3318180,0.06000,113.7500,133,61,0.32039
3318190,0.04500,111.8750,133,61,0.31477
3318200,0.02000,110.0625,133,61,0.30940
3318210,-0.01000,108.3750,133,61,0.30403
3318220,-0.03000,105.1875,133,61,0.29426
3318230,-0.04500,103.5625,133,61,0.29109
3318240,-0.04500,101.8125,133,61,0.28669
3318250,-0.04500,99.8125,133,61,0.28205
3318260,-0.03500,94.8125,133,61,0.27277
3318270,-0.02500,91.8125,133,61,0.26960
3318280,-0.02500,88.6875,133,61,0.26838
3318290,-0.02500,85.8125,133,61,0.26960
3318300,-0.02000,81.3125,133,61,0.28327
3318310,-0.02500,79.8125,133,61,0.29670
3318320,-0.02500,78.6875,133,61,0.31209
3318330,-0.03500,77.8750,133,61,0.32967
3318340,-0.02000,76.8125,133,61,0.37900
3318350,-0.00500,76.4375,133,61,0.40806
3318360,0.01000,76.0625,133,61,0.43858
3318370,0.05000,75.6875,133,61,0.46960
3318380,0.09000,74.8750,133,61,0.52991
3318390,0.10000,74.4375,133,61,0.55751
3318400,0.07500,74.0000,133,61,0.58291
3318410,0.02000,73.5000,133,61,0.60586
3318420,-0.03000,72.5000,133,61,0.64078
3318430,-0.06500,71.9375,133,61,0.65226
3318440,-0.08500,71.3750,133,61,0.66300
3318450,-0.10000,70.8125,133,61,0.67228
3318460,-0.12500,69.6875,133,61,0.68571
3318470,-0.15500,69.1250,133,61,0.68962
3318480,-0.18000,68.5625,133,61,0.69182
3318490,-0.20000,68.0625,133,61,0.69255
3318500,-0.21000,67.1875,133,61,0.68962
3318510,-0.22000,66.8125,133,61,0.68620
3318520,-0.19000,66.4375,133,61,0.68132
3318530,0.06500,66.0625,133,61,0.67546
3318540,0.60500,65.3125,133,61,0.66032
3318550,0.88500,64.8125,133,61,0.65128
3318560,0.49500,64.3750,133,61,0.64127
3318570,-0.12000,63.8125,133,61,0.63053
3318580,-0.42000,62.6875,133,61,0.60757
3318590,-0.42500,62.1250,133,61,0.59585
3318600,-0.30500,61.6250,133,61,0.58437
3318610,-0.23000,61.1250,133,61,0.57338
3318620,-0.20500,60.1875,133,61,0.55311
3318630,-0.19000,59.7500,133,61,0.54432
3318640,-0.18000,59.2500,133,61,0.53480
3318650,-0.17500,58.7500,133,61,0.52527
3318660,-0.17000,57.9375,133,61,0.50647
3318670,-0.16000,57.6250,133,61,0.49744
3318680,-0.14500,57.4375,133,61,0.48864
3318690,-0.12500,57.7500,133,61,0.47985
3318700,-0.10500,61.8125,133,61,0.46300
3318710,-0.09000,66.8125,133,61,0.45470
3318720,-0.08000,73.8125,133,61,0.44762
3318730,-0.07500,82.1875,133,61,0.44127
3318740,-0.06000,99.3750,133,61,0.42637
3318750,-0.05000,107.0625,133,61,0.41880
3318760,-0.04500,113.5625,133,61,0.41148
3318770,-0.03500,118.6875,133,61,0.40415
3318780,-0.02000,124.8750,133,61,0.39023
3318790,-0.00500,126.2500,133,61,0.38339
3318800,0.01500,126.6250,133,61,0.37656
3318810,0.02500,126.3750,133,61,0.36996
3318820,0.03000,124.3750,133,61,0.35800
3318830,0.03000,122.8750,133,61,0.35360
3318840,0.03500,121.2500,133,61,0.34847
3318850,0.04500,119.5000,133,61,0.34310
3318860,0.05500,115.9375,133,61,0.33187
3318870,0.06000,114.1875,133,61,0.32625
3318880,0.05500,112.4375,133,61,0.32039
3318890,0.03500,110.8125,133,61,0.31477
3318900,0.01000,107.5625,133,61,0.30354
3318910,-0.02000,105.9375,133,61,0.29768
3318920,-0.04000,104.3125,133,61,0.29328
3318930,-0.05500,102.5000,133,61,0.28938
3318940,-0.05500,98.2500,133,61,0.27937
3318950,-0.04500,95.6250,133,61,0.27473
3318960,-0.03500,92.5625,133,61,0.27106
3318970,-0.02500,89.3750,133,61,0.26935
3318980,-0.02500,83.4375,133,61,0.27473
3318990,-0.02500,81.1250,133,61,0.28327
3319000,-0.02000,79.4375,132,61,0.29646
3319010,-0.02000,78.2500,132,61,0.31380
3319020,-0.01500,76.8125,132,61,0.35702
3319030,-0.00500,76.4375,132,61,0.37973
3319040,0.01500,76.1250,132,61,0.40659
3319050,0.03500,75.8125,132,61,0.43590
3319060,0.06500,75.3125,132,61,0.49621
3319070,0.09500,75.0000,132,61,0.52576
3319080,0.09500,74.5625,132,61,0.55385
3319090,0.06000,73.6250,132,61,0.57973
3319100,-0.00500,73.0625,132,61,0.62393
3319110,-0.06500,72.5000,132,61,0.64176
3319120,-0.10500,71.9375,132,61,0.65470
3319130,-0.13000,71.3125,132,61,0.66422
3319140,-0.14500,70.0625,132,61,0.68083
3319150,-0.15000,69.5000,132,61,0.68669
3319160,-0.15000,68.8750,132,61,0.69084
3319170,-0.15000,68.3125,132,61,0.69328
3319180,-0.14500,67.3125,132,61,0.70696
3319190,-0.13500,66.8750,132,61,0.72479
3319200,-0.14500,66.5000,132,61,0.73114
3319210,-0.11000,66.1250,132,61,0.73089
3319220,0.15000,65.3750,132,61,0.72039
3319230,0.69000,64.9375,132,61,0.71233
3319240,0.95000,64.5625,132,61,0.70256
3319250,0.46500,64.1250,132,61,0.69158
3319260,-0.16500,63.1875,132,61,0.66667
3319270,-0.43000,62.6875,132,61,0.65324
3319280,-0.40500,62.1875,132,61,0.63956
3319290,-0.30500,61.6875,132,61,0.62613
3319300,-0.27000,60.6250,132,61,0.60024
3319310,-0.27500,60.1250,132,61,0.58803
3319320,-0.27500,59.6250,132,61,0.57729
3319330,-0.26500,59.1875,132,61,0.56777
3319340,-0.25500,58.2500,132,61,0.54750
3319350,-0.25000,57.8125,132,61,0.53724
3319360,-0.23500,57.5000,132,61,0.52698
3319370,-0.21000,57.2500,132,61,0.51697
3319380,-0.17500,58.6250,132,61,0.49768
3319390,-0.14000,61.3750,132,61,0.48840
3319400,-0.11500,66.3125,132,61,0.47937
3319410,-0.09500,73.3750,132,61,0.47057
3319420,-0.07000,90.9375,132,61,0.45397
3319430,-0.05000,99.7500,132,61,0.44737
3319440,-0.03500,107.7500,132,61,0.43980
3319450,-0.02000,114.5625,132,61,0.43223
3319460,-0.00500,123.9375,132,61,0.41661
3319470,0.01500,126.5625,132,61,0.40855
3319480,0.03000,128.0000,132,61,0.40073
3319490,0.04000,128.4375,132,61,0.39316
3319500,0.05000,127.4375,132,61,0.37851
3319510,0.04500,126.1875,132,61,0.37143
3319520,0.04000,124.6875,132,61,0.36606
3319530,0.04500,123.0000,132,61,0.36142
3319540,0.05500,119.4375,132,61,0.35018
3319550,0.06500,117.6875,132,61,0.34432
3319560,0.07000,115.8750,132,61,0.33822
3319570,0.06000,114.1875,132,61,0.33211
3319580,0.04000,110.8750,132,61,0.31966
3319590,0.01000,109.2500,132,61,0.31331
3319600,-0.01500,107.7500,132,61,0.30696
3319610,-0.03500,106.1875,132,61,0.30085
3319620,-0.04500,102.7500,132,61,0.29060
3319630,-0.04500,100.6250,132,61,0.28718
3319640,-0.03500,98.1875,132,61,0.28327
3319650,-0.02500,95.3750,132,61,0.27961
3319660,-0.01500,89.3125,132,61,0.27863
3319670,-0.01500,86.4375,132,61,0.28327
3319680,-0.01500,84.0625,132,61,0.29255
3319690,-0.01500,82.1875,132,61,0.30672
3319700,-0.01500,79.6250,132,61,0.35043
3319710,-0.01500,78.8125,132,61,0.37900
3319720,-0.01000,78.2500,132,61,0.40659
3319730,0.01000,77.3750,132,61,0.43443
3319740,0.03000,77.0000,132,61,0.50183
3319750,0.04500,76.6250,132,61,0.53724
3319760,0.07000,76.2604,132,61,0.56699
3319770,0.09000,75.6875,132,61,0.60415
3319780,0.09000,74.6875,132,61,0.66178
3319790,0.05500,74.1250,132,61,0.68596
3319800,0.00000,73.6250,132,61,0.70672
3319810,-0.05500,73.0625,132,61,0.72430
3319820,-0.10500,71.9375,132,61,0.74847
3319830,-0.12500,71.3750,132,61,0.75482
3319840,-0.14500,70.7500,132,61,0.76068
3319850,-0.15500,70.1875,132,61,0.76532
3319860,-0.16000,69.1250,132,61,0.77021
3319870,-0.16000,68.6250,132,61,0.77021
3319880,-0.15500,68.1250,132,61,0.76874
3319890,-0.14500,67.6875,132,61,0.76581
3319900,-0.14500,67.0000,132,61,0.75507
3319910,-0.12500,66.6875,132,61,0.74725
3319920,0.10500,66.3750,132,61,0.73871
3319930,0.66000,66.0000,132,61,0.72943
3319940,1.03500,65.1875,132,61,0.70720
3319950,0.62000,64.7500,132,61,0.69499
3319960,-0.09500,64.2500,132,61,0.68205
3319970,-0.43500,63.7500,132,61,0.66886
3319980,-0.42500,62.6875,132,61,0.64225
3319990,-0.29000,62.1250,132,61,0.62906
3320000,-0.22500,61.6250,132,61,0.61661
3320010,-0.22000,61.1250,132,61,0.60464
3320020,-0.21000,60.1250,132,61,0.58266
3320030,-0.21000,59.6250,132,61,0.57338
3320040,-0.20000,59.1875,132,61,0.56337
3320050,-0.20000,58.6875,132,61,0.55311
3320060,-0.20000,57.9375,132,61,0.53284
3320070,-0.20000,57.8750,132,61,0.52283
3320080,-0.19000,58.3750,132,61,0.51306
3320090,-0.17500,60.1875,132,61,0.50354
3320100,-0.15500,70.1250,132,61,0.48474
3320110,-0.14000,78.2500,132,61,0.47570
3320120,-0.12500,87.3750,132,61,0.46789
3320130,-0.10000,96.6875,132,61,0.46081
3320140,-0.07500,113.0625,132,61,0.44493
3320150,-0.05500,119.3125,132,61,0.43663
3320160,-0.04000,124.0625,132,61,0.42857
3320170,-0.02000,129.2500,132,61,0.41294
3320180,-0.00500,130.0625,132,61,0.40513
3320190,0.00000,130.0625,132,61,0.39731
3320200,0.01000,129.4375,132,61,0.38974
3320210,0.01000,128.3750,132,61,0.38242
3320220,0.02000,125.3750,132,61,0.37167
3320230,0.03500,123.6875,132,61,0.36581
3320240,0.04500,122.0000,132,61,0.35971
3320250,0.06000,120.2500,132,61,0.35360
3320260,0.07000,116.8750,132,61,0.34164
3320270,0.07000,115.7396,132,61,0.33773
3320280,0.06000,115.1875,132,61,0.33578
3320290,0.04000,113.5625,132,61,0.32967
3320300,0.01000,110.5000,132,61,0.31770
3320310,-0.01000,108.9375,132,61,0.31184
3320320,-0.03000,107.3750,132,61,0.30574
3320330,-0.04000,105.7500,132,61,0.30134
3320340,-0.04000,101.6250,132,61,0.29304
3320350,-0.03500,99.0625,132,61,0.28840
3320360,-0.03500,96.0625,132,61,0.28498
3320370,-0.03500,92.8125,132,61,0.28400
3320380,-0.03500,86.5625,132,61,0.29280
3320390,-0.04000,84.0625,132,61,0.30452
3320400,-0.04500,82.1250,132,61,0.32137
3320410,-0.03500,80.6250,132,61,0.34359
3320420,-0.00500,78.8750,132,61,0.39756
3320430,0.02500,78.3750,132,61,0.42540
3320440,0.04500,78.0000,132,61,0.45861
3320450,0.07000,77.6875,132,61,0.49475
3320460,0.10000,77.1250,132,61,0.56874
3320470,0.10500,76.8125,132,61,0.60415
3320480,0.07500,76.3750,132,61,0.63736
3320490,0.02000,75.9375,132,61,0.66764
3320500,-0.04500,74.8125,132,61,0.71795
3320510,-0.09500,74.1875,132,61,0.73797
3320520,-0.12500,73.5000,132,61,0.75482
3320530,-0.13500,72.8750,132,61,0.76654
3320540,-0.13500,71.5625,132,61,0.78193
3320550,-0.13500,70.8750,132,61,0.78828
3320560,-0.14000,70.2500,132,61,0.79267
3320570,-0.13500,69.6250,132,61,0.79536
3320580,-0.13000,68.5000,132,61,0.79560
3320590,-0.13500,68.1250,132,61,0.79341
3320600,-0.13500,67.7500,132,61,0.78974
3320610,0.03500,67.3750,132,61,0.78462
3320620,0.54000,66.6250,132,61,0.76972
3320630,0.99500,66.3125,132,61,0.76044
3320640,0.70500,65.8750,132,61,0.74969
3320650,-0.02500,65.5000,132,61,0.73773
3320660,-0.42500,64.5625,132,61,0.71136
3320670,-0.43500,64.0625,132,61,0.69719
3320680,-0.30000,63.5000,132,61,0.68303
3320690,-0.22000,62.9375,132,61,0.66886
3320700,-0.21000,61.8125,132,61,0.64151
3320710,-0.20000,61.2500,132,61,0.62857
3320720,-0.18000,60.6250,132,61,0.61612
3320730,-0.17000,60.1250,132,61,0.60513
3320740,-0.17000,59.0625,132,61,0.58388
3320750,-0.16000,58.6250,132,61,0.57289
3320760,-0.15500,58.3125,132,61,0.56190
3320770,-0.14000,58.1250,132,61,0.55116
3320780,-0.12000,59.4375,132,61,0.53016
3320790,-0.09500,62.1250,132,61,0.51966
3320800,-0.07000,67.0000,132,61,0.50965
3320810,-0.04500,74.0625,132,61,0.49963
3320820,-0.03000,91.8125,132,61,0.48156
3320830,-0.00500,100.6875,132,61,0.47399
3320840,0.01000,108.7500,132,61,0.46569
3320850,0.02500,115.5625,132,61,0.45714
3320860,0.03500,124.5000,132,61,0.43956
3320870,0.04500,126.8125,132,61,0.43101
3320880,0.05000,127.9375,132,61,0.42271
3320890,0.05500,128.1250,132,61,0.41465
3320900,0.05500,126.6250,132,61,0.39878
3320910,0.06000,125.3125,132,61,0.39096
3320920,0.07000,123.7500,132,61,0.38339
3320930,0.08000,120.2500,132,61,0.37753
3320940,0.09000,118.4375,132,61,0.36606
3320950,0.10000,116.6250,132,61,0.35922
3320960,0.10000,114.8125,132,61,0.35238
3320970,0.08000,113.1250,132,61,0.34579
3320980,0.05500,109.8125,132,61,0.33211
3320990,0.03000,108.2500,132,61,0.32527
3321000,0.01000,106.6875,130,60,0.31868
3321010,0.00000,105.0625,130,60,0.31209
3321020,-0.00500,101.3125,130,60,0.30012
3321030,-0.00500,99.0000,130,60,0.29621
3321040,0.00000,96.2500,130,60,0.29158
3321050,0.00500,93.1250,130,60,0.28718
3321060,0.00000,86.5625,130,60,0.28400
3321070,0.00000,83.6250,130,60,0.28742
3321080,0.00000,81.2500,130,60,0.29524
3321090,0.01500,79.5000,130,60,0.30818
3321100,0.04000,77.3750,130,60,0.34921
3321110,0.07000,76.8750,130,60,0.37656
3321120,0.09500,76.5625,130,60,0.40733
3321130,0.13000,76.3750,130,60,0.43639
3321140,0.14500,76.0625,130,60,0.49695
3321150,0.13500,75.8750,130,60,0.53065
3321160,0.08500,75.5625,130,60,0.56386
3321170,0.02000,75.2500,130,60,0.59560
3321180,-0.04000,74.3125,130,60,0.65128
3321190,-0.08500,73.7500,130,60,0.67448
3321200,-0.10500,73.1875,130,60,0.69451
3321210,-0.10500,72.5625,130,60,0.71136
3321220,-0.11000,71.3125,130,60,0.73455
3321230,-0.10500,70.6875,130,60,0.74066
3321240,-0.10500,70.0625,130,60,0.73455
3321250,-0.09500,69.0625,130,60,0.71526
3321260,-0.09500,68.5625,130,60,0.71184
3321270,-0.11000,68.1250,130,60,0.70940
3321280,-0.02500,67.7500,130,60,0.70647
3321290,0.32000,67.3750,130,60,0.70256
3321300,0.83500,66.7500,130,60,0.69109
3321310,0.86000,66.3125,130,60,0.68327
3321320,0.25500,65.8750,130,60,0.67375
3321330,-0.27000,65.3750,130,60,0.66398
3321340,-0.42500,64.3125,130,60,0.64151
3321350,-0.34500,63.7500,130,60,0.62882
3321360,-0.23000,63.1875,130,60,0.61563
3321370,-0.19000,62.6250,130,60,0.60244
3321380,-0.18000,61.4375,130,60,0.57656
3321390,-0.17000,60.8750,130,60,0.56459
3321400,-0.16000,60.3750,130,60,0.55311
3321410,-0.15000,59.8750,130,60,0.54188
3321420,-0.14500,58.8750,130,60,0.52186
3321430,-0.13500,58.4375,130,60,0.51331
3321440,-0.12000,58.1250,130,60,0.50403
3321450,-0.09500,58.0625,130,60,0.49475
3321460,-0.08500,60.1250,130,60,0.47668
3321470,-0.07500,63.5625,130,60,0.46764
3321480,-0.06500,69.0625,130,60,0.45885
3321490,-0.04500,76.4375,130,60,0.44982
3321500,-0.03000,93.1875,130,60,0.43199
3321510,-0.01500,101.1250,130,60,0.42344
3321520,0.00000,108.1250,130,60,0.41490
3321530,0.01500,113.7500,130,60,0.40781
3321540,0.03000,120.7500,130,60,0.39438
3321550,0.04000,122.3125,130,60,0.38681
3321560,0.05000,122.8125,130,60,0.37924
3321570,0.06500,122.5000,130,60,0.37167
3321580,0.07000,120.3125,130,60,0.35653
3321590,0.08500,118.7500,130,60,0.34921
3321600,0.10000,116.9375,130,60,0.34212
3321610,0.11500,115.0000,130,60,0.33504
3321620,0.12500,111.0625,130,60,0.32283
3321630,0.12500,109.0625,130,60,0.31819
3321640,0.11000,107.1875,130,60,0.31258
3321650,0.08000,105.3125,130,60,0.30623
3321660,0.04500,101.8125,130,60,0.29280
3321670,0.01000,100.1250,130,60,0.28596
3321680,-0.00500,98.3125,130,60,0.27912
3321690,-0.01500,96.3750,130,60,0.27253
3321700,-0.01500,91.5000,130,60,0.26032
3321710,-0.00500,88.6250,130,60,0.25470
3321720,-0.00500,85.4375,130,60,0.25006
3321730,0.00000,82.3125,130,60,0.24762
3321740,0.01000,77.1875,130,60,0.24908
3321750,0.02000,75.5625,130,60,0.25372
3321760,0.02000,74.5625,130,60,0.26227
3321770,0.01000,74.0000,130,60,0.27521
3321780,0.00500,73.5625,130,60,0.31404
3321790,0.01500,73.5625,130,60,0.33895
3321800,0.03000,73.6250,130,60,0.36654
3321810,0.07000,73.6250,130,60,0.42613
3321820,0.10500,73.5000,130,60,0.45250
3321830,0.12500,73.2500,130,60,0.47643
3321840,0.10000,72.9375,130,60,0.50159
3321850,0.05000,72.5000,130,60,0.52601
3321860,-0.01500,71.5000,130,60,0.56850
3321870,-0.07000,70.9375,130,60,0.58584
3321880,-0.10500,70.3125,130,60,0.60049
3321890,-0.12000,69.6875,130,60,0.61245
3321900,-0.12500,68.4375,130,60,0.62930
3321910,-0.12000,67.8125,130,60,0.63468
3321920,-0.12000,67.2500,130,60,0.63761
3321930,-0.11500,66.6875,130,60,0.63834
3321940,-0.11000,65.8125,130,60,0.63687
3321950,-0.11000,65.4375,130,60,0.63419
3321960,-0.11000,65.0625,130,60,0.63028
3321970,0.06000,64.7500,130,60,0.62491
3321980,0.54500,64.1250,130,60,0.61074
3321990,0.96000,63.8125,130,60,0.60171
3322000,0.68500,63.4375,130,60,0.59170
3322010,0.05000,63.0625,130,60,0.58095
3322020,-0.32500,62.1250,130,60,0.55873
3322030,-0.40000,61.6250,130,60,0.54847
3322040,-0.30000,61.1250,130,60,0.53724
3322050,-0.21000,60.6250,130,60,0.52576
3322060,-0.19000,59.6250,130,60,0.50379
3322070,-0.18000,59.1250,130,60,0.49353
3322080,-0.17000,58.6250,130,60,0.48400
3322090,-0.15500,58.1875,130,60,0.47497
3322100,-0.15000,57.2500,130,60,0.45861
3322110,-0.14000,56.8750,130,60,0.45055
3322120,-0.12500,56.5000,130,60,0.44371
3322130,-0.11500,56.3750,130,60,0.43761
3322140,-0.10500,57.5625,130,60,0.42344
3322150,-0.09500,59.9375,130,60,0.41587
3322160,-0.08500,64.3750,130,60,0.40855
3322170,-0.07000,70.8125,130,60,0.40147
3322180,-0.05500,87.1250,130,60,0.38755
3322190,-0.03500,95.4375,130,60,0.38071
3322200,-0.02500,103.0000,130,60,0.37363
3322210,-0.01500,109.5625,130,60,0.36679
3322220,0.00000,118.6250,130,60,0.35409
3322230,0.02000,121.1250,130,60,0.34921
3322240,0.03000,122.5000,130,60,0.34335
3322250,0.04000,122.9375,130,60,0.33724
3322260,0.05000,121.7500,130,60,0.32503
3322270,0.06000,120.4375,130,60,0.31917
3322280,0.07000,118.8750,130,60,0.31331
3322290,0.08500,117.1250,130,60,0.30769
3322300,0.09500,113.3125,130,60,0.29621
3322310,0.10000,111.3750,130,60,0.29060
3322320,0.08000,109.4375,130,60,0.28645
3322330,0.06000,107.6250,130,60,0.28303
3322340,0.03000,104.1875,130,60,0.27399
3322350,-0.00500,102.5625,130,60,0.26911
3322360,-0.03000,100.9375,130,60,0.26398
3322370,-0.04000,99.2500,130,60,0.25885
3322380,-0.03500,95.3125,130,60,0.24786
3322390,-0.02500,92.8750,130,60,0.24249
3322400,-0.02000,90.1875,130,60,0.23761
3322410,-0.01500,87.2500,130,60,0.23370
3322420,-0.01500,82.0000,130,60,0.23297
3322430,-0.01000,80.0000,130,60,0.23712
3322440,-0.00500,78.5000,130,60,0.24420
3322450,-0.00500,77.3750,130,60,0.25568
3322460,-0.01000,76.1250,130,60,0.29182
3322470,-0.00500,75.7500,130,60,0.31600
3322480,0.01000,75.5000,130,60,0.34335
3322490,0.03000,75.2500,130,60,0.37314
3322500,0.05000,74.6250,130,60,0.43565
3322510,0.09000,74.3125,130,60,0.46691
3322520,0.11000,73.8750,130,60,0.49353
3322530,0.09000,73.4375,130,60,0.51673
3322540,0.03000,72.3750,130,60,0.56435
3322550,-0.03500,71.8125,130,60,0.58559
3322560,-0.08500,71.1875,130,60,0.60440
3322570,-0.12000,69.9375,130,60,0.62051
3322580,-0.14000,69.2500,130,60,0.64469
3322590,-0.14500,68.6250,130,60,0.65299
3322600,-0.14500,68.0625,130,60,0.65934
3322610,-0.14500,67.4375,130,60,0.66349
3322620,-0.14500,66.4375,130,60,0.66618
3322630,-0.14000,66.0000,130,60,0.66496
3322640,-0.13500,65.6250,130,60,0.66300
3322650,-0.12500,65.3125,130,60,0.65983
3322660,0.07000,64.7500,130,60,0.64957
3322670,0.55500,64.5000,130,60,0.64225
3322680,0.93500,64.1875,130,60,0.63394
3322690,0.65000,63.8750,130,60,0.62466
3322700,0.01000,63.0000,130,60,0.60415
3322710,-0.35500,62.5000,130,60,0.59316
3322720,-0.41500,62.0000,130,60,0.58315
3322730,-0.31500,61.4375,130,60,0.57363
3322740,-0.24000,60.3750,130,60,0.55336
3322750,-0.22000,59.9375,130,60,0.54310
3322760,-0.21500,59.4375,130,60,0.53309
3322770,-0.20500,58.9375,130,60,0.52308
3322780,-0.19500,58.0000,130,60,0.50427
3322790,-0.18000,57.5625,130,60,0.49524
3322800,-0.16500,57.1250,130,60,0.48645
3322810,-0.14500,56.7500,130,60,0.47790
3322820,-0.12500,56.6875,130,60,0.46252
3322830,-0.11500,57.5625,130,60,0.45592
3322840,-0.11000,59.7500,130,60,0.44860
3322850,-0.10500,63.8125,130,60,0.44103
3322860,-0.09500,77.6875,130,60,0.42589
3322870,-0.07500,86.1250,130,60,0.41832
3322880,-0.05500,94.4375,130,60,0.41074
3322890,-0.04500,102.1875,130,60,0.40317
3322900,-0.03000,114.4375,130,60,0.38828
3322910,-0.01000,118.6250,130,60,0.38120
3322920,0.01000,121.4375,130,60,0.37534
3322930,0.03000,123.1250,130,60,0.37045
3322940,0.03500,123.6250,130,60,0.35849
3322950,0.03500,122.8750,130,60,0.35214
3322960,0.04000,121.7500,130,60,0.34579
3322970,0.04500,120.2500,130,60,0.33944
3322980,0.05500,116.8125,130,60,0.32674
3322990,0.07000,114.9375,130,60,0.32063
3323000,0.08000,113.1250,129,60,0.31477
3323010,0.08000,111.3125,129,60,0.30916
3323020,0.06000,107.8750,129,60,0.29988
3323030,0.03500,106.2500,129,60,0.29670
3323040,0.00500,104.6250,129,60,0.29231
3323050,-0.01500,103.0625,129,60,0.28742
3323060,-0.03500,99.7500,129,60,0.27643
3323070,-0.03500,97.8750,129,60,0.27057
3323080,-0.03500,95.6250,129,60,0.26471
3323090,-0.03500,93.0625,129,60,0.25958
3323100,-0.04000,87.1250,129,60,0.25299
3323110,-0.04000,84.1250,129,60,0.25324
3323120,-0.03500,81.5000,129,60,0.25641
3323130,-0.03000,79.4375,129,60,0.26276
3323140,-0.02000,76.8125,129,60,0.28767
3323150,-0.01500,76.0625,129,60,0.30672
3323160,-0.02000,75.5625,129,60,0.32967
3323170,-0.01000,75.1250,129,60,0.35580
3323180,0.00000,74.5625,129,60,0.41563
3323190,0.03000,74.3125,129,60,0.44713
3323200,0.07500,74.0000,129,60,0.47863
3323210,0.11000,73.6875,129,60,0.50940
3323220,0.10000,72.8125,129,60,0.56215
3323230,0.06000,72.3750,129,60,0.58193
3323240,-0.01000,71.8750,129,60,0.60220
3323250,-0.07500,71.3125,129,60,0.62100
3323260,-0.12000,70.1250,129,60,0.65201
3323270,-0.14500,69.5000,129,60,0.66374
3323280,-0.15000,68.8750,129,60,0.67326
3323290,-0.15500,68.3125,129,60,0.69060
3323300,-0.15500,67.2500,129,60,0.72161
3323310,-0.14500,66.6875,129,60,0.72698
3323320,-0.14000,66.2500,129,60,0.72821
3323330,-0.13500,65.8750,129,60,0.72698
3323340,-0.14500,65.1875,129,60,0.72039
3323350,-0.07500,64.8750,129,60,0.71526
3323360,0.27500,64.6250,129,60,0.70867
3323370,0.81500,64.3125,129,60,0.70037
3323380,0.86500,63.5625,129,60,0.67985
3323390,0.30000,63.1250,129,60,0.66813
3323400,-0.29000,62.6875,129,60,0.65592
3323410,-0.41500,62.1875,129,60,0.64322
3323420,-0.36500,61.1250,129,60,0.61905
3323430,-0.26000,60.6250,129,60,0.60830
3323440,-0.22500,60.1250,129,60,0.59731
3323450,-0.22000,59.6250,129,60,0.58657
3323460,-0.21000,58.5625,129,60,0.56557
3323470,-0.19000,58.1250,129,60,0.55531
3323480,-0.18000,57.6250,129,60,0.54530
3323490,-0.17000,57.1875,129,60,0.53553
3323500,-0.16500,56.4375,129,60,0.51697
3323510,-0.15500,56.2500,129,60,0.50769
3323520,-0.14000,56.5000,129,60,0.49988
3323530,-0.12500,57.5000,129,60,0.49280
3323540,-0.10500,64.6250,129,60,0.47619
3323550,-0.07500,71.1875,129,60,0.46764
3323560,-0.05500,79.2500,129,60,0.45910
3323570,-0.03500,87.7500,129,60,0.45104
3323580,-0.02000,103.8125,129,60,0.43492
3323590,-0.01000,110.4375,129,60,0.42711
3323600,-0.00500,115.7500,129,60,0.41929
3323610,0.00000,119.6875,129,60,0.41172
3323620,0.02000,123.8125,129,60,0.39829
3323630,0.03500,124.3125,129,60,0.39316
3323640,0.05000,124.1875,129,60,0.38730
3323650,0.06000,123.5000,129,60,0.38120
3323660,0.06000,120.9375,129,60,0.36825
3323670,0.07000,119.3750,129,60,0.36166
3323680,0.08000,117.6875,129,60,0.35507
3323690,0.09000,115.9375,129,60,0.34872
3323700,0.09000,112.3750,129,60,0.33602
3323710,0.07500,110.6250,129,60,0.32991
3323720,0.04000,108.9375,129,60,0.32503
3323730,0.00000,107.3125,129,60,0.32112
3323740,-0.03500,104.0625,129,60,0.31087
3323750,-0.06000,102.3750,129,60,0.30525
3323760,-0.07000,100.6250,129,60,0.29963
3323770,-0.05500,98.7500,129,60,0.29377
3323780,-0.04500,94.0000,129,60,0.28327
3323790,-0.03500,91.1875,129,60,0.27937
3323800,-0.03000,88.1250,129,60,0.27717
3323810,-0.02500,82.4375,129,60,0.27766
3323820,-0.02500,80.3125,129,60,0.28791
3323830,-0.01500,78.6875,129,60,0.29890
3323840,-0.01500,77.5625,129,60,0.31477
3323850,-0.01500,76.6875,129,60,0.33529
3323860,-0.00917,75.9375,129,60,0.37542
3323870,0.00500,75.3750,129,60,0.41954
3323880,0.03000,75.0625,129,60,0.45201
3323890,0.07000,74.8125,129,60,0.48523
3323900,0.10000,74.1875,129,60,0.55018
3323910,0.10000,73.7500,129,60,0.58046
3323920,0.06500,73.3125,129,60,0.60513
3323930,0.01000,72.2500,129,60,0.62613
3323940,-0.05500,71.6250,129,60,0.66740
3323950,-0.10500,71.0625,129,60,0.68498
3323960,-0.13500,70.4375,129,60,0.70012
3323970,-0.14500,69.8750,129,60,0.71258
3323980,-0.15000,68.6875,129,60,0.73040
3323990,-0.15000,68.1250,129,60,0.73602
3324000,-0.15000,67.5625,129,60,0.73968
3324010,-0.14000,67.0625,129,60,0.74164
3324020,-0.13500,66.2500,129,60,0.73944
3324030,-0.13500,65.9375,129,60,0.73700
3324040,-0.06500,65.6250,129,60,0.73358
3324050,0.26000,65.3125,129,60,0.72869
3324060,0.80500,64.5625,129,60,0.71453
3324070,0.93500,64.1250,129,60,0.70501
3324080,0.36500,63.6875,129,60,0.69451
3324090,-0.22000,63.2500,129,60,0.68303
3324100,-0.43500,62.2500,129,60,0.65763
3324110,-0.39500,61.6875,129,60,0.64469
3324120,-0.30500,61.1250,129,60,0.63272
3324130,-0.28000,60.6250,129,60,0.62149
3324140,-0.27500,59.6875,129,60,0.59902
3324150,-0.26000,59.1875,129,60,0.58803
3324160,-0.24500,58.7500,129,60,0.57705
3324170,-0.23000,58.2500,129,60,0.56606
3324180,-0.22000,57.3750,129,60,0.54481
3324190,-0.20000,57.0000,129,60,0.53455
3324200,-0.16500,56.7500,129,60,0.52454
3324210,-0.13500,56.7500,129,60,0.51477
3324220,-0.11500,59.4375,129,60,0.49890
3324230,-0.10500,63.3750,129,60,0.49084
3324240,-0.09500,69.4375,129,60,0.48254
3324250,-0.08500,77.2500,129,60,0.47399
3324260,-0.08000,94.4375,129,60,0.45739
3324270,-0.06500,102.5000,129,60,0.44908
3324280,-0.04500,109.4375,129,60,0.44103
3324290,-0.02500,115.1250,129,60,0.43321
3324300,-0.00500,122.3750,129,60,0.41783
3324310,0.02000,124.1875,129,60,0.41026
3324320,0.04000,125.0625,129,60,0.40391
3324330,0.05000,124.6250,129,60,0.39853
3324340,0.05000,123.6875,129,60,0.38608
3324350,0.05000,122.3750,129,60,0.37949
3324360,0.04500,120.8750,129,60,0.37289
3324370,0.04000,119.2500,129,60,0.36630
3324380,0.04000,115.6875,129,60,0.35311
3324390,0.03500,113.8750,129,60,0.34652
3324400,0.02000,112.0625,129,60,0.33993
3324410,0.00500,110.3125,129,60,0.33358
3324420,-0.01000,107.0625,129,60,0.32454
3324430,-0.02000,105.5625,129,60,0.31941
3324440,-0.03000,104.0625,129,60,0.31404
3324450,-0.04000,102.5625,129,60,0.30818
3324460,-0.04000,99.0000,129,60,0.29597
3324470,-0.03500,96.8125,129,60,0.29035
3324480,-0.03500,94.2500,129,60,0.28547
3324490,-0.04000,91.3125,129,60,0.28205
3324500,-0.04500,85.2500,129,60,0.28303
3324510,-0.05000,82.6875,129,60,0.28913
3324520,-0.05500,80.6250,129,60,0.29841
3324530,-0.05000,79.0625,129,60,0.31136
3324540,-0.05000,77.0625,129,60,0.35214
3324550,-0.04500,76.5000,129,60,0.37875
3324560,-0.02500,76.0625,129,60,0.40855
3324570,-0.00500,75.7500,129,60,0.44078
3324580,0.01000,75.1875,129,60,0.50818
3324590,0.03000,74.8750,129,60,0.54164
3324600,0.05500,74.5000,129,60,0.57363
3324610,0.06000,74.0625,129,60,0.60342
3324620,0.03000,73.0000,129,60,0.64713
3324630,-0.00500,72.5000,129,60,0.66716
3324640,-0.05500,71.9375,129,60,0.68571
3324650,-0.10500,71.3750,129,60,0.70159
3324660,-0.13500,70.2500,129,60,0.72576
3324670,-0.15500,69.6250,129,60,0.73431
3324680,-0.16500,69.0625,129,60,0.74066
3324690,-0.17000,68.5625,129,60,0.74481
3324700,-0.17500,67.5625,129,60,0.74823
3324710,-0.17500,67.0625,129,60,0.74774
3324720,-0.16500,66.6875,129,60,0.74530
3324730,-0.16000,66.2500,129,60,0.74164
3324740,-0.16500,65.5625,129,60,0.73162
3324750,-0.08000,65.1875,129,60,0.72454
3324760,0.28500,64.8750,129,60,0.71600
3324770,0.85500,64.5625,129,60,0.70623
3324780,0.92500,63.8750,129,60,0.68327
3324790,0.29000,63.4375,129,60,0.67082
3324800,-0.28500,63.0000,129,60,0.65788
3324810,-0.45500,62.5625,129,60,0.64493
3324820,-0.37500,61.6250,129,60,0.62222
3324830,-0.27000,61.1250,129,60,0.61074
3324840,-0.24000,60.6250,129,60,0.59927
3324850,-0.24000,60.1250,129,60,0.58828
3324860,-0.22000,59.2500,129,60,0.56679
3324870,-0.21000,58.8125,129,60,0.55653
3324880,-0.21000,58.3750,129,60,0.54652
3324890,-0.21000,58.0000,129,60,0.53675
3324900,-0.20000,57.2500,129,60,0.51844
3324910,-0.18000,57.1875,129,60,0.50940
3324920,-0.16000,57.7500,129,60,0.50159
3324930,-0.15000,59.4375,129,60,0.49451
3324940,-0.13500,68.8750,129,60,0.47790
3324950,-0.11500,76.6875,129,60,0.46935
3324960,-0.08500,85.6250,129,60,0.46081
3324970,-0.08500,85.6250,129,60,0.46081
3324980,-0.08500,85.6250,129,60,0.46081
3324990,-0.00500,121.6875,129,60,0.42002
3325000,0.00000,121.6875,128,59,0.42002
3325010,0.00500,124.9375,128,59,0.41221
3325020,0.01500,128.0000,128,59,0.40049
3325030,0.02000,128.1875,128,59,0.39438
3325040,0.03000,127.7500,128,59,0.38779
3325050,0.03000,126.8750,128,59,0.38144
3325060,0.03000,124.2500,128,59,0.36825
3325070,0.03500,122.6875,128,59,0.36190
3325080,0.03500,121.0625,128,59,0.35556
3325090,0.03000,119.3750,128,59,0.34921
3325100,0.03000,116.0000,128,59,0.33651
3325110,0.01500,114.3750,128,59,0.33016
3325120,-0.01000,112.7500,128,59,0.32527
3325130,-0.04000,111.1250,128,59,0.32137
3325140,-0.06500,108.0000,128,59,0.31136
3325150,-0.07500,106.5000,128,59,0.30598
3325160,-0.08500,104.8750,128,59,0.30061
3325170,-0.08500,103.1250,128,59,0.29524
3325180,-0.08500,98.6875,128,59,0.28523
3325190,-0.08000,95.8750,128,59,0.28181
3325200,-0.07500,92.8750,128,59,0.28059
3325210,-0.06500,89.8125,128,59,0.28254
3325220,-0.06000,84.5000,128,59,0.29646
3325230,-0.05500,82.5625,128,59,0.31038
3325240,-0.06000,81.0000,128,59,0.32943
3325250,-0.05500,79.8750,128,59,0.35360
3325260,-0.03000,78.4375,128,59,0.41416
3325270,-0.00500,78.0000,128,59,0.44860
3325280,0.00500,77.6250,128,59,0.48474
3325290,0.02500,77.2500,128,59,0.52112
3325300,0.05500,76.6250,128,59,0.59121
3325310,0.06000,76.1875,128,59,0.62344
3325320,0.03000,75.8125,128,59,0.64933
3325330,-0.02500,75.3125,128,59,0.67082
3325340,-0.08500,74.1875,128,59,0.71233
3325350,-0.14500,73.6250,128,59,0.73065
3325360,-0.18000,73.0000,128,59,0.74652
3325370,-0.20000,72.4375,128,59,0.75971
3325380,-0.20000,71.1250,128,59,0.77827
3325390,-0.20000,70.5000,128,59,0.78388
3325400,-0.20000,69.9375,128,59,0.78779
3325410,-0.19500,69.3750,128,59,0.78974
3325420,-0.19000,68.3750,128,59,0.78681
3325430,-0.19000,67.8750,128,59,0.78364
3325440,-0.19000,67.4375,128,59,0.77949
3325450,-0.09500,67.0625,128,59,0.77411
3325460,-0.00500,66.3125,128,59,0.75946
3325470,-0.01000,65.9375,128,59,0.74994
3325480,0.11000,65.5625,128,59,0.73895
3325490,-0.02500,65.1875,128,59,0.72698
3325500,-0.36000,64.3125,128,59,0.70085
3325510,-0.40000,63.8125,128,59,0.68816
3325520,-0.26500,63.2500,128,59,0.67595
3325530,-0.17000,62.7500,128,59,0.66300
3325540,-0.15500,61.6875,128,59,0.63712
3325550,-0.15500,61.1875,128,59,0.62442
3325560,-0.15000,60.6875,128,59,0.61197
3325570,-0.14500,60.1875,128,59,0.60000
3325580,-0.15000,59.3125,128,59,0.57680
3325590,-0.14500,58.8750,128,59,0.56581
3325600,-0.14500,58.5625,128,59,0.55507
3325610,-0.13500,58.4375,128,59,0.54481
3325620,-0.12000,60.0625,128,59,0.52723
3325630,-0.10500,63.0625,128,59,0.51795
3325640,-0.08500,68.2500,128,59,0.50842
3325650,-0.06500,75.4375,128,59,0.49841
3325660,-0.04000,92.9375,128,59,0.47839
3325670,-0.02000,101.5625,128,59,0.46862
3325680,0.00000,109.2500,128,59,0.45934
3325690,0.01000,115.6250,128,59,0.45006
3325700,0.02000,124.0000,128,59,0.43150
3325710,0.03000,126.1250,128,59,0.42393
3325720,0.04500,127.1250,128,59,0.41709
3325730,0.06000,127.3125,128,59,0.40928
3325740,0.07000,126.1250,128,59,0.39341
3325750,0.07000,124.9375,128,59,0.38559
3325760,0.07500,123.5625,128,59,0.37778
3325770,0.08000,122.0625,128,59,0.36996
3325780,0.09000,118.8125,128,59,0.35507
3325790,0.09000,117.1250,128,59,0.34774
3325800,0.08000,115.5000,128,59,0.34042
3325810,0.06000,113.8750,128,59,0.33333
3325820,0.04000,110.6875,128,59,0.32259
3325830,0.01500,109.0625,128,59,0.31648
3325840,0.00000,107.5000,128,59,0.30989
3325850,-0.01500,105.8750,128,59,0.30305
3325860,-0.01500,102.1875,128,59,0.28962
3325870,-0.02000,100.0000,128,59,0.28327
3325880,-0.01500,97.5000,128,59,0.27766
3325890,-0.01500,91.5000,128,59,0.27302
3325900,-0.01500,88.3750,128,59,0.27131
3325910,-0.01500,85.5000,128,59,0.27497
3325920,-0.01500,83.1250,128,59,0.28254
3325930,-0.01500,81.1875,128,59,0.29475
3325940,-0.00500,78.7500,128,59,0.33480
3325950,0.01500,78.0625,128,59,0.36190
3325960,0.03500,77.5625,128,59,0.39292
3325970,0.05000,77.2500,128,59,0.42686
3325980,0.09000,76.6875,128,59,0.49890
3325990,0.12000,76.4375,128,59,0.53480
3326000,0.11000,76.1250,127,59,0.56972
3326010,0.07500,75.7500,127,59,0.60244
3326020,0.02000,74.8125,127,59,0.65128
3326030,-0.04000,74.3125,127,59,0.67375
3326040,-0.09500,73.7500,127,59,0.69475
3326050,-0.10500,73.1250,127,59,0.71306
3326060,-0.11500,71.9375,127,59,0.74139
3326070,-0.12000,71.3125,127,59,0.75165
3326080,-0.12500,70.6875,127,59,0.75922
3326090,-0.13000,70.1250,127,59,0.76459
3326100,-0.12500,69.1250,127,59,0.76874
3326110,-0.12500,68.6875,127,59,0.76777
3326120,-0.13500,68.3125,127,59,0.76508
3326130,-0.05500,67.9375,127,59,0.76166
3326140,0.29000,67.1875,127,59,0.75189
3326150,0.82000,66.7500,127,59,0.74505
3326160,0.87000,66.3750,127,59,0.73675
3326170,0.27000,65.8750,127,59,0.72698
3326180,-0.26500,64.8750,127,59,0.70379
3326190,-0.43500,64.2500,127,59,0.69060
3326200,-0.35500,63.6875,127,59,0.67692
3326210,-0.24000,63.0625,127,59,0.66300
3326220,-0.20000,61.8750,127,59,0.63785
3326230,-0.19000,61.3750,127,59,0.62515
3326240,-0.17000,60.8750,127,59,0.61245
3326250,-0.16500,60.3750,127,59,0.60000
3326260,-0.16000,59.4375,127,59,0.57558
3326270,-0.15500,59.0625,127,59,0.56361
3326280,-0.14500,58.6250,127,59,0.55189
3326290,-0.13000,58.3125,127,59,0.54066
3326300,-0.11000,58.5625,127,59,0.51941
3326310,-0.09500,60.0625,127,59,0.51038
3326320,-0.08500,63.3125,127,59,0.50208
3326330,-0.07500,68.7500,127,59,0.49304
3326340,-0.05500,84.1875,127,59,0.47399
3326350,-0.03500,92.5625,127,59,0.46398
3326360,-0.00500,100.4375,127,59,0.45421
3326370,0.01000,107.4375,127,59,0.44444
3326380,0.02500,117.5000,127,59,0.42589
3326390,0.03500,120.3750,127,59,0.41685
3326400,0.05000,122.0625,127,59,0.40781
3326410,0.06000,122.6875,127,59,0.39927
3326420,0.07000,121.7500,127,59,0.38632
3326430,0.08000,120.5000,127,59,0.37900
3326440,0.09000,119.0000,127,59,0.37143
3326450,0.10000,117.1875,127,59,0.36386
3326460,0.11000,113.3750,127,59,0.34896
3326470,0.12000,111.3750,127,59,0.34164
3326480,0.12000,109.3750,127,59,0.33431
3326490,0.11000,105.6875,127,59,0.32674
3326500,0.08000,103.9375,127,59,0.31209
3326510,0.04500,102.2500,127,59,0.30623
3326520,0.01500,100.6250,127,59,0.30134
3326530,-0.00500,98.8750,127,59,0.29548
3326540,-0.01000,95.1250,127,59,0.28254
3326550,-0.00500,92.8125,127,59,0.27570
3326560,0.00500,90.1875,127,59,0.26911
3326570,0.01000,87.1875,127,59,0.26300
3326580,0.00500,80.8125,127,59,0.25519
3326590,-0.00500,78.0625,127,59,0.25543
3326600,-0.01500,75.8750,127,59,0.25958
3326610,-0.01500,74.4375,127,59,0.26838
3326620,-0.02000,73.1250,127,59,0.29499
3326630,-0.02500,73.0000,127,59,0.31502
3326640,-0.01500,73.0000,127,59,0.33944
3326650,0.00500,73.1250,127,59,0.36728
3326660,0.03000,73.2500,127,59,0.42930
3326670,0.07000,73.2500,127,59,0.46129
3326680,0.12000,73.0625,127,59,0.49280
3326690,0.14000,72.8125,127,59,0.52283
3326700,0.11000,72.0625,127,59,0.57680
3326710,0.05000,71.6250,127,59,0.59707
3326720,-0.01500,71.0625,127,59,0.61319
3326730,-0.06500,70.5000,127,59,0.62882
3326740,-0.09500,69.1875,127,59,0.65470
3326750,-0.10500,68.6250,127,59,0.66422
3326760,-0.11500,68.0000,127,59,0.67155
3326770,-0.13000,67.4375,127,59,0.67668
3326780,-0.14000,66.3125,127,59,0.68181
3326790,-0.14500,65.8125,127,59,0.68181
3326800,-0.14000,65.3750,127,59,0.68034
3326810,-0.15000,65.0000,127,59,0.67717
3326820,-0.14000,64.3750,127,59,0.66667
3326830,0.09000,64.1250,127,59,0.65910
3326840,0.60000,63.8125,127,59,0.65006
3326850,0.91000,63.4375,127,59,0.63956
3326860,0.56000,62.6250,127,59,0.61514
3326870,-0.06500,62.1875,127,59,0.60171
3326880,-0.40000,61.6875,127,59,0.58803
3326890,-0.43000,61.1875,127,59,0.57436
3326900,-0.33000,60.1250,127,59,0.54799
3326910,-0.26500,59.6875,127,59,0.53675
3326920,-0.25000,59.2500,127,59,0.52674
3326930,-0.24500,58.8125,127,59,0.51648
3326940,-0.23000,58.0000,127,59,0.49597
3326950,-0.21000,57.5625,127,59,0.48645
3326960,-0.19000,57.1250,127,59,0.47717
3326970,-0.17000,56.6875,127,59,0.46813
3326980,-0.15500,56.0625,127,59,0.45079
3326990,-0.13000,56.1250,127,59,0.44249
3327000,-0.11500,56.9375,126,59,0.43419
3327010,-0.11500,59.0625,126,59,0.42564
3327020,-0.10000,69.1875,126,59,0.41221
3327030,-0.08500,76.8125,126,59,0.40488
3327040,-0.05500,85.1250,126,59,0.39756
3327050,-0.02500,93.3125,126,59,0.38999
3327060,-0.00500,107.6875,126,59,0.37534
3327070,0.00500,113.1250,126,59,0.36801
3327080,0.00500,117.1875,126,59,0.36093
3327090,0.01000,119.9375,126,59,0.35409
3327100,0.02000,122.0000,126,59,0.34017
3327110,0.04000,121.7500,126,59,0.33480
3327120,0.05000,120.9375,126,59,0.33016
3327130,0.06000,119.6875,126,59,0.32479
3327140,0.07000,116.5000,126,59,0.31282
3327150,0.07500,114.7500,126,59,0.30672
3327160,0.08000,112.8750,126,59,0.30061
3327170,0.08500,111.1250,126,59,0.29451
3327180,0.14000,64.3125,126,59,0.65006
3327190,0.14000,64.3125,126,59,0.65006
3327200,0.14000,64.3125,126,59,0.65006
3327210,0.14000,64.3125,126,59,0.65006
3327220,0.14000,64.3125,126,59,0.65006
3327230,0.14000,64.3125,126,59,0.65006
3327240,0.14000,64.3125,126,59,0.65006
3327250,0.14000,64.3125,126,59,0.65006
3327260,0.14000,64.3125,126,59,0.65006
3327270,-0.40500,61.1250,126,59,0.57607
3327280,-0.40500,61.1250,126,59,0.57607
3327290,-0.40500,61.1250,126,59,0.57607
3327300,-0.40500,61.1250,126,59,0.57607
3327310,-0.40500,61.1250,126,59,0.57607
3327320,-0.40500,61.1250,126,59,0.57607
3327330,-0.40500,61.1250,126,59,0.57607
3327340,-0.40500,61.1250,126,59,0.57607
3327350,-0.40500,61.1250,126,59,0.57607
3327360,-0.40500,61.1250,126,59,0.57607
3327370,-0.40500,61.1250,126,59,0.57607
3327380,-0.40500,61.1250,126,59,0.57607
3327390,-0.40500,61.1250,126,59,0.57607
3327400,-0.40500,61.1250,126,59,0.57607
3327410,-0.40500,61.1250,126,59,0.57607
3327420,-0.40500,61.1250,126,59,0.57607
3327430,-0.40500,61.1250,126,59,0.57607
3327440,-0.40500,61.1250,126,59,0.57607
3327450,-0.40500,61.1250,126,59,0.57607
3327460,-0.40500,61.1250,126,59,0.57607
3327470,-0.40500,61.1250,126,59,0.57607
3327480,-0.40500,61.1250,126,59,0.57607
3327490,-0.40500,61.1250,126,59,0.57607
3327500,-0.40500,61.1250,126,59,0.57607
3327510,-0.40500,61.1250,126,59,0.57607
3327520,-0.40500,61.1250,126,59,0.57607
3327530,-0.40500,61.1250,126,59,0.57607
3327540,-0.40500,61.1250,126,59,0.57607
3327550,-0.40500,61.1250,126,59,0.57607
3327560,-0.40500,61.1250,126,59,0.57607
3327570,-0.40500,61.1250,126,59,0.57607
3327580,-0.40500,61.1250,126,59,0.57607
3327590,-0.40500,61.1250,126,59,0.57607
3327600,-0.30500,60.6250,126,59,0.56581
3327610,-0.24000,60.1875,126,59,0.55678
3327620,-0.23000,59.2500,126,59,0.54017
3327630,-0.22000,58.8125,126,59,0.53138
3327640,-0.21000,58.3750,126,59,0.52259
3327650,-0.20000,57.9375,126,59,0.51404
3327660,-0.19000,57.0625,126,59,0.49768
3327670,-0.18000,56.6875,126,59,0.48962
3327680,-0.15500,56.3750,126,59,0.48181
3327690,-0.14500,56.3750,126,59,0.47424
3327700,-0.13500,58.5000,126,59,0.45934
3327710,-0.12500,61.8750,126,59,0.45299
3327720,-0.11500,67.3125,126,59,0.44737
3327730,-0.09000,74.4375,126,59,0.44078
3327740,-0.07000,90.8125,126,59,0.42662
3327750,-0.05000,98.6875,126,59,0.41929
3327760,-0.03500,105.6875,126,59,0.41221
3327770,-0.02500,111.5000,126,59,0.40537
3327780,-0.00500,119.3125,126,59,0.39194
3327790,0.02000,121.3125,126,59,0.38535
3327800,0.04000,122.3750,126,59,0.37900
3327810,0.05000,122.6250,126,59,0.37387
3327820,0.06000,121.3750,126,59,0.36410
3327830,0.06500,120.1875,126,59,0.35824
3327840,0.07000,118.6875,126,59,0.35238
3327850,0.07000,117.0625,126,59,0.34676
3327860,0.08000,113.6250,126,59,0.33553
3327870,0.08000,111.8750,126,59,0.33016
3327880,0.07000,110.1250,126,59,0.32479
3327890,0.04500,108.4375,126,59,0.31941
3327900,0.01500,105.2500,126,59,0.30867
3327910,-0.01500,103.6875,126,59,0.30476
3327920,-0.04000,102.1875,126,59,0.30159
3327930,-0.05000,100.5625,126,59,0.29744
3327940,-0.04500,96.8125,126,59,0.28742
3327950,-0.03500,94.5000,126,59,0.28230
3327960,-0.02500,91.8750,126,59,0.27741
3327970,-0.02500,86.1250,126,59,0.27375
3327980,-0.02500,83.4375,126,59,0.27302
3327990,-0.03000,81.1875,126,59,0.27766
3328000,-0.03000,79.4375,126,59,0.28620
3328010,-0.03000,78.1250,126,59,0.29695
3328020,-0.03000,76.4375,126,59,0.32894
3328030,-0.03000,75.8750,126,59,0.35140
3328040,-0.01500,75.4375,126,59,0.37680
3328050,0.00000,75.0000,126,59,0.40440
3328060,0.02000,74.2500,126,59,0.46300
3328070,0.05500,73.8750,126,59,0.49255
3328080,0.09000,73.4375,126,59,0.52112
3328090,0.09000,73.0000,126,59,0.54847
3328100,0.06000,72.0000,126,59,0.59658
3328110,-0.00500,71.4375,126,59,0.61416
3328120,-0.07500,70.9375,126,59,0.62833
3328130,-0.12500,70.3750,126,59,0.64200
3328140,-0.15000,69.2500,126,59,0.66496
3328150,-0.16000,68.6250,126,59,0.67375
3328160,-0.16000,68.0625,126,59,0.68059
3328170,-0.16500,67.0000,126,59,0.68571
3328180,-0.16000,66.5000,126,59,0.69158
3328190,-0.15000,66.0625,126,59,0.69206
3328200,-0.13500,65.6250,126,59,0.69109
3328210,-0.13000,65.3125,126,59,0.68864
3328220,-0.09500,64.6875,126,59,0.68010
3328230,0.17000,64.3750,126,59,0.67424
3328240,0.71000,64.0625,126,59,0.66716
3328250,0.94000,63.6875,126,59,0.65885
3328260,0.50500,62.8750,126,59,0.63980
3328270,-0.11500,62.3750,126,59,0.62930
3328280,-0.41500,61.8750,126,59,0.61832
3328290,-0.42500,61.3125,126,59,0.60708
3328300,-0.33000,60.2500,126,59,0.58462
3328310,-0.28500,59.7500,126,59,0.57460
3328320,-0.28500,59.2500,126,59,0.56557
3328330,-0.28000,58.8125,126,59,0.55604
3328340,-0.26500,57.8750,126,59,0.53700
3328350,-0.25000,57.3750,126,59,0.52772
3328360,-0.23500,56.9375,126,59,0.51868
3328370,-0.21000,56.5000,126,59,0.50989
3328380,-0.18000,56.0000,126,59,0.49304
3328390,-0.14500,56.1875,126,59,0.48474
3328400,-0.11500,57.2500,126,59,0.47668
3328410,-0.10000,59.8750,126,59,0.46960
3328420,-0.08500,70.9375,126,59,0.45568
3328430,-0.05500,78.7500,126,59,0.44786
3328440,-0.02000,87.0625,126,59,0.44005
3328450,0.01000,102.5625,126,59,0.42442
3328460,0.03000,108.9375,126,59,0.41685
3328470,0.04000,114.1250,126,59,0.40952
3328480,0.04500,118.0000,126,59,0.40244
3328490,0.05000,120.6250,126,59,0.39560
3328500,0.06000,122.7500,126,59,0.38242
3328510,0.07000,122.6250,126,59,0.37729
3328520,0.08500,122.0000,126,59,0.37289
3328530,0.11000,120.9375,126,59,0.36728
3328540,0.12000,118.1875,126,59,0.35531
3328550,0.12000,116.5625,126,59,0.34921
3328560,0.12000,114.9375,126,59,0.34335
3328570,0.11000,113.3125,126,59,0.33748
3328580,0.09000,110.0625,126,59,0.32576
3328590,0.05000,108.4375,126,59,0.32015
3328600,0.01000,106.8750,126,59,0.31453
3328610,-0.02500,105.3125,126,59,0.31038
3328620,-0.04500,102.3125,126,59,0.30256
3328630,-0.06500,100.6875,126,59,0.29768
3328640,-0.08000,98.9375,126,59,0.29255
3328650,-0.08500,96.8750,126,59,0.28718
3328660,-0.08500,91.8125,126,59,0.27766
3328670,-0.08500,88.8750,126,59,0.27473
3328680,-0.08500,85.9375,126,59,0.27399
3328690,-0.09000,83.1875,126,59,0.27619
3328700,-0.09000,79.1875,126,59,0.29206
3328710,-0.09500,77.8750,126,59,0.30452
3328720,-0.10500,76.9375,126,59,0.31966
3328730,-0.10500,76.2500,126,59,0.33944
3328740,-0.09000,75.2500,126,59,0.38974
3328750,-0.07500,74.8750,126,59,0.41832
3328760,-0.06500,74.4375,126,59,0.44786
3328770,-0.05000,74.0000,126,59,0.47790
3328780,-0.03500,73.0625,126,59,0.53578
3328790,-0.06500,72.5625,126,59,0.56264
3328800,-0.14000,72.0625,126,59,0.58730
3328810,-0.23000,71.5625,126,59,0.60684
3328820,-0.30000,70.4375,126,59,0.63810
3328830,-0.33500,69.8750,126,59,0.65201
3328840,-0.35500,69.3125,126,59,0.66374
3328850,-0.36500,68.7500,126,59,0.67350
3328860,-0.35000,67.6250,126,59,0.68694
3328870,-0.30500,67.1250,126,59,0.69109
3328880,-0.22500,66.6250,126,59,0.69377
3328890,-0.15500,66.1250,126,59,0.69524
3328900,-0.11500,65.3125,126,59,0.69328
3328910,-0.10000,64.9375,126,59,0.69011
3328920,-0.03500,64.6250,126,59,0.68571
3328930,0.27500,64.2500,126,59,0.68034
3328940,0.83500,63.5625,126,59,0.66593
3328950,1.03500,63.1875,126,59,0.65714
3328960,0.55500,62.7500,126,59,0.64737
3328970,-0.07500,62.3125,126,59,0.63687
3328980,-0.37500,61.5729,126,59,0.62027
3328990,-0.38500,60.8125,126,59,0.60342
3329000,-0.28000,60.3125,126,59,0.59219
3329010,-0.21500,59.8125,126,59,0.58193
3329020,-0.18000,58.9375,126,59,0.56239
3329030,-0.13500,58.5000,126,59,0.55238
3329040,-0.09500,58.0625,126,59,0.54261
3329050,-0.07000,57.5625,126,59,0.53309
3329060,-0.03500,56.6250,126,59,0.51477
3329070,0.01500,56.2500,126,59,0.50574
3329080,0.08000,56.0000,126,59,0.49695
3329090,0.12500,56.0000,126,59,0.48840
3329100,0.14500,58.3125,126,59,0.47179
3329110,0.14000,62.0625,126,59,0.46471
3329120,0.14000,67.9375,126,59,0.45836
3329130,0.15500,75.5625,126,59,0.45128
3329140,0.18000,92.5625,126,59,0.43639
3329150,0.20500,100.5000,126,59,0.42882
3329160,0.22000,107.5000,126,59,0.42125
3329170,0.21500,113.3125,126,59,0.41368
3329180,0.20500,120.8750,126,59,0.39902
3329190,0.19500,122.8125,126,59,0.39219
3329200,0.18500,123.7500,126,59,0.38535
3329210,0.16500,123.8750,126,59,0.37998
3329220,0.14500,122.6875,126,59,0.37021
3329230,0.11500,121.5000,126,59,0.36435
3329240,0.09500,120.0625,126,59,0.35824
3329250,0.06000,116.7500,126,59,0.34628
3329260,0.03500,115.0000,126,59,0.34017
3329270,0.00000,113.3125,126,59,0.33407
3329280,-0.03500,111.5625,126,59,0.32796
3329290,-0.06000,109.8750,126,59,0.32210
3329300,-0.06000,106.6250,126,59,0.31184
3329310,-0.03500,105.1250,126,59,0.30818
3329320,0.01000,103.5625,126,59,0.30354
3329330,0.06000,102.0625,126,59,0.29841
3329340,0.12000,98.5625,126,59,0.28742
3329350,0.18000,96.4375,126,59,0.28205
3329360,0.21500,94.0000,126,59,0.27741
3329370,0.22500,91.1875,126,59,0.27375
3329380,0.21500,85.2500,126,59,0.27302
3329390,0.19500,82.6875,126,59,0.27741
3329400,0.16500,80.5625,126,59,0.28620
3329410,0.13500,79.0000,126,59,0.29768
3329420,0.09000,77.0625,126,59,0.33065
3329430,0.05000,76.5000,126,59,0.35409
3329440,0.00500,76.0625,126,59,0.38217
3329450,-0.02000,75.7500,126,59,0.41416
3329460,-0.03500,75.1250,126,59,0.48400
3329470,-0.05500,74.7500,126,59,0.51941
3329480,-0.06000,74.3125,126,59,0.55385
3329490,-0.05500,73.8750,126,59,0.58657
3329500,-0.06500,72.8125,126,59,0.64103
3329510,-0.10500,72.2500,126,59,0.66105
3329520,-0.17000,71.6875,126,59,0.68107
3329530,-0.25000,71.1250,126,59,0.69963
3329540,-0.31500,69.9375,126,59,0.72967
3329550,-0.35500,69.3125,126,59,0.74066
3329560,-0.38000,68.7500,126,59,0.74921
3329570,-0.39500,68.1875,126,59,0.75531
3329580,-0.41500,67.0625,126,59,0.76166
3329590,-0.42500,66.6250,126,59,0.76239
3329600,-0.43500,66.1875,126,59,0.76166
3329610,-0.43500,65.7500,126,59,0.75897
3329620,-0.44000,65.1250,126,59,0.74969
3329630,-0.45000,64.8750,126,59,0.74335
3329640,-0.34000,64.5625,126,59,0.73553
3329650,0.07000,64.3125,126,59,0.72625
3329660,0.61000,63.6875,126,59,0.70330
3329670,0.58000,63.2500,126,59,0.69035
3329680,-0.10500,62.8125,126,59,0.67692
3329690,-0.63500,62.3125,126,59,0.66325
3329700,-0.75000,61.2500,126,59,0.63712
3329710,-0.65000,60.7500,126,59,0.62564
3329720,-0.55000,60.3125,126,59,0.61368
3329730,-0.52000,59.8125,126,59,0.60147
3329740,-0.51500,59.0000,126,59,0.57802
3329750,-0.48000,58.6250,126,59,0.56679
3329760,-0.45000,58.2500,126,59,0.55604
3329770,-0.45500,57.8750,126,59,0.54530
3329780,-0.46000,57.1250,126,59,0.52479
3329790,-0.44500,56.8750,126,59,0.51502
3329800,-0.42000,56.8125,126,59,0.50574
3329810,-0.40500,57.3750,126,59,0.49792
3329820,-0.40000,62.8125,126,59,0.48278
3329830,-0.38500,68.6875,126,59,0.47424
3329840,-0.36500,76.3125,126,59,0.46545
3329850,-0.34500,85.0000,126,59,0.45665
3329860,-0.32500,102.0625,126,59,0.43907
3329870,-0.30500,109.3750,126,59,0.43053
3329880,-0.29000,115.4375,126,59,0.42198
3329890,-0.27000,120.1250,126,59,0.41392
3329900,-0.19000,125.5000,126,59,0.39951
3329910,-0.13000,126.5625,126,59,0.39390
3329920,-0.13500,126.8750,126,59,0.38755
3329930,-0.14500,126.5625,126,59,0.38095
3329940,-0.15000,124.6875,126,59,0.36679
3329950,-0.14500,123.3750,126,59,0.35995
3329960,-0.14000,121.9375,126,59,0.35311
3329970,-0.13500,120.3750,126,59,0.34628
3329980,-0.14500,117.1250,126,59,0.33260
3329990,-0.16000,115.5000,126,59,0.32601
3330000,-0.18000,113.8750,126,59,0.31941
3330010,-0.22000,112.2500,126,59,0.31477
3330020,-0.27000,109.0625,126,59,0.30598
