RelativeTimeMilliseconds,ECG,ART,ART (Sys),ART (Dia),PPG
3934450,-0.06500,76.4375,103,52,0.50452
3934460,-0.06500,75.3750,103,52,0.55360
3934470,-0.07500,74.9375,103,52,0.57949
3934480,-0.07500,74.6250,103,52,0.60440
3934490,-0.07500,74.3750,103,52,0.62735
3934500,-0.08000,73.8750,103,52,0.66667
3934510,-0.07500,73.6250,103,52,0.68230
3934520,-0.06000,73.3125,103,52,0.69548
3934530,-0.04500,73.0000,103,52,0.70623
3934540,-0.02500,72.2500,103,52,0.71917
3934550,-0.01000,71.8125,103,52,0.72161
3934560,0.00000,71.3750,103,52,0.72357
3934570,-0.00500,70.9375,103,52,0.72454
3934580,-0.03500,70.0625,103,52,0.72308
3934590,-0.05500,69.5625,103,52,0.72088
3934600,-0.07500,69.1250,103,52,0.71795
3934610,-0.10000,68.7500,103,52,0.71404
3934620,-0.12000,67.8125,103,52,0.70379
3934630,-0.12500,67.3125,103,52,0.69744
3934640,-0.12500,66.8750,103,52,0.69035
3934650,-0.12500,66.4375,103,52,0.68278
3934660,-0.12000,65.6250,103,52,0.66569
3934670,-0.11500,65.2500,103,52,0.65568
3934680,-0.11000,64.8750,103,52,0.64518
3934690,-0.11000,64.5625,103,52,0.63394
3934700,-0.12500,63.8750,103,52,0.61050
3934710,0.00000,63.5625,103,52,0.59902
3934720,0.46500,63.2500,103,52,0.58755
3934730,1.09000,62.9375,103,52,0.57656
3934740,1.09000,62.3125,103,52,0.55751
3934750,0.31000,62.0625,103,52,0.54945
3934760,-0.34000,61.7500,103,52,0.54139
3934770,-0.47500,61.3750,103,52,0.53333
3934780,-0.34000,60.6875,103,52,0.51819
3934790,-0.22500,60.3750,103,52,0.51087
3934800,-0.19500,60.0000,103,52,0.50379
3934810,-0.19000,59.6250,103,52,0.49670
3934820,-0.18000,58.8750,103,52,0.48278
3934830,-0.17000,58.5000,103,52,0.47619
3934840,-0.16000,58.1875,103,52,0.46960
3934850,-0.16000,57.8750,103,52,0.46398
3934860,-0.15500,57.2500,103,52,0.45299
3934870,-0.14500,56.9375,103,52,0.44713
3934880,-0.13500,56.7500,103,52,0.44103
3934890,-0.12500,56.7500,103,52,0.43492
3934900,-0.12000,58.2500,103,52,0.42295
3934910,-0.11500,60.4375,103,52,0.41709
3934920,-0.10500,63.8750,103,52,0.41148
3934930,-0.09000,68.4375,103,52,0.40586
3934940,-0.07500,79.6250,103,52,0.39609
3934950,-0.06167,85.6250,103,52,0.39219
3934960,-0.04500,91.5000,103,52,0.38755
3934970,-0.02000,97.0625,103,52,0.38266
3934980,0.00000,106.5625,103,52,0.37289
3934990,0.03000,110.1875,103,52,0.36801
3935000,0.05000,112.9375,105,53,0.36337
3935010,0.07000,114.9375,105,53,0.35873
3935020,0.07500,116.9375,105,53,0.35018
3935030,0.08500,117.1250,105,53,0.34579
3935040,0.09000,116.8750,105,53,0.34164
3935050,0.09000,116.3125,105,53,0.33846
3935060,0.09000,114.4375,105,53,0.33284
3935070,0.09000,113.2500,105,53,0.32918
3935080,0.09000,111.9375,105,53,0.32527
3935090,0.09000,110.6250,105,53,0.32112
3935100,0.07500,107.8125,105,53,0.31282
3935110,0.05000,106.4375,105,53,0.30891
3935120,0.02000,105.0625,105,53,0.30476
3935130,-0.00500,103.7500,105,53,0.30085
3935140,-0.02500,101.1875,105,53,0.29426
3935150,-0.04000,100.0000,105,53,0.29255
3935160,-0.05500,98.8125,105,53,0.29084
3935170,-0.06500,97.5000,105,53,0.28987
3935180,-0.06500,94.5625,105,53,0.29402
3935190,-0.06000,92.6875,105,53,0.30012
3935200,-0.05500,90.5000,105,53,0.30965
3935210,-0.04500,88.0000,105,53,0.32283
3935220,-0.04500,83.0625,105,53,0.36020
3935230,-0.05000,81.0000,105,53,0.38364
3935240,-0.05500,79.3125,105,53,0.41001
3935250,-0.05500,78.0000,105,53,0.43468
3935260,-0.05500,76.2500,105,53,0.48596
3935270,-0.05500,75.6875,105,53,0.51477
3935280,-0.06000,75.3125,105,53,0.54359
3935290,-0.06000,75.0000,105,53,0.57143
3935300,-0.06500,74.6250,105,53,0.62173
3935310,-0.06500,74.5000,105,53,0.64322
3935320,-0.07000,74.3125,105,53,0.66227
3935330,-0.06000,74.0625,105,53,0.67863
3935340,-0.05000,73.4375,105,53,0.70159
3935350,-0.02500,73.0625,105,53,0.70794
3935360,-0.00500,72.6875,105,53,0.71355
3935370,0.00500,72.2500,105,53,0.71795
3935380,0.00500,71.3125,105,53,0.72234
3935390,-0.01000,70.8125,105,53,0.72259
3935400,-0.04000,70.3125,105,53,0.72161
3935410,-0.05500,69.8125,105,53,0.71966
3935420,-0.08000,68.8750,105,53,0.71258
3935430,-0.10500,68.3125,105,53,0.70769
3935440,-0.12000,67.8125,105,53,0.70208
3935450,-0.12000,67.3750,105,53,0.69597
3935460,-0.12000,66.6250,105,53,0.68449
3935470,-0.11500,65.8750,105,53,0.67179
3935480,-0.11000,65.4375,105,53,0.66203
3935490,-0.10500,65.0625,105,53,0.65128
3935500,-0.09500,64.3125,105,53,0.62857
3935510,-0.10000,64.0000,105,53,0.61661
3935520,-0.07500,63.6250,105,53,0.60464
3935530,0.18000,63.3750,105,53,0.59292
3935540,0.79000,62.7500,105,53,0.57167
3935550,1.20000,62.4375,105,53,0.56264
3935560,0.72500,62.1875,105,53,0.55360
3935570,-0.09000,61.8750,105,53,0.54457
3935580,-0.46000,61.2500,105,53,0.52772
3935590,-0.42000,60.8750,105,53,0.51941
3935600,-0.26500,60.5000,105,53,0.51136
3935610,-0.19000,60.1250,105,53,0.50134
3935620,-0.18000,59.3125,105,53,0.48010
3935630,-0.17000,58.9375,105,53,0.47131
3935640,-0.15500,58.5625,105,53,0.46422
3935650,-0.14500,58.1875,105,53,0.45788
3935660,-0.14000,57.4375,105,53,0.44420
3935670,-0.13500,57.1250,105,53,0.43712
3935680,-0.13500,56.8125,105,53,0.43004
3935690,-0.12500,56.5000,105,53,0.42295
3935700,-0.11000,56.3750,105,53,0.40855
3935710,-0.09500,56.8125,105,53,0.40171
3935720,-0.08500,58.0000,105,53,0.39487
3935730,-0.07500,60.2500,105,53,0.38803
3935740,-0.06500,68.5000,105,53,0.37607
3935750,-0.05000,73.9375,105,53,0.37118
3935760,-0.03500,79.6875,105,53,0.36581
3935770,-0.01500,85.6250,105,53,0.36020
3935780,0.00000,96.8125,105,53,0.34872
3935790,0.02000,101.7500,105,53,0.34310
3935800,0.04000,105.9375,105,53,0.33773
3935810,0.06000,109.3750,105,53,0.33236
3935820,0.08000,113.8750,105,53,0.32186
3935830,0.09000,115.0625,105,53,0.31673
3935840,0.10000,115.5625,105,53,0.31282
3935850,0.10000,115.6250,105,53,0.30965
3935860,0.10000,114.5625,105,53,0.30085
3935870,0.10500,113.6250,105,53,0.29597
3935880,0.11000,112.5000,105,53,0.29084
3935890,0.11500,111.1875,105,53,0.28571
3935900,0.11000,108.3750,105,53,0.27595
3935910,0.10000,106.9375,105,53,0.27131
3935920,0.07500,105.4375,105,53,0.26691
3935930,0.04500,104.0000,105,53,0.26227
3935940,0.01500,101.2500,105,53,0.25446
3935950,-0.00500,99.9375,105,53,0.25177
3935960,-0.02500,98.6875,105,53,0.24835
3935970,-0.03500,97.4375,105,53,0.24493
3935980,-0.04500,94.7500,105,53,0.24127
3935990,-0.04500,93.1875,105,53,0.24249
3936000,-0.04500,91.3750,105,54,0.24689
3936010,-0.04000,89.1875,105,54,0.25470
3936020,-0.04000,84.1250,105,54,0.28181
3936030,-0.04000,81.6875,105,54,0.30159
3936040,-0.04000,79.6250,105,54,0.32186
3936050,-0.04500,77.8750,105,54,0.34383
3936060,-0.04500,75.5000,105,54,0.40147
3936070,-0.04500,74.7500,105,54,0.43394
3936080,-0.04500,74.1875,105,54,0.46764
3936090,-0.04500,73.8125,105,54,0.50134
3936100,-0.05000,73.4375,105,54,0.56557
3936110,-0.05000,73.3750,105,54,0.59463
3936120,-0.05500,73.2500,105,54,0.62100
3936130,-0.05000,73.1250,105,54,0.64469
3936140,-0.04000,72.7500,105,54,0.67985
3936150,-0.02500,72.5000,105,54,0.69084
3936160,-0.00500,72.1875,105,54,0.70110
3936170,0.01500,71.8750,105,54,0.70965
3936180,0.04000,71.0000,105,54,0.72088
3936190,0.05000,70.5000,105,54,0.72357
3936200,0.05000,70.0625,105,54,0.72454
3936210,0.02000,69.6250,105,54,0.72405
3936220,-0.00500,68.6875,105,54,0.71941
3936230,-0.02500,68.1875,105,54,0.71551
3936240,-0.05000,67.6875,105,54,0.71062
3936250,-0.06500,67.1875,105,54,0.70452
3936260,-0.07500,66.2500,105,54,0.69035
3936270,-0.07500,65.7500,105,54,0.68181
3936280,-0.07500,65.3125,105,54,0.67228
3936290,-0.07500,64.8750,105,54,0.66129
3936300,-0.06500,64.0625,105,54,0.63663
3936310,-0.06500,63.6875,105,54,0.62320
3936320,-0.05500,63.3750,105,54,0.60928
3936330,-0.06000,63.0625,105,54,0.59536
3936340,0.00000,62.5000,105,54,0.56972
3936350,0.33000,62.1875,105,54,0.55897
3936360,0.91000,61.9375,105,54,0.54774
3936370,1.07500,61.6250,105,54,0.53700
3936380,0.47500,61.0000,105,54,0.51697
3936390,-0.18000,60.6875,105,54,0.50794
3936400,-0.43500,60.3125,105,54,0.49939
3936410,-0.37500,59.9375,105,54,0.49109
3936420,-0.23500,59.1875,105,54,0.47521
3936430,-0.17500,58.8125,105,54,0.46789
3936440,-0.16500,58.5000,105,54,0.46154
3936450,-0.15500,58.1250,105,54,0.45592
3936460,-0.14000,57.3750,105,54,0.44274
3936470,-0.12500,57.0000,105,54,0.43590
3936480,-0.12000,56.6250,105,54,0.42906
3936490,-0.11500,56.3125,105,54,0.42222
3936500,-0.10500,55.7500,105,54,0.40904
3936510,-0.09500,55.6250,105,54,0.40244
3936520,-0.08000,55.5625,105,54,0.39585
3936530,-0.07000,55.7500,105,54,0.38950
3936540,-0.06500,58.1250,105,54,0.37827
3936550,-0.05500,60.9375,105,54,0.37387
3936560,-0.05500,64.9375,105,54,0.36850
3936570,-0.04500,69.8125,105,54,0.36264
3936580,-0.03500,80.8125,105,54,0.35092
3936590,-0.01500,86.5000,105,54,0.34505
3936600,0.00000,91.9375,105,54,0.33944
3936610,0.03000,96.9375,105,54,0.33382
3936620,0.05000,105.1250,105,54,0.32332
3936630,0.07500,108.1250,105,54,0.31844
3936640,0.09000,110.3125,105,54,0.31477
3936650,0.08500,111.7500,105,54,0.31184
3936660,0.07500,112.7500,105,54,0.30354
3936670,0.07000,112.5000,105,54,0.29890
3936680,0.07000,111.8750,105,54,0.29451
3936690,0.07500,110.8750,105,54,0.28987
3936700,0.08500,108.2500,105,54,0.28083
3936710,0.10000,106.6875,105,54,0.27643
3936720,0.10000,105.0625,105,54,0.27179
3936730,0.09000,103.4375,105,54,0.26740
3936740,0.06500,100.3750,105,54,0.25958
3936750,0.03000,98.9375,105,54,0.25690
3936760,-0.00500,97.5625,105,54,0.25324
3936770,-0.04000,96.3125,105,54,0.24908
3936780,-0.07000,93.8750,105,54,0.24127
3936790,-0.09000,92.6250,105,54,0.23834
3936800,-0.09500,91.1875,105,54,0.23687
3936810,-0.08500,87.6875,105,54,0.23736
3936820,-0.08000,85.5000,105,54,0.24689
3936830,-0.07500,83.1250,105,54,0.25665
3936840,-0.07500,80.8125,105,54,0.26838
3936850,-0.06500,78.6875,105,54,0.28254
3936860,-0.06000,75.5625,105,54,0.32381
3936870,-0.05500,74.5000,105,54,0.34994
3936880,-0.05500,73.6875,105,54,0.37851
3936890,-0.05500,73.0625,105,54,0.40904
3936900,-0.05500,72.3750,105,54,0.47277
3936910,-0.05000,72.1875,105,54,0.50427
3936920,-0.04500,72.0000,105,54,0.53480
3936930,-0.04000,71.8125,105,54,0.56361
3936940,-0.03500,71.5000,105,54,0.61050
3936950,-0.02500,71.3125,105,54,0.62711
3936960,-0.01500,71.0625,105,54,0.64371
3936970,-0.00500,70.7500,105,54,0.65836
3936980,0.01000,70.0000,105,54,0.68059
3936990,0.02000,69.5625,105,54,0.68791
3937000,0.03000,69.1875,107,54,0.69280
3937010,0.01000,68.7500,107,54,0.69573
3937020,-0.02500,67.8125,107,54,0.69646
3937030,-0.05500,67.3750,107,54,0.69475
3937040,-0.07500,66.9375,107,54,0.69158
3937050,-0.09500,66.4375,107,54,0.68742
3937060,-0.10500,65.5000,107,54,0.67668
3937070,-0.11000,65.0000,107,54,0.66960
3937080,-0.11000,64.5625,107,54,0.66154
3937090,-0.10500,64.1250,107,54,0.65226
3937100,-0.10000,63.3125,107,54,0.63053
3937110,-0.09500,63.0000,107,54,0.61856
3937120,-0.09000,62.7500,107,54,0.60586
3937130,-0.09000,62.5000,107,54,0.59267
3937140,-0.10500,62.0000,107,54,0.56728
3937150,0.00000,61.7500,107,54,0.55629
3937160,0.42000,61.5000,107,54,0.54457
3937170,0.97000,61.2500,107,54,0.53333
3937180,0.92500,60.6875,107,54,0.51209
3937190,0.26500,60.3750,107,54,0.50256
3937200,-0.28000,60.0625,107,54,0.49377
3937210,-0.45000,59.6875,107,54,0.48547
3937220,-0.35500,58.9375,107,54,0.47057
3937230,-0.23000,58.5625,107,54,0.46349
3937240,-0.18500,58.2500,107,54,0.45763
3937250,-0.17500,57.8750,107,54,0.45226
3937260,-0.16500,57.1875,107,54,0.44005
3937270,-0.15500,56.8125,107,54,0.43394
3937280,-0.14500,56.5000,107,54,0.42759
3937290,-0.14000,56.1875,107,54,0.42149
3937300,-0.13500,55.5625,107,54,0.40928
3937310,-0.12500,55.3125,107,54,0.40317
3937320,-0.11500,55.1250,107,54,0.39707
3937330,-0.10500,55.1250,107,54,0.39096
3937340,-0.09500,56.1875,107,54,0.38144
3937350,-0.08500,57.9375,107,54,0.37631
3937360,-0.08000,60.9375,107,54,0.37094
3937370,-0.07500,65.1250,107,54,0.36557
3937380,-0.07000,75.4375,107,54,0.35433
3937390,-0.05500,81.0000,107,54,0.34872
3937400,-0.03500,86.5625,107,54,0.34335
3937410,-0.01500,91.8750,107,54,0.33797
3937420,0.00500,101.1250,107,54,0.32772
3937430,0.02500,104.7500,107,54,0.32283
3937440,0.04500,107.6250,107,54,0.31917
3937450,0.06000,109.6875,107,54,0.31575
3937460,0.06000,111.8125,107,54,0.30696
3937470,0.05500,112.0000,107,54,0.30232
3937480,0.06000,111.6875,107,54,0.29744
3937490,0.07000,111.0000,107,54,0.29280
3937500,0.07500,108.8750,107,54,0.28352
3937510,0.08500,107.4271,107,54,0.27790
3937520,0.09000,106.1875,107,54,0.27375
3937530,0.09000,104.6875,107,54,0.26886
3937540,0.08000,101.5625,107,54,0.26276
3937550,0.06000,100.0625,107,54,0.25885
3937560,0.03000,98.6250,107,54,0.25470
3937570,0.00000,97.1875,107,54,0.25031
3937580,-0.01500,94.5625,107,54,0.24151
3937590,-0.03500,93.2500,107,54,0.23785
3937600,-0.04500,91.8750,107,54,0.23516
3937610,-0.04500,90.4375,107,54,0.23394
3937620,-0.04500,86.9375,107,54,0.23858
3937630,-0.04000,84.8125,107,54,0.24542
3937640,-0.03500,82.5000,107,54,0.25470
3937650,-0.03000,80.3125,107,54,0.26642
3937660,-0.03000,76.6250,107,54,0.31453
3937670,-0.03000,75.3125,107,54,0.34212
3937680,-0.02500,74.2500,107,54,0.37118
3937690,-0.03000,73.4375,107,54,0.40220
3937700,-0.03500,72.3750,107,54,0.46789
3937710,-0.04000,72.0000,107,54,0.50110
3937720,-0.05000,71.7500,107,54,0.53333
3937730,-0.05500,71.5625,107,54,0.56410
3937740,-0.05500,71.2500,107,54,0.61050
3937750,-0.05500,71.1250,107,54,0.63223
3937760,-0.05500,70.9375,107,54,0.65275
3937770,-0.03500,70.6875,107,54,0.67106
3937780,-0.01500,70.1875,107,54,0.69963
3937790,0.01000,69.8750,107,54,0.70989
3937800,0.02500,69.5000,107,54,0.71746
3937810,0.03000,69.1250,107,54,0.72283
3937820,0.01500,68.3750,107,54,0.72747
3937830,-0.01000,67.9375,107,54,0.72747
3937840,-0.03500,67.5000,107,54,0.72552
3937850,-0.06500,67.0625,107,54,0.72234
3937860,-0.09500,66.1250,107,54,0.71404
3937870,-0.11500,65.6250,107,54,0.70867
3937880,-0.12500,65.1875,107,54,0.70208
3937890,-0.12500,64.7500,107,54,0.69451
3937900,-0.12500,63.8750,107,54,0.67570
3937910,-0.11500,63.5000,107,54,0.66447
3937920,-0.10500,63.1250,107,54,0.65226
3937930,-0.09500,62.8125,107,54,0.63956
3937940,-0.08000,62.3125,107,54,0.61636
3937950,-0.08000,62.0625,107,54,0.60391
3937960,0.04000,61.7500,107,54,0.59145
3937970,0.44500,61.5000,107,54,0.57949
3937980,1.01000,61.0000,107,54,0.55678
3937990,1.03000,60.6875,107,54,0.54628
3938000,0.36000,60.3125,109,54,0.53626
3938010,-0.22500,60.0000,109,54,0.52674
3938020,-0.40000,59.2500,109,54,0.50940
3938030,-0.32500,58.8750,109,54,0.50085
3938040,-0.21000,58.5000,109,54,0.49353
3938050,-0.17000,58.1875,109,54,0.48718
3938060,-0.16000,57.5000,109,54,0.47302
3938070,-0.15000,57.1250,109,54,0.46618
3938080,-0.14500,56.8125,109,54,0.45958
3938090,-0.14000,56.5000,109,54,0.45275
3938100,-0.13500,55.8125,109,54,0.43932
3938110,-0.13500,55.5000,109,54,0.43272
3938120,-0.12000,55.2500,109,54,0.42637
3938130,-0.10000,55.1250,109,54,0.42002
3938140,-0.09000,55.3750,109,54,0.41026
3938150,-0.09500,56.2500,109,54,0.40488
3938160,-0.09500,58.1250,109,54,0.39927
3938170,-0.09000,61.1875,109,54,0.39341
3938180,-0.08500,70.5000,109,54,0.38169
3938190,-0.07500,76.0000,109,54,0.37607
3938200,-0.06500,81.6875,109,54,0.37021
3938210,-0.04500,87.3750,109,54,0.36459
3938220,-0.02500,97.7500,109,54,0.35409
3938230,0.00000,102.1250,109,54,0.34896
3938240,0.02000,105.8125,109,54,0.34530
3938250,0.03500,108.6875,109,54,0.34237
3938260,0.04500,112.1875,109,54,0.33455
3938270,0.05000,113.0000,109,54,0.33016
3938280,0.05000,113.2500,109,54,0.32552
3938290,0.05000,113.0000,109,54,0.32063
3938300,0.05000,111.5000,109,54,0.31111
3938310,0.05500,110.3750,109,54,0.30647
3938320,0.06000,109.0625,109,54,0.30208
3938330,0.07000,107.6875,109,54,0.29792
3938340,0.07000,104.6875,109,54,0.29231
3938350,0.06000,103.1875,109,54,0.28889
3938360,0.03000,101.7500,109,54,0.28498
3938370,0.03000,101.7500,109,54,0.28498
3938380,0.03000,101.7500,109,54,0.28498
3938390,-0.05500,95.2500,109,54,0.26398
3938400,-0.06000,95.2500,109,54,0.26398
3938410,-0.07000,94.0625,109,54,0.26105
3938420,-0.07500,91.3750,109,54,0.26081
3938430,-0.07500,89.6875,109,54,0.26496
3938440,-0.07000,87.6875,109,54,0.27131
3938450,-0.06500,85.4375,109,54,0.28034
3938460,-0.06000,81.0000,109,54,0.31013
3938470,-0.05000,79.0625,109,54,0.33114
3938480,-0.04500,77.5000,109,54,0.35580
3938490,-0.04000,76.2500,109,54,0.38413
3938500,-0.03500,74.3750,109,54,0.44811
3938510,-0.03000,73.7500,109,54,0.48205
3938520,-0.02500,73.2500,109,54,0.51600
3938530,-0.03500,72.9375,109,54,0.54921
3938540,-0.03500,72.4375,109,54,0.60122
3938550,-0.04000,72.1875,109,54,0.62637
3938560,-0.04500,72.0000,109,54,0.65055
3938570,-0.04500,71.7500,109,54,0.67253
3938580,-0.03500,71.1875,109,54,0.70867
3938590,-0.02000,70.8750,109,54,0.72234
3938600,-0.00500,70.5000,109,54,0.73309
3938610,0.00000,70.1250,109,54,0.74139
3938620,0.00000,69.3125,109,54,0.75092
3938630,-0.01500,68.8750,109,54,0.75287
3938640,-0.05500,68.3750,109,54,0.75214
3938650,-0.08000,67.9375,109,54,0.74969
3938660,-0.10500,66.9375,109,54,0.74286
3938670,-0.12500,66.4375,109,54,0.73797
3938680,-0.13500,65.9375,109,54,0.73211
3938690,-0.13500,65.5000,109,54,0.72552
3938700,-0.13500,64.6250,109,54,0.70940
3938710,-0.12500,64.1875,109,54,0.69939
3938720,-0.12500,63.8125,109,54,0.68840
3938730,-0.11500,63.4375,109,54,0.67668
3938740,-0.11500,62.8125,109,54,0.65372
3938750,-0.10500,62.5000,109,54,0.64103
3938760,-0.11500,62.3125,109,54,0.62784
3938770,-0.02000,62.0625,109,54,0.61465
3938780,0.38500,61.5000,109,54,0.58950
3938790,0.98000,61.1875,109,54,0.57778
3938800,1.01000,60.8750,109,54,0.56679
3938810,0.36500,60.5625,109,54,0.55629
3938820,-0.23500,59.8750,109,54,0.53651
3938830,-0.44500,59.5625,109,54,0.52723
3938840,-0.36500,59.1875,109,54,0.51941
3938850,-0.25000,58.8125,109,54,0.51233
3938860,-0.21000,58.0625,109,54,0.49719
3938870,-0.20000,57.6875,109,54,0.48962
3938880,-0.19000,57.3750,109,54,0.48230
3938890,-0.18000,57.0000,109,54,0.47521
3938900,-0.17000,56.2500,109,54,0.46081
3938910,-0.16000,55.9375,109,54,0.45372
3938920,-0.16000,55.5625,109,54,0.44689
3938930,-0.14500,55.3125,109,54,0.44005
3938940,-0.13500,55.0625,109,54,0.42955
3938950,-0.12500,55.3125,109,54,0.42393
3938960,-0.12000,56.1250,109,54,0.41807
3938970,-0.11500,57.8750,109,54,0.41221
3938980,-0.11000,65.0000,109,54,0.40024
3938990,-0.10000,70.0000,109,54,0.39438
3939000,-0.08000,75.4375,110,55,0.38877
3939010,-0.05500,81.1875,110,55,0.38315
3939020,-0.03500,92.5000,110,55,0.37265
3939030,-0.01500,97.6250,110,55,0.36874
3939040,0.00000,102.1875,110,55,0.36532
3939050,0.02000,106.0000,110,55,0.36117
3939060,0.04000,111.3750,110,55,0.35165
3939070,0.05000,112.9375,110,55,0.34652
3939080,0.05500,113.8750,110,55,0.34139
3939090,0.05500,114.2500,110,55,0.33626
3939100,0.05000,113.6250,110,55,0.32576
3939110,0.05000,112.8750,110,55,0.32063
3939120,0.05500,111.8125,110,55,0.31575
3939130,0.06000,110.6250,110,55,0.31111
3939140,0.07000,107.8125,110,55,0.30452
3939150,0.06000,106.3750,110,55,0.30061
3939160,0.04500,104.8750,110,55,0.29621
3939170,0.02500,103.4375,110,55,0.29158
3939180,-0.00500,100.6875,110,55,0.28132
3939190,-0.03000,99.3750,110,55,0.27643
3939200,-0.05500,98.1875,110,55,0.27155
3939210,-0.07000,97.0000,110,55,0.26740
3939220,-0.08000,94.6875,110,55,0.26227
3939230,-0.08000,93.3750,110,55,0.26300
3939240,-0.08000,91.8750,110,55,0.26618
3939250,-0.08000,90.0625,110,55,0.27204
3939260,-0.07500,85.5625,110,55,0.29426
3939270,-0.07000,83.1250,110,55,0.31136
3939280,-0.07000,80.9375,110,55,0.33236
3939290,-0.06500,79.1250,110,55,0.35702
3939300,-0.06000,76.3750,110,55,0.41587
3939310,-0.04500,75.4375,110,55,0.44860
3939320,-0.03500,74.6250,110,55,0.48254
3939330,-0.04000,74.0625,110,55,0.51673
3939340,-0.04500,73.1875,110,55,0.57216
3939350,-0.05000,72.8125,110,55,0.60024
3939360,-0.06000,72.5625,110,55,0.62759
3939370,-0.06500,72.2500,110,55,0.65348
3939380,-0.05000,71.6250,110,55,0.69695
3939390,-0.02500,71.3125,110,55,0.71429
3939400,-0.00500,70.9375,110,55,0.72869
3939410,0.02000,70.5000,110,55,0.74042
3939420,0.02500,69.6250,110,55,0.75580
3939430,0.00500,69.1875,110,55,0.75873
3939440,-0.02000,68.8125,110,55,0.75946
3939450,-0.05000,68.3750,110,55,0.75946
3939460,-0.07500,67.5000,110,55,0.75629
3939470,-0.09500,67.1250,110,55,0.75311
3939480,-0.11500,66.7500,110,55,0.74921
3939490,-0.12500,66.3125,110,55,0.74432
3939500,-0.12500,65.4375,110,55,0.73162
3939510,-0.11500,65.0625,110,55,0.72357
3939520,-0.11500,64.6875,110,55,0.71453
3939530,-0.11000,64.3125,110,55,0.70452
3939540,-0.10500,63.6875,110,55,0.68376
3939550,-0.09500,63.4375,110,55,0.67179
3939560,-0.12166,63.2188,110,55,0.66093
3939570,-0.09500,62.8750,110,55,0.64493
3939580,0.07500,62.2500,110,55,0.61758
3939590,0.58000,61.9375,110,55,0.60440
3939600,1.09500,61.5625,110,55,0.59170
3939610,0.89500,61.2500,110,55,0.57949
3939620,0.17500,60.5625,110,55,0.55702
3939630,-0.31000,60.1250,110,55,0.54774
3939640,-0.42500,59.7500,110,55,0.53968
3939650,-0.31000,59.3125,110,55,0.53138
3939660,-0.21000,58.4375,110,55,0.51429
3939670,-0.19500,58.0625,110,55,0.50598
3939680,-0.18000,57.6875,110,55,0.49792
3939690,-0.16000,57.3750,110,55,0.48987
3939700,-0.14500,56.6250,110,55,0.47179
3939710,-0.14500,56.2500,110,55,0.46056
3939720,-0.14500,55.8750,110,55,0.45153
3939730,-0.14500,55.5625,110,55,0.44347
3939740,-0.13500,55.1875,110,55,0.43175
3939750,-0.12500,55.1875,110,55,0.42540
3939760,-0.11500,55.6250,110,55,0.41880
3939770,-0.11500,56.7500,110,55,0.41221
3939780,-0.11500,62.3750,110,55,0.39951
3939790,-0.10500,66.8750,110,55,0.39341
3939800,-0.09500,72.1875,110,55,0.38730
3939810,-0.08500,77.8750,110,55,0.38144
3939820,-0.07000,89.4375,110,55,0.36972
3939830,-0.05500,94.8125,110,55,0.36508
3939840,-0.03000,99.7500,110,55,0.36117
3939850,-0.00500,104.0000,110,55,0.35629
3939860,0.01000,110.2500,110,55,0.34603
3939870,0.02500,112.1875,110,55,0.34115
3939880,0.04000,113.5000,110,55,0.33602
3939890,0.04000,114.1875,110,55,0.33089
3939900,0.03000,114.1250,110,55,0.32063
3939910,0.03000,113.5625,110,55,0.31551
3939920,0.03000,112.6875,110,55,0.31013
3939930,0.03000,111.6250,110,55,0.30501
3939940,0.04000,109.0625,110,55,0.29792
3939950,0.04000,107.6875,110,55,0.29402
3939960,0.03500,106.1875,110,55,0.28962
3939970,0.02000,104.7500,110,55,0.28498
3939980,0.00000,101.9375,110,55,0.27570
3939990,-0.02500,100.6250,110,55,0.27106
3940000,-0.05500,99.3125,110,55,0.26642
3940010,-0.07500,98.1250,110,55,0.26227
3940020,-0.08500,95.6875,110,55,0.25592
3940030,-0.09000,94.3750,110,55,0.25568
3940040,-0.08500,92.9375,110,55,0.25763
3940050,-0.08500,91.3125,110,55,0.26129
3940060,-0.07000,87.1250,110,55,0.27814
3940070,-0.06500,84.6250,110,55,0.29231
3940080,-0.06000,82.1250,110,55,0.31062
3940090,-0.05500,79.9375,110,55,0.33284
3940100,-0.04500,76.6875,110,55,0.38755
3940110,-0.04500,75.5625,110,55,0.41905
3940120,-0.04500,74.6250,110,55,0.45226
3940130,-0.05000,73.8750,110,55,0.48596
3940140,-0.05500,72.8125,110,55,0.54212
3940150,-0.06500,72.4375,110,55,0.57094
3940160,-0.06500,72.1250,110,55,0.59951
3940170,-0.07500,71.8750,110,55,0.62662
3940180,-0.07500,71.3750,110,55,0.67302
3940190,-0.07500,71.1250,110,55,0.69182
3940200,-0.06000,70.8125,110,55,0.70769
3940210,-0.03500,70.5000,110,55,0.72063
3940220,-0.01500,69.7500,110,55,0.73797
3940230,-0.00500,69.3750,110,55,0.74164
3940240,0.00000,68.9375,110,55,0.74286
3940250,-0.02000,68.5000,110,55,0.74359
3940260,-0.05000,67.6250,110,55,0.74212
3940270,-0.07500,67.2500,110,55,0.73968
3940280,-0.09500,66.8125,110,55,0.73651
3940290,-0.11500,66.4375,110,55,0.73211
3940300,-0.12500,65.5625,110,55,0.72088
3940310,-0.13000,65.1250,110,55,0.71355
3940320,-0.12500,64.7500,110,55,0.70525
3940330,-0.12500,64.3125,110,55,0.69548
3940340,-0.12500,63.5000,110,55,0.67473
3940350,-0.12500,63.1875,110,55,0.66300
3940360,-0.11500,62.8750,110,55,0.65031
3940370,-0.11500,62.5625,110,55,0.63687
3940380,-0.13000,62.0000,110,55,0.60977
3940390,-0.04500,61.6875,110,55,0.59658
3940400,0.32500,61.3750,110,55,0.58364
3940410,0.92500,61.0625,110,55,0.57143
3940420,1.07500,60.3750,110,55,0.54847
3940430,0.46500,60.0000,110,55,0.53871
3940440,-0.17000,59.6250,110,55,0.53016
3940450,-0.41000,59.2500,110,55,0.52112
3940460,-0.35500,58.5000,110,55,0.50281
3940470,-0.23500,58.1250,110,55,0.49402
3940480,-0.18500,57.7500,110,55,0.48547
3940490,-0.18000,57.4375,110,55,0.47717
3940500,-0.17000,56.6875,110,55,0.46129
3940510,-0.16000,56.3125,110,55,0.45372
3940520,-0.15500,56.0000,110,55,0.44640
3940530,-0.15000,55.6250,110,55,0.43907
3940540,-0.15000,55.0000,110,55,0.42759
3940550,-0.14500,54.8125,110,55,0.42125
3940560,-0.13500,54.6875,110,55,0.41465
3940570,-0.13000,54.8125,110,55,0.40830
3940580,-0.12500,56.6667,110,55,0.39853
3940590,-0.11500,59.8125,110,55,0.38877
3940600,-0.10500,63.8125,110,55,0.38242
3940610,-0.10000,68.7500,110,55,0.37607
3940620,-0.09000,80.1250,110,55,0.36410
3940630,-0.07500,86.0000,110,55,0.35946
3940640,-0.06500,91.6875,110,55,0.35580
3940650,-0.04500,97.0000,110,55,0.35116
3940660,-0.02500,105.7500,110,55,0.34139
3940670,-0.00500,108.9375,110,55,0.33626
3940680,0.02000,111.3750,110,55,0.33114
3940690,0.03000,113.0625,110,55,0.32601
3940700,0.04000,114.6250,110,55,0.31600
3940710,0.04000,114.6250,110,55,0.31111
3940720,0.03500,114.1875,110,55,0.30623
3940730,0.03000,113.4375,110,55,0.30281
3940740,0.03500,111.3125,110,55,0.29646
3940750,0.04000,110.0000,110,55,0.29206
3940760,0.05000,108.6250,110,55,0.28767
3940770,0.05000,107.2500,110,55,0.28303
3940780,0.04000,104.3125,110,55,0.27326
3940790,0.01500,102.9375,110,55,0.26838
3940800,-0.00500,101.5625,110,55,0.26349
3940810,-0.03500,100.2500,110,55,0.25861
3940820,-0.05500,97.7500,110,55,0.24982
3940830,-0.07000,96.5625,110,55,0.24762
3940840,-0.08000,95.3750,110,55,0.24713
3940850,-0.08500,94.1250,110,55,0.24713
3940860,-0.08500,90.8750,110,55,0.25397
3940870,-0.08500,88.8750,110,55,0.26227
3940880,-0.08000,86.6250,110,55,0.27448
3940890,-0.07500,84.2500,110,55,0.29084
3940900,-0.05500,80.0625,110,55,0.33626
3940910,-0.04500,78.3750,110,55,0.36435
3940920,-0.03500,77.0625,110,55,0.39512
3940930,-0.04000,75.9375,110,55,0.42369
3940940,-0.04000,74.3750,110,55,0.48303
3940950,-0.04000,73.8125,110,55,0.51575
3940960,-0.04500,73.3750,110,55,0.54847
3940970,-0.05500,73.0000,110,55,0.58022
3940980,-0.06500,72.4375,110,55,0.63712
3940990,-0.07000,72.1250,110,55,0.66178
3941000,-0.07000,71.8125,110,55,0.68327
3941010,-0.06500,71.4375,110,55,0.70159
3941020,-0.04500,70.6875,110,55,0.72869
3941030,-0.02500,70.3125,110,55,0.73626
3941040,-0.01500,69.9375,110,55,0.74066
3941050,-0.01000,69.5000,110,55,0.74457
3941060,-0.02500,68.6875,110,55,0.74823
3941070,-0.06000,68.2500,110,55,0.74799
3941080,-0.08500,67.8125,110,55,0.74628
3941090,-0.11000,67.3750,110,55,0.74359
3941100,-0.13500,66.4375,110,55,0.73553
3941110,-0.16000,66.0000,110,55,0.73016
3941120,-0.16500,65.5625,110,55,0.72381
3941130,-0.16500,65.0625,110,55,0.71673
3941140,-0.16500,64.2500,110,55,0.69988
3941150,-0.16000,63.8750,110,55,0.68962
3941160,-0.14500,63.5000,110,55,0.67814
3941170,-0.13500,63.1250,110,55,0.66593
3941180,-0.12500,62.5000,110,55,0.63956
3941190,-0.13000,62.1875,110,55,0.62564
3941200,-0.08500,61.8750,110,55,0.61197
3941210,0.22500,61.5625,110,55,0.59878
3941220,0.84500,60.8750,110,55,0.57387
3941230,1.13500,60.5625,110,55,0.56337
3941240,0.62000,60.1875,110,55,0.55409
3941250,-0.12500,59.8750,110,55,0.54432
3941260,-0.45000,59.1250,110,55,0.52601
3941270,-0.41000,58.6875,110,55,0.51722
3941280,-0.28000,58.3125,110,55,0.50867
3941290,-0.22000,57.9375,110,55,0.50012
3941300,-0.21000,57.2500,110,55,0.48352
3941310,-0.20500,56.8750,110,55,0.47546
3941320,-0.19000,56.5625,110,55,0.46764
3941330,-0.18000,56.1875,110,55,0.46105
3941340,-0.17000,55.5625,110,55,0.44835
3941350,-0.16000,55.3125,110,55,0.44127
3941360,-0.15000,55.0625,110,55,0.43394
3941370,-0.14000,54.9375,110,55,0.42686
3941380,-0.13000,55.3125,110,55,0.41294
3941390,-0.12500,56.5625,110,55,0.40635
3941400,-0.11500,58.8750,110,55,0.40000
3941410,-0.11000,62.5625,110,55,0.39390
3941420,-0.09500,72.9375,110,55,0.38144
3941430,-0.08000,78.8750,110,55,0.37631
3941440,-0.06500,84.9375,110,55,0.37216
3941450,-0.04500,90.9375,110,55,0.36703
3941460,-0.02500,101.5625,110,55,0.35604
3941470,-0.00500,105.8125,110,55,0.35043
3941480,0.01500,109.3125,110,55,0.34481
3941490,0.03000,111.9375,110,55,0.33919
3941500,0.04500,115.0625,110,55,0.32821
3941510,0.05000,115.6250,110,55,0.32283
3941520,0.05500,115.7500,110,55,0.31746
3941530,0.06000,115.4375,110,55,0.31355
3941540,0.06000,113.9375,110,55,0.30647
3941550,0.06000,112.8750,110,55,0.30208
3941560,0.06000,111.6250,110,55,0.29744
3941570,0.06500,110.3125,110,55,0.29280
3941580,0.07000,107.5625,110,55,0.28352
3941590,0.06000,106.1875,110,55,0.27888
3941600,0.03500,104.8125,110,55,0.27399
3941610,0.01000,102.8646,110,55,0.26638
3941620,-0.01500,101.0000,110,55,0.25934
3941630,-0.04000,99.8750,110,55,0.25617
3941640,-0.06000,98.6875,110,55,0.25421
3941650,-0.06500,97.5625,110,55,0.25201
3941660,-0.06500,95.0000,110,55,0.25153
3941670,-0.06000,93.4375,110,55,0.25495
3941680,-0.05000,91.5625,110,55,0.26178
3941690,-0.04500,89.3750,110,55,0.27253
3941700,-0.04500,84.4375,110,55,0.30696
3941710,-0.04500,82.1250,110,55,0.33065
3941720,-0.04500,80.1875,110,55,0.35800
3941730,-0.05000,78.5625,110,55,0.38437
3941740,-0.05500,76.1250,110,55,0.44200
3941750,-0.05500,75.3125,110,55,0.47619
3941760,-0.05500,74.6875,110,55,0.51136
3941770,-0.05500,74.1875,110,55,0.54579
3941780,-0.05500,73.5000,110,55,0.61001
3941790,-0.06000,73.1875,110,55,0.63858
3941800,-0.06000,72.9375,110,55,0.66447
3941810,-0.06000,72.6875,110,55,0.68718
3941820,-0.04500,72.0625,110,55,0.72308
3941830,-0.03500,71.6875,110,55,0.73431
3941840,-0.01500,71.3125,110,55,0.74212
3941850,0.00000,70.8750,110,55,0.74921
3941860,0.01000,70.0625,110,55,0.75897
3941870,0.01000,69.5625,110,55,0.76142
3941880,-0.01000,69.1250,110,55,0.76215
3941890,-0.03500,68.6875,110,55,0.76142
3941900,-0.05500,67.8125,110,55,0.75653
3941910,-0.08000,67.3125,110,55,0.75214
3941920,-0.10500,66.8750,110,55,0.74676
3941930,-0.11500,66.3750,110,55,0.74017
3941940,-0.12000,65.3750,110,55,0.72503
3941950,-0.12000,64.9375,110,55,0.71600
3941960,-0.11500,64.5000,110,55,0.70598
3941970,-0.11000,64.0625,110,55,0.69499
3941980,-0.10000,63.3750,110,55,0.67082
3941990,-0.09500,63.0625,110,55,0.65763
3942000,-0.09500,62.7500,111,55,0.64396
3942010,-0.09500,62.4375,111,55,0.63053
3942020,0.12000,61.8125,111,55,0.60391
3942030,0.70000,61.5000,111,55,0.59219
3942040,1.20000,61.1875,111,55,0.58144
3942050,0.88000,60.9375,111,55,0.57045
3942060,0.07000,60.2500,111,55,0.54896
3942070,-0.39500,59.9375,111,55,0.53895
3942080,-0.42500,59.5625,111,55,0.52943
3942090,-0.28500,59.1875,111,55,0.52039
3942100,-0.20000,58.3750,111,55,0.50305
3942110,-0.18500,58.0000,111,55,0.49451
3942120,-0.17500,57.6875,111,55,0.48620
3942130,-0.17000,57.3750,111,55,0.47937
3942140,-0.16000,56.7500,111,55,0.46618
3942150,-0.16000,56.4375,111,55,0.45910
3942160,-0.15500,56.1250,111,55,0.45201
3942170,-0.14500,55.8125,111,55,0.44493
3942180,-0.13500,55.4375,111,55,0.43101
3942190,-0.12500,55.5000,111,55,0.42418
3942200,-0.11500,56.1875,111,55,0.41734
3942210,-0.11500,57.7500,111,55,0.41074
3942220,-0.10500,64.9375,111,55,0.39756
3942230,-0.10500,70.1875,111,55,0.39219
3942240,-0.09000,76.0625,111,55,0.38755
3942250,-0.07500,82.1875,111,55,0.38193
3942260,-0.05000,94.1875,111,55,0.37021
3942270,-0.02500,99.5625,111,55,0.36435
3942280,-0.00500,104.3125,111,55,0.35873
3942290,0.01500,108.2500,111,55,0.35336
3942300,0.03000,113.5625,111,55,0.34261
3942310,0.04500,115.0625,111,55,0.33724
3942320,0.06000,115.8750,111,55,0.33211
3942330,0.06000,116.1875,111,55,0.32845
3942340,0.06000,115.5625,111,55,0.32112
3942350,0.06000,114.7500,111,55,0.31648
3942360,0.06000,113.7500,111,55,0.31160
3942370,0.06000,112.5625,111,55,0.30672
3942380,0.06000,109.8750,111,55,0.29695
3942390,0.06500,108.4375,111,55,0.29206
3942400,0.06500,106.9375,111,55,0.28742
3942410,0.05000,105.5625,111,55,0.28278
3942420,0.03000,102.8125,111,55,0.27350
3942430,0.00500,101.5625,111,55,0.27009
3942440,-0.01500,100.3125,111,55,0.26764
3942450,-0.03500,99.1250,111,55,0.26422
3942460,-0.04500,96.7500,111,55,0.25812
3942470,-0.05500,95.4375,111,55,0.25714
3942480,-0.06500,94.0000,111,55,0.25861
3942490,-0.06500,92.2500,111,55,0.26325
3942500,-0.06000,87.9375,111,55,0.28400
3942510,-0.06000,85.5625,111,55,0.30061
3942520,-0.06000,83.2500,111,55,0.32161
3942530,-0.06500,81.2500,111,55,0.34310
3942540,-0.06000,78.1250,111,55,0.39414
3942550,-0.05500,76.9375,111,55,0.42589
3942560,-0.05000,76.0000,111,55,0.46007
3942570,-0.05000,75.3125,111,55,0.49499
3942580,-0.05000,74.3125,111,55,0.56386
3942590,-0.05000,74.0000,111,55,0.59609
3942600,-0.05000,73.6875,111,55,0.62613
3942610,-0.05000,73.4375,111,55,0.65324
3942620,-0.05500,72.8750,111,55,0.69548
3942630,-0.06000,72.4896,111,55,0.71425
3942640,-0.05500,72.1875,111,55,0.72283
3942650,-0.04500,71.8750,111,55,0.73455
3942660,-0.03000,71.0625,111,55,0.75140
3942670,-0.01500,70.6250,111,55,0.75678
3942680,0.00000,70.1875,111,55,0.75995
3942690,0.01000,69.6875,111,55,0.76142
3942700,-0.00500,68.8125,111,55,0.75946
3942710,-0.03000,68.3125,111,55,0.75653
3942720,-0.05000,67.8750,111,55,0.75238
3942730,-0.07000,67.4375,111,55,0.74701
3942740,-0.09000,66.4375,111,55,0.73455
3942750,-0.11000,65.9375,111,55,0.72723
3942760,-0.11500,65.4375,111,55,0.71893
3942770,-0.11500,65.0000,111,55,0.70940
3942780,-0.11500,64.0625,111,55,0.68694
3942790,-0.11500,63.6250,111,55,0.67424
3942800,-0.11000,63.1875,111,55,0.66081
3942810,-0.10500,62.8125,111,55,0.64713
3942820,-0.09500,62.1250,111,55,0.62076
3942830,-0.11500,61.8125,111,55,0.60904
3942840,-0.02000,61.5000,111,55,0.59683
3942850,0.42500,61.1875,111,55,0.58486
3942860,1.07500,60.5000,111,55,0.56190
3942870,1.12000,60.1875,111,55,0.55116
3942880,0.38500,59.8750,111,55,0.54090
3942890,-0.29500,59.5625,111,55,0.53114
3942900,-0.48500,59.0000,111,55,0.51282
3942910,-0.36500,58.6875,111,55,0.50403
3942920,-0.24000,58.3125,111,55,0.49548
3942930,-0.21000,58.0000,111,55,0.48791
3942940,-0.20000,57.3125,111,55,0.47424
3942950,-0.19000,57.0000,111,55,0.46667
3942960,-0.17000,56.6875,111,55,0.45910
3942970,-0.16000,56.3125,111,55,0.45153
3942980,-0.15500,55.6875,111,55,0.43663
3942990,-0.14500,55.4375,111,55,0.42955
3943000,-0.13000,55.1875,111,55,0.42247
3943010,-0.11500,55.0000,111,55,0.41563
3943020,-0.10500,55.6250,111,55,0.40366
3943030,-0.09500,57.1875,111,55,0.39878
3943040,-0.08500,60.0000,111,55,0.39316
3943050,-0.08500,64.1250,111,55,0.38706
3943060,-0.07500,75.0625,111,55,0.37460
3943070,-0.06500,81.1875,111,55,0.36850
3943080,-0.05500,87.3125,111,55,0.36264
3943090,-0.03500,93.2500,111,55,0.35678
3943100,-0.01500,103.3750,111,55,0.34554
3943110,0.00500,107.2500,111,55,0.33993
3943120,0.03000,110.3125,111,55,0.33455
3943130,0.05000,112.5625,111,55,0.33065
3943140,0.06000,114.9375,111,55,0.32308
3943150,0.07000,115.1875,111,55,0.31868
3943160,0.07000,115.0625,111,55,0.31404
3943170,0.07000,114.5625,111,55,0.30916
3943180,0.07500,112.8125,111,55,0.29915
3943190,0.08000,111.6250,111,55,0.29402
3943200,0.08500,110.3125,111,55,0.28913
3943210,0.09000,108.9375,111,55,0.28400
3943220,0.09000,106.0625,111,55,0.27570
3943230,0.07500,104.6250,111,55,0.27302
3943240,0.05000,103.1875,111,55,0.26935
3943250,0.02000,101.8125,111,55,0.26520
3943260,0.00000,99.2500,111,55,0.25617
3943270,-0.02000,98.0625,111,55,0.25177
3943280,-0.04000,96.8750,111,55,0.24786
3943290,-0.05500,94.1875,111,55,0.24542
3943300,-0.05500,92.6250,111,55,0.24615
3943310,-0.05000,90.7500,111,55,0.25079
3943320,-0.03500,88.5000,111,55,0.25910
3943330,-0.03000,86.0000,111,55,0.26984
3943340,-0.03000,81.0000,111,55,0.30232
3943350,-0.02500,78.8750,111,55,0.32552
3943360,-0.02500,77.1250,111,55,0.35238
3943370,-0.02000,75.7500,111,55,0.38266
3943380,-0.02000,73.8750,111,55,0.44957
3943390,-0.02000,73.2500,111,55,0.48474
3943400,-0.02000,72.8750,111,55,0.51966
3943410,-0.02500,72.6250,111,55,0.55385
3943420,-0.03000,72.3125,111,55,0.61221
3943430,-0.03000,72.1875,111,55,0.63443
3943440,-0.03500,72.0000,111,55,0.65714
3943450,-0.03500,71.8125,111,55,0.67814
3943460,-0.02000,71.2500,111,55,0.71282
3943470,-0.00500,70.9375,111,55,0.72576
3943480,0.01000,70.5625,111,55,0.73602
3943490,0.02000,70.1875,111,55,0.74359
3943500,0.03000,69.2500,111,55,0.75189
3943510,0.03000,68.8125,111,55,0.75287
3943520,0.01000,68.3750,111,55,0.75214
3943530,-0.01500,67.8750,111,55,0.74945
3943540,-0.03500,66.8750,111,55,0.74090
3943550,-0.06000,66.3750,111,55,0.73578
3943560,-0.08000,65.8750,111,55,0.72991
3943570,-0.09500,65.3750,111,55,0.72332
3943580,-0.09500,64.4375,111,55,0.70672
3943590,-0.09000,64.0000,111,55,0.69646
3943600,-0.08500,63.6250,111,55,0.68523
3943610,-0.08500,63.1875,111,55,0.67302
3943620,-0.07000,62.4375,111,55,0.64713
3943630,-0.06500,62.1250,111,55,0.63468
3943640,-0.07000,61.8750,111,55,0.62125
3943650,-0.06000,61.5625,111,55,0.60708
3943660,0.23583,61.0833,111,55,0.58677
3943670,0.68000,60.6250,111,55,0.56728
3943680,1.13500,60.3750,111,55,0.55556
3943690,0.82500,60.0625,111,55,0.54481
3943700,0.08000,59.3750,111,55,0.52527
3943710,-0.36500,59.0000,111,55,0.51624
3943720,-0.41500,58.6250,111,55,0.50769
3943730,-0.29000,58.3125,111,55,0.50012
3943740,-0.19500,57.5000,111,55,0.48596
3943750,-0.17500,57.0625,111,55,0.47839
3943760,-0.16500,56.6875,111,55,0.47082
3943770,-0.15500,56.3125,111,55,0.46349
3943780,-0.14500,55.6250,111,55,0.44884
3943790,-0.14500,55.3125,111,55,0.44151
3943800,-0.14000,55.0000,111,55,0.43443
3943810,-0.13500,54.6875,111,55,0.42735
3943820,-0.13000,54.2500,111,55,0.41441
3943830,-0.11500,54.1875,111,55,0.40928
3943840,-0.09500,54.5625,111,55,0.40342
3943850,-0.08500,55.5625,111,55,0.39731
3943860,-0.07000,61.0625,111,55,0.38486
3943870,-0.06500,65.6250,111,55,0.37851
3943880,-0.05500,71.0000,111,55,0.37241
3943890,-0.05500,76.6875,111,55,0.36630
3943900,-0.04500,88.3125,111,55,0.35458
3943910,-0.03500,92.1771,111,55,0.35071
3943920,-0.02500,93.7500,111,55,0.34896
3943930,-0.00500,98.5000,111,55,0.34359
3943940,0.01500,105.8750,111,55,0.33578
3943950,0.04000,108.3750,111,55,0.33138
3943960,0.06000,110.1250,111,55,0.32674
3943970,0.07000,111.1250,111,55,0.32210
3943980,0.07000,111.4375,111,55,0.31306
3943990,0.07500,111.0000,111,55,0.30867
3944000,0.07500,110.1875,111,55,0.30427
3944010,0.07000,109.1250,111,55,0.29963
3944020,0.07500,106.4375,111,55,0.29084
3944030,0.08500,104.9375,111,55,0.28767
3944040,0.09000,103.4375,111,55,0.28523
3944050,0.08000,101.9375,111,55,0.28156
3944060,0.05000,99.0000,111,55,0.27350
3944070,0.02500,97.5625,111,55,0.26886
3944080,0.00000,96.2500,111,55,0.26422
3944090,-0.01500,95.0000,111,55,0.25958
3944100,-0.03500,92.4375,111,55,0.25128
3944110,-0.03500,91.0625,111,55,0.24860
3944120,-0.03500,89.5625,111,55,0.24737
3944130,-0.04000,87.8125,111,55,0.24811
3944140,-0.04000,83.6250,111,55,0.25763
3944150,-0.03500,81.3125,111,55,0.26667
3944160,-0.03000,79.1875,111,55,0.27937
3944170,-0.02500,77.3125,111,55,0.29573
3944180,-0.02000,74.5625,111,55,0.33944
3944190,-0.01500,73.5625,111,55,0.36581
3944200,-0.01500,72.8750,111,55,0.39463
3944210,-0.01500,72.3125,111,55,0.42515
3944220,-0.01500,71.5000,111,55,0.48767
3944230,-0.01500,71.2500,111,55,0.51453
3944240,-0.02500,71.0625,111,55,0.53846
3944250,-0.02500,70.8750,111,55,0.56386
3944260,-0.03000,70.4375,111,55,0.61148
3944270,-0.02500,70.1875,111,55,0.63199
3944280,-0.02000,69.8750,111,55,0.64982
3944290,-0.00500,69.5625,111,55,0.66471
3944300,0.01500,68.8125,111,55,0.68620
3944310,0.03500,68.3750,111,55,0.69328
3944320,0.04500,67.9375,111,55,0.69817
3944330,0.03000,67.5000,111,55,0.70110
3944340,0.00000,66.5625,111,55,0.70037
3944350,-0.03000,66.1250,111,55,0.69866
3944360,-0.05000,65.6250,111,55,0.69573
3944370,-0.07500,65.1875,111,55,0.69206
3944380,-0.09500,64.2500,111,55,0.68156
3944390,-0.09500,63.8125,111,55,0.67473
3944400,-0.09500,63.3750,111,55,0.66716
3944410,-0.09500,62.9375,111,55,0.65861
3944420,-0.09500,62.0625,111,55,0.63834
3944430,-0.09000,61.6875,111,55,0.62784
3944440,-0.08500,61.3125,111,55,0.61734
3944450,-0.08000,61.0000,111,55,0.60562
3944460,-0.08500,60.5000,111,55,0.58046
3944470,-0.08500,60.2500,111,55,0.56825
3944480,0.14000,60.0625,111,55,0.55653
3944490,0.67500,59.7500,111,55,0.54530
3944500,1.08500,59.1875,111,55,0.52454
3944510,0.78500,58.8750,111,55,0.51502
3944520,0.07000,58.5625,111,55,0.50623
3944530,-0.35500,58.2500,111,55,0.49866
3944540,-0.41500,57.5625,111,55,0.48474
3944550,-0.30000,57.1875,111,55,0.47766
3944560,-0.21000,56.8125,111,55,0.47057
3944570,-0.18500,56.4375,111,55,0.46349
3944580,-0.18000,55.6875,111,55,0.45006
3944590,-0.17000,55.3125,111,55,0.44347
3944600,-0.16000,55.0000,111,55,0.43712
3944610,-0.15500,54.6875,111,55,0.43053
3944620,-0.14500,54.0000,111,55,0.41783
3944630,-0.13500,53.7500,111,55,0.41270
3944640,-0.12500,53.4375,111,55,0.40806
3944650,-0.10500,53.3125,111,55,0.40244
3944660,-0.09500,53.6250,111,55,0.39072
3944670,-0.09000,54.5625,111,55,0.38462
3944680,-0.08500,56.5625,111,55,0.37851
3944690,-0.07500,59.7500,111,55,0.37241
3944700,-0.07000,69.3125,111,55,0.36068
3944710,-0.05500,74.8750,111,55,0.35507
3944720,-0.05000,80.6250,111,55,0.34969
3944730,-0.03500,86.2500,111,55,0.34603
3944740,-0.02000,96.5000,111,55,0.33871
3944750,0.00000,100.6875,111,55,0.33407
3944760,0.02500,104.0625,111,55,0.32943
3944770,0.04000,106.6875,111,55,0.32479
3944780,0.05000,109.7500,111,55,0.31575
3944790,0.06000,110.2500,111,55,0.31136
3944800,0.06000,110.2500,111,55,0.30696
3944810,0.06000,109.8750,111,55,0.30232
3944820,0.06000,108.1875,111,55,0.29328
3944830,0.07000,107.0000,111,55,0.29011
3944840,0.07000,105.6875,111,55,0.28742
3944850,0.07500,104.2500,111,55,0.28376
3944860,0.07000,101.1875,111,55,0.27619
3944870,0.05500,99.6875,111,55,0.27228
3944880,0.03000,98.2500,111,55,0.26838
3944890,0.01000,96.8750,111,55,0.26447
3944900,-0.01500,94.1875,111,55,0.25665
3944910,-0.04000,92.9375,111,55,0.25275
3944920,-0.05000,91.7500,111,55,0.24908
3944930,-0.05500,89.0000,111,55,0.24713
3944940,-0.05500,87.3750,111,55,0.24713
3944950,-0.05500,85.5000,111,55,0.24933
3944960,-0.05500,83.3750,111,55,0.25397
3944970,-0.04500,81.1250,111,55,0.26203
3944980,-0.04500,77.0000,111,55,0.28987
3944990,-0.03500,75.4375,111,55,0.30965
3945000,-0.03500,74.1250,112,55,0.33309
3945010,-0.03000,73.1875,112,55,0.35971
3945020,-0.03500,71.8125,112,55,0.41929
3945030,-0.04000,71.3750,112,55,0.44664
3945040,-0.04500,71.0000,112,55,0.47253
3945050,-0.04000,70.6875,112,55,0.50085
3945060,-0.04500,70.2500,112,55,0.55751
3945070,-0.04500,70.0000,112,55,0.58364
3945080,-0.04500,69.7500,112,55,0.60757
3945090,-0.04000,69.5000,112,55,0.62882
3945100,-0.02500,68.8125,112,55,0.66300
3945110,-0.00500,68.4375,112,55,0.67619
3945120,0.01000,68.0625,112,55,0.68645
3945130,0.01500,67.6250,112,55,0.69280
3945140,0.01000,66.8125,112,55,0.69988
3945150,-0.01500,66.3125,112,55,0.70183
3945160,-0.05000,65.8750,112,55,0.70232
3945170,-0.07000,65.4375,112,55,0.70134
3945180,-0.09500,64.5000,112,55,0.69621
3945190,-0.11500,64.0625,112,55,0.69206
3945200,-0.12000,63.6250,112,55,0.68694
3945210,-0.11500,63.1875,112,55,0.68083
3945220,-0.10500,62.3750,112,55,0.66471
3945230,-0.10500,62.0000,112,55,0.65568
3945240,-0.10500,61.6250,112,55,0.64615
3945250,-0.10000,61.2500,112,55,0.63541
3945260,-0.09500,60.7500,112,55,0.61172
3945270,-0.10000,60.5000,112,55,0.59951
3945280,-0.09000,60.2500,112,55,0.58706
3945290,0.11000,59.7500,112,55,0.57509
3945300,0.64000,59.5000,112,55,0.55263
3945310,1.09500,59.2500,112,55,0.54212
3945320,0.80500,58.9375,112,55,0.53187
3945330,0.08000,58.6250,112,55,0.52332
3945340,-0.35500,57.9375,112,55,0.50769
3945350,-0.43000,57.5625,112,55,0.49963
3945360,-0.31500,57.1875,112,55,0.49158
3945370,-0.22000,56.7500,112,55,0.48376
3945380,-0.20000,56.0625,112,55,0.46911
3945390,-0.19000,55.7500,112,55,0.46203
3945400,-0.18000,55.4375,112,55,0.45495
3945410,-0.17000,55.0625,112,55,0.44811
3945420,-0.16000,54.3125,112,55,0.43516
3945430,-0.15000,54.0000,112,55,0.43004
3945440,-0.14000,53.6875,112,55,0.42540
3945450,-0.12000,53.4375,112,55,0.41978
3945460,-0.09500,53.1250,112,55,0.40806
3945470,-0.07000,53.3750,112,55,0.40220
3945480,-0.05500,54.2500,112,55,0.39634
3945490,-0.04500,56.0625,112,55,0.39023
3945500,-0.03500,63.4375,112,55,0.37851
3945510,-0.02000,68.5625,112,55,0.37265
3945520,-0.01000,74.1875,112,55,0.36679
3945530,0.00000,79.9375,112,55,0.36215
3945540,0.01000,91.0625,112,55,0.35409
3945550,0.02000,96.0625,112,55,0.34921
3945560,0.02500,100.3750,112,55,0.34432
3945570,0.04000,104.0000,112,55,0.33944
3945580,0.04500,108.9375,112,55,0.33016
3945590,0.05000,110.3125,112,55,0.32552
3945600,0.05500,111.0625,112,55,0.32088
3945610,0.05500,111.2500,112,55,0.31624
3945620,0.05500,110.4375,112,55,0.30696
3945630,0.05500,109.6250,112,55,0.30354
3945640,0.06000,108.5625,112,55,0.30085
3945650,0.06000,107.3125,112,55,0.29719
3945660,0.06500,104.6250,112,55,0.28840
3945670,0.06000,103.1875,112,55,0.28400
3945680,0.05000,101.7500,112,55,0.27961
3945690,0.03500,100.3125,112,55,0.27521
3945700,0.02000,97.5625,112,55,0.26642
3945710,0.00667,96.0313,112,55,0.26125
3945720,-0.00500,95.0000,112,55,0.25812
3945730,-0.01500,93.7500,112,55,0.25543
3945740,-0.02500,91.1250,112,55,0.25275
3945750,-0.02500,89.6250,112,55,0.25250
3945760,-0.03000,87.8125,112,55,0.25446
3945770,-0.03000,85.8125,112,55,0.25934
3945780,-0.03000,81.1875,112,55,0.28010
3945790,-0.03000,79.0000,112,55,0.29621
3945800,-0.03000,77.1875,112,55,0.31624
3945810,-0.03000,75.6875,112,55,0.33993
3945820,-0.03500,73.5000,112,55,0.39560
3945830,-0.03500,72.6875,112,55,0.42247
3945840,-0.03500,72.1250,112,55,0.44835
3945850,-0.04000,71.6250,112,55,0.47766
3945860,-0.05000,70.8750,112,55,0.56020
3945870,-0.05500,70.6250,112,55,0.59731
3945880,-0.05500,70.3750,112,55,0.63004
3945890,-0.05500,70.1250,112,55,0.65910
3945900,-0.05000,69.5625,112,55,0.70647
3945910,-0.04500,69.1875,112,55,0.72503
3945920,-0.02500,68.8750,112,55,0.74042
3945930,0.00000,68.5000,112,55,0.75067
3945940,0.00500,67.7500,112,55,0.76361
3945950,0.01000,67.3750,112,55,0.76825
3945960,-0.01500,66.9375,112,55,0.77118
3945970,-0.04500,66.5625,112,55,0.77241
3945980,-0.07000,65.6875,112,55,0.77045
3945990,-0.09500,65.2500,112,55,0.76752
3946000,-0.12500,64.8125,113,55,0.76337
3946010,-0.14000,64.3750,113,55,0.75824
3946020,-0.14500,63.5000,113,55,0.74505
3946030,-0.15000,63.0625,113,55,0.73724
3946040,-0.15000,62.6250,113,55,0.72869
3946050,-0.15000,62.2500,113,55,0.71893
3946060,-0.14500,61.5000,113,55,0.69597
3946070,-0.14000,61.1875,113,55,0.68327
3946080,-0.13000,60.9375,113,55,0.66984
3946090,-0.13500,60.6250,113,55,0.65592
3946100,-0.04500,60.1250,113,55,0.62833
3946110,0.33000,59.8125,113,55,0.61514
3946120,0.92000,59.5000,113,55,0.60244
3946130,1.02000,59.1875,113,55,0.59145
3946140,0.38000,58.4375,113,55,0.57167
3946150,-0.25000,58.0625,113,55,0.56190
3946160,-0.48500,57.6875,113,55,0.55238
3946170,-0.42000,57.3125,113,55,0.54310
3946180,-0.30500,56.5000,113,55,0.52527
3946190,-0.25000,56.1250,113,55,0.51697
3946200,-0.24000,55.7500,113,55,0.50867
3946210,-0.23000,55.3750,113,55,0.50061
3946220,-0.22000,54.6875,113,55,0.48474
3946230,-0.21000,54.3750,113,55,0.47814
3946240,-0.20000,54.0000,113,55,0.47204
3946250,-0.19500,53.6875,113,55,0.46520
3946260,-0.19000,53.1875,113,55,0.45079
3946270,-0.18000,53.0625,113,55,0.44371
3946280,-0.16000,53.1250,113,55,0.43687
3946290,-0.14500,53.5000,113,55,0.43004
3946300,-0.13500,56.8750,113,55,0.41685
3946310,-0.12500,60.4375,113,55,0.41050
3946320,-0.11500,65.0625,113,55,0.40415
3946330,-0.10500,70.4375,113,55,0.39902
3946340,-0.09000,82.0000,113,55,0.38901
3946350,-0.07000,87.7500,113,55,0.38339
3946360,-0.05500,93.0625,113,55,0.37778
3946370,-0.03000,97.8750,113,55,0.37216
3946380,-0.01000,105.3750,113,55,0.36093
3946390,0.00500,107.9375,113,55,0.35556
3946400,0.01000,109.8125,113,55,0.35018
3946410,0.01500,111.0000,113,55,0.34481
3946420,0.01000,111.6250,113,55,0.33602
3946430,0.01000,111.3125,113,55,0.33284
3946440,0.02000,110.6250,113,55,0.32869
3946450,0.02500,109.7500,113,55,0.32405
3946460,0.03000,107.3125,113,55,0.31429
3946470,0.03500,105.9375,113,55,0.30940
3946480,0.04000,104.5000,113,55,0.30452
3946490,0.03500,103.1250,113,55,0.29963
3946500,0.01000,100.3125,113,55,0.28987
3946510,-0.01500,98.9375,113,55,0.28474
3946520,-0.04000,97.6250,113,55,0.27961
3946530,-0.06000,96.3750,113,55,0.27595
3946540,-0.07500,93.9375,113,55,0.27033
3946550,-0.08500,92.6875,113,55,0.26740
3946560,-0.08000,91.3750,113,55,0.26545
3946570,-0.07000,89.8750,113,55,0.26545
3946580,-0.06000,86.1250,113,55,0.27424
3946590,-0.04500,83.8750,113,55,0.28425
3946600,-0.03500,81.5000,113,55,0.29866
3946610,-0.03000,79.3125,113,55,0.31746
3946620,-0.02500,75.7500,113,55,0.36337
3946630,-0.02000,74.5000,113,55,0.38755
3946640,-0.02000,73.5000,113,55,0.41661
3946650,-0.01500,72.6875,113,55,0.44884
3946660,-0.01500,71.5625,113,55,0.51746
3946670,-0.02000,71.1250,113,55,0.55189
3946680,-0.02500,70.7500,113,55,0.58510
3946690,-0.02500,70.4375,113,55,0.61685
3946700,-0.02500,69.8125,113,55,0.67302
3946710,-0.02000,69.5000,113,55,0.69670
3946720,-0.01000,69.1875,113,55,0.71746
3946730,0.00000,68.8125,113,55,0.73236
3946740,0.01500,68.0625,113,55,0.75433
3946750,0.02500,67.6875,113,55,0.76361
3946760,0.02000,67.2500,113,55,0.77094
3946770,0.00000,66.8750,113,55,0.77631
3946780,-0.02500,66.0000,113,55,0.78095
3946790,-0.05000,65.5625,113,55,0.78071
3946800,-0.07500,65.1875,113,55,0.77900
3946810,-0.09500,64.7500,113,55,0.77631
3946820,-0.11500,63.8750,113,55,0.76703
3946830,-0.11500,63.4375,113,55,0.76068
3946840,-0.11000,63.0625,113,55,0.75336
3946850,-0.10500,62.6250,113,55,0.74530
3946860,-0.10500,61.9375,113,55,0.72527
3946870,-0.09500,61.5625,113,55,0.71355
3946880,-0.08500,61.3125,113,55,0.70061
3946890,-0.07500,61.0000,113,55,0.68718
3946900,-0.08000,60.4375,113,55,0.65934
3946910,0.03000,60.1875,113,55,0.64518
3946920,0.46000,59.8750,113,55,0.63150
3946930,1.03500,59.6250,113,55,0.61929
3946940,1.01000,59.0000,113,55,0.59609
3946950,0.35000,58.6250,113,55,0.58462
3946960,-0.21500,58.2500,113,55,0.57363
3946970,-0.41000,57.8750,113,55,0.56313
3946980,-0.33500,57.1250,113,55,0.54310
3946990,-0.22500,56.6875,113,55,0.53358
3947000,-0.19500,56.3125,113,55,0.52430
3947010,-0.18500,55.9375,113,55,0.51526
3947020,-0.17500,55.1875,113,55,0.49939
3947030,-0.16000,54.7500,113,55,0.49304
3947040,-0.15500,54.3750,113,55,0.48596
3947050,-0.14500,54.0625,113,55,0.47863
3947060,-0.14500,53.4375,113,55,0.46447
3947070,-0.13000,53.1875,113,55,0.45714
3947080,-0.11500,53.0625,113,55,0.45006
3947090,-0.10500,53.1250,113,55,0.44298
3947100,-0.10000,54.6875,113,55,0.42882
3947110,-0.09500,56.9375,113,55,0.42198
3947120,-0.09000,60.4375,113,55,0.41490
3947130,-0.08000,65.0625,113,55,0.40928
3947140,-0.06500,76.1875,113,55,0.39829
3947150,-0.04500,81.9375,113,55,0.39219
3947160,-0.03500,87.6875,113,55,0.38608
3947170,-0.02000,93.0625,113,55,0.37998
3947180,-0.00500,102.1250,113,55,0.36874
3947190,0.01500,105.5625,113,55,0.36313
3947200,0.03000,108.1875,113,55,0.35775
3947210,0.04000,110.0000,113,55,0.35238
3947220,0.05000,111.8750,113,55,0.34310
3947230,0.05000,112.0000,113,55,0.33993
3947240,0.05500,111.7500,113,55,0.33578
3947250,0.05500,111.1250,113,55,0.33089
3947260,0.05000,109.1875,113,55,0.32039
3947270,0.05500,108.0000,113,55,0.31502
3947280,0.05500,106.6250,113,55,0.30989
3947290,0.06000,105.1875,113,55,0.30476
3947300,0.05000,102.3125,113,55,0.29475
3947310,0.03000,100.8750,113,55,0.29011
3947320,0.00500,99.5000,113,55,0.28523
3947330,-0.02000,98.1875,113,55,0.28205
3947340,-0.04000,95.6875,113,55,0.27619
3947350,-0.05500,94.5000,113,55,0.27228
3947360,-0.06500,93.3125,113,55,0.26886
3947370,-0.06500,92.0625,113,55,0.26667
3947380,-0.05500,89.0000,113,55,0.26862
3947390,-0.04500,87.0000,113,55,0.27448
3947400,-0.04500,84.7500,113,55,0.28425
3947410,-0.03500,82.3125,113,55,0.29866
3947420,-0.03000,77.7500,113,55,0.33700
3947430,-0.02500,76.0000,113,55,0.35849
3947440,-0.03000,74.6250,113,55,0.38510
3947450,-0.03500,73.5000,113,55,0.41563
3947460,-0.04000,72.0000,113,55,0.48327
3947470,-0.04500,71.4375,113,55,0.51819
3947480,-0.04500,71.0000,113,55,0.55287
3947490,-0.04500,70.6875,113,55,0.58632
3947500,-0.04500,70.0625,113,55,0.64762
3947510,-0.04500,69.8125,113,55,0.67473
3947520,-0.05500,69.5000,113,55,0.69890
3947530,-0.05000,69.1875,113,55,0.71722
3947540,-0.03500,68.5000,113,55,0.74530
3947550,-0.01500,68.1250,113,55,0.75751
3947560,0.00000,67.8125,113,55,0.76752
3947570,0.02000,67.3750,113,55,0.77534
3947580,0.02000,66.5625,113,55,0.78437
3947590,-0.00500,66.1250,113,55,0.78608
3947600,-0.04500,65.6875,113,55,0.78632
3947610,-0.06500,65.3125,113,55,0.78510
3947620,-0.09500,64.4375,113,55,0.77875
3947630,-0.11500,64.0000,113,55,0.77363
3947640,-0.12500,63.5625,113,55,0.76777
3947650,-0.12500,63.1250,113,55,0.76093
3947660,-0.12500,62.3125,113,55,0.74359
3947670,-0.12500,61.9375,113,55,0.73309
3947680,-0.11500,61.5625,113,55,0.72137
3947690,-0.11000,61.1875,113,55,0.70867
3947700,-0.10500,60.5625,113,55,0.68059
3947710,-0.11000,60.2500,113,55,0.66618
3947720,-0.11500,60.0000,113,55,0.65177
3947730,0.05000,59.7500,113,55,0.63883
3947740,0.55500,59.1875,113,55,0.61465
3947750,1.08500,58.8750,113,55,0.60220
3947760,0.90000,58.5625,113,55,0.58999
3947770,0.17500,58.1875,113,55,0.57827
3947780,-0.31000,57.5000,113,55,0.55678
3947790,-0.42500,57.1250,113,55,0.54676
3947800,-0.32000,56.7500,113,55,0.53700
3947810,-0.22000,56.3750,113,55,0.52747
3947820,-0.20000,55.6250,113,55,0.51038
3947830,-0.19000,55.2500,113,55,0.50354
3947840,-0.18000,54.9375,113,55,0.49597
3947850,-0.17000,54.6250,113,55,0.48840
3947860,-0.17000,53.9375,113,55,0.47350
3947870,-0.16000,53.6250,113,55,0.46618
3947880,-0.15000,53.3125,113,55,0.45861
3947890,-0.13500,53.1250,113,55,0.45128
3947900,-0.12500,53.0000,113,55,0.43175
3947910,-0.11500,53.3125,113,55,0.41661
3947920,-0.11500,54.3125,113,55,0.40562
3947930,-0.10500,59.8125,113,55,0.39805
3947940,-0.09500,64.4375,113,55,0.38608
3947950,-0.08500,69.8125,113,55,0.37973
3947960,-0.07500,75.5625,113,55,0.37363
3947970,-0.05500,81.4375,113,55,0.36777
3947980,-0.04000,92.6250,113,55,0.35604
3947990,-0.02500,97.5625,113,55,0.35018
3948000,-0.00500,101.8750,113,55,0.34457
3948010,0.00500,105.3750,113,55,0.33895
3948020,0.02000,110.1250,113,55,0.32967
3948030,0.02500,111.5000,113,55,0.32650
3948040,0.03000,112.2500,113,55,0.32234
3948050,0.02500,112.4375,113,55,0.31795
3948060,0.02500,111.7500,113,55,0.30891
3948070,0.02500,110.9375,113,55,0.30427
3948080,0.03000,109.9375,113,55,0.29988
3948090,0.03000,108.7500,113,55,0.29524
3948100,0.03000,106.1250,113,55,0.28620
3948110,0.03000,104.6875,113,55,0.28156
3948120,0.02000,103.3125,113,55,0.27839
3948130,0.00000,101.8750,113,55,0.27570
3948140,-0.02000,99.1250,113,55,0.26716
3948150,-0.03500,97.7500,113,55,0.26252
3948160,-0.05500,96.4375,113,55,0.25788
3948170,-0.06500,95.1875,113,55,0.25372
3948180,-0.06500,92.6250,113,55,0.24786
3948190,-0.06500,91.2500,113,55,0.24762
3948200,-0.06000,89.6250,113,55,0.25006
3948210,-0.05500,87.8125,113,55,0.25568
3948220,-0.04500,83.3750,113,55,0.27668
3948230,-0.04000,81.1250,113,55,0.29133
3948240,-0.03500,79.0625,113,55,0.31062
3948250,-0.03500,77.3750,113,55,0.33407
3948260,-0.03500,74.7500,113,55,0.39170
3948270,-0.04500,73.8125,113,55,0.42393
3948280,-0.04500,73.1250,113,55,0.45739
3948290,-0.05000,72.5000,113,55,0.49084
3948300,-0.05500,71.5000,113,55,0.55629
3948310,-0.06500,71.1250,113,55,0.58706
3948320,-0.06500,70.7500,113,55,0.61197
3948330,-0.06000,70.4375,113,55,0.63297
3948340,-0.05500,69.6875,113,55,0.67570
3948350,-0.04500,69.3125,113,55,0.69426
3948360,-0.02500,68.9375,113,55,0.71038
3948370,-0.00500,68.5000,113,55,0.72381
3948380,0.01000,67.7500,113,55,0.74335
3948390,0.02000,67.3750,113,55,0.74945
3948400,0.01500,67.0000,113,55,0.75336
3948410,-0.01000,66.5625,113,55,0.75531
3948420,-0.04000,65.7500,113,55,0.75336
3948430,-0.06500,65.3125,113,55,0.75018
3948440,-0.09000,64.8750,113,55,0.74676
3948450,-0.10500,64.4375,113,55,0.74261
3948460,-0.11500,63.5625,113,55,0.73187
3948470,-0.11500,63.1250,113,55,0.72479
3948480,-0.11500,62.6250,113,55,0.71697
3948490,-0.11000,62.1875,113,55,0.70794
3948500,-0.10500,61.3750,113,55,0.68620
3948510,-0.10500,61.0625,113,55,0.67399
3948520,-0.10000,60.7500,113,55,0.66227
3948530,-0.11000,60.4375,113,55,0.65055
3948540,-0.09500,60.0000,113,55,0.62466
3948550,0.17000,59.6875,113,55,0.61148
3948560,0.75500,59.4375,113,55,0.59853
3948570,1.13500,59.1250,113,55,0.58632
3948580,0.75500,58.5625,113,55,0.56337
3948590,-0.01000,58.2500,113,55,0.55263
3948600,-0.43000,57.9375,113,55,0.54261
3948610,-0.44000,57.5625,113,55,0.53309
3948620,-0.30500,56.8125,113,55,0.51575
3948630,-0.24000,56.4375,113,55,0.50842
3948640,-0.22500,56.0625,113,55,0.50061
3948650,-0.21000,55.7500,113,55,0.49255
3948660,-0.19500,55.0625,113,55,0.47668
3948670,-0.18500,54.6875,113,55,0.46911
3948680,-0.18500,54.3750,113,55,0.46178
3948690,-0.18000,54.0625,113,55,0.45446
3948700,-0.16500,53.5000,113,55,0.43956
3948710,-0.15000,53.3125,113,55,0.43248
3948720,-0.13500,53.3125,113,55,0.42662
3948730,-0.12500,53.7500,113,55,0.42125
3948740,-0.11500,57.3125,113,55,0.40904
3948750,-0.10500,61.1250,113,55,0.40244
3948760,-0.09000,66.0000,113,55,0.39585
3948770,-0.07500,71.6250,113,55,0.38950
3948780,-0.06000,80.5521,113,55,0.38022
3948790,-0.04500,89.4375,113,55,0.37118
3948800,-0.02500,94.9375,113,55,0.36557
3948810,-0.01000,99.7500,113,55,0.36020
3948820,0.00500,107.3125,113,55,0.35067
3948830,0.02000,109.8750,113,55,0.34701
3948840,0.03000,111.6875,113,55,0.34237
3948850,0.04000,112.8125,113,55,0.33748
3948860,0.04000,113.4375,113,55,0.32723
3948870,0.04000,113.1875,113,55,0.32186
3948880,0.04000,112.6250,113,55,0.31673
3948890,0.04000,110.6875,113,55,0.31160
3948900,0.05000,109.4375,113,55,0.30159
3948910,0.05500,108.1250,113,55,0.29670
3948920,0.06000,106.7500,113,55,0.29304
3948930,0.05500,105.3750,113,55,0.29011
3948940,0.04000,102.5625,113,55,0.28254
3948950,0.01500,101.2500,113,55,0.27839
3948960,-0.01000,99.9375,113,55,0.27375
3948970,-0.03500,98.6875,113,55,0.26935
3948980,-0.05000,96.3125,113,55,0.26105
3948990,-0.06500,95.1250,113,55,0.25763
3949000,-0.06500,93.9375,112,55,0.25568
3949010,-0.07000,92.5625,112,55,0.25568
3949020,-0.07000,89.0625,112,55,0.26374
3949030,-0.06500,86.8750,112,55,0.27204
3949040,-0.05500,84.5000,112,55,0.28425
3949050,-0.05500,82.1250,112,55,0.30110
3949060,-0.05000,78.1250,112,55,0.34701
3949070,-0.04500,76.6250,112,55,0.37534
3949080,-0.03500,75.3750,112,55,0.40635
3949090,-0.03500,73.5625,112,55,0.43932
3949100,-0.03500,72.9375,112,55,0.50769
3949110,-0.04000,72.5000,112,55,0.54164
3949120,-0.05000,72.1250,112,55,0.57021
3949130,-0.06500,71.8125,112,55,0.59536
3949140,-0.07500,71.2500,112,55,0.64786
3949150,-0.08500,70.9375,112,55,0.67179
3949160,-0.09000,70.5625,112,55,0.69328
3949170,-0.07500,70.1875,112,55,0.71184
3949180,-0.06500,69.3750,112,55,0.74090
3949190,-0.06500,68.9375,112,55,0.75140
3949200,-0.05500,68.5625,112,55,0.75995
3949210,-0.03500,68.0625,112,55,0.76581
3949220,-0.02000,67.1875,112,55,0.76899
3949230,-0.03500,66.8125,112,55,0.76777
3949240,-0.06000,66.3750,112,55,0.76606
3949250,-0.07500,65.8750,112,55,0.76361
3949260,-0.09500,64.9375,112,55,0.75604
3949270,-0.12000,64.5000,112,55,0.75067
3949280,-0.13500,64.1250,112,55,0.74408
3949290,-0.14000,63.3125,112,55,0.73626
3949300,-0.14000,62.9375,112,55,0.71770
3949310,-0.13500,62.5000,112,55,0.70696
3949320,-0.13500,62.0625,112,55,0.69597
3949330,-0.13500,61.6875,112,55,0.68498
3949340,-0.12500,61.0000,112,55,0.66007
3949350,-0.12500,60.7500,112,55,0.64689
3949360,-0.14000,60.4375,112,55,0.63370
3949370,0.01000,60.1250,112,55,0.62076
3949380,0.49500,59.5625,112,55,0.59560
3949390,1.09000,59.2500,112,55,0.58388
3949400,1.03500,58.9375,112,55,0.57265
3949410,0.25500,58.6875,112,55,0.56190
3949420,-0.35500,58.0625,112,55,0.54237
3949430,-0.48000,57.6875,112,55,0.53407
3949440,-0.34500,57.3750,112,55,0.52527
3949450,-0.23000,57.0000,112,55,0.51648
3949460,-0.20000,56.3125,112,55,0.49915
3949470,-0.20000,55.9375,112,55,0.49084
3949480,-0.19000,55.6250,112,55,0.48254
3949490,-0.18000,55.0000,112,55,0.47473
3949500,-0.18000,54.6875,112,55,0.45910
3949510,-0.18000,54.3750,112,55,0.45128
3949520,-0.17000,54.1250,112,55,0.44469
3949530,-0.16500,53.8750,112,55,0.43883
3949540,-0.15500,53.6250,112,55,0.42540
3949550,-0.15000,54.0625,112,55,0.41856
3949560,-0.14000,55.3125,112,55,0.41197
3949570,-0.13500,57.8125,112,55,0.40513
3949580,-0.12500,66.6875,112,55,0.39194
3949590,-0.11500,72.4375,112,55,0.38535
3949600,-0.09500,78.5000,112,55,0.37900
3949610,-0.07500,84.6875,112,55,0.37265
3949620,-0.04500,96.1875,112,55,0.36166
3949630,-0.02500,101.0625,112,55,0.35751
3949640,-0.00500,105.1875,112,55,0.35263
3949650,0.01000,108.5000,112,55,0.34774
3949660,0.03000,112.6250,112,55,0.33773
3949670,0.03000,113.6250,112,55,0.33260
3949680,0.03500,114.0625,112,55,0.32747
3949690,0.03000,114.0625,112,55,0.32259
3949700,0.03000,113.0000,112,55,0.31258
3949710,0.02000,112.0625,112,55,0.30794
3949720,0.02000,110.9375,112,55,0.30427
3949730,0.03000,109.6875,112,55,0.30134
3949740,0.03500,107.0000,112,55,0.29328
3949750,0.04000,105.6250,112,55,0.28913
3949760,0.03000,104.2500,112,55,0.28449
3949770,0.01000,102.8750,112,55,0.27985
3949780,-0.01000,100.1250,112,55,0.27033
3949790,-0.03000,98.8125,112,55,0.26593
3949800,-0.04500,97.5625,112,55,0.26154
3949810,-0.05500,96.3125,112,55,0.25763
3949820,-0.06500,93.8125,112,55,0.25348
3949830,-0.06500,92.3750,112,55,0.25421
3949840,-0.05500,90.6875,112,55,0.25641
3949850,-0.04500,88.7500,112,55,0.26154
3949860,-0.03500,84.0000,112,55,0.28278
3949870,-0.03500,81.4375,112,55,0.30012
3949880,-0.04000,79.1250,112,55,0.32186
3949890,-0.04000,77.1875,112,55,0.34750
3949900,-0.03500,74.3750,112,55,0.40855
3949910,-0.03500,73.4375,112,55,0.44225
3949920,-0.03500,72.6875,112,55,0.47253
3949930,-0.04000,72.1875,112,55,0.50085
3949940,-0.04500,71.5000,112,55,0.56410
3949950,-0.05000,71.3125,112,55,0.59096
3949960,-0.05000,71.0625,112,55,0.61392
3949970,-0.05000,70.8125,112,55,0.63712
3949980,-0.05500,70.2500,112,55,0.67888
3949990,-0.06500,69.9375,112,55,0.69621
3950000,-0.06500,69.6250,112,55,0.71062
3950010,-0.05500,69.2500,112,55,0.72259
3950020,-0.03500,68.4375,112,55,0.73529
3950030,-0.01500,68.0000,112,55,0.73968
3950040,0.00000,67.5625,112,55,0.74286
3950050,0.01000,67.1250,112,55,0.74457
3950060,0.00500,66.1875,112,55,0.74383
3950070,-0.02000,65.7500,112,55,0.74164
3950080,-0.04000,65.3125,112,55,0.73846
3950090,-0.06500,64.8750,112,55,0.73431
3950100,-0.09500,64.0000,112,55,0.72308
3950110,-0.11500,63.5625,112,55,0.71575
3950120,-0.11500,63.1875,112,55,0.70769
3950130,-0.12000,62.7500,112,55,0.69890
3950140,-0.12500,62.0000,112,55,0.67766
3950150,-0.12000,61.6250,112,55,0.66569
3950160,-0.11000,61.2500,112,55,0.65299
3950170,-0.10500,60.9375,112,55,0.63980
3950180,-0.10500,60.3750,112,55,0.61294
3950190,-0.12000,60.1250,112,55,0.60000
3950200,0.00000,59.8750,112,55,0.58730
3950210,0.48500,59.5625,112,55,0.57509
3950220,1.12500,59.0625,112,55,0.55214
3950230,1.09500,58.8125,112,55,0.54115
3950240,0.32000,58.5000,112,55,0.53333
3950250,-0.32500,58.2500,112,55,0.52479
3950260,-0.50000,57.5625,112,55,0.50745
3950270,-0.38000,57.2500,112,55,0.49890
3950280,-0.26000,56.8750,112,55,0.49060
3950290,-0.23500,56.5000,112,55,0.48230
3950300,-0.23000,55.7500,112,55,0.46642
3950310,-0.22000,55.4375,112,55,0.45861
3950320,-0.21000,55.0625,112,55,0.45201
3950330,-0.20000,54.6875,112,55,0.44615
3950340,-0.19000,54.0000,112,55,0.43272
3950350,-0.18000,53.7500,112,55,0.42564
3950360,-0.17000,53.4375,112,55,0.41856
3950370,-0.16000,53.2500,112,55,0.41172
3950380,-0.14500,53.7500,112,55,0.39829
3950390,-0.14000,55.1250,112,55,0.39194
3950400,-0.13500,57.7500,112,55,0.38584
3950410,-0.13000,61.7500,112,55,0.37949
3950420,-0.11500,72.6875,112,55,0.36996
3950430,-0.10000,78.8750,112,55,0.36484
3950440,-0.08000,85.0625,112,55,0.35922
3950450,-0.05500,91.0000,112,55,0.35360
3950460,-0.03000,101.1250,112,55,0.34237
3950470,-0.00500,105.1250,112,55,0.33700
3950480,0.01000,108.2500,112,55,0.33162
3950490,0.02500,110.5000,112,55,0.32674
3950500,0.04000,112.8750,112,55,0.31697
3950510,0.04500,113.2500,112,55,0.31209
3950520,0.05000,113.1250,112,55,0.30867
3950530,0.05000,112.6250,112,55,0.30598
3950540,0.05500,110.8125,112,55,0.29841
3950550,0.05500,109.6250,112,55,0.29426
3950560,0.06000,108.3125,112,55,0.29011
3950570,0.06500,106.9375,112,55,0.28571
3950580,0.07000,104.0625,112,55,0.27717
3950590,0.06000,102.6250,112,55,0.27277
3950600,0.04500,101.1875,112,55,0.26838
3950610,0.02000,99.8750,112,55,0.26422
3950620,0.00000,97.3750,112,55,0.25958
3950630,-0.02000,96.1875,112,55,0.25665
3950640,-0.03000,95.0625,112,55,0.25348
3950650,-0.03500,93.8750,112,55,0.25079
3950660,-0.03500,91.0625,112,55,0.24908
3950670,-0.02500,89.3750,112,55,0.25153
3950680,-0.02500,87.3125,112,55,0.25714
3950690,-0.02000,85.0625,112,55,0.26642
3950700,-0.02000,80.2500,112,55,0.29670
3950710,-0.02500,78.1875,112,55,0.31795
3950720,-0.02500,76.4375,112,55,0.33968
3950730,-0.02500,75.0625,112,55,0.36239
3950740,-0.03000,73.0625,112,55,0.42027
3950750,-0.03000,72.3750,112,55,0.45250
3950760,-0.03000,71.8750,112,55,0.48547
3950770,-0.03000,71.5000,112,55,0.51819
3950780,-0.03000,70.9375,112,55,0.57973
3950790,-0.03000,70.6875,112,55,0.60757
3950800,-0.03000,70.4375,112,55,0.63297
3950810,-0.02500,69.8750,112,55,0.65592
3950820,-0.02000,69.5000,112,55,0.68645
3950830,-0.01083,69.1042,112,55,0.70228
3950840,0.00000,68.6875,112,55,0.71111
3950850,0.01000,68.2500,112,55,0.72063
3950860,0.03000,67.3125,112,55,0.73260
3950870,0.05000,66.8750,112,55,0.73529
3950880,0.05000,66.3750,112,55,0.73675
3950890,0.02500,65.8750,112,55,0.73675
3950900,0.00000,64.9375,112,55,0.73358
3950910,-0.02000,64.4375,112,55,0.73016
3950920,-0.04500,64.0000,112,55,0.72552
3950930,-0.06500,63.5625,112,55,0.71990
3950940,-0.07500,62.6875,112,55,0.70647
3950950,-0.07500,62.2500,112,55,0.69817
3950960,-0.07000,61.8125,112,55,0.68889
3950970,-0.06500,61.3750,112,55,0.67839
3950980,-0.06500,60.6875,112,55,0.65470
3950990,-0.06500,60.3750,112,55,0.64176
3951000,-0.05500,60.0625,112,55,0.62882
3951010,-0.06000,59.8125,112,55,0.61563
3951020,-0.05000,59.3125,112,55,0.59267
3951030,0.19500,59.0625,112,55,0.58095
3951040,0.76500,58.7500,112,55,0.56947
3951050,1.14500,58.5000,112,55,0.55824
3951060,0.77500,58.0000,112,55,0.53748
3951070,0.01000,57.6875,112,55,0.52772
3951080,-0.41000,57.3750,112,55,0.51844
3951090,-0.42000,57.0000,112,55,0.50940
3951100,-0.27500,56.2500,112,55,0.49231
3951110,-0.19000,55.8750,112,55,0.48376
3951120,-0.16500,55.5000,112,55,0.47668
3951130,-0.15500,55.0625,112,55,0.47009
3951140,-0.13500,54.3125,112,55,0.45543
3951150,-0.12500,54.0000,112,55,0.44786
3951160,-0.11500,53.6875,112,55,0.44029
3951170,-0.11500,53.3750,112,55,0.43297
3951180,-0.10000,52.7500,112,55,0.41856
3951190,-0.08500,52.5625,112,55,0.41172
3951200,-0.07500,52.4375,112,55,0.40488
3951210,-0.06500,52.6875,112,55,0.39829
3951220,-0.06000,55.3125,112,55,0.38803
3951230,-0.06500,58.3750,112,55,0.38217
3951240,-0.06000,62.6875,112,55,0.37607
3951250,-0.05500,67.8750,112,55,0.36850
3951260,-0.03500,79.4375,112,55,0.35678
3951270,-0.02500,85.2500,112,55,0.35140
3951280,-0.00500,90.7500,112,55,0.34603
3951290,0.01000,95.6875,112,55,0.34042
3951300,0.03000,103.4375,112,55,0.32967
3951310,0.04500,106.1875,112,55,0.32430
3951320,0.06000,108.1250,112,55,0.32063
3951330,0.06500,109.3750,112,55,0.31746
3951340,0.07000,110.0625,112,55,0.30940
3951350,0.07000,109.6875,112,55,0.30501
3951360,0.06500,109.0000,112,55,0.30085
3951370,0.07000,108.0625,112,55,0.29646
3951380,0.08000,105.5625,112,55,0.28742
3951390,0.09000,104.1250,112,55,0.28254
3951400,0.09500,102.6875,112,55,0.27790
3951410,0.09000,101.1875,112,55,0.27350
3951420,0.07500,98.2500,112,55,0.26838
3951430,0.05000,96.8125,112,55,0.26520
3951440,0.02000,95.3750,112,55,0.26129
3951450,0.00000,94.0625,112,55,0.25714
3951460,-0.01500,91.5625,112,55,0.24884
3951470,-0.03000,90.2500,112,55,0.24493
3951480,-0.03500,88.8750,112,55,0.24176
3951490,-0.03000,87.3125,112,55,0.24029
3951500,-0.02500,83.4375,112,55,0.24469
3951510,-0.02000,81.1250,112,55,0.25177
3951520,-0.02000,78.8125,112,55,0.26129
3951530,-0.01500,76.7500,112,55,0.27350
3951540,-0.01000,73.5000,112,55,0.31111
3951550,-0.00500,72.3750,112,55,0.33553
3951560,0.00000,71.5625,112,55,0.36288
3951570,-0.00500,70.8750,112,55,0.39243
3951580,-0.01000,69.8750,112,55,0.45421
3951590,-0.02000,69.5625,112,55,0.48523
3951600,-0.02500,69.3125,112,55,0.51526
3951610,-0.03500,69.1250,112,55,0.54408
3951620,-0.04000,68.6875,112,55,0.58803
3951630,-0.04500,68.4375,112,55,0.60879
3951640,-0.04500,68.1875,112,55,0.62833
3951650,-0.04500,67.8750,112,55,0.64615
3951660,-0.03000,67.1250,112,55,0.67424
3951670,-0.01500,66.7500,112,55,0.68474
3951680,0.00500,66.3750,112,55,0.69304
3951690,0.02000,65.9375,112,55,0.69915
3951700,0.03000,65.1250,112,55,0.70549
3951710,0.02500,64.6250,112,55,0.70623
3951720,0.00000,64.1875,112,55,0.70476
3951730,-0.02500,63.6875,112,55,0.70183
3951740,-0.04500,62.7500,112,55,0.69402
3951750,-0.07500,62.3125,112,55,0.68889
3951760,-0.09500,61.8750,112,55,0.68303
3951770,-0.10500,61.4375,112,55,0.67595
3951780,-0.10000,60.5625,112,55,0.65934
3951790,-0.09500,60.1875,112,55,0.64933
3951800,-0.08500,59.8125,112,55,0.63858
3951810,-0.08500,59.4375,112,55,0.62686
3951820,-0.07500,58.8125,112,55,0.60488
3951830,-0.07000,58.5625,112,55,0.59316
3951840,-0.07500,58.3750,112,55,0.58120
3951850,-0.06500,58.1250,112,55,0.56923
3951860,0.13500,57.6875,112,55,0.54628
3951870,0.67000,57.4375,112,55,0.53553
3951880,1.11500,57.1875,112,55,0.52527
3951890,0.80500,56.8750,112,55,0.51551
3951900,0.08000,56.2500,112,55,0.49744
3951910,-0.35000,55.9375,112,55,0.49011
3951920,-0.42000,55.6250,112,55,0.48352
3951930,-0.30500,55.2500,112,55,0.47643
3951940,-0.21000,54.5625,112,55,0.46227
3951950,-0.19500,54.2500,112,55,0.45495
3951960,-0.19000,53.8750,112,55,0.44762
3951970,-0.18000,53.5625,112,55,0.44054
3951980,-0.16500,52.8750,112,55,0.42686
3951990,-0.16000,52.5625,112,55,0.42027
3952000,-0.15000,52.2500,112,55,0.41563
3952010,-0.13500,51.9375,112,55,0.41245
3952020,-0.11500,51.5000,112,55,0.40488
3952030,-0.09500,51.4375,112,55,0.39976
3952040,-0.08500,51.7500,112,55,0.39390
3952050,-0.08500,52.6250,112,55,0.38779
3952060,-0.08000,57.5625,112,55,0.37582
3952070,-0.08000,61.8750,112,55,0.36996
3952080,-0.07500,67.0000,112,55,0.36435
3952090,-0.06500,72.5625,112,55,0.35873
3952100,-0.04500,83.8750,112,55,0.34823
3952110,-0.03000,89.1875,112,55,0.34432
3952120,-0.01000,94.0000,112,55,0.34090
3952130,0.01000,98.1250,112,55,0.33675
3952140,0.02000,104.1875,112,55,0.32747
3952150,0.03000,106.0625,112,55,0.32283
3952160,0.03500,107.3125,112,55,0.31819
3952170,0.04000,107.8750,112,55,0.31355
3952180,0.04500,107.6250,112,55,0.30476
3952190,0.05000,106.9375,112,55,0.30061
3952200,0.05500,105.9375,112,55,0.29646
3952210,0.06500,104.8125,112,55,0.29255
3952220,0.07500,102.1250,112,55,0.28791
3952230,0.08000,100.6875,112,55,0.28498
3952240,0.08000,99.2500,112,55,0.28181
3952250,0.07000,97.8125,112,55,0.27814
3952260,0.05000,95.0000,112,55,0.27057
3952270,0.02000,93.5625,112,55,0.26569
3952280,-0.00500,92.2500,112,55,0.26129
3952290,-0.03000,91.0000,112,55,0.25812
3952300,-0.03500,88.3750,112,55,0.25128
3952310,-0.03500,86.9375,112,55,0.24982
3952320,-0.03500,85.3125,112,55,0.25006
3952330,-0.03500,83.5000,112,55,0.25104
3952340,-0.02500,79.0625,112,55,0.26032
3952350,-0.02500,76.8750,112,55,0.27009
3952360,-0.01500,74.9375,112,55,0.28376
3952370,-0.01000,73.3125,112,55,0.30110
3952380,-0.00500,71.1250,112,55,0.34701
3952390,-0.01000,70.3750,112,55,0.37411
3952400,-0.01500,69.7500,112,55,0.40317
3952410,-0.02000,69.3125,112,55,0.43321
3952420,-0.02500,68.5625,112,55,0.48449
3952430,-0.03500,68.3125,112,55,0.51136
3952440,-0.04500,68.0625,112,55,0.53846
3952450,-0.05500,67.8125,112,55,0.56459
3952460,-0.06500,67.3125,112,55,0.61148
3952470,-0.06500,67.0000,112,55,0.63150
3952480,-0.06000,66.6875,112,55,0.64908
3952490,-0.04500,66.3750,112,55,0.66398
3952500,-0.02500,65.6875,112,55,0.68620
3952510,-0.01000,65.3125,112,55,0.69231
3952520,-0.00500,64.8750,112,55,0.69597
3952530,-0.02000,64.4375,112,55,0.69915
3952540,-0.05500,63.6250,112,55,0.70183
3952550,-0.08500,63.1875,112,55,0.70134
3952560,-0.10500,62.7500,112,55,0.69988
3952570,-0.13000,62.3125,112,55,0.69719
3952580,-0.15000,61.5000,112,55,0.68913
3952590,-0.15500,61.1250,112,55,0.68303
3952600,-0.15500,60.6875,112,55,0.67595
3952610,-0.15500,60.3125,112,55,0.66764
3952620,-0.14500,59.6250,112,55,0.64957
3952630,-0.14000,59.3125,112,55,0.63907
3952640,-0.13000,59.0625,112,55,0.62784
3952650,-0.12500,58.8125,112,55,0.61612
3952660,-0.11500,58.3750,112,55,0.59219
3952670,-0.11000,58.1250,112,55,0.58046
3952680,0.08000,57.9375,112,55,0.56923
3952690,0.60000,57.6875,112,55,0.55849
3952700,1.08000,57.0625,112,55,0.53846
3952710,0.83500,56.7500,112,55,0.52991
3952720,0.12000,56.4375,112,55,0.52234
3952730,-0.33500,56.0625,112,55,0.51429
3952740,-0.43500,55.3125,112,55,0.49841
3952750,-0.32500,54.9375,112,55,0.49060
3952760,-0.23000,54.5000,112,55,0.48303
3952770,-0.20000,54.1250,112,55,0.47570
3952780,-0.18500,53.3750,112,55,0.46154
3952790,-0.17000,53.0625,112,55,0.45495
3952800,-0.16000,52.6875,112,55,0.44835
3952810,-0.15000,52.3125,112,55,0.44176
3952820,-0.13500,51.6875,112,55,0.43126
3952830,-0.12500,51.3750,112,55,0.42564
3952840,-0.11000,51.1875,112,55,0.41978
3952850,-0.09500,51.0625,112,55,0.41368
3952860,-0.09000,51.8125,112,55,0.40147
3952870,-0.09000,53.2500,112,55,0.39536
3952880,-0.09083,55.0417,112,55,0.39023
3952890,-0.09000,59.8125,112,55,0.38315
3952900,-0.08500,70.1875,112,55,0.37118
3952910,-0.07500,75.8750,112,55,0.36654
3952920,-0.06000,81.5625,112,55,0.36264
3952930,-0.04000,87.1250,112,55,0.35824
3952940,-0.02000,96.7500,112,55,0.34872
3952950,0.00000,100.5625,112,55,0.34408
3952960,0.01000,103.5625,112,55,0.33968
3952970,0.02500,105.8125,112,55,0.33553
3952980,0.03500,108.2500,112,55,0.32674
3952990,0.03500,108.6250,112,55,0.32234
3953000,0.03500,108.6250,112,55,0.31819
3953010,0.04000,108.1875,112,55,0.31404
3953020,0.04000,106.5000,112,55,0.30867
3953030,0.05000,105.3750,112,55,0.30549
3953040,0.06000,104.1250,112,55,0.30183
3953050,0.07000,102.6875,112,55,0.29792
3953060,0.07000,99.8750,112,55,0.29011
3953070,0.06500,98.4375,112,55,0.28620
3953080,0.04000,97.0625,112,55,0.28254
3953090,0.01000,95.6875,112,55,0.27863
3953100,-0.01500,93.1250,112,55,0.27082
3953110,-0.03500,91.8750,112,55,0.26838
3953120,-0.04500,90.6250,112,55,0.26667
3953130,-0.05500,89.3125,112,55,0.26447
3953140,-0.05500,86.3125,112,55,0.26227
3953150,-0.04500,84.4375,112,55,0.26422
3953160,-0.04000,82.2500,112,55,0.26911
3953170,-0.04500,79.8750,112,55,0.27741
3953180,-0.04500,75.3125,112,55,0.30525
3953190,-0.03500,73.5000,112,55,0.32503
3953200,-0.03000,72.1250,112,55,0.34847
3953210,-0.03000,71.0625,112,55,0.37485
3953220,-0.03000,69.6250,112,55,0.42442
3953230,-0.03500,69.1250,112,55,0.45250
3953240,-0.04000,68.7500,112,55,0.48181
3953250,-0.04500,68.4375,112,55,0.51160
3953260,-0.04500,68.0000,112,55,0.56825
3953270,-0.04000,67.8125,112,55,0.59389
3953280,-0.03500,67.5625,112,55,0.61734
3953290,-0.03500,67.3125,112,55,0.63858
3953300,-0.02500,66.7500,112,55,0.67863
3953310,-0.01000,66.4375,112,55,0.68816
3953320,0.00000,66.0625,112,55,0.69573
3953330,0.01500,65.3125,112,55,0.70330
3953340,0.02500,64.9375,112,55,0.71526
3953350,0.03000,64.5625,112,55,0.71893
3953360,0.01000,64.1875,112,55,0.72112
3953370,-0.01500,63.7500,112,55,0.72210
3953380,-0.04000,62.8750,112,55,0.72039
3953390,-0.06500,62.4375,112,55,0.71770
3953400,-0.09500,61.9375,112,55,0.71404
3953410,-0.11000,61.5000,112,55,0.70891
3953420,-0.11000,60.6875,112,55,0.69621
3953430,-0.10500,60.2500,112,55,0.68816
3953440,-0.09500,59.8750,112,55,0.67912
3953450,-0.09000,59.5625,112,55,0.66911
3953460,-0.08500,58.9375,112,55,0.64640
3953470,-0.07500,58.6875,112,55,0.63394
3953480,-0.07000,58.4375,112,55,0.62125
3953490,-0.07500,58.1875,112,55,0.60855
3953500,-0.02000,57.7500,112,55,0.58388
3953510,0.30000,57.5000,112,55,0.57314
3953520,0.90000,57.2500,112,55,0.56361
3953530,1.12500,57.0000,112,55,0.55385
3953540,0.57500,56.3750,112,55,0.53480
3953550,-0.11500,56.0625,112,55,0.52576
3953560,-0.41500,55.7500,112,55,0.51697
3953570,-0.39000,55.3750,112,55,0.50867
3953580,-0.27000,54.6250,112,55,0.49304
3953590,-0.21000,54.2500,112,55,0.48547
3953600,-0.20000,53.9375,112,55,0.47814
3953610,-0.19000,53.5625,112,55,0.47204
3953620,-0.18000,52.8750,112,55,0.46007
3953630,-0.17500,52.5000,112,55,0.45324
3953640,-0.17000,52.1875,112,55,0.44664
3953650,-0.16000,51.8125,112,55,0.44005
3953660,-0.14500,51.3125,112,55,0.42735
3953670,-0.12500,51.2500,112,55,0.42125
3953680,-0.11500,51.4375,112,55,0.41538
3953690,-0.11000,52.1250,112,55,0.40952
3953700,-0.11000,56.6875,112,55,0.39780
3953710,-0.11000,60.8750,112,55,0.39292
3953720,-0.10500,65.9375,112,55,0.38877
3953730,-0.09000,71.5000,112,55,0.38388
3953740,-0.07500,83.0000,112,55,0.37338
3953750,-0.06000,88.5625,112,55,0.36801
3953760,-0.04500,93.6250,112,55,0.36288
3953770,-0.02500,98.0625,112,55,0.35775
3953780,-0.00500,104.6250,112,55,0.34774
3953790,0.01500,106.8125,112,55,0.34286
3953800,0.02500,108.3125,112,55,0.33822
3953810,0.03500,109.1875,112,55,0.33480
3953820,0.04000,109.4375,112,55,0.32821
3953830,0.04000,109.0000,112,55,0.32405
3953840,0.04000,108.2500,112,55,0.31990
3953850,0.04500,107.3125,112,55,0.31551
3953860,0.05000,104.9375,112,55,0.30720
3953870,0.05000,103.5625,112,55,0.30281
3953880,0.05500,102.1250,112,55,0.29866
3953890,0.05000,100.6875,112,55,0.29426
3953900,0.04000,98.5417,112,55,0.28807
3953910,0.02000,96.4375,112,55,0.28254
3953920,-0.00500,95.1250,112,55,0.28010
3953930,-0.03000,93.8750,112,55,0.27668
3953940,-0.05000,91.4375,112,55,0.26960
3953950,-0.06500,90.1875,112,55,0.26667
3953960,-0.06500,88.8125,112,55,0.26471
3953970,-0.06000,87.3125,112,55,0.26447
3953980,-0.05000,83.5000,112,55,0.27204
3953990,-0.04500,81.1875,112,55,0.28107
3954000,-0.04500,78.9375,112,55,0.29402
3954010,-0.05000,76.8750,112,55,0.30891
3954020,-0.04500,73.6875,112,55,0.34774
3954030,-0.04500,72.4375,112,55,0.37289
3954040,-0.04500,71.5000,112,55,0.40098
3954050,-0.04500,70.6875,112,55,0.43468
3954060,-0.04500,69.5625,112,55,0.50623
3954070,-0.05000,69.1250,112,55,0.53919
3954080,-0.05500,68.7500,112,55,0.57070
3954090,-0.05500,68.4375,112,55,0.60024
3954100,-0.06000,67.8750,112,55,0.65299
3954110,-0.05500,67.5625,112,55,0.67277
3954120,-0.05000,67.2500,112,55,0.68889
3954130,-0.03500,66.9375,112,55,0.70501
3954140,-0.01500,66.2500,112,55,0.73236
3954150,0.00000,65.8750,112,55,0.74261
3954160,0.00500,65.5000,112,55,0.75043
3954170,0.00000,65.1250,112,55,0.75629
3954180,-0.01500,64.3125,112,55,0.76264
3954190,-0.04500,63.9375,112,55,0.76337
3954200,-0.06000,63.5000,112,55,0.76288
3954210,-0.08000,63.1250,112,55,0.76068
3954220,-0.10000,62.3125,112,55,0.75311
3954230,-0.11000,61.8750,112,55,0.74823
3954240,-0.10500,61.5000,112,55,0.74237
3954250,-0.10500,61.0625,112,55,0.73553
3954260,-0.10500,60.3750,112,55,0.71868
3954270,-0.10500,60.0625,112,55,0.70842
3954280,-0.09500,59.7500,112,55,0.69744
3954290,-0.08500,59.5000,112,55,0.68547
3954300,-0.08000,59.0625,112,55,0.65983
3954310,-0.09500,58.8125,112,55,0.64786
3954320,0.01000,58.5625,112,55,0.63346
3954330,0.42500,58.2500,112,55,0.62002
3954340,1.02000,57.5625,112,55,0.59976
3954350,1.06000,57.2500,112,55,0.58926
3954360,0.38000,56.8750,112,55,0.57900
3954370,-0.23000,56.5000,112,55,0.56874
3954380,-0.42000,55.7500,112,55,0.54921
3954390,-0.34500,55.3750,112,55,0.53993
3954400,-0.23500,55.0000,112,55,0.53089
3954410,-0.20000,54.6250,112,55,0.52308
3954420,-0.19500,53.9375,112,55,0.50818
3954430,-0.18000,53.6250,112,55,0.50037
3954440,-0.17500,53.2500,112,55,0.49280
3954450,-0.17000,52.9375,112,55,0.48523
3954460,-0.16500,52.3125,112,55,0.47033
3954470,-0.15500,52.0625,112,55,0.46300
3954480,-0.14500,51.8750,112,55,0.45568
3954490,-0.13500,51.7500,112,55,0.44860
3954500,-0.12500,52.3750,112,55,0.43492
3954510,-0.12500,53.7500,112,55,0.42906
3954520,-0.12500,56.3750,112,55,0.42393
3954530,-0.11500,60.3125,112,55,0.41832
3954540,-0.09500,70.7500,112,55,0.40610
3954550,-0.07500,76.5625,112,55,0.40000
3954560,-0.06000,82.3750,112,55,0.39414
3954570,-0.04500,88.0000,112,55,0.38828
3954580,-0.02500,97.7500,112,55,0.37705
3954590,-0.00500,101.6875,112,55,0.37143
3954600,0.01500,104.7500,112,55,0.36606
3954610,0.03000,107.1250,112,55,0.36190
3954620,0.03500,109.7500,112,55,0.35385
3954630,0.04000,110.1875,112,55,0.34921
3954640,0.04500,110.1250,112,55,0.34432
3954650,0.04000,109.7500,112,55,0.33944
3954660,0.04000,108.1250,112,55,0.33016
3954670,0.04000,107.0000,112,55,0.32576
3954680,0.04000,105.7500,112,55,0.32112
3954690,0.05000,104.4375,112,55,0.31648
3954700,0.05000,101.6250,112,55,0.30696
3954710,0.04500,100.2500,112,55,0.30354
3954720,0.02500,98.8750,112,55,0.30085
3954730,0.00500,97.5625,112,55,0.29719
3954740,-0.02000,95.0625,112,55,0.28864
3954750,-0.04000,93.8750,112,55,0.28449
3954760,-0.05500,92.6250,112,55,0.28083
3954770,-0.06500,91.3750,112,55,0.27741
3954780,-0.06500,88.4375,112,55,0.27448
3954790,-0.05500,86.6250,112,55,0.27643
3954800,-0.04500,84.5625,112,55,0.28156
3954810,-0.03500,82.2500,112,55,0.28913
3954820,-0.03500,77.4375,112,55,0.31453
3954830,-0.04000,75.3750,112,55,0.33382
3954840,-0.04000,73.7500,112,55,0.35726
3954850,-0.04000,72.5000,112,55,0.38437
3954860,-0.04500,70.6875,112,55,0.44567
3954870,-0.04500,70.0000,112,55,0.47814
3954880,-0.05000,69.5000,112,55,0.51087
3954890,-0.05500,69.1250,112,55,0.54310
3954900,-0.05500,68.4375,112,55,0.60342
3954910,-0.05500,68.1250,112,55,0.62735
3954920,-0.05000,67.8750,112,55,0.64737
3954930,-0.04166,67.6250,112,55,0.67749
3954940,-0.03000,67.0000,112,55,0.70623
3954950,-0.01500,66.6250,112,55,0.72210
3954960,-0.00500,66.2500,112,55,0.73553
3954970,0.01000,65.9375,112,55,0.74652
3954980,0.01500,65.1875,112,55,0.76190
3954990,0.01000,64.8125,112,55,0.76654
3955000,-0.01500,64.3750,112,54,0.76948
3955010,-0.04500,64.0000,112,54,0.76996
3955020,-0.06500,63.1875,112,54,0.76703
3955030,-0.08000,62.7500,112,54,0.76459
3955040,-0.10000,62.3750,112,54,0.76117
3955050,-0.11000,61.9375,112,54,0.75678
3955060,-0.11000,61.1250,112,54,0.74432
3955070,-0.10500,60.7500,112,54,0.73626
3955080,-0.10500,60.3125,112,54,0.72723
3955090,-0.10000,60.0000,112,54,0.71697
3955100,-0.09500,59.4375,112,54,0.69328
3955110,-0.09500,59.1875,112,54,0.68156
3955120,-0.09500,58.9375,112,54,0.66984
3955130,-0.11500,58.7500,112,54,0.65739
3955140,-0.03000,58.2500,112,54,0.63199
3955150,0.33000,58.0000,112,54,0.61954
3955160,0.93500,57.6875,112,54,0.60757
3955170,1.09500,57.3125,112,54,0.59609
3955180,0.47500,56.5625,112,54,0.57411
3955190,-0.18000,56.2500,112,54,0.56386
3955200,-0.43000,55.8750,112,54,0.55409
3955210,-0.39000,55.4375,112,54,0.54554
3955220,-0.27500,54.7500,112,54,0.52894
3955230,-0.22500,54.3750,112,54,0.52039
3955240,-0.21000,54.0625,112,54,0.51184
3955250,-0.20000,53.6875,112,54,0.50379
3955260,-0.18000,53.0625,112,54,0.48767
3955270,-0.17000,52.7500,112,54,0.48010
3955280,-0.16500,52.3750,112,54,0.47228
3955290,-0.15500,52.1250,112,54,0.46471
3955300,-0.14500,51.6875,112,54,0.45006
3955310,-0.13000,51.6250,112,54,0.44396
3955320,-0.12500,51.9375,112,54,0.43858
3955330,-0.11500,52.8750,112,54,0.43223
3955340,-0.11000,58.1250,112,54,0.41758
3955350,-0.10000,62.6250,112,54,0.41026
3955360,-0.08500,67.8750,112,54,0.40513
3955370,-0.07000,73.5625,112,54,0.39951
3955380,-0.05500,85.0625,112,54,0.38779
3955390,-0.03500,90.5000,112,54,0.38217
3955400,-0.01500,95.4375,112,54,0.37680
3955410,0.00000,99.6875,112,54,0.37265
3955420,0.02000,106.0625,112,54,0.36435
3955430,0.03500,108.1250,112,54,0.35922
3955440,0.04000,109.5625,112,54,0.35409
3955450,0.05000,110.3750,112,54,0.34872
3955460,0.05000,110.5000,112,54,0.33822
3955470,0.04500,110.0000,112,54,0.33333
3955480,0.04000,109.2500,112,54,0.32845
3955490,0.04000,108.2500,112,54,0.32357
3955500,0.04500,105.8125,112,54,0.31526
3955510,0.05500,104.5000,112,54,0.31258
3955520,0.06000,103.1875,112,54,0.30891
3955530,0.05500,100.4375,112,54,0.30476
3955540,0.04000,99.1250,112,54,0.29646
3955550,0.02000,97.8125,112,54,0.29206
3955560,0.00000,96.5625,112,54,0.28767
3955570,-0.02500,95.3125,112,54,0.28352
3955580,-0.04500,92.8750,112,54,0.27546
3955590,-0.06500,91.5625,112,54,0.27228
3955600,-0.07500,90.1875,112,54,0.27057
3955610,-0.07000,88.6250,112,54,0.27106
3955620,-0.06500,84.6875,112,54,0.27985
3955630,-0.06500,82.3125,112,54,0.28864
3955640,-0.06000,79.8125,112,54,0.30159
3955650,-0.05500,75.5625,112,54,0.31868
3955660,-0.04500,74.0000,112,54,0.36508
3955670,-0.04000,72.8125,112,54,0.39341
3955680,-0.04000,71.8750,112,54,0.42418
3955690,-0.04000,71.1250,112,54,0.45641
3955700,-0.04500,70.0000,112,54,0.51795
3955710,-0.05000,69.6250,112,54,0.54383
3955720,-0.05500,69.3125,112,54,0.57192
3955730,-0.05500,69.0625,112,54,0.60024
3955740,-0.06000,68.5625,112,54,0.65250
3955750,-0.06500,68.2500,112,54,0.67546
3955760,-0.06500,67.9375,112,54,0.69597
3955770,-0.05500,67.6250,112,54,0.71404
3955780,-0.03500,66.9375,112,54,0.74164
3955790,-0.01500,66.5000,112,54,0.75189
3955800,-0.00500,66.1250,112,54,0.75971
3955810,-0.00500,65.6875,112,54,0.76435
3955820,-0.02000,64.8750,112,54,0.76825
3955830,-0.05000,64.5000,112,54,0.76923
3955840,-0.08000,64.1250,112,54,0.76923
3955850,-0.09500,63.6875,112,54,0.76850
3955860,-0.12000,62.8750,112,54,0.76337
3955870,-0.13500,62.5000,112,54,0.75897
3955880,-0.14000,62.1250,112,54,0.75336
3955890,-0.13500,61.7500,112,54,0.74652
3955900,-0.13500,60.9375,112,54,0.72991
3955910,-0.12500,60.5625,112,54,0.72063
3955920,-0.11500,60.2500,112,54,0.71013
3955930,-0.11000,59.9375,112,54,0.69866
3955940,-0.11000,59.4375,112,54,0.67350
3955950,-0.11500,59.1458,112,54,0.65836
3955960,-0.10500,58.9375,112,54,0.64737
3955970,0.10500,58.6875,112,54,0.63468
3955980,0.66500,58.1875,112,54,0.61074
3955990,1.16500,57.8750,112,54,0.59951
3956000,0.87500,57.5625,111,54,0.58877
3956010,0.09000,57.2500,111,54,0.57924
3956020,-0.39500,56.5000,111,54,0.56093
3956030,-0.46000,56.1875,111,54,0.55140
3956040,-0.32500,55.8125,111,54,0.54212
3956050,-0.22000,55.5000,111,54,0.53309
3956060,-0.20000,54.8125,111,54,0.51551
3956070,-0.19000,54.4375,111,54,0.50696
3956080,-0.18000,54.1250,111,54,0.49866
3956090,-0.16500,53.4375,111,54,0.49060
3956100,-0.16000,53.1250,111,54,0.46349
3956110,-0.15500,52.8125,111,54,0.45397
3956120,-0.15500,52.5625,111,54,0.44567
3956130,-0.14000,52.3750,111,54,0.43810
3956140,-0.13500,52.6250,111,54,0.42369
3956150,-0.12500,53.5625,111,54,0.41685
3956160,-0.11500,55.6250,111,54,0.41026
3956170,-0.11000,59.0000,111,54,0.40342
3956180,-0.09500,69.0000,111,54,0.39048
3956190,-0.08000,74.8125,111,54,0.38437
3956200,-0.06500,80.8125,111,54,0.37827
3956210,-0.04000,86.6875,111,54,0.37338
3956220,-0.01500,97.2500,111,54,0.36410
3956230,0.00000,101.5625,111,54,0.35873
3956240,0.02000,105.1250,111,54,0.35336
3956250,0.03500,107.8125,111,54,0.34799
3956260,0.04500,111.1250,111,54,0.33797
3956270,0.05000,111.8125,111,54,0.33309
3956280,0.05000,112.0625,111,54,0.32821
3956290,0.04500,111.8750,111,54,0.32332
3956300,0.04000,110.5000,111,54,0.31526
3956310,0.03500,109.5000,111,54,0.31233
3956320,0.04000,108.3750,111,54,0.30842
3956330,0.05000,107.1250,111,54,0.30403
3956340,0.06000,104.4375,111,54,0.29475
3956350,0.06000,103.1250,111,54,0.29035
3956360,0.05000,101.7500,111,54,0.28596
3956370,0.02500,100.4375,111,54,0.28059
3956380,-0.00500,97.9375,111,54,0.27228
3956390,-0.02500,96.6875,111,54,0.26862
3956400,-0.03500,95.5625,111,54,0.26471
3956410,-0.04000,94.3750,111,54,0.26227
3956420,-0.05000,91.8125,111,54,0.25958
3956430,-0.05500,90.3125,111,54,0.25958
3956440,-0.05000,88.6250,111,54,0.26178
3956450,-0.04500,86.5625,111,54,0.26716
3956460,-0.04500,81.8750,111,54,0.29011
3956470,-0.04500,79.5625,111,54,0.30818
3956480,-0.04500,77.6250,111,54,0.33040
3956490,-0.04500,76.0000,111,54,0.35678
3956500,-0.04500,73.5625,111,54,0.41343
3956510,-0.04000,72.6875,111,54,0.44029
3956520,-0.04000,72.0000,111,54,0.47082
3956530,-0.04000,71.4375,111,54,0.50305
3956540,-0.04500,70.6875,111,54,0.56679
3956550,-0.05500,70.3750,111,54,0.59683
3956560,-0.06500,70.1250,111,54,0.62466
3956570,-0.06500,69.8125,111,54,0.65031
3956580,-0.07000,69.1250,111,54,0.69402
3956590,-0.07500,68.8125,111,54,0.71184
3956600,-0.07500,68.4375,111,54,0.72698
3956610,-0.06500,68.0000,111,54,0.73748
3956620,-0.05000,67.1875,111,54,0.75165
3956630,-0.03500,66.7500,111,54,0.75751
3956640,-0.02500,66.3125,111,54,0.76190
3956650,-0.01500,65.5000,111,54,0.76459
3956660,-0.03500,65.0625,111,54,0.76630
3956670,-0.06500,64.6875,111,54,0.76532
3956680,-0.09000,64.2500,111,54,0.76313
3956690,-0.11000,63.8750,111,54,0.75995
3956700,-0.13000,63.0000,111,54,0.75018
3956710,-0.14500,62.5625,111,54,0.74359
3956720,-0.14500,62.1875,111,54,0.73602
3956730,-0.15000,61.3750,111,54,0.72747
3956740,-0.15500,60.9375,111,54,0.70769
3956750,-0.15000,60.5625,111,54,0.69621
3956760,-0.14000,60.1875,111,54,0.68400
3956770,-0.12000,59.8750,111,54,0.67106
3956780,-0.10500,59.3125,111,54,0.64493
3956790,-0.11500,59.0625,111,54,0.63223
3956800,-0.03500,58.8125,111,54,0.61978
3956810,0.35000,58.5625,111,54,0.60879
3956820,1.02000,58.0625,111,54,0.58852
3956830,1.20000,57.8125,111,54,0.57802
3956840,0.50500,57.5625,111,54,0.56752
3956850,-0.24000,57.2500,111,54,0.55727
3956860,-0.49000,56.6875,111,54,0.53724
3956870,-0.41500,56.3125,111,54,0.52772
3956880,-0.28000,56.0000,111,54,0.51844
3956890,-0.23000,55.6250,111,54,0.50940
3956900,-0.22500,54.9375,111,54,0.49304
3956910,-0.21000,54.5625,111,54,0.48620
3956920,-0.20000,54.2500,111,54,0.47888
3956930,-0.19500,53.9375,111,54,0.47155
3956940,-0.20000,53.2500,111,54,0.45592
3956950,-0.19000,53.0000,111,54,0.44835
3956960,-0.18000,52.7500,111,54,0.44103
3956970,-0.16500,52.5625,111,54,0.43346
3956980,-0.15500,53.2083,111,54,0.42234
3956990,-0.15000,54.8750,111,54,0.41148
3957000,-0.15000,57.7500,111,54,0.40464
3957010,-0.14500,62.0000,111,54,0.39902
3957020,-0.13000,73.1250,111,54,0.38852
3957030,-0.11000,79.1875,111,54,0.38266
3957040,-0.09000,85.3125,111,54,0.37680
3957050,-0.07500,91.0625,111,54,0.37094
3957060,-0.06000,101.0000,111,54,0.35946
3957070,-0.03500,104.8750,111,54,0.35385
3957080,-0.01500,107.8750,111,54,0.34823
3957090,0.00500,110.1250,111,54,0.34261
3957100,0.01500,112.4375,111,54,0.33309
3957110,0.03000,112.7500,111,54,0.32967
3957120,0.04000,112.6250,111,54,0.32552
3957130,0.04000,112.1875,111,54,0.32112
3957140,0.04500,110.5625,111,54,0.31160
3957150,0.05500,109.4375,111,54,0.30672
3957160,0.06000,108.3125,111,54,0.30183
3957170,0.07000,107.0625,111,54,0.29695
3957180,0.08000,104.4375,111,54,0.28791
3957190,0.07500,103.1250,111,54,0.28352
3957200,0.06000,101.8125,111,54,0.28059
3957210,0.03500,100.5000,111,54,0.27814
3957220,0.01000,98.0625,111,54,0.27057
3957230,-0.01500,96.8750,111,54,0.26642
3957240,-0.03000,95.6875,111,54,0.26252
3957250,-0.04500,94.5000,111,54,0.25910
3957260,-0.05500,91.7500,111,54,0.25568
3957270,-0.06000,90.0625,111,54,0.25714
3957280,-0.05000,88.0625,111,54,0.26178
3957290,-0.05000,85.8750,111,54,0.27009
3957300,-0.05500,81.2500,111,54,0.29719
3957310,-0.07000,79.1875,111,54,0.31429
3957320,-0.07500,77.3750,111,54,0.33675
3957330,-0.08500,75.9375,111,54,0.36313
3957340,-0.08500,73.7500,111,54,0.42491
3957350,-0.08500,73.0000,111,54,0.45812
3957360,-0.08500,72.3125,111,54,0.49182
3957370,-0.08500,71.8125,111,54,0.52527
3957380,-0.08500,71.1250,111,54,0.58852
3957390,-0.08500,70.8125,111,54,0.61954
3957400,-0.08500,70.5000,111,54,0.64371
3957410,-0.08000,70.2500,111,54,0.66129
3957420,-0.07500,69.6250,111,54,0.69866
3957430,-0.07500,69.2500,111,54,0.71526
3957440,-0.07500,68.8750,111,54,0.72967
3957450,-0.07000,68.5000,111,54,0.74188
3957460,-0.06000,67.6250,111,54,0.75922
3957470,-0.04500,67.2500,111,54,0.76459
3957480,-0.03000,66.7500,111,54,0.76825
3957490,-0.02500,66.3125,111,54,0.76996
3957500,-0.03500,65.3750,111,54,0.76850
3957510,-0.06500,64.8750,111,54,0.76557
3957520,-0.08500,64.4375,111,54,0.76239
3957530,-0.10500,64.0000,111,54,0.75849
3957540,-0.12000,63.1250,111,54,0.74750
3957550,-0.13500,62.6875,111,54,0.74042
3957560,-0.14000,62.3125,111,54,0.73236
3957570,-0.13500,61.8750,111,54,0.72308
3957580,-0.13500,61.1250,111,54,0.70134
3957590,-0.12500,60.7500,111,54,0.68938
3957600,-0.12000,60.4375,111,54,0.67766
3957610,-0.11500,60.1875,111,54,0.66618
3957620,-0.10000,59.6875,111,54,0.64078
3957630,-0.11500,59.4375,111,54,0.62784
3957640,-0.08500,59.1875,111,54,0.61490
3957650,0.23500,58.9375,111,54,0.60244
3957660,0.89500,58.5000,111,54,0.57949
3957670,1.24000,58.3125,111,54,0.56874
3957680,0.72500,58.0625,111,54,0.55824
3957690,-0.09500,57.8125,111,54,0.54799
3957700,-0.48000,57.1875,111,54,0.52918
3957710,-0.42000,56.8750,111,54,0.52137
3957720,-0.27000,56.5625,111,54,0.51306
3957730,-0.21000,56.1875,111,54,0.50452
3957740,-0.21000,55.5000,111,54,0.48742
3957750,-0.20500,55.1250,111,54,0.47912
3957760,-0.19000,54.8125,111,54,0.47106
3957770,-0.17500,54.1250,111,54,0.46300
3957780,-0.17000,53.7500,111,54,0.44737
3957790,-0.16000,53.4375,111,54,0.43980
3957800,-0.15500,53.1875,111,54,0.43346
3957810,-0.15000,53.0000,111,54,0.42759
3957820,-0.14500,53.6250,111,54,0.41416
3957830,-0.14500,55.0625,111,54,0.40708
3957840,-0.14500,57.8125,111,54,0.40000
3957850,-0.13500,61.8750,111,54,0.39316
3957860,-0.12000,72.7500,111,54,0.37949
3957870,-0.10000,78.8125,111,54,0.37289
3957880,-0.07500,84.8750,111,54,0.36654
3957890,-0.05500,90.6875,111,54,0.36044
3957900,-0.03000,100.6875,111,54,0.34994
3957910,-0.00500,104.5625,111,54,0.34603
3957920,0.01000,107.5625,111,54,0.34139
3957930,0.03000,109.7500,111,54,0.33651
3957940,0.04500,112.0000,111,54,0.32601
3957950,0.05000,112.3125,111,54,0.32088
3957960,0.05000,112.1875,111,54,0.31575
3957970,0.05000,111.6875,111,54,0.31062
3957980,0.05000,110.0000,111,54,0.30085
3957990,0.05000,108.8750,111,54,0.29597
3958000,0.06000,107.8854,111,53,0.29251
3958010,0.07000,106.3125,111,53,0.28864
3958020,0.07000,103.4375,111,53,0.28254
3958030,0.07000,102.0625,111,53,0.27888
3958040,0.06000,100.6250,111,53,0.27497
3958050,0.03000,99.3125,111,53,0.27082
3958060,0.00500,96.6875,111,53,0.26227
3958070,-0.02000,95.3750,111,53,0.25812
3958080,-0.04000,94.1875,111,53,0.25421
3958090,-0.05500,92.9375,111,53,0.25079
3958100,-0.06000,90.1250,111,53,0.24860
3958110,-0.06000,88.4375,111,53,0.25055
3958120,-0.05500,86.5000,111,53,0.25446
3958130,-0.05000,84.2500,111,53,0.26129
3958140,-0.05000,79.7500,111,53,0.28694
3958150,-0.05000,77.8125,111,53,0.30623
3958160,-0.04500,76.1875,111,53,0.32918
3958170,-0.04000,73.6875,111,53,0.35531
3958180,-0.03500,72.8125,111,53,0.41538
3958190,-0.03000,72.1250,111,53,0.44737
3958200,-0.03000,71.5625,111,53,0.47546
3958210,-0.03000,71.1875,111,53,0.50110
3958220,-0.03500,70.5625,111,53,0.55702
3958230,-0.04000,70.3125,111,53,0.58413
3958240,-0.04500,70.0625,111,53,0.60952
3958250,-0.05500,69.7500,111,53,0.63736
3958260,-0.06500,69.0625,111,53,0.67595
3958270,-0.07500,68.6875,111,53,0.69035
3958280,-0.08500,68.2500,111,53,0.70501
3958290,-0.09500,67.7500,111,53,0.71673
3958300,-0.09000,66.7500,111,53,0.72869
3958310,-0.08500,66.2500,111,53,0.73162
3958320,-0.07000,65.8125,111,53,0.73407
3958330,-0.06500,65.3125,111,53,0.73504
3958340,-0.07500,64.3125,111,53,0.73455
3958350,-0.10000,63.8125,111,53,0.73187
3958360,-0.12500,63.3750,111,53,0.72747
3958370,-0.15000,62.8750,111,53,0.72234
3958380,-0.17000,62.0000,111,53,0.70867
3958390,-0.19000,61.5625,111,53,0.70061
3958400,-0.20500,61.1250,111,53,0.69451
3958410,-0.20000,60.6875,111,53,0.68596
3958420,-0.19500,59.8750,111,53,0.66105
3958430,-0.18500,59.5000,111,53,0.65177
3958440,-0.17000,59.1875,111,53,0.64078
3958450,-0.15000,58.8750,111,53,0.62589
3958460,-0.12500,58.3125,111,53,0.60415
3958470,-0.10500,58.0625,111,53,0.58974
3958480,-0.10000,57.8750,111,53,0.57705
3958490,0.08000,57.6875,111,53,0.56532
3958500,0.58000,57.2500,111,53,0.54579
3958510,1.10000,56.9375,111,53,0.53626
3958520,0.95000,56.6875,111,53,0.52674
3958530,0.19000,56.3750,111,53,0.51746
3958540,-0.34000,55.6875,111,53,0.49963
3958550,-0.42500,55.3750,111,53,0.49133
3958560,-0.29000,55.0000,111,53,0.48303
3958570,-0.18000,54.6250,111,53,0.47521
3958580,-0.15000,53.8750,111,53,0.45958
3958590,-0.13500,53.5625,111,53,0.45299
3958600,-0.12000,53.2500,111,53,0.44689
3958610,-0.10500,52.9375,111,53,0.44005
3958620,-0.09500,52.3125,111,53,0.42564
3958630,-0.08500,52.0625,111,53,0.41832
3958640,-0.07500,51.8125,111,53,0.41099
3958650,-0.06500,51.5625,111,53,0.40391
3958660,-0.05500,51.5000,111,53,0.39243
3958670,-0.04500,52.1250,111,53,0.38462
3958680,-0.03500,53.6875,111,53,0.37729
3958690,-0.03000,56.4375,111,53,0.37045
3958700,-0.02500,65.6250,111,53,0.36044
3958710,-0.02500,71.2500,111,53,0.35507
3958720,-0.01000,77.0625,111,53,0.34921
3958730,0.00000,82.8750,111,53,0.34335
3958740,0.02000,93.5625,111,53,0.33187
3958750,0.04000,98.0000,111,53,0.32650
3958760,0.06000,101.6875,111,53,0.32112
3958770,0.08000,104.5625,111,53,0.31575
3958780,0.09500,108.0000,111,53,0.30574
3958790,0.11500,108.7500,111,53,0.30232
3958800,0.12000,108.9375,111,53,0.29939
3958810,0.11500,108.7500,111,53,0.29548
3958820,0.11500,107.3125,111,53,0.28669
3958830,0.11000,106.2500,111,53,0.28230
3958840,0.12000,105.0625,111,53,0.27790
3958850,0.12500,103.6875,111,53,0.27350
3958860,0.13000,100.7500,111,53,0.26496
3958870,0.13000,99.2500,111,53,0.26105
3958880,0.11500,97.8125,111,53,0.25739
3958890,0.09000,96.4375,111,53,0.25348
3958900,0.05500,93.6250,111,53,0.24884
3958910,0.02500,92.3125,111,53,0.24567
3958920,0.00000,91.0625,111,53,0.24200
3958930,-0.00500,89.7500,111,53,0.23858
3958940,-0.00500,86.9375,111,53,0.23394
3958950,-0.00500,85.2500,111,53,0.23443
3958960,-0.00500,83.3125,111,53,0.23785
3958970,0.00000,81.1875,111,53,0.24469
3958980,0.00000,76.9375,111,53,0.27033
3958990,0.01000,75.0625,111,53,0.28694
3959000,0.01500,73.5625,111,53,0.30549
3959010,0.01500,72.3750,111,53,0.32894
3959020,0.01500,71.1042,111,53,0.37102
3959030,0.01000,70.0625,111,53,0.41563
3959040,0.01000,69.5625,111,53,0.44664
3959050,-0.00500,69.2500,111,53,0.47717
3959060,-0.01500,68.6875,111,53,0.53504
3959070,-0.02500,68.5000,111,53,0.56142
3959080,-0.02500,68.2500,111,53,0.58584
3959090,-0.02500,68.0000,111,53,0.60488
3959100,-0.02500,67.3750,111,53,0.63639
3959110,-0.02500,67.0000,111,53,0.65104
3959120,-0.02000,66.6250,111,53,0.66398
3959130,-0.00500,66.2500,111,53,0.67521
3959140,0.01000,65.4375,111,53,0.69133
3959150,0.03000,65.0000,111,53,0.69646
3959160,0.04500,64.5625,111,53,0.69988
3959170,0.05000,64.1250,111,53,0.70159
3959180,0.05000,63.2500,111,53,0.70061
3959190,0.03000,62.7500,111,53,0.69817
3959200,0.01000,62.3125,111,53,0.69451
3959210,-0.01500,61.8750,111,53,0.69011
3959220,-0.03500,61.0000,111,53,0.67839
3959230,-0.05500,60.6250,111,53,0.67106
3959240,-0.06500,60.1875,111,53,0.66252
3959250,-0.06500,59.8125,111,53,0.65324
3959260,-0.06500,59.0000,111,53,0.63223
3959270,-0.06000,58.6250,111,53,0.62100
3959280,-0.05500,58.3125,111,53,0.60952
3959290,-0.05000,58.0000,111,53,0.59878
3959300,-0.04500,57.5625,111,53,0.57753
3959310,-0.05000,57.3750,111,53,0.56679
3959320,-0.06500,57.1250,111,53,0.55653
3959330,0.06000,56.9375,111,53,0.54652
3959340,0.50500,56.4375,111,53,0.52723
3959350,1.06500,56.1875,111,53,0.51795
3959360,1.01000,55.9375,111,53,0.50916
3959370,0.31000,55.3125,111,53,0.50061
3959380,-0.24500,54.9375,111,53,0.48425
3959390,-0.40500,54.6250,111,53,0.47741
3959400,-0.32000,54.2500,111,53,0.47106
3959410,-0.21000,53.8750,111,53,0.46398
3959420,-0.16500,53.1875,111,53,0.44957
3959430,-0.15000,52.8750,111,53,0.44249
3959440,-0.13500,52.6250,111,53,0.43565
3959450,-0.13000,52.3125,111,53,0.42882
3959460,-0.12500,51.6250,111,53,0.41514
3959470,-0.12000,51.3125,111,53,0.40855
3959480,-0.10500,51.0625,111,53,0.40195
3959490,-0.10000,50.8125,111,53,0.39658
3959500,-0.09000,50.7500,111,53,0.38584
3959510,-0.08500,51.1875,111,53,0.37973
3959520,-0.08500,52.4375,111,53,0.37363
3959530,-0.08500,54.7500,111,53,0.36777
3959540,-0.07500,63.0625,111,53,0.35604
3959550,-0.06500,68.3750,111,53,0.35018
3959560,-0.05000,74.0000,111,53,0.34457
3959570,-0.04000,79.6250,111,53,0.33919
3959580,-0.02500,90.1875,111,53,0.32869
3959590,-0.00500,94.6875,111,53,0.32503
3959600,0.02000,98.5000,111,53,0.32210
3959610,0.03500,101.5625,111,53,0.31819
3959620,0.05000,105.4375,111,53,0.30989
3959630,0.05500,106.3750,111,53,0.30549
3959640,0.06000,106.8125,111,53,0.30110
3959650,0.06000,106.6875,111,53,0.29670
3959660,0.06000,105.5000,111,53,0.28816
3959670,0.06000,104.4375,111,53,0.28400
3959680,0.06500,103.3125,111,53,0.27985
3959690,0.07500,102.0000,111,53,0.27692
3959700,0.08500,99.1250,111,53,0.27131
3959710,0.08500,97.6250,111,53,0.26764
3959720,0.08000,96.1250,111,53,0.26374
3959730,0.05000,94.7500,111,53,0.26007
3959740,0.02500,92.0000,111,53,0.25226
3959750,0.00000,90.6875,111,53,0.24835
3959760,-0.02500,89.3750,111,53,0.24444
3959770,-0.04500,88.0625,111,53,0.24103
3959780,-0.05000,85.3125,111,53,0.23663
3959790,-0.05500,83.6250,111,53,0.23761
3959800,-0.04500,81.7500,111,53,0.24078
3959810,-0.04500,79.5625,111,53,0.24615
3959820,-0.04500,75.1875,111,53,0.26667
3959830,-0.04500,73.3125,111,53,0.28278
3959840,-0.04000,71.8750,111,53,0.30281
3959850,-0.03500,70.6875,111,53,0.32625
3959860,-0.03000,69.1250,111,53,0.38169
3959870,-0.03000,68.6250,111,53,0.41172
3959880,-0.03000,68.2500,111,53,0.44225
3959890,-0.03000,67.9375,111,53,0.46886
3959900,-0.02500,67.4375,111,53,0.51868
3959910,-0.02000,67.2500,111,53,0.54432
3959920,-0.02000,67.0625,111,53,0.56874
3959930,-0.02500,66.8125,111,53,0.59121
3959940,-0.02000,66.1875,111,53,0.62955
3959950,-0.01500,65.7500,111,53,0.64542
3959960,-0.02000,65.3125,111,53,0.65885
3959970,-0.01500,64.4375,111,53,0.67009
3959980,-0.00500,63.9375,111,53,0.68596
3959990,0.00500,63.5000,111,53,0.68987
3960000,0.01500,63.0625,111,53,0.69182
3960010,0.01500,62.6875,111,53,0.69328
3960020,0.00000,61.8125,111,53,0.69328
3960030,-0.03000,61.4375,111,53,0.69158
3960040,-0.05500,61.0000,111,53,0.68889
3960050,-0.07417,60.4271,111,53,0.68213
3960060,-0.09000,59.8750,111,53,0.67375
3960070,-0.10500,59.5000,111,53,0.66618
3960080,-0.10500,59.1250,111,53,0.65763
3960090,-0.09500,58.8750,111,53,0.64884
3960100,-0.09500,58.2500,111,53,0.62930
3960110,-0.09000,57.9375,111,53,0.61832
3960120,-0.08500,57.6875,111,53,0.60708
3960130,-0.08500,57.4375,111,53,0.59560
3960140,-0.08500,57.0625,111,53,0.57289
3960150,-0.09500,56.9375,111,53,0.56215
3960160,-0.09500,56.6875,111,53,0.55189
3960170,0.10000,56.5000,111,53,0.54212
3960180,0.63000,55.9375,111,53,0.52723
3960190,1.09500,55.6875,111,53,0.52503
3960200,0.86500,55.3750,111,53,0.52063
3960210,0.13500,55.0625,111,53,0.51429
3960220,-0.33500,54.3750,111,53,0.49963
3960230,-0.42000,54.0000,111,53,0.49231
3960240,-0.31500,53.6875,111,53,0.48498
3960250,-0.22000,53.3125,111,53,0.47790
3960260,-0.19000,52.6250,111,53,0.46422
3960270,-0.18500,52.3125,111,53,0.45739
3960280,-0.17500,52.0000,111,53,0.45055
3960290,-0.17000,51.6875,111,53,0.44518
3960300,-0.16000,51.0625,111,53,0.43468
3960310,-0.15500,50.7500,111,53,0.42882
3960320,-0.14000,50.4375,111,53,0.42295
3960330,-0.12500,50.2500,111,53,0.41685
3960340,-0.11000,50.3750,111,53,0.40464
3960350,-0.10500,51.1250,111,53,0.39829
3960360,-0.09500,52.7500,111,53,0.39219
3960370,-0.09500,55.7500,111,53,0.38608
3960380,-0.09000,65.0000,111,53,0.37436
3960390,-0.09000,70.5000,111,53,0.36996
3960400,-0.08500,76.1250,111,53,0.36630
3960410,-0.07000,81.7500,111,53,0.36190
3960420,-0.05500,92.0000,111,53,0.35214
3960430,-0.04000,96.2500,111,53,0.34750
3960440,-0.02000,99.8125,111,53,0.34286
3960450,-0.00500,102.6875,111,53,0.33822
3960460,0.01000,106.2500,111,53,0.32894
3960470,0.01500,107.1250,111,53,0.32430
3960480,0.02000,107.3750,111,53,0.31990
3960490,0.02500,107.3125,111,53,0.31673
3960500,0.02500,106.0625,111,53,0.31087
3960510,0.02000,105.0625,111,53,0.30720
3960520,0.02500,103.9375,111,53,0.30330
3960530,0.03500,102.6250,111,53,0.29939
3960540,0.05000,99.7500,111,53,0.29109
3960550,0.05000,98.2500,111,53,0.28694
3960560,0.03500,96.8125,111,53,0.28303
3960570,0.01000,95.3750,111,53,0.27912
3960580,-0.02000,92.6875,111,53,0.27179
3960590,-0.04500,91.4375,111,53,0.26960
3960600,-0.06000,90.1875,111,53,0.26813
3960610,-0.07500,89.0000,111,53,0.26593
3960620,-0.07000,86.3750,111,53,0.26300
3960630,-0.06500,84.8125,111,53,0.26422
3960640,-0.05500,83.0000,111,53,0.26813
3960650,-0.05500,81.0000,111,53,0.27521
3960660,-0.05500,76.6875,111,53,0.30061
3960670,-0.04500,74.8125,111,53,0.31941
3960680,-0.03500,73.1875,111,53,0.34188
3960690,-0.03000,71.9375,111,53,0.36386
3960700,-0.03000,70.1250,111,53,0.41343
3960710,-0.03000,69.5000,111,53,0.44274
3960720,-0.03000,68.9375,111,53,0.47302
3960730,-0.02500,68.5625,111,53,0.50330
3960740,-0.02500,67.8750,111,53,0.56093
3960750,-0.03000,67.5625,111,53,0.58730
3960760,-0.03000,67.2500,111,53,0.61172
3960770,-0.03000,66.9375,111,53,0.63419
3960780,-0.02500,66.3125,111,53,0.67179
3960790,-0.02500,66.0000,111,53,0.68474
3960800,-0.01000,65.6250,111,53,0.69451
3960810,0.00000,65.2500,111,53,0.70427
3960820,0.01500,64.5625,111,53,0.71966
3960830,0.02000,64.1875,111,53,0.72479
3960840,0.01500,63.8125,111,53,0.72845
3960850,-0.01500,63.3750,111,53,0.73065
3960860,-0.05000,62.5625,111,53,0.73138
3960870,-0.08000,62.1250,111,53,0.72991
3960880,-0.10500,61.6875,111,53,0.72723
3960890,-0.13500,61.2500,111,53,0.72332
3960900,-0.14500,60.3750,111,53,0.71233
3960910,-0.13500,59.9375,111,53,0.70549
3960920,-0.12000,59.5625,111,53,0.69744
3960930,-0.10500,59.1250,111,53,0.68840
3960940,-0.09500,58.3750,111,53,0.66764
3960950,-0.08500,58.1250,111,53,0.65641
3960960,-0.07500,57.8750,111,53,0.64469
3960970,-0.07000,57.6875,111,53,0.63297
3960980,-0.07500,57.3125,111,53,0.61074
3960990,-0.02500,57.1250,111,53,0.60098
3961000,0.28000,56.9375,111,53,0.59072
3961010,0.88000,56.7500,111,53,0.58071
3961020,1.17500,56.2500,111,53,0.56142
3961030,0.66000,55.9375,111,53,0.55214
3961040,-0.05500,55.6250,111,53,0.54286
3961050,-0.38500,55.2500,111,53,0.53382
3961060,-0.39000,54.5625,111,53,0.51648
3961070,-0.27000,54.1354,111,53,0.50655
3961080,-0.21000,53.8125,111,53,0.50012
3961090,-0.20000,53.4375,111,53,0.49328
3961100,-0.19000,52.7500,111,53,0.47985
3961110,-0.18500,52.4375,111,53,0.47277
3961120,-0.18000,52.0625,111,53,0.46545
3961130,-0.17500,51.7500,111,53,0.45836
3961140,-0.17000,51.1250,111,53,0.44469
3961150,-0.16000,50.9375,111,53,0.43810
3961160,-0.14500,50.8125,111,53,0.43175
3961170,-0.13500,50.9375,111,53,0.42564
3961180,-0.12500,52.9375,111,53,0.41441
3961190,-0.12500,55.6250,111,53,0.41001
3961200,-0.12000,59.6250,111,53,0.40464
3961210,-0.11500,64.5625,111,53,0.39902
3961220,-0.10500,75.7500,111,53,0.38779
3961230,-0.09000,81.5000,111,53,0.38217
3961240,-0.07500,86.9375,111,53,0.37680
3961250,-0.05500,92.0625,111,53,0.37143
3961260,-0.03500,100.3125,111,53,0.36142
3961270,-0.01500,103.3750,111,53,0.35653
3961280,0.00000,105.6250,111,53,0.35165
3961290,0.01500,107.2500,111,53,0.34823
3961300,0.02500,108.5625,111,53,0.34164
3961310,0.03000,108.5625,111,53,0.33748
3961320,0.03000,108.1875,111,53,0.33333
3961330,0.03500,107.5000,111,53,0.32894
3961340,0.04000,105.4375,111,53,0.32015
3961350,0.04000,104.1875,111,53,0.31575
3961360,0.05000,102.8125,111,53,0.31136
3961370,0.05000,101.4375,111,53,0.30696
3961380,0.04500,98.5625,111,53,0.29988
3961390,0.03000,97.1875,111,53,0.29768
3961400,0.01000,95.8750,111,53,0.29426
3961410,-0.01500,94.5625,111,53,0.29060
3961420,-0.03500,92.0625,111,53,0.28278
3961430,-0.05500,90.8750,111,53,0.27937
3961440,-0.06500,89.6250,111,53,0.27668
3961450,-0.06500,88.3125,111,53,0.27521
3961460,-0.05500,85.1875,111,53,0.27888
3961470,-0.05000,83.2500,111,53,0.28498
3961480,-0.04500,81.0625,111,53,0.29499
3961490,-0.04500,78.8125,111,53,0.30696
3961500,-0.04500,74.8750,111,53,0.34066
3961510,-0.04000,73.3750,111,53,0.36386
3961520,-0.03500,72.1875,111,53,0.39048
3961530,-0.03000,71.1875,111,53,0.41929
3961540,-0.03000,69.6875,111,53,0.47985
3961550,-0.04000,69.1875,111,53,0.51038
3961560,-0.04500,68.6875,111,53,0.54017
3961570,-0.05500,68.3125,111,53,0.56874
3961580,-0.06000,67.6875,111,53,0.61685
3961590,-0.06500,67.3750,111,53,0.63492
3961600,-0.06500,67.0625,111,53,0.65348
3961610,-0.06000,66.6875,111,53,0.67131
3961620,-0.05500,66.0000,111,53,0.70159
3961630,-0.04500,65.6250,111,53,0.71355
3961640,-0.03000,65.2500,111,53,0.72357
3961650,-0.01500,64.8125,111,53,0.73138
3961660,-0.00500,64.0625,111,53,0.74164
3961670,-0.00500,63.6875,111,53,0.74432
3961680,-0.01500,63.3125,111,53,0.74579
3961690,-0.04500,62.9375,111,53,0.74505
3961700,-0.06500,62.1250,111,53,0.74042
3961710,-0.08500,61.7500,111,53,0.73724
3961720,-0.10500,61.3125,111,53,0.73309
3961730,-0.12000,60.9375,111,53,0.72821
3961740,-0.12500,60.1875,111,53,0.71477
3961750,-0.11500,59.8125,111,53,0.70623
3961760,-0.11500,59.4375,111,53,0.69670
3961770,-0.11000,59.0625,111,53,0.68645
3961780,-0.10000,58.4375,111,53,0.66520
3961790,-0.09500,58.2500,111,53,0.65470
3961800,-0.08000,58.0000,111,53,0.64371
3961810,-0.09000,57.5625,111,53,0.63248
3961820,-0.05500,57.3125,111,53,0.61026
3961830,0.27000,57.0625,111,53,0.59927
3961840,0.88500,56.9688,111,53,0.59560
3961850,1.16500,56.7500,111,53,0.58877
3961860,0.76000,56.1250,111,53,0.56825
3961870,0.02000,55.8125,111,53,0.55873
3961880,-0.37000,55.4375,111,53,0.54945
3961890,-0.40500,55.0000,111,53,0.54042
3961900,-0.29000,54.2500,111,53,0.52527
3961910,-0.21000,53.8750,111,53,0.51746
3961920,-0.19000,53.5625,111,53,0.50965
3961930,-0.18500,53.1875,111,53,0.50183
3961940,-0.18000,52.5000,111,53,0.48645
3961950,-0.17500,52.1875,111,53,0.47888
3961960,-0.17000,51.8750,111,53,0.47155
3961970,-0.16500,51.5625,111,53,0.46422
3961980,-0.15500,51.0000,111,53,0.44982
3961990,-0.14500,50.8750,111,53,0.44371
3962000,-0.14000,50.8125,111,53,0.43834
3962010,-0.13500,52.0000,111,53,0.42589
3962020,-0.13000,53.9375,111,53,0.41954
3962030,-0.12500,57.1875,111,53,0.41319
3962040,-0.12000,61.6250,111,53,0.40708
3962050,-0.10500,66.9375,111,53,0.40098
3962060,-0.08500,78.3125,111,53,0.38950
3962070,-0.06500,84.0000,111,53,0.38388
3962080,-0.04500,89.3750,111,53,0.37827
3962090,-0.02000,94.3125,111,53,0.37265
3962100,-0.00250,100.0417,111,53,0.36638
3962110,0.01000,104.8125,111,53,0.36044
3962120,0.02000,106.8750,111,53,0.35580
3962130,0.03000,108.2500,111,53,0.35092
3962140,0.03000,109.3125,111,53,0.34115
3962150,0.03000,109.2500,111,53,0.33626
3962160,0.03000,108.7500,111,53,0.33162
3962170,0.03500,108.0625,111,53,0.32723
3962180,0.04000,105.8750,111,53,0.31844
3962190,0.04000,104.6250,111,53,0.31526
3962200,0.04500,103.3125,111,53,0.31282
3962210,0.05000,101.9375,111,53,0.30940
3962220,0.03500,99.1875,111,53,0.30110
3962230,0.01000,97.8125,111,53,0.29670
3962240,-0.01500,96.5000,111,53,0.28987
3962250,-0.03000,95.2500,111,53,0.28156
3962260,-0.04500,92.6875,111,53,0.27009
3962270,-0.05000,91.5000,111,53,0.26593
3962280,-0.05500,90.1875,111,53,0.26300
3962290,-0.04500,87.3750,111,53,0.26178
3962300,-0.03500,85.5625,111,53,0.26691
3962310,-0.03000,83.5000,111,53,0.27375
3962320,-0.03500,81.1875,111,53,0.28425
3962330,-0.03500,78.8750,111,53,0.29890
3962340,-0.03000,74.8750,111,53,0.34042
3962350,-0.03500,73.3750,111,53,0.36654
3962360,-0.03500,72.1250,111,53,0.39536
3962370,-0.03500,71.1875,111,53,0.42613
3962380,-0.03500,69.7500,111,53,0.48938
3962390,-0.04500,69.2500,111,53,0.51648
3962400,-0.05500,68.8125,111,53,0.54090
3962410,-0.06000,68.3750,111,53,0.56703
3962420,-0.06000,67.6250,111,53,0.61783
3962430,-0.05500,67.3125,111,53,0.64103
3962440,-0.05500,67.0000,111,53,0.66203
3962450,-0.05500,66.6875,111,53,0.68059
3962460,-0.04500,65.9375,111,53,0.71087
3962470,-0.03500,65.6250,111,53,0.72259
3962480,-0.01500,65.2500,111,53,0.73211
3962490,-0.00500,64.9375,111,53,0.73968
3962500,0.00000,64.1875,111,53,0.74579
3962510,0.00000,63.8125,111,53,0.74750
3962520,-0.02000,63.4375,111,53,0.74847
3962530,-0.05000,63.0000,111,53,0.74847
3962540,-0.07500,62.2500,111,53,0.74579
3962550,-0.09000,61.8750,111,53,0.74261
3962560,-0.11000,61.4375,111,53,0.73846
3962570,-0.12000,61.0625,111,53,0.73309
3962580,-0.12000,60.3125,111,53,0.71868
3962590,-0.11500,59.9375,111,53,0.71013
3962600,-0.11500,59.5625,111,53,0.70110
3962610,-0.11000,59.1875,111,53,0.69084
3962620,-0.10500,58.5625,111,53,0.66813
3962630,-0.09500,58.3125,111,53,0.65641
3962640,-0.09500,58.0625,111,53,0.64420
3962650,-0.11000,57.8750,111,53,0.63199
3962660,0.01000,57.3125,111,53,0.60830
3962670,0.44000,57.0625,111,53,0.59707
3962680,1.02500,56.7500,111,53,0.58608
3962690,1.04500,56.4375,111,53,0.57631
3962700,0.35000,55.7500,111,53,0.55775
3962710,-0.25000,55.3750,111,53,0.54823
3962720,-0.44500,55.0625,111,53,0.53871
3962730,-0.37000,54.6875,111,53,0.52943
3962740,-0.26000,54.0000,111,53,0.51160
3962750,-0.22000,53.6875,111,53,0.50305
3962760,-0.21000,53.3750,111,53,0.49499
3962770,-0.19500,53.0625,111,53,0.48694
3962780,-0.18000,52.3750,111,53,0.47106
3962790,-0.17500,52.0625,111,53,0.46447
3962800,-0.17000,51.7500,111,53,0.45836
3962810,-0.16000,51.4375,111,53,0.45177
3962820,-0.14500,51.0000,111,53,0.43810
3962830,-0.13500,50.8750,111,53,0.43126
3962840,-0.12500,51.0625,111,53,0.42442
3962850,-0.11500,51.8125,111,53,0.41758
3962860,-0.11500,56.3750,111,53,0.40391
3962870,-0.10500,60.5625,111,53,0.39756
3962880,-0.10000,65.6250,111,53,0.39145
3962890,-0.08500,71.1875,111,53,0.38657
3962900,-0.06500,82.7500,111,53,0.37753
3962910,-0.03500,88.2500,111,53,0.37216
3962920,-0.01500,93.3125,111,53,0.36654
3962930,0.01000,97.6875,111,53,0.36093
3962940,0.03500,104.3750,111,53,0.34969
3962950,0.05000,106.5625,111,53,0.34432
3962960,0.05500,108.0625,111,53,0.33895
3962970,0.06500,109.0000,111,53,0.33382
3962980,0.06500,109.5000,111,53,0.32357
3962990,0.06000,109.1875,111,53,0.31990
3963000,0.04500,108.5625,110,53,0.31697
3963010,0.04500,107.7500,110,53,0.31306
3963020,0.05000,105.5000,110,53,0.30427
3963030,0.06000,104.1875,110,53,0.29963
3963040,0.06000,102.8125,110,53,0.29499
3963050,0.05500,101.3750,110,53,0.29035
3963060,0.03000,98.6250,110,53,0.28132
3963070,0.00000,97.3125,110,53,0.27692
3963080,-0.01500,96.0000,110,53,0.27228
3963090,-0.03000,94.7500,110,53,0.26911
3963100,-0.04500,92.3750,110,53,0.26398
3963110,-0.05000,91.1250,110,53,0.26105
3963120,-0.05000,89.8750,110,53,0.25910
3963130,-0.04500,88.4375,110,53,0.25910
3963140,-0.03500,84.8125,110,53,0.26764
3963150,-0.03500,82.6875,110,53,0.27741
3963160,-0.03500,80.3750,110,53,0.29158
3963170,-0.03500,78.1875,110,53,0.30989
3963180,-0.04000,74.5625,110,53,0.35800
3963190,-0.04500,73.2500,110,53,0.38291
3963200,-0.05500,72.1250,110,53,0.40781
3963210,-0.06000,71.3125,110,53,0.43663
3963220,-0.06500,70.0000,110,53,0.49817
3963230,-0.07000,69.5625,110,53,0.52869
3963240,-0.08500,69.1250,110,53,0.55800
3963250,-0.08500,68.7500,110,53,0.58584
3963260,-0.08500,68.0625,110,53,0.63565
3963270,-0.08500,67.6875,110,53,0.65763
3963280,-0.08000,67.3750,110,53,0.67717
3963290,-0.06500,67.0000,110,53,0.69182
3963300,-0.04000,66.1875,110,53,0.71453
3963310,-0.01500,65.7500,110,53,0.72479
3963320,0.00000,65.3750,110,53,0.73358
3963330,0.01500,64.9375,110,53,0.74066
3963340,0.02000,64.1875,110,53,0.74921
3963350,0.00000,63.8125,110,53,0.75116
3963360,-0.03500,63.4375,110,53,0.75189
3963370,-0.06500,63.0000,110,53,0.75140
3963380,-0.08500,62.2500,110,53,0.74701
3963390,-0.10500,61.8125,110,53,0.74286
3963400,-0.12000,61.4375,110,53,0.73748
3963410,-0.12500,61.0625,110,53,0.73138
3963420,-0.12500,60.3125,110,53,0.71600
3963430,-0.12500,59.9375,110,53,0.70696
3963440,-0.11500,59.5625,110,53,0.69719
3963450,-0.10500,59.1875,110,53,0.68669
3963460,-0.10000,58.5625,110,53,0.66349
3963470,-0.10000,58.3125,110,53,0.65128
3963480,-0.11500,58.1250,110,53,0.63907
3963490,-0.01500,57.8750,110,53,0.62784
3963500,0.40000,57.3750,110,53,0.60659
3963510,1.02000,57.1250,110,53,0.59585
3963520,1.07500,56.8750,110,53,0.58535
3963530,0.40000,56.5625,110,53,0.57509
3963540,-0.25000,55.8750,110,53,0.55482
3963550,-0.48000,55.5000,110,53,0.54530
3963560,-0.38500,55.1250,110,53,0.53578
3963570,-0.25000,54.7500,110,53,0.52674
3963580,-0.21000,54.0625,110,53,0.50940
3963590,-0.20000,53.7500,110,53,0.50183
3963600,-0.19500,53.4375,110,53,0.49499
3963610,-0.18000,53.1250,110,53,0.48742
3963620,-0.17500,52.5000,110,53,0.47179
3963630,-0.16500,52.1875,110,53,0.46422
3963640,-0.15500,51.8750,110,53,0.45690
3963650,-0.14000,51.5625,110,53,0.44957
3963660,-0.12500,51.3125,110,53,0.43492
3963670,-0.12000,51.5625,110,53,0.42759
3963680,-0.12000,52.4375,110,53,0.42051
3963690,-0.12000,54.2500,110,53,0.41465
3963700,-0.11500,61.8750,110,53,0.40366
3963710,-0.10500,67.1875,110,53,0.39756
3963720,-0.09000,72.9375,110,53,0.39145
3963730,-0.07000,78.8125,110,53,0.38535
3963740,-0.05000,90.1875,110,53,0.37363
3963750,-0.02500,95.1875,110,53,0.36801
3963760,-0.00500,99.5000,110,53,0.36239
3963770,0.01000,103.0625,110,53,0.35678
3963780,0.02000,107.9375,110,53,0.34603
3963790,0.03000,109.3125,110,53,0.34212
3963800,0.03000,110.1250,110,53,0.33895
3963810,0.03000,110.4375,110,53,0.33480
3963820,0.03000,109.9375,110,53,0.32576
3963830,0.03500,109.1875,110,53,0.32112
3963840,0.04000,108.3125,110,53,0.31648
3963850,0.04000,107.2500,110,53,0.31209
3963860,0.05000,104.6875,110,53,0.30330
3963870,0.05500,103.3125,110,53,0.29866
3963880,0.05000,101.9375,110,53,0.29402
3963890,0.03000,100.5625,110,53,0.29060
3963900,0.00500,97.8750,110,53,0.28449
3963910,-0.01500,96.6250,110,53,0.28034
3963920,-0.03500,95.3750,110,53,0.27619
3963930,-0.04500,94.1875,110,53,0.27204
3963940,-0.06000,91.8125,110,53,0.26496
3963950,-0.06000,90.5000,110,53,0.26325
3963960,-0.05500,89.0625,110,53,0.26374
3963970,-0.05000,87.3750,110,53,0.26716
3963980,-0.04500,83.1250,110,53,0.28498
3963990,-0.04500,80.7500,110,53,0.29817
3964000,-0.05000,78.4375,110,53,0.31380
3964010,-0.05000,76.4375,110,53,0.33431
3964020,-0.05000,73.4375,110,53,0.38706
3964030,-0.05000,72.3750,110,53,0.41734
3964040,-0.05000,71.5625,110,53,0.44884
3964050,-0.05500,70.3125,110,53,0.51258
3964060,-0.05500,69.8750,110,53,0.54359
3964070,-0.05500,69.5625,110,53,0.57314
3964080,-0.05500,69.2500,110,53,0.60098
3964090,-0.05500,68.9375,110,53,0.62344
3964100,-0.05500,68.3750,110,53,0.66203
3964110,-0.05500,68.0000,110,53,0.68083
3964120,-0.05000,67.6875,110,53,0.69792
3964130,-0.04500,67.2500,110,53,0.71258
3964140,-0.03500,66.5000,110,53,0.73578
3964150,-0.02083,66.0729,110,53,0.74766
3964160,-0.00500,65.7500,110,53,0.75311
3964170,0.01000,65.3125,110,53,0.75702
3964180,0.01500,64.5000,110,53,0.75995
3964190,0.00000,64.1250,110,53,0.75800
3964200,-0.03500,63.6875,110,53,0.75580
3964210,-0.06500,63.3125,110,53,0.75287
3964220,-0.09000,62.4375,110,53,0.74383
3964230,-0.11500,62.0625,110,53,0.73773
3964240,-0.13500,61.6250,110,53,0.73040
3964250,-0.14000,61.2500,110,53,0.72210
3964260,-0.15000,60.4375,110,53,0.70232
3964270,-0.15000,60.0625,110,53,0.69133
3964280,-0.14500,59.6875,110,53,0.67741
3964290,-0.13500,59.3125,110,53,0.66227
3964300,-0.13000,58.7500,110,53,0.63565
3964310,-0.13000,58.5000,110,53,0.62344
3964320,-0.15000,58.2500,110,53,0.61172
3964330,-0.06500,58.0000,110,53,0.60024
3964340,0.37000,57.5000,110,53,0.57851
3964350,1.02500,57.1875,110,53,0.56801
3964360,1.08000,56.9375,110,53,0.55800
3964370,0.36000,56.6875,110,53,0.54799
3964380,-0.34500,56.0625,110,53,0.53016
3964390,-0.59000,55.7500,110,53,0.52234
3964400,-0.50000,55.4375,110,53,0.51404
3964410,-0.37000,55.0625,110,53,0.50574
3964420,-0.33000,54.3125,110,53,0.48938
3964430,-0.31500,53.9375,110,53,0.48132
3964440,-0.30500,53.6250,110,53,0.47326
3964450,-0.29000,53.2500,110,53,0.46545
3964460,-0.27500,52.5625,110,53,0.45006
3964470,-0.26500,52.1875,110,53,0.44274
3964480,-0.25000,51.8750,110,53,0.43639
3964490,-0.23000,51.6250,110,53,0.43077
3964500,-0.20000,51.2500,110,53,0.41758
