RelativeTimeMilliseconds,ECG,ART,ART (Sys),ART (Dia),PPG
3974430,1.03500,55.0625,108,52,0.51477
3974440,1.02500,54.7500,108,52,0.50794
3974450,0.35000,54.4375,108,52,0.50061
3974460,-0.24000,53.8125,108,52,0.48547
3974470,-0.44000,53.5000,108,52,0.47790
3974480,-0.03000,89.3125,108,52,0.25397
3974490,-0.03000,89.3125,108,52,0.25397
3974500,-0.03000,89.3125,108,52,0.25397
3974510,-0.03000,89.3125,108,52,0.25397
3974520,-0.03000,89.3125,108,52,0.25397
3974530,-0.03000,89.3125,108,52,0.25397
3974540,-0.03000,89.3125,108,52,0.25397
3974550,-0.03000,89.3125,108,52,0.25397
3974560,-0.04500,75.7500,108,52,0.33065
3974570,-0.04500,75.7500,108,52,0.33065
3974580,-0.04500,75.7500,108,52,0.33065
3974590,-0.04500,75.7500,108,52,0.33065
3974600,-0.04500,75.7500,108,52,0.33065
3974610,-0.04500,75.7500,108,52,0.33065
3974620,-0.04500,75.7500,108,52,0.33065
3974630,-0.04500,75.7500,108,52,0.33065
3974640,-0.04500,75.7500,108,52,0.33065
3974650,-0.04500,75.7500,108,52,0.33065
3974660,-0.04500,75.7500,108,52,0.33065
3974670,-0.04500,75.7500,108,52,0.33065
3974680,-0.04500,75.7500,108,52,0.33065
3974690,-0.04500,75.7500,108,52,0.33065
3974700,-0.04500,75.7500,108,52,0.33065
3974710,-0.04500,75.7500,108,52,0.33065
3974720,-0.04500,75.7500,108,52,0.33065
3974730,-0.04500,75.7500,108,52,0.33065
3974740,-0.04500,75.7500,108,52,0.33065
3974750,-0.04500,75.7500,108,52,0.33065
3974760,-0.04500,75.7500,108,52,0.33065
3974770,-0.04500,75.7500,108,52,0.33065
3974780,-0.04500,75.7500,108,52,0.33065
3974790,-0.04500,75.7500,108,52,0.33065
3974800,-0.04500,75.7500,108,52,0.33065
3974810,-0.04500,75.7500,108,52,0.33065
3974820,-0.04500,75.7500,108,52,0.33065
3974830,-0.04500,75.7500,108,52,0.33065
3974840,-0.04500,75.7500,108,52,0.33065
3974850,-0.04500,75.7500,108,52,0.33065
3974860,-0.04500,75.7500,108,52,0.33065
3974870,-0.04500,75.7500,108,52,0.33065
3974880,-0.04500,75.7500,108,52,0.33065
3974890,-0.04500,75.7500,108,52,0.33065
3974900,-0.04500,75.7500,108,52,0.33065
3974910,-0.04500,73.6250,108,52,0.35556
3974920,-0.03500,71.8750,108,52,0.38242
3974930,-0.02500,70.4375,108,52,0.41074
3974940,-0.02500,68.4375,108,52,0.45958
3974950,-0.03000,67.7500,108,52,0.48547
3974960,-0.03500,67.1875,108,52,0.51184
3974970,-0.04000,66.7500,108,52,0.53748
3974980,-0.05000,66.1250,108,52,0.58413
3974990,-0.05500,65.8125,108,52,0.60464
3975000,-0.05500,65.5625,108,52,0.62295
3975010,-0.05500,65.3125,108,52,0.63932
3975020,-0.05000,64.7500,108,52,0.66569
3975030,-0.04500,64.4375,108,52,0.67399
3975040,-0.04500,64.1250,108,52,0.67985
3975050,-0.03500,63.8125,108,52,0.68571
3975060,-0.02500,63.0625,108,52,0.69426
3975070,-0.01000,62.6875,108,52,0.69670
3975080,0.00500,62.3750,108,52,0.69817
3975090,0.01000,62.0000,108,52,0.69841
3975100,0.00500,61.1875,108,52,0.69573
3975110,-0.02000,60.8125,108,52,0.69280
3975120,-0.05500,60.4375,108,52,0.68889
3975130,-0.07500,60.0000,108,52,0.68376
3975140,-0.09500,59.2500,108,52,0.67106
3975150,-0.11500,58.8125,108,52,0.66325
3975160,-0.12000,58.4375,108,52,0.65446
3975170,-0.11500,58.0000,108,52,0.64469
3975180,-0.10500,57.2500,108,52,0.62369
3975190,-0.10500,56.9375,108,52,0.61294
3975200,-0.10500,56.6250,108,52,0.60220
3975210,-0.10500,56.3750,108,52,0.59170
3975220,-0.10500,55.8750,108,52,0.57167
3975230,-0.10000,55.6875,108,52,0.56288
3975240,-0.10500,55.5000,108,52,0.55482
3975250,-0.08500,55.3125,108,52,0.54652
3975260,0.15500,54.8750,108,52,0.52991
3975270,0.73000,54.6250,108,52,0.52186
3975280,1.14500,54.3750,108,52,0.51380
3975290,0.76500,54.0625,108,52,0.50574
3975300,0.03000,53.4375,108,52,0.49011
3975310,-0.38000,53.1250,108,52,0.48278
3975320,-0.43500,52.8125,108,52,0.47570
3975330,-0.31000,52.4375,108,52,0.46862
3975340,-0.22000,51.8125,108,52,0.45739
3975350,-0.19500,51.5000,108,52,0.45128
3975360,-0.18000,51.1875,108,52,0.44493
3975370,-0.17000,50.8750,108,52,0.43810
3975380,-0.16000,50.3125,108,52,0.42466
3975390,-0.15500,50.0000,108,52,0.41807
3975400,-0.14500,49.7500,108,52,0.41172
3975410,-0.14000,49.5000,108,52,0.40562
3975420,-0.12667,49.1875,108,52,0.39678
3975430,-0.11500,49.3125,108,52,0.38852
3975440,-0.11500,50.0000,108,52,0.38413
3975450,-0.10500,51.6250,108,52,0.37924
3975460,-0.10000,58.6875,108,52,0.36850
3975470,-0.09500,63.6250,108,52,0.36313
3975480,-0.08500,68.9375,108,52,0.35775
3975490,-0.06500,74.4375,108,52,0.35238
3975500,-0.04000,85.0625,108,52,0.34188
3975510,-0.01500,89.8750,108,52,0.33700
3975520,0.01000,94.1250,108,52,0.33211
3975530,0.02000,97.6875,108,52,0.32845
3975540,0.03000,102.6875,108,52,0.32137
3975550,0.04000,104.1875,108,52,0.31722
3975560,0.04000,105.0625,108,52,0.31306
3975570,0.04000,105.4375,108,52,0.30891
3975580,0.04500,104.9375,108,52,0.30061
3975590,0.05000,104.1875,108,52,0.29670
3975600,0.06000,103.2500,108,52,0.29255
3975610,0.06000,102.1250,108,52,0.28840
3975620,0.07000,99.5625,108,52,0.28059
3975630,0.07500,98.1250,108,52,0.27790
3975640,0.07500,96.7500,108,52,0.27570
3975650,0.06000,95.3125,108,52,0.27228
3975660,0.04000,92.6250,108,52,0.26496
3975670,0.01000,91.3125,108,52,0.26154
3975680,-0.01000,90.0000,108,52,0.25861
3975690,-0.03000,88.7500,108,52,0.25714
3975700,-0.04500,86.2500,108,52,0.26105
3975710,-0.05500,84.8750,108,52,0.26764
3975720,-0.05500,83.3125,108,52,0.27814
3975730,-0.05000,81.5625,108,52,0.29035
3975740,-0.04500,77.4375,108,52,0.32381
3975750,-0.04500,75.3750,108,52,0.34652
3975760,-0.04500,73.5000,108,52,0.37192
3975770,-0.04500,71.8750,108,52,0.39951
3975780,-0.04500,69.5625,108,52,0.45739
3975790,-0.04500,68.6875,108,52,0.48596
3975800,-0.04500,67.9375,108,52,0.51404
3975810,-0.05000,67.3750,108,52,0.54090
3975820,-0.05500,66.4375,108,52,0.58926
3975830,-0.05500,66.0625,108,52,0.60781
3975840,-0.06000,65.7500,108,52,0.62320
3975850,-0.06500,65.4375,108,52,0.63907
3975860,-0.07000,64.7500,108,52,0.66789
3975870,-0.07000,64.3750,108,52,0.68010
3975880,-0.07000,64.0625,108,52,0.69011
3975890,-0.06500,63.6875,108,52,0.69841
3975900,-0.04500,63.0000,108,52,0.70965
3975910,-0.03500,62.6250,108,52,0.71282
3975920,-0.02000,62.3125,108,52,0.71477
3975930,-0.01500,61.9375,108,52,0.71477
3975940,-0.02500,61.1875,108,52,0.71160
3975950,-0.05000,60.8125,108,52,0.70940
3975960,-0.07500,60.5000,108,52,0.70623
3975970,-0.09000,60.1250,108,52,0.70208
3975980,-0.10500,59.3750,108,52,0.69011
3975990,-0.12500,59.0000,108,52,0.68254
3976000,-0.13000,58.6875,108,52,0.67424
3976010,-0.12500,58.3125,108,52,0.66496
3976020,-0.12000,57.6250,108,52,0.64518
3976030,-0.11500,57.3125,108,52,0.63541
3976040,-0.10500,57.0625,108,52,0.62613
3976050,-0.10500,56.7500,108,52,0.61636
3976060,-0.09500,56.3125,108,52,0.59609
3976070,-0.09500,56.1250,108,52,0.58608
3976080,-0.09500,55.8750,108,52,0.57631
3976090,0.11500,55.6875,108,52,0.56679
3976100,0.65000,55.0625,108,52,0.54872
3976110,1.11500,54.7500,108,52,0.54017
3976120,0.87000,54.3750,108,52,0.53187
3976130,0.12500,54.0625,108,52,0.52430
3976140,-0.34500,53.3750,108,52,0.51038
3976150,-0.42500,53.0625,108,52,0.50330
3976160,-0.31500,52.6875,108,52,0.49597
3976170,-0.22000,52.3750,108,52,0.48864
3976180,-0.20000,51.6875,108,52,0.47399
3976190,-0.18500,51.3750,108,52,0.46667
3976200,-0.17000,51.0625,108,52,0.45934
3976210,-0.15500,50.7500,108,52,0.45201
3976220,-0.14500,50.1875,108,52,0.43785
3976230,-0.13500,49.9375,108,52,0.43199
3976240,-0.13500,49.6250,108,52,0.42686
3976250,-0.13000,49.4375,108,52,0.42100
3976260,-0.12000,49.6875,108,52,0.40879
3976270,-0.11500,50.5000,108,52,0.40269
3976280,-0.11000,52.3750,108,52,0.39658
3976290,-0.10000,55.5000,108,52,0.39048
3976300,-0.08500,64.8125,108,52,0.37851
3976310,-0.07500,70.2500,108,52,0.37265
3976320,-0.05500,75.7500,108,52,0.36703
3976330,-0.03500,81.1875,108,52,0.36264
3976340,-0.00500,91.1250,108,52,0.35458
3976350,0.01500,95.3125,108,52,0.34969
3976360,0.04000,98.7500,108,52,0.34457
3976370,0.05500,101.5625,108,52,0.33944
3976380,0.06500,105.0000,108,52,0.32967
3976390,0.08000,105.8125,108,52,0.32479
3976400,0.09000,106.1250,108,52,0.31990
3976410,0.09000,106.0625,108,52,0.31526
3976420,0.09500,104.9375,108,52,0.30647
3976430,0.10000,104.0000,108,52,0.30330
3976440,0.10000,103.1146,108,52,0.30106
3976450,0.10000,101.6250,108,52,0.29719
3976460,0.10000,98.8750,108,52,0.28913
3976470,0.09000,97.4375,108,52,0.28474
3976480,0.06500,96.0625,108,52,0.28034
3976490,0.03500,94.6875,108,52,0.27595
3976500,0.00500,92.0625,108,52,0.26862
3976510,-0.01500,90.7500,108,52,0.26593
3976520,-0.03500,89.5625,108,52,0.26471
3976530,-0.04500,88.3125,108,52,0.26569
3976540,-0.04500,85.6875,108,52,0.27521
3976550,-0.04000,84.1875,108,52,0.28523
3976560,-0.04000,82.4375,108,52,0.29963
3976570,-0.04500,80.4375,108,52,0.31819
3976580,-0.04000,75.9375,108,52,0.36581
3976590,-0.03500,73.8125,108,52,0.39414
3976600,-0.03000,72.0625,108,52,0.42418
3976610,-0.02500,70.6250,108,52,0.45519
3976620,-0.02000,68.5625,108,52,0.51770
3976630,-0.02000,67.8125,108,52,0.54383
3976640,-0.02000,67.2500,108,52,0.56679
3976650,-0.02000,66.7500,108,52,0.59096
3976660,-0.02000,65.9375,108,52,0.63712
3976670,-0.02500,65.6250,108,52,0.65788
3976680,-0.03500,65.3750,108,52,0.67668
3976690,-0.04500,65.0625,108,52,0.69328
3976700,-0.04500,64.4375,108,52,0.72088
3976710,-0.04500,64.1250,108,52,0.73138
3976720,-0.03000,63.7500,108,52,0.73993
3976730,-0.01000,63.4375,108,52,0.74505
3976740,0.00500,62.7500,108,52,0.75116
3976750,0.02000,62.3750,108,52,0.75360
3976760,0.03000,62.0625,108,52,0.75482
3976770,0.03000,61.6875,108,52,0.75507
3976780,0.01000,60.9375,108,52,0.75165
3976790,-0.02000,60.5625,108,52,0.74774
3976800,-0.04500,60.1875,108,52,0.74286
3976810,-0.07500,59.8125,108,52,0.73675
3976820,-0.10000,59.1250,108,52,0.72137
3976830,-0.11000,58.7500,108,52,0.71258
3976840,-0.11000,58.3750,108,52,0.70330
3976850,-0.10500,58.0000,108,52,0.69304
3976860,-0.09500,57.3125,108,52,0.67082
3976870,-0.08500,57.0000,108,52,0.65910
3976880,-0.07500,56.6875,108,52,0.64713
3976890,-0.07500,56.5000,108,52,0.63541
3976900,-0.07000,56.0625,108,52,0.61294
3976910,-0.08000,55.8125,108,52,0.60195
3976920,-0.02500,55.5625,108,52,0.59121
3976930,0.31000,55.3125,108,52,0.58169
3976940,0.93000,54.7500,108,52,0.56361
3976950,1.15500,54.4375,108,52,0.55433
3976960,0.62000,54.0625,108,52,0.54505
3976970,-0.07000,53.7500,108,52,0.53578
3976980,-0.39500,53.1250,108,52,0.51844
3976990,-0.37500,52.7500,108,52,0.50989
3977000,-0.26000,52.4375,109,52,0.50159
3977010,-0.20000,52.0625,109,52,0.49353
3977020,-0.18000,51.3750,109,52,0.47790
3977030,-0.16000,51.0625,109,52,0.47131
3977040,-0.15500,50.6875,109,52,0.46545
3977050,-0.14500,50.3750,109,52,0.45885
3977060,-0.14000,49.7500,109,52,0.44493
3977070,-0.13500,49.5000,109,52,0.43785
3977080,-0.13000,49.2500,109,52,0.43077
3977090,-0.12000,49.1250,109,52,0.42393
3977100,-0.11000,49.8125,109,52,0.41050
3977110,-0.10500,51.2500,109,52,0.40391
3977120,-0.09500,53.8125,109,52,0.39731
3977130,-0.08500,57.6250,109,52,0.39194
3977140,-0.07500,67.7500,109,52,0.38193
3977150,-0.06500,73.3125,109,52,0.37631
3977160,-0.05000,78.8750,109,52,0.37070
3977170,-0.04000,84.3125,109,52,0.36508
3977180,-0.02500,93.6875,109,52,0.35360
3977190,-0.00500,97.5000,109,52,0.34799
3977200,0.01000,100.5625,109,52,0.34261
3977210,0.02000,102.9375,109,52,0.33724
3977220,0.03000,105.6875,109,52,0.32821
3977230,0.03500,106.2500,109,52,0.32503
3977240,0.04000,106.3750,109,52,0.32088
3977250,0.04500,106.0625,109,52,0.31624
3977260,0.05000,104.6875,109,52,0.30672
3977270,0.05000,103.6875,109,52,0.30183
3977280,0.05500,102.5000,109,52,0.29695
3977290,0.06000,101.1875,109,52,0.29231
3977300,0.06000,98.5000,109,52,0.28303
3977310,0.05500,97.1250,109,52,0.27839
3977320,0.03500,95.8125,109,52,0.27375
3977330,0.01000,94.4375,109,52,0.27082
3977340,-0.02500,91.8125,109,52,0.26642
3977350,-0.04500,90.5625,109,52,0.26471
3977360,-0.06000,89.3750,109,52,0.26422
3977370,-0.07500,88.0625,109,52,0.26569
3977380,-0.07500,85.3125,109,52,0.27888
3977390,-0.07500,83.6875,109,52,0.29158
3977400,-0.07000,81.8125,109,52,0.30842
3977410,-0.06500,79.6875,109,52,0.32943
3977420,-0.06500,75.1875,109,52,0.37851
3977430,-0.05500,73.1875,109,52,0.40293
3977440,-0.04500,71.5000,109,52,0.43126
3977450,-0.04000,70.1875,109,52,0.46129
3977460,-0.04000,68.7500,109,52,0.50704
3977470,-0.04500,67.5625,109,52,0.55214
3977480,-0.05000,67.0000,109,52,0.58022
3977490,-0.05000,66.5000,109,52,0.60659
3977500,-0.05500,65.6875,109,52,0.65324
3977510,-0.06000,65.3750,109,52,0.67326
3977520,-0.05500,65.0625,109,52,0.69133
3977530,-0.05500,64.7500,109,52,0.70476
3977540,-0.05500,64.1250,109,52,0.72576
3977550,-0.05000,63.8125,109,52,0.73504
3977560,-0.04500,63.4375,109,52,0.74286
3977570,-0.04500,63.1250,109,52,0.74921
3977580,-0.03000,62.4375,109,52,0.75751
3977590,-0.01500,62.0625,109,52,0.75946
3977600,-0.00500,61.6875,109,52,0.76020
3977610,0.00000,61.3750,109,52,0.75971
3977620,-0.01000,60.6875,109,52,0.75458
3977630,-0.03500,60.3125,109,52,0.74994
3977640,-0.06000,60.0000,109,52,0.74457
3977650,-0.08000,59.6250,109,52,0.73822
3977660,-0.10500,58.8750,109,52,0.72259
3977670,-0.12500,58.5000,109,52,0.71331
3977680,-0.13500,58.1250,109,52,0.70305
3977690,-0.13000,57.7500,109,52,0.69182
3977700,-0.12500,57.1250,109,52,0.66789
3977710,-0.12500,56.8125,109,52,0.65592
3977720,-0.11500,56.5000,109,52,0.64396
3977730,-0.11000,56.2500,109,52,0.63321
3977740,-0.10500,55.7500,109,52,0.61319
3977750,-0.11000,55.5625,109,52,0.60293
3977760,-0.10500,55.3125,109,52,0.59292
3977770,0.11000,55.1250,109,52,0.58291
3977780,0.66000,54.5625,109,52,0.56288
3977790,1.13000,54.2500,109,52,0.55311
3977800,0.87000,53.8750,109,52,0.54359
3977810,0.12000,53.5625,109,52,0.53431
3977820,-0.35000,52.9375,109,52,0.51722
3977830,-0.42500,52.5625,109,52,0.51013
3977840,-0.31500,52.2500,109,52,0.50256
3977850,-0.22500,51.9375,109,52,0.49499
3977860,-0.20000,51.3125,109,52,0.47961
3977870,-0.19000,51.0000,109,52,0.47179
3977880,-0.18000,50.6875,109,52,0.46422
3977890,-0.17000,50.3750,109,52,0.45690
3977900,-0.16000,49.7500,109,52,0.44225
3977910,-0.15500,49.4375,109,52,0.43492
3977920,-0.14000,49.1875,109,52,0.42784
3977930,-0.13000,49.0625,109,52,0.42173
3977940,-0.12000,49.4375,109,52,0.41026
3977950,-0.11500,50.5000,109,52,0.40366
3977960,-0.11500,52.6875,109,52,0.39707
3977970,-0.10500,56.1250,109,52,0.39048
3977980,-0.09500,65.8125,109,52,0.37827
3977990,-0.08500,71.3125,109,52,0.37241
3978000,-0.06500,76.8125,108,51,0.36654
3978010,-0.04500,82.2500,108,51,0.36093
3978020,-0.02500,92.0625,108,51,0.35092
3978030,0.00000,96.1250,108,51,0.34725
3978040,0.02000,99.5000,108,51,0.34261
3978050,0.03000,102.1875,108,51,0.33748
3978060,0.04000,105.5625,108,51,0.32723
3978070,0.04500,106.3125,108,51,0.32210
3978080,0.05000,106.6250,108,51,0.31697
3978090,0.05000,106.5625,108,51,0.31184
3978100,0.05000,105.5000,108,51,0.30183
3978110,0.05000,104.5625,108,51,0.29695
3978120,0.06000,103.5000,108,51,0.29231
3978130,0.06000,102.2500,108,51,0.28913
3978140,0.06500,99.6250,108,51,0.28327
3978150,0.06000,98.3125,108,51,0.27912
3978160,0.04000,96.9375,108,51,0.27473
3978170,0.01000,95.5625,108,51,0.27057
3978180,-0.01000,93.0000,108,51,0.26276
3978190,-0.03000,91.7500,108,51,0.25983
3978200,-0.04500,90.5000,108,51,0.25812
3978210,-0.06000,89.2500,108,51,0.25885
3978220,-0.07500,86.6250,108,51,0.26935
3978230,-0.08000,85.1250,108,51,0.27912
3978240,-0.07500,83.3750,108,51,0.29328
3978250,-0.07500,81.5000,108,51,0.31184
3978260,-0.07500,77.1250,108,51,0.36068
3978270,-0.07000,75.1250,108,51,0.38974
3978280,-0.06500,73.3125,108,51,0.42076
3978290,-0.06500,71.8750,108,51,0.45250
3978300,-0.06500,69.6250,108,51,0.51551
3978310,-0.06500,68.8125,108,51,0.54579
3978320,-0.06500,68.1250,108,51,0.57485
3978330,-0.06500,67.5000,108,51,0.59853
3978340,-0.06500,66.5625,108,51,0.63932
3978350,-0.06500,66.1875,108,51,0.65958
3978360,-0.07000,65.8125,108,51,0.67863
3978370,-0.07500,65.4375,108,51,0.69573
3978380,-0.07500,64.6875,108,51,0.72430
3978390,-0.07000,64.3750,108,51,0.73529
3978400,-0.05500,64.0000,108,51,0.74432
3978410,-0.04500,63.6875,108,51,0.75165
3978420,-0.02500,62.9375,108,51,0.75971
3978430,-0.01000,62.5625,108,51,0.76068
3978440,0.00000,62.2500,108,51,0.76142
3978450,-0.00500,61.8750,108,51,0.76166
3978460,-0.03500,61.1250,108,51,0.75897
3978470,-0.07000,60.7500,108,51,0.75604
3978480,-0.09000,60.3750,108,51,0.75189
3978490,-0.11500,59.8021,108,51,0.74257
3978500,-0.13500,59.2500,108,51,0.73162
3978510,-0.14000,58.9375,108,51,0.72259
3978520,-0.14000,58.5625,108,51,0.71282
3978530,-0.14000,58.1875,108,51,0.70305
3978540,-0.13500,57.5000,108,51,0.68254
3978550,-0.13500,57.1875,108,51,0.67155
3978560,-0.12000,56.8750,108,51,0.66032
3978570,-0.11000,56.6875,108,51,0.64908
3978580,-0.10500,56.2500,108,51,0.62637
3978590,-0.11500,56.0000,108,51,0.61221
3978600,0.12000,55.7500,108,51,0.59707
3978610,0.55000,55.5000,108,51,0.58462
3978620,1.13500,55.0000,108,51,0.56410
3978630,1.01000,54.6875,108,51,0.55556
3978640,0.25000,54.3750,108,51,0.54652
3978650,-0.31500,54.0625,108,51,0.53748
3978660,-0.46000,53.3750,108,51,0.51990
3978670,-0.33500,53.0625,108,51,0.51136
3978680,-0.22000,52.6875,108,51,0.50305
3978690,-0.20000,52.3750,108,51,0.49475
3978700,-0.20000,51.6875,108,51,0.47888
3978710,-0.20000,51.3750,108,51,0.47131
3978720,-0.19000,51.0625,108,51,0.46349
3978730,-0.18000,50.7500,108,51,0.45690
3978740,-0.17000,50.1250,108,51,0.44469
3978750,-0.16000,49.8750,108,51,0.43785
3978760,-0.15000,49.6875,108,51,0.43077
3978770,-0.14500,49.6875,108,51,0.42393
3978780,-0.14500,51.1875,108,51,0.41050
3978790,-0.14000,53.4375,108,51,0.40391
3978800,-0.13000,57.0000,108,51,0.39731
3978810,-0.12000,61.6875,108,51,0.39072
3978820,-0.10500,72.6875,108,51,0.37900
3978830,-0.09500,78.4375,108,51,0.37460
3978840,-0.07500,84.0000,108,51,0.36947
3978850,-0.05500,89.1875,108,51,0.36410
3978860,-0.03000,97.8750,108,51,0.35336
3978870,-0.01000,101.1875,108,51,0.34799
3978880,0.01000,103.7500,108,51,0.34286
3978890,0.02000,105.6250,108,51,0.33748
3978900,0.03500,107.5625,108,51,0.32698
3978910,0.04000,107.8125,108,51,0.32186
3978920,0.04000,107.6875,108,51,0.31648
3978930,0.04000,107.1875,108,51,0.31258
3978940,0.04000,105.5000,108,51,0.30501
3978950,0.04000,104.4375,108,51,0.30037
3978960,0.03500,103.2500,108,51,0.29573
3978970,0.04000,101.9375,108,51,0.29109
3978980,0.03500,99.1875,108,51,0.28205
3978990,0.02000,97.8125,108,51,0.27766
3979000,0.00000,96.4375,108,51,0.27326
3979010,-0.02500,95.1250,108,51,0.26911
3979020,-0.05500,92.5000,108,51,0.26374
3979030,-0.07500,91.2500,108,51,0.26374
3979040,-0.08500,90.0625,108,51,0.26471
3979050,-0.10000,88.8125,108,51,0.26813
3979060,-0.10000,86.1250,108,51,0.28547
3979070,-0.09500,84.4375,108,51,0.30037
3979080,-0.08500,82.5000,108,51,0.31966
3979090,-0.07500,80.3750,108,51,0.34261
3979100,-0.07000,76.0000,108,51,0.39756
3979110,-0.06500,74.1875,108,51,0.42784
3979120,-0.06500,72.6250,108,51,0.45495
3979130,-0.06500,71.3125,108,51,0.48034
3979140,-0.06000,69.3750,108,51,0.53700
3979150,-0.06000,68.6875,108,51,0.56508
3979160,-0.06500,68.1250,108,51,0.59219
3979170,-0.06500,67.6875,108,51,0.61783
3979180,-0.07000,66.9375,108,51,0.66300
3979190,-0.07500,66.6250,108,51,0.68254
3979200,-0.07500,66.2500,108,51,0.69963
3979210,-0.08000,65.9375,108,51,0.71453
3979220,-0.08500,65.2500,108,51,0.73553
3979230,-0.08500,64.9375,108,51,0.74139
3979240,-0.07000,64.5625,108,51,0.74701
3979250,-0.05500,64.1875,108,51,0.75165
3979260,-0.03500,63.4375,108,51,0.75751
3979270,-0.02500,63.0625,108,51,0.75873
3979280,-0.01500,62.6875,108,51,0.75873
3979290,-0.03000,62.3125,108,51,0.75800
3979300,-0.06500,61.5000,108,51,0.75360
3979310,-0.09500,61.0625,108,51,0.74969
3979320,-0.11000,60.6875,108,51,0.74432
3979330,-0.13500,60.2500,108,51,0.73797
3979340,-0.15000,59.5000,108,51,0.72210
3979350,-0.15500,59.1250,108,51,0.71282
3979360,-0.15000,58.7500,108,51,0.70256
3979370,-0.15000,58.3750,108,51,0.69182
3979380,-0.14500,57.6250,108,51,0.66886
3979390,-0.14000,57.3125,108,51,0.65714
3979400,-0.13500,57.0625,108,51,0.64542
3979410,-0.12500,56.7500,108,51,0.63370
3979420,-0.14000,56.3125,108,51,0.61221
3979430,-0.09000,56.0625,108,51,0.60269
3979440,0.23500,55.8125,108,51,0.59267
3979450,0.89000,55.6250,108,51,0.58242
3979460,1.21000,55.1250,108,51,0.56288
3979470,0.65000,54.8750,108,51,0.55336
3979480,-0.13500,54.6250,108,51,0.54383
3979490,-0.46500,54.3125,108,51,0.53455
3979500,-0.42500,53.6250,108,51,0.51673
3979510,-0.28500,53.3750,108,51,0.51062
3979520,-0.22500,53.2500,108,51,0.50794
3979530,-0.21500,52.9375,108,51,0.50037
3979540,-0.21000,52.2500,108,51,0.48620
3979550,-0.20000,51.9375,108,51,0.47888
3979560,-0.19000,51.6250,108,51,0.47131
3979570,-0.18000,51.3125,108,51,0.46374
3979580,-0.17500,50.7500,108,51,0.44908
3979590,-0.16500,50.5000,108,51,0.44200
3979600,-0.15500,50.2500,108,51,0.43492
3979610,-0.14500,50.1875,108,51,0.42784
3979620,-0.14500,51.1875,108,51,0.41416
3979630,-0.13500,53.0000,108,51,0.40830
3979640,-0.12500,56.1875,108,51,0.40317
3979650,-0.11000,65.8125,108,51,0.39096
3979660,-0.09500,71.5625,108,51,0.38462
3979670,-0.07500,77.3750,108,51,0.37827
3979680,-0.05500,83.1250,108,51,0.37192
3979690,-0.02500,88.5000,108,51,0.36581
3979700,-0.00500,97.6250,108,51,0.35409
3979710,0.02000,101.1875,108,51,0.34847
3979720,0.04000,103.9375,108,51,0.34286
3979730,0.05000,106.0000,108,51,0.33846
3979740,0.06000,108.1250,108,51,0.33040
3979750,0.06000,108.4375,108,51,0.32552
3979760,0.05500,108.3125,108,51,0.32063
3979770,0.05500,107.8750,108,51,0.31575
3979780,0.06000,106.1875,108,51,0.30549
3979790,0.07000,105.1250,108,51,0.30037
3979800,0.07000,103.9375,108,51,0.29548
3979810,0.07000,102.6250,108,51,0.29060
3979820,0.06500,99.9375,108,51,0.28132
3979830,0.05000,98.6250,108,51,0.27814
3979840,0.02500,97.2500,108,51,0.27546
3979850,-0.00500,95.9375,108,51,0.27204
3979860,-0.03000,93.3750,108,51,0.26496
3979870,-0.04500,92.1250,108,51,0.26276
3979880,-0.05500,90.8750,108,51,0.26227
3979890,-0.06500,89.6875,108,51,0.26447
3979900,-0.06500,86.9375,108,51,0.28010
3979910,-0.05500,85.3125,108,51,0.29426
3979920,-0.05500,83.4375,108,51,0.31258
3979930,-0.05500,81.3750,108,51,0.33162
3979940,-0.05500,77.0625,108,51,0.37778
3979950,-0.05500,75.1875,108,51,0.40635
3979960,-0.06000,73.5000,108,51,0.43663
3979970,-0.06000,72.1875,108,51,0.46740
3979980,-0.06500,70.1250,108,51,0.52845
3979990,-0.06500,69.3750,108,51,0.55751
3980000,-0.07000,68.8125,108,51,0.58510
3980010,-0.07500,68.3125,108,51,0.61074
3980020,-0.08000,67.5625,108,51,0.65617
3980030,-0.08500,67.2500,108,51,0.67302
3980040,-0.08500,67.0000,108,51,0.68645
3980050,-0.08500,66.6875,108,51,0.70012
3980060,-0.07500,66.0000,108,51,0.72381
3980070,-0.06500,65.6875,108,51,0.73309
3980080,-0.06500,65.3125,108,51,0.74066
3980090,-0.05500,64.9375,108,51,0.74676
3980100,-0.04500,64.2500,108,51,0.75433
3980110,-0.02500,63.8750,108,51,0.75604
3980120,-0.01500,63.5000,108,51,0.75653
3980130,-0.02000,63.1250,108,51,0.75507
3980140,-0.04500,62.3125,108,51,0.74872
3980150,-0.07500,61.8750,108,51,0.74457
3980160,-0.08500,61.5000,108,51,0.73944
3980170,-0.10500,61.0625,108,51,0.73309
3980180,-0.12500,60.1875,108,51,0.71770
3980190,-0.13500,59.8125,108,51,0.70867
3980200,-0.13500,59.4375,108,51,0.69890
3980210,-0.13500,59.0000,108,51,0.68816
3980220,-0.13500,58.3125,108,51,0.66545
3980230,-0.12500,57.9375,108,51,0.65470
3980240,-0.12000,57.6250,108,51,0.64420
3980250,-0.10500,57.3750,108,51,0.63321
3980260,-0.12000,56.8750,108,51,0.61099
3980270,-0.10500,56.6250,108,51,0.60024
3980280,0.20500,56.4375,108,51,0.58999
3980290,0.87000,56.1875,108,51,0.57998
3980300,1.24500,55.6875,108,51,0.56068
3980310,0.76000,55.5000,108,51,0.55140
3980320,-0.07000,55.1875,108,51,0.54237
3980330,-0.48000,54.9375,108,51,0.53455
3980340,-0.45000,54.3750,108,51,0.51917
3980350,-0.30000,54.0625,108,51,0.51111
3980360,-0.22500,53.6875,108,51,0.50281
3980370,-0.21000,53.3750,108,51,0.49451
3980380,-0.19000,52.6875,108,51,0.47814
3980390,-0.17000,52.3125,108,51,0.47033
3980400,-0.16000,51.9375,108,51,0.46252
3980410,-0.15000,51.5625,108,51,0.45470
3980420,-0.15000,50.9375,108,51,0.43932
3980430,-0.14000,50.6250,108,51,0.43297
3980440,-0.13000,50.3750,108,51,0.42735
3980450,-0.12000,50.2500,108,51,0.42100
3980460,-0.11000,51.2500,108,51,0.40781
3980470,-0.10500,53.1250,108,51,0.40122
3980480,-0.10000,56.3125,108,51,0.39463
3980490,-0.08500,60.8125,108,51,0.38803
3980500,-0.07000,71.9375,108,51,0.37460
3980510,-0.04500,77.8750,108,51,0.36801
3980520,-0.02000,83.6250,108,51,0.36166
3980530,0.00500,89.0000,108,51,0.35678
3980540,0.03000,95.7083,108,51,0.34953
3980550,0.05000,101.5000,108,51,0.34212
3980560,0.06000,104.1250,108,51,0.33675
3980570,0.07000,106.0000,108,51,0.33138
3980580,0.07500,107.8125,108,51,0.32088
3980590,0.08000,108.0000,108,51,0.31600
3980600,0.08000,107.8125,108,51,0.31111
3980610,0.08000,107.3125,108,51,0.30623
3980620,0.08000,105.6250,108,51,0.29646
3980630,0.08500,104.5000,108,51,0.29304
3980640,0.09000,103.2500,108,51,0.29011
3980650,0.10000,101.9375,108,51,0.28352
3980660,0.09000,99.1875,108,51,0.26838
3980670,0.07500,97.7500,108,51,0.26276
3980680,0.05000,96.3750,108,51,0.25763
3980690,0.02500,95.0000,108,51,0.25299
3980700,0.00000,92.3750,108,51,0.24591
3980710,-0.01500,91.0625,108,51,0.24396
3980720,-0.03500,89.7500,108,51,0.24420
3980730,-0.04000,88.4375,108,51,0.24689
3980740,-0.03500,85.5625,108,51,0.26154
3980750,-0.02500,83.8125,108,51,0.27448
3980760,-0.02500,81.8750,108,51,0.29158
3980770,-0.02000,79.7500,108,51,0.31282
3980780,-0.01500,75.5625,108,51,0.36532
3980790,-0.00500,73.8125,108,51,0.39487
3980800,-0.00500,72.3125,108,51,0.42540
3980810,-0.00500,71.0625,108,51,0.45641
3980820,-0.00500,69.1875,108,51,0.51355
3980830,-0.01500,68.5625,108,51,0.53700
3980840,-0.01500,68.0000,108,51,0.56215
3980850,-0.02000,67.5625,108,51,0.58706
3980860,-0.02500,67.0000,108,51,0.63272
3980870,-0.02500,66.7500,108,51,0.65250
3980880,-0.03500,66.5000,108,51,0.67009
3980890,-0.03500,66.1875,108,51,0.68547
3980900,-0.03000,65.5625,108,51,0.70965
3980910,-0.02000,65.2500,108,51,0.71868
3980920,-0.00500,64.8125,108,51,0.72576
3980930,0.00500,64.4375,108,51,0.72991
3980940,0.02000,63.6250,108,51,0.73358
3980950,0.03000,63.2500,108,51,0.73455
3980960,0.02500,62.8125,108,51,0.73480
3980970,0.00000,62.3750,108,51,0.73407
3980980,-0.02500,61.4375,108,51,0.72943
3980990,-0.04500,61.0625,108,51,0.72527
3981000,-0.07500,60.6250,107,51,0.72015
3981010,-0.09000,60.1875,107,51,0.71355
3981020,-0.09500,59.3750,107,51,0.69768
3981030,-0.09500,58.9375,107,51,0.68889
3981040,-0.09500,58.5625,107,51,0.67937
3981050,-0.09000,58.1875,107,51,0.66886
3981060,-0.08500,57.5000,107,51,0.64615
3981070,-0.07500,57.1875,107,51,0.63443
3981080,-0.06500,56.8750,107,51,0.62271
3981090,-0.07500,56.6875,107,51,0.61123
3981100,-0.01500,56.1875,107,51,0.58901
3981110,0.32000,56.0000,107,51,0.57827
3981120,0.93000,55.7500,107,51,0.56801
3981130,1.14000,55.5625,107,51,0.55873
3981140,0.54000,55.0000,107,51,0.54139
3981150,-0.16000,54.6875,107,51,0.53236
3981160,-0.44500,54.3750,107,51,0.52332
3981170,-0.39500,54.0625,107,51,0.51453
3981180,-0.26000,53.3125,107,51,0.49719
3981190,-0.19000,52.9375,107,51,0.48889
3981200,-0.17500,52.6250,107,51,0.48083
3981210,-0.16000,52.2500,107,51,0.47302
3981220,-0.15000,51.5625,107,51,0.45836
3981230,-0.13500,51.2500,107,51,0.45201
3981240,-0.13000,50.9375,107,51,0.44493
3981250,-0.12500,50.3125,107,51,0.43028
3981260,-0.11500,50.0625,107,51,0.42295
3981270,-0.10500,49.8125,107,51,0.41563
3981280,-0.10500,49.7500,107,51,0.40830
3981290,-0.09500,50.0000,107,51,0.40098
3981300,-0.08500,52.8125,107,51,0.38657
3981310,-0.07500,56.1250,107,51,0.37973
3981320,-0.06500,60.5625,107,51,0.37289
3981330,-0.05500,65.8125,107,51,0.36728
3981340,-0.05000,76.9375,107,51,0.35726
3981350,-0.03500,82.3750,107,51,0.35140
3981360,-0.01500,87.4375,107,51,0.34554
3981370,0.01500,92.0000,107,51,0.33968
3981380,0.04000,99.1250,107,51,0.32821
3981390,0.05500,101.5625,107,51,0.32259
3981400,0.06500,103.3125,107,51,0.31673
3981410,0.07000,104.4375,107,51,0.31111
3981420,0.08000,105.1250,107,51,0.30134
3981430,0.08500,104.8125,107,51,0.29792
3981440,0.09000,104.1875,107,51,0.29377
3981450,0.10000,103.3750,107,51,0.28913
3981460,0.11000,101.1250,107,51,0.27937
3981470,0.11500,99.8125,107,51,0.27448
3981480,0.11000,98.4375,107,51,0.26984
3981490,0.10000,97.0000,107,51,0.26520
3981500,0.07500,94.1875,107,51,0.25617
3981510,0.03500,92.7500,107,51,0.25177
3981520,0.00000,91.3750,107,51,0.24762
3981530,-0.02000,90.0625,107,51,0.24493
3981540,-0.04000,87.4375,107,51,0.24151
3981550,-0.05000,86.0625,107,51,0.24103
3981560,-0.05500,84.6875,107,51,0.24274
3981570,-0.04500,83.1250,107,51,0.24762
3981580,-0.03500,79.5000,107,51,0.26935
3981590,-0.03500,77.4375,107,51,0.28669
3981600,-0.03000,75.3125,107,51,0.30794
3981610,-0.02500,73.4375,107,51,0.33260
3981620,-0.02500,70.5000,107,51,0.38486
3981630,-0.02500,69.3750,107,51,0.40904
3981640,-0.02500,68.5000,107,51,0.43639
3981650,-0.03000,67.7500,107,51,0.46471
3981660,-0.03500,66.7500,107,51,0.51990
3981670,-0.03500,66.3750,107,51,0.54554
3981680,-0.04000,66.0625,107,51,0.56947
3981690,-0.04500,65.7500,107,51,0.59170
3981700,-0.05500,65.1875,107,51,0.62955
3981710,-0.05500,64.8750,107,51,0.64518
3981720,-0.06000,64.5625,107,51,0.65861
3981730,-0.06000,64.2500,107,51,0.66813
3981740,-0.04500,63.5625,107,51,0.68205
3981750,-0.02000,63.1875,107,51,0.68791
3981760,-0.01000,62.8125,107,51,0.69255
3981770,0.00000,62.4375,107,51,0.69597
3981780,0.00500,61.6250,107,51,0.69866
3981790,-0.01000,61.2500,107,51,0.69817
3981800,-0.03500,60.8750,107,51,0.69646
3981810,-0.05500,60.5000,107,51,0.69353
3981820,-0.07500,59.6875,107,51,0.68425
3981830,-0.10000,59.2500,107,51,0.67814
3981840,-0.11500,58.8750,107,51,0.67082
3981850,-0.12000,58.5000,107,51,0.66276
3981860,-0.12000,57.8125,107,51,0.64420
3981870,-0.11500,57.4375,107,51,0.63419
3981880,-0.10500,57.1250,107,51,0.62369
3981890,-0.09500,56.7500,107,51,0.61294
3981900,-0.09500,56.1875,107,51,0.59145
3981910,-0.09500,55.9375,107,51,0.58095
3981920,-0.10500,55.6875,107,51,0.57094
3981930,-0.01000,55.5000,107,51,0.56190
3981940,0.40000,55.0000,107,51,0.54457
3981950,0.99500,54.8125,107,51,0.53553
3981960,1.02000,54.5000,107,51,0.52674
3981970,0.38000,54.1875,107,51,0.51795
3981980,-0.21500,53.5625,107,51,0.50085
3981990,-0.44000,53.2500,107,51,0.49255
3982000,-0.37500,52.9375,107,51,0.48449
3982010,-0.25000,52.5625,107,51,0.47668
3982020,-0.20000,51.8750,107,51,0.46203
3982030,-0.18000,51.5625,107,51,0.45592
3982040,-0.16000,51.2500,107,51,0.44908
3982050,-0.15000,51.0000,107,51,0.44200
3982060,-0.14500,50.3750,107,51,0.42784
3982070,-0.13000,50.0625,107,51,0.42076
3982080,-0.12000,49.7500,107,51,0.41392
3982090,-0.10500,49.5000,107,51,0.40708
3982100,-0.10000,49.0625,107,51,0.39341
3982110,-0.09000,49.1250,107,51,0.38681
3982120,-0.09000,49.6250,107,51,0.38022
3982130,-0.08500,50.8750,107,51,0.37485
3982140,-0.08500,57.1875,107,51,0.36484
3982150,-0.07500,61.9375,107,51,0.35946
3982160,-0.06500,67.1875,107,51,0.35385
3982170,-0.04500,72.6250,107,51,0.34799
3982180,-0.02500,83.2500,107,51,0.33651
3982190,-0.01000,88.0625,107,51,0.33065
3982200,0.00500,92.3125,107,51,0.32503
3982210,0.02500,95.9375,107,51,0.31966
3982220,0.04000,101.0000,107,51,0.31062
3982230,0.05500,102.5000,107,51,0.30745
3982240,0.06000,103.4375,107,51,0.30330
3982250,0.07000,103.8125,107,51,0.29866
3982260,0.07000,103.2500,107,51,0.28913
3982270,0.07000,102.5000,107,51,0.28425
3982280,0.07500,101.5000,107,51,0.27961
3982290,0.08000,99.0625,107,51,0.27033
3982300,0.08500,97.6875,107,51,0.26593
3982310,0.08000,96.2500,107,51,0.26178
3982320,0.06500,94.7500,107,51,0.25739
3982330,0.04000,93.2500,107,51,0.25446
3982340,0.01000,90.4375,107,51,0.24884
3982350,-0.01000,89.0625,107,51,0.24518
3982360,-0.03500,87.7500,107,51,0.24176
3982370,-0.05500,86.5000,107,51,0.23907
3982380,-0.05500,83.8750,107,51,0.23834
3982390,-0.05000,82.4375,107,51,0.24176
3982400,-0.04500,80.8750,107,51,0.24884
3982410,-0.04500,79.0625,107,51,0.25983
3982420,-0.04500,74.9375,107,51,0.29109
3982430,-0.04500,72.8750,107,51,0.30965
3982440,-0.04500,71.1250,107,51,0.33260
3982450,-0.04000,69.6875,107,51,0.35873
3982460,-0.03500,67.6250,107,51,0.41661
3982470,-0.03500,66.8125,107,51,0.44640
3982480,-0.03500,66.2500,107,51,0.47546
3982490,-0.03500,65.7500,107,51,0.50354
3982500,-0.03500,65.0000,107,51,0.55531
3982510,-0.03000,64.6875,107,51,0.57827
3982520,-0.03500,64.4375,107,51,0.59902
3982530,-0.04500,64.1875,107,51,0.61538
3982540,-0.05500,63.6250,107,51,0.64176
3982550,-0.05000,63.3125,107,51,0.65421
3982560,-0.04000,63.0625,107,51,0.66496
3982570,-0.02500,62.6875,107,51,0.67399
3982580,-0.00500,62.0625,107,51,0.68694
3982590,0.00833,61.6458,107,51,0.69239
3982600,0.01000,61.3125,107,51,0.69402
3982610,-0.00500,60.9375,107,51,0.69548
3982620,-0.03000,60.1875,107,51,0.69426
3982630,-0.05500,59.8125,107,51,0.69133
3982640,-0.07500,59.4375,107,51,0.68791
3982650,-0.09500,59.0625,107,51,0.68376
3982660,-0.11500,58.3125,107,51,0.67155
3982670,-0.12500,57.9375,107,51,0.66374
3982680,-0.12000,57.5625,107,51,0.65519
3982690,-0.11500,57.1875,107,51,0.64591
3982700,-0.11500,56.5000,107,51,0.63443
3982710,-0.11500,56.1875,107,51,0.62637
3982720,-0.11000,55.9375,107,51,0.61758
3982730,-0.09500,55.6875,107,51,0.60855
3982740,-0.10500,55.2500,107,51,0.58877
3982750,-0.09500,55.0000,107,51,0.57875
3982760,0.15500,54.8125,107,51,0.56899
3982770,0.73000,54.6250,107,51,0.55946
3982780,1.10500,54.0625,107,51,0.54115
3982790,0.73500,53.8125,107,51,0.53236
3982800,0.01500,53.5000,107,51,0.52381
3982810,-0.39500,53.1250,107,51,0.51526
3982820,-0.44000,52.4375,107,51,0.49988
3982830,-0.32500,52.1250,107,51,0.49328
3982840,-0.24000,51.7500,107,51,0.48645
3982850,-0.21000,51.4375,107,51,0.47937
3982860,-0.20000,50.8125,107,51,0.46471
3982870,-0.18000,50.5000,107,51,0.45763
3982880,-0.17500,50.1875,107,51,0.45055
3982890,-0.17000,49.8750,107,51,0.44371
3982900,-0.16000,49.2500,107,51,0.43053
3982910,-0.14500,48.9375,107,51,0.42393
3982920,-0.13000,48.7500,107,51,0.41832
3982930,-0.12500,48.6250,107,51,0.41319
3982940,-0.12500,49.3125,107,51,0.40098
3982950,-0.12000,50.7500,107,51,0.39463
3982960,-0.11500,53.3750,107,51,0.38828
3982970,-0.10500,57.3125,107,51,0.38193
3982980,-0.09500,67.4375,107,51,0.36972
3982990,-0.07500,72.9375,107,51,0.36386
3983000,-0.04500,78.4375,107,51,0.35824
3983010,-0.01500,83.6875,107,51,0.35287
3983020,0.00000,92.8125,107,51,0.34335
3983030,0.02000,96.5000,107,51,0.33993
3983040,0.03500,99.4375,107,51,0.33553
3983050,0.04500,101.6250,107,51,0.33089
3983060,0.05000,104.1250,107,51,0.32112
3983070,0.06000,104.5625,107,51,0.31648
3983080,0.06500,104.5625,107,51,0.31184
3983090,0.06500,104.2500,107,51,0.30720
3983100,0.06500,102.6875,107,51,0.29792
3983110,0.07000,101.5625,107,51,0.29328
3983120,0.08000,100.3125,107,51,0.29011
3983130,0.08000,98.9375,107,51,0.28767
3983140,0.07500,96.1250,107,51,0.28034
3983150,0.06000,94.7500,107,51,0.27619
3983160,0.03000,93.3750,107,51,0.27179
3983170,0.00000,92.0000,107,51,0.26740
3983180,-0.02500,89.3750,107,51,0.25958
3983190,-0.04000,88.0625,107,51,0.25714
3983200,-0.05500,86.8125,107,51,0.25617
3983210,-0.06000,85.5000,107,51,0.25763
3983220,-0.05500,82.5625,107,51,0.26886
3983230,-0.05500,80.8125,107,51,0.27863
3983240,-0.05500,78.8750,107,51,0.29255
3983250,-0.04500,76.6875,107,51,0.31062
3983260,-0.03500,72.4375,107,51,0.35775
3983270,-0.03500,70.7500,107,51,0.38559
3983280,-0.03500,69.3750,107,51,0.41514
3983290,-0.03500,68.3125,107,51,0.44542
3983300,-0.03500,66.7500,107,51,0.50525
3983310,-0.04000,66.1875,107,51,0.53407
3983320,-0.04500,65.6875,107,51,0.55800
3983330,-0.05500,64.9375,107,51,0.57875
3983340,-0.05500,64.6250,107,51,0.62125
3983350,-0.05500,64.3750,107,51,0.64103
3983360,-0.05500,64.0625,107,51,0.65885
3983370,-0.05000,63.7500,107,51,0.67473
3983380,-0.03500,63.1250,107,51,0.70012
3983390,-0.01500,62.8125,107,51,0.70989
3983400,0.00000,62.5000,107,51,0.71795
3983410,0.01500,62.1250,107,51,0.72430
3983420,0.01000,61.4375,107,51,0.73089
3983430,0.00000,61.0000,107,51,0.73114
3983440,-0.03500,60.6250,107,51,0.73114
3983450,-0.06000,60.3125,107,51,0.73040
3983460,-0.08500,59.5625,107,51,0.72601
3983470,-0.10500,59.1875,107,51,0.72210
3983480,-0.12000,58.8125,107,51,0.71697
3983490,-0.11500,58.3750,107,51,0.71087
3983500,-0.11500,57.6875,107,51,0.69499
3983510,-0.11500,57.3125,107,51,0.68547
3983520,-0.11000,57.0000,107,51,0.67595
3983530,-0.10000,56.6250,107,51,0.66618
3983540,-0.09500,56.0625,107,51,0.64469
3983550,-0.08500,55.8125,107,51,0.63346
3983560,-0.09500,55.6250,107,51,0.62222
3983570,-0.02000,55.4375,107,51,0.61099
3983580,0.36000,55.0000,107,51,0.58926
3983590,0.98000,54.7500,107,51,0.57900
3983600,1.10500,54.4375,107,51,0.56923
3983610,0.49500,53.9375,107,51,0.55971
3983620,-0.15500,53.4375,107,51,0.54237
3983630,-0.41500,53.1250,107,51,0.53504
3983640,-0.37500,52.7500,107,51,0.52723
3983650,-0.26000,52.4375,107,51,0.51893
3983660,-0.21000,51.7500,107,51,0.50256
3983670,-0.19500,51.4375,107,51,0.49475
3983680,-0.18500,51.0625,107,51,0.48718
3983690,-0.17000,50.7500,107,51,0.47961
3983700,-0.15500,50.1250,107,51,0.46471
3983710,-0.15000,49.7500,107,51,0.45739
3983720,-0.14500,49.4375,107,51,0.45128
3983730,-0.13000,49.1875,107,51,0.44567
3983740,-0.12000,48.8750,107,51,0.43248
3983750,-0.11500,49.0625,107,51,0.42564
3983760,-0.10500,49.6250,107,51,0.41905
3983770,-0.10000,53.7500,107,51,0.41245
3983780,-0.09500,57.6875,107,51,0.39951
3983790,-0.08500,62.5625,107,51,0.39341
3983800,-0.07000,67.9375,107,51,0.38706
3983810,-0.05500,73.4375,107,51,0.38095
3983820,-0.03500,84.1875,107,51,0.37021
3983830,-0.00500,89.0000,107,51,0.36606
3983840,0.01000,93.3125,107,51,0.36093
3983850,0.02500,96.9375,107,51,0.35556
3983860,0.04000,102.1875,107,51,0.34432
3983870,0.05000,103.8125,107,51,0.33871
3983880,0.05000,104.8125,107,51,0.33333
3983890,0.05000,105.3125,107,51,0.32821
3983900,0.05000,105.0625,107,51,0.31844
3983910,0.05500,104.4375,107,51,0.31355
3983920,0.06000,103.5625,107,51,0.30989
3983930,0.07000,102.5000,107,51,0.30696
3983940,0.07500,100.0000,107,51,0.29866
3983950,0.08000,98.6875,107,51,0.29402
3983960,0.06500,97.2500,107,51,0.28913
3983970,0.04000,95.8750,107,51,0.28425
3983980,0.01000,93.1250,107,51,0.27497
3983990,-0.01500,91.8750,107,51,0.27082
3984000,-0.03500,90.5625,107,51,0.26691
3984010,-0.04500,89.3125,107,51,0.26398
3984020,-0.06000,86.8125,107,51,0.26398
3984030,-0.06500,85.4375,107,51,0.26789
3984040,-0.06500,83.9375,107,51,0.27448
3984050,-0.06500,80.2500,107,51,0.28474
3984060,-0.07000,78.1250,107,51,0.31746
3984070,-0.06500,75.8750,107,51,0.33993
3984080,-0.06500,73.7500,107,51,0.36557
3984090,-0.06000,71.9375,107,51,0.39365
3984100,-0.06500,69.2500,107,51,0.45397
3984110,-0.06500,68.3125,107,51,0.48425
3984120,-0.06500,67.4375,107,51,0.51013
3984130,-0.07000,66.8125,107,51,0.53333
3984140,-0.07500,65.8125,107,51,0.58291
3984150,-0.07500,65.4375,107,51,0.60659
3984160,-0.07500,65.0625,107,51,0.62882
3984170,-0.07500,64.6875,107,51,0.64908
3984180,-0.07000,64.0625,107,51,0.68352
3984190,-0.06000,63.7500,107,51,0.69768
3984200,-0.04000,63.4375,107,51,0.70965
3984210,-0.00500,63.0625,107,51,0.71941
3984220,0.03000,62.4375,107,51,0.73187
3984230,0.02000,62.1250,107,51,0.73455
3984240,-0.01500,61.7500,107,51,0.73724
3984250,-0.05000,61.4375,107,51,0.73919
3984260,-0.08500,60.6875,107,51,0.73968
3984270,-0.11500,60.3125,107,51,0.73822
3984280,-0.13500,59.9375,107,51,0.73553
3984290,-0.14500,59.5625,107,51,0.73187
3984300,-0.14500,58.8750,107,51,0.72088
3984310,-0.13500,58.5625,107,51,0.71355
3984320,-0.13500,58.1875,107,51,0.70549
3984330,-0.13000,57.8125,107,51,0.69695
3984340,-0.12000,57.1875,107,51,0.67692
3984350,-0.11500,56.9375,107,51,0.66618
3984360,-0.12000,56.6875,107,51,0.65519
3984370,-0.10500,56.4375,107,51,0.64420
3984380,0.12000,56.0000,107,51,0.62198
3984390,0.68000,55.7500,107,51,0.61099
3984400,1.11500,55.5000,107,51,0.60024
3984410,0.77000,55.1875,107,51,0.58974
3984420,0.04000,54.5625,107,51,0.57070
3984430,-0.37500,54.1875,107,51,0.56239
3984440,-0.43500,53.8125,107,51,0.55385
3984450,-0.32500,53.3750,107,51,0.54505
3984460,-0.23500,52.6250,107,51,0.52698
3984470,-0.21500,52.2500,107,51,0.51819
3984480,-0.20500,51.8750,107,51,0.50965
3984490,-0.19500,51.5000,107,51,0.50134
3984500,-0.18500,50.8125,107,51,0.48498
3984510,-0.17500,50.5000,107,51,0.47692
3984520,-0.16000,50.1250,107,51,0.47009
3984530,-0.15000,49.8125,107,51,0.46398
3984540,-0.13500,49.3125,107,51,0.45055
3984550,-0.13000,49.3750,107,51,0.44347
3984560,-0.12500,49.8125,107,51,0.43614
3984570,-0.12000,51.0625,107,51,0.42906
3984580,-0.11000,57.1875,107,51,0.41490
3984590,-0.10000,61.9375,107,51,0.40806
3984600,-0.08500,67.2500,107,51,0.40122
3984610,-0.06500,72.7500,107,51,0.39438
3984620,-0.04500,83.6875,107,51,0.38437
3984630,-0.02500,88.6875,107,51,0.37924
3984640,0.00000,93.1875,107,51,0.37363
3984650,0.02000,97.0000,107,51,0.36801
3984660,0.03500,102.5625,107,51,0.35702
3984670,0.05000,104.3125,107,51,0.35140
3984680,0.06000,105.3750,107,51,0.34579
3984690,0.06000,105.9375,107,51,0.34017
3984700,0.07000,105.7500,107,51,0.32943
3984710,0.07000,105.1875,107,51,0.32405
3984720,0.07000,104.3750,107,51,0.31990
3984730,0.07000,103.3125,107,51,0.31648
3984740,0.07500,100.8750,107,51,0.30696
3984750,0.07500,99.5625,107,51,0.30085
3984760,0.06500,98.1250,107,51,0.29524
3984770,0.04000,96.7500,107,51,0.29011
3984780,0.01000,93.9375,107,51,0.27985
3984790,-0.01500,92.6250,107,51,0.27497
3984800,-0.04000,91.3125,107,51,0.27082
3984810,-0.06000,90.0000,107,51,0.26764
3984820,-0.07000,87.3750,107,51,0.26740
3984830,-0.07500,86.0000,107,51,0.26984
3984840,-0.07500,84.5000,107,51,0.27546
3984850,-0.07000,82.8125,107,51,0.28474
3984860,-0.06500,78.7500,107,51,0.31526
3984870,-0.06500,76.4375,107,51,0.33675
3984880,-0.05500,74.1875,107,51,0.36166
3984890,-0.05500,72.1875,107,51,0.38926
3984900,-0.04500,69.3125,107,51,0.44957
3984910,-0.04500,68.2500,107,51,0.48083
3984920,-0.05000,67.4375,107,51,0.50769
3984930,-0.05500,66.8125,107,51,0.53187
3984940,-0.06000,65.8125,107,51,0.58364
3984950,-0.05500,65.3750,107,51,0.60806
3984960,-0.05000,65.0625,107,51,0.63077
3984970,-0.04000,64.7500,107,51,0.65177
3984980,-0.01000,64.1875,107,51,0.68742
3984990,0.03000,63.8750,107,51,0.70208
3985000,0.06000,63.5625,107,51,0.71453
3985010,0.04000,63.2500,107,51,0.72503
3985020,0.00000,62.5625,107,51,0.73626
3985030,-0.04500,62.2500,107,51,0.74042
3985040,-0.08000,61.8750,107,51,0.74383
3985050,-0.11500,61.5000,107,51,0.74628
3985060,-0.13000,60.8125,107,51,0.74774
3985070,-0.13500,60.4375,107,51,0.74701
3985080,-0.14500,60.0625,107,51,0.74505
3985090,-0.14500,59.6875,107,51,0.74188
3985100,-0.14500,58.9375,107,51,0.73138
3985110,-0.13500,58.6250,107,51,0.72405
3985120,-0.12500,58.3125,107,51,0.71575
3985130,-0.11500,58.0625,107,51,0.70672
3985140,-0.11500,57.5625,107,51,0.68547
3985150,-0.05500,57.3125,107,51,0.67375
3985160,0.26000,57.0625,107,51,0.66178
3985170,0.85500,56.8125,107,51,0.64957
3985180,1.09500,56.2500,107,51,0.62540
3985190,0.55500,55.8750,107,51,0.61368
3985200,-0.12500,55.5000,107,51,0.60220
3985210,-0.43000,55.1250,107,51,0.59121
3985220,-0.41500,54.3125,107,51,0.57241
3985230,-0.29500,53.8750,107,51,0.56313
3985240,-0.22500,53.5000,107,51,0.55360
3985250,-0.20500,53.0625,107,51,0.54432
3985260,-0.19000,52.3125,107,51,0.52625
3985270,-0.18000,51.9375,107,51,0.51746
3985280,-0.16500,51.5625,107,51,0.50891
3985290,-0.16000,51.1875,107,51,0.50061
3985300,-0.15500,50.5000,107,51,0.48425
3985310,-0.14500,50.2500,107,51,0.47619
3985320,-0.13000,50.0625,107,51,0.46911
3985330,-0.12000,50.0625,107,51,0.46276
3985340,-0.10500,51.5625,107,51,0.44860
3985350,-0.10000,53.8125,107,51,0.44151
3985360,-0.09500,57.3125,107,51,0.43443
3985370,-0.08500,61.8750,107,51,0.42735
3985380,-0.07000,72.6875,107,51,0.41368
3985390,-0.05500,78.3125,107,51,0.40684
3985400,-0.03500,83.6875,107,51,0.40024
3985410,-0.01500,88.7500,107,51,0.39365
3985420,0.01000,97.1875,107,51,0.38364
3985430,0.03000,100.3750,107,51,0.37827
3985440,0.05000,102.8125,107,51,0.37241
3985450,0.06000,104.5000,107,51,0.36654
3985460,0.06500,106.2500,107,51,0.35458
3985470,0.07000,106.3750,107,51,0.34872
3985480,0.06500,106.1250,107,51,0.34286
3985490,0.06500,105.5625,107,51,0.33724
3985500,0.06500,103.6250,107,51,0.32552
3985510,0.07000,102.4375,107,51,0.31990
3985520,0.07500,101.0625,107,51,0.31551
3985530,0.07000,99.6875,107,51,0.31184
3985540,0.06000,96.8125,107,51,0.30208
3985550,0.03000,95.4375,107,51,0.29646
3985560,0.00000,94.0625,107,51,0.29084
3985570,-0.02500,92.6875,107,51,0.28547
3985580,-0.04000,90.1250,107,51,0.27619
3985590,-0.06000,88.8750,107,51,0.27350
3985600,-0.06500,87.6875,107,51,0.27302
3985610,-0.06500,86.3750,107,51,0.27521
3985620,-0.05500,83.2500,107,51,0.28816
3985630,-0.05500,81.3750,107,51,0.30012
3985640,-0.05500,79.1875,107,51,0.31648
3985650,-0.05500,77.0000,107,51,0.33675
3985660,-0.05500,74.1042,107,51,0.37481
3985670,-0.06000,71.5000,107,51,0.41612
3985680,-0.05500,70.1875,107,51,0.44615
3985690,-0.05500,69.1250,107,51,0.47643
3985700,-0.06000,67.5625,107,51,0.53529
3985710,-0.06500,66.9375,107,51,0.56313
3985720,-0.06500,66.4375,107,51,0.58608
3985730,-0.06000,65.9375,107,51,0.60562
3985740,-0.05500,65.2500,107,51,0.64615
3985750,-0.03000,64.8750,107,51,0.66471
3985760,0.01000,64.5625,107,51,0.68132
3985770,0.04000,64.1875,107,51,0.69597
3985780,0.04000,63.5000,107,51,0.71893
3985790,0.00000,63.1250,107,51,0.72747
3985800,-0.03500,62.8125,107,51,0.73407
3985810,-0.07000,62.4375,107,51,0.73895
3985820,-0.10000,61.8125,107,51,0.74212
3985830,-0.12000,61.4375,107,51,0.74261
3985840,-0.13000,61.0625,107,51,0.74237
3985850,-0.13500,60.6875,107,51,0.74139
3985860,-0.13500,59.9375,107,51,0.73578
3985870,-0.14000,59.5625,107,51,0.73089
3985880,-0.14000,59.1875,107,51,0.72503
3985890,-0.14000,58.8750,107,51,0.71770
3985900,-0.13000,58.2500,107,51,0.70012
3985910,-0.13500,58.0000,107,51,0.69011
3985920,-0.11500,57.8125,107,51,0.68010
3985930,0.13000,57.5625,107,51,0.67009
3985940,0.71000,57.0625,107,51,0.64835
3985950,1.13500,56.7500,107,51,0.63712
3985960,0.79000,56.4375,107,51,0.62564
3985970,0.02500,56.0625,107,51,0.61416
3985980,-0.40500,55.3125,107,51,0.59170
3985990,-0.44500,54.9375,107,51,0.58071
3986000,-0.32000,54.5000,106,51,0.57021
3986010,-0.24000,54.1250,106,51,0.55971
3986020,-0.22000,53.3125,106,51,0.54237
3986030,-0.21000,52.8750,106,51,0.53358
3986040,-0.19500,52.5000,106,51,0.52479
3986050,-0.19000,52.1250,106,51,0.51600
3986060,-0.18000,51.4375,106,51,0.49866
3986070,-0.17500,51.0625,106,51,0.49035
3986080,-0.17000,50.7500,106,51,0.48230
3986090,-0.15500,50.5000,106,51,0.47424
3986100,-0.14000,50.5000,106,51,0.45836
3986110,-0.12500,51.1250,106,51,0.45055
3986120,-0.11000,52.8125,106,51,0.44396
3986130,-0.10500,55.7500,106,51,0.43810
3986140,-0.09500,65.1875,106,51,0.42466
3986150,-0.08500,70.8125,106,51,0.41783
3986160,-0.07000,76.6250,106,51,0.41099
3986170,-0.05500,82.3125,106,51,0.40415
3986180,-0.03000,92.6250,106,51,0.39072
3986190,-0.00500,96.8750,106,51,0.38413
3986200,0.02000,100.4375,106,51,0.37778
3986210,0.04000,103.1250,106,51,0.37167
3986220,0.05000,106.5625,106,51,0.36264
3986230,0.05500,107.3125,106,51,0.35775
3986240,0.05500,107.6250,106,51,0.35238
3986250,0.05500,107.4375,106,51,0.34676
3986260,0.05500,106.1875,106,51,0.33553
3986270,0.06000,105.1875,106,51,0.32991
3986280,0.07000,104.0000,106,51,0.32405
3986290,0.07000,102.6875,106,51,0.31844
3986300,0.07000,99.8750,106,51,0.30672
3986310,0.06000,98.3750,106,51,0.30232
3986320,0.04000,96.9375,106,51,0.29866
3986330,0.01000,95.4375,106,51,0.29426
3986340,-0.02500,92.6875,106,51,0.28400
3986350,-0.05000,91.3750,106,51,0.27937
3986360,-0.06500,90.0625,106,51,0.27570
3986370,-0.07000,88.8125,106,51,0.27375
3986380,-0.07500,86.0625,106,51,0.27766
3986390,-0.07000,84.4375,106,51,0.28498
3986400,-0.06500,82.6250,106,51,0.29646
3986410,-0.06000,80.6250,106,51,0.31233
3986420,-0.06500,76.3125,106,51,0.34896
3986430,-0.06500,74.3750,106,51,0.37289
3986440,-0.06500,72.6875,106,51,0.40000
3986450,-0.06500,71.3125,106,51,0.42906
3986460,-0.06500,69.2500,106,51,0.48938
3986470,-0.06500,68.5000,106,51,0.51941
3986480,-0.06500,67.8750,106,51,0.54847
3986490,-0.06500,67.3125,106,51,0.57631
3986500,-0.06500,66.5000,106,51,0.62613
3986510,-0.06500,66.1250,106,51,0.64493
3986520,-0.06000,65.8125,106,51,0.66056
3986530,-0.04500,65.5000,106,51,0.67643
3986540,-0.01000,64.8125,106,51,0.70452
3986550,0.03000,64.5000,106,51,0.71600
3986560,0.04000,64.1250,106,51,0.72576
3986570,0.01500,63.8125,106,51,0.73382
3986580,-0.02500,63.1250,106,51,0.74432
3986590,-0.06500,62.7500,106,51,0.74701
3986600,-0.10000,62.3750,106,51,0.74823
3986610,-0.13000,62.0000,106,51,0.74823
3986620,-0.14500,61.2500,106,51,0.74335
3986630,-0.15500,60.8750,106,51,0.73993
3986640,-0.15500,60.4375,106,51,0.73578
3986650,-0.15000,60.0625,106,51,0.73065
3986660,-0.14500,59.2500,106,51,0.71722
3986670,-0.14000,58.8750,106,51,0.70867
3986680,-0.13000,58.5625,106,51,0.69915
3986690,-0.12500,58.2500,106,51,0.68864
3986700,-0.13500,57.7500,106,51,0.66618
3986710,0.02000,57.5000,106,51,0.65519
3986720,0.52000,57.2500,106,51,0.64444
3986730,1.11000,57.0000,106,51,0.63321
3986740,1.02000,56.3750,106,51,0.61099
3986750,0.23500,56.0625,106,51,0.60024
3986760,-0.35500,55.7500,106,51,0.58999
3986770,-0.48000,55.3750,106,51,0.57973
3986780,-0.36500,54.6250,106,51,0.55995
3986790,-0.25000,54.1875,106,51,0.54872
3986800,-0.22000,53.8125,106,51,0.53675
3986810,-0.21000,53.4375,106,51,0.52625
3986820,-0.19000,52.6875,106,51,0.50965
3986830,-0.18000,52.3125,106,51,0.50110
3986840,-0.17500,52.0000,106,51,0.49231
3986850,-0.17500,51.6250,106,51,0.48376
3986860,-0.17000,51.0000,106,51,0.46691
3986870,-0.16000,50.7500,106,51,0.45861
3986880,-0.15500,50.6250,106,51,0.45031
3986890,-0.14500,50.8125,106,51,0.44225
3986900,-0.13500,53.6875,106,51,0.42637
3986910,-0.12500,57.1250,106,51,0.41978
3986920,-0.11000,61.8125,106,51,0.41416
3986930,-0.09000,67.3750,106,51,0.40757
3986940,-0.06500,79.2500,106,51,0.39414
3986950,-0.04500,85.0625,106,51,0.38730
3986960,-0.02000,90.5000,106,51,0.38071
3986970,0.00000,95.3750,106,51,0.37411
3986980,0.01500,102.8125,106,51,0.36117
3986990,0.03000,105.3750,106,51,0.35482
3987000,0.04500,107.1875,106,50,0.34823
3987010,0.05500,108.3125,106,50,0.34188
3987020,0.06000,108.9375,106,50,0.33236
3987030,0.06000,108.5625,106,50,0.32698
3987040,0.06000,107.8750,106,50,0.32112
3987050,0.06000,105.8750,106,50,0.31526
3987060,0.06000,104.6250,106,50,0.30379
3987070,0.07000,103.2500,106,50,0.29817
3987080,0.07500,101.8125,106,50,0.29280
3987090,0.07000,100.3750,106,50,0.28742
3987100,0.05000,97.5625,106,50,0.27717
3987110,0.02500,96.1875,106,50,0.27350
3987120,0.00000,94.8125,106,50,0.27057
3987130,-0.02500,93.5000,106,50,0.26642
3987140,-0.05000,90.9375,106,50,0.25885
3987150,-0.06500,89.6250,106,50,0.25690
3987160,-0.06500,88.1875,106,50,0.25763
3987170,-0.06500,86.7500,106,50,0.26154
3987180,-0.06000,83.2500,106,50,0.28278
3987190,-0.06000,81.1250,106,50,0.30012
3987200,-0.05500,78.9375,106,50,0.32186
3987210,-0.05500,76.7500,106,50,0.34750
3987220,-0.05000,73.1875,106,50,0.39731
3987230,-0.05500,71.8125,106,50,0.42637
3987240,-0.05500,70.6875,106,50,0.45739
3987250,-0.05500,69.7500,106,50,0.48889
3987260,-0.06500,68.4375,106,50,0.55043
3987270,-0.08000,67.9375,106,50,0.57924
3987280,-0.08000,67.5625,106,50,0.60635
3987290,-0.07500,66.9375,106,50,0.63101
3987300,-0.06500,66.6875,106,50,0.67375
3987310,-0.06500,66.3750,106,50,0.68889
3987320,-0.05500,66.0625,106,50,0.70061
3987330,-0.03500,65.6875,106,50,0.71233
3987340,0.00500,64.8125,106,50,0.73211
3987350,0.03000,64.4375,106,50,0.73944
3987360,0.02000,64.0000,106,50,0.74505
3987370,-0.01500,63.6250,106,50,0.74896
3987380,-0.05500,62.8750,106,50,0.75287
3987390,-0.08500,62.4375,106,50,0.75287
3987400,-0.11500,62.0000,106,50,0.75165
3987410,-0.13000,61.5625,106,50,0.74945
3987420,-0.13000,60.7500,106,50,0.74066
3987430,-0.13000,60.3125,106,50,0.73504
3987440,-0.13000,59.8750,106,50,0.72821
3987450,-0.13500,59.5000,106,50,0.72015
3987460,-0.14000,58.7500,106,50,0.70110
3987470,-0.14000,58.4375,106,50,0.69035
3987480,-0.13500,58.1250,106,50,0.67888
3987490,-0.15000,57.8750,106,50,0.66716
3987500,-0.09500,57.3125,106,50,0.64274
3987510,0.27000,57.1250,106,50,0.63150
3987520,0.93500,56.8750,106,50,0.62100
3987530,1.16000,56.6250,106,50,0.61001
3987540,0.39000,56.0625,106,50,0.58803
3987550,-0.19000,55.8125,106,50,0.57729
3987560,-0.49500,55.5000,106,50,0.56679
3987570,-0.42000,55.1250,106,50,0.55629
3987580,-0.27500,54.5000,106,50,0.53602
3987590,-0.22000,54.1250,106,50,0.52650
3987600,-0.21000,53.7500,106,50,0.51697
3987610,-0.20000,53.4375,106,50,0.50769
3987620,-0.18000,52.6250,106,50,0.49231
3987630,-0.17000,52.2500,106,50,0.48449
3987640,-0.16000,51.9375,106,50,0.47643
3987650,-0.15500,51.6250,106,50,0.46813
3987660,-0.14500,51.0625,106,50,0.45226
3987670,-0.14500,50.8750,106,50,0.44444
3987680,-0.13500,50.9375,106,50,0.43663
3987690,-0.13000,51.6250,106,50,0.42882
3987700,-0.11500,56.5000,106,50,0.41319
3987710,-0.10000,61.2396,106,50,0.40566
3987720,-0.08500,66.3125,106,50,0.40122
3987730,-0.07000,72.1875,106,50,0.39487
3987740,-0.05500,84.0000,106,50,0.38120
3987750,-0.03500,89.5000,106,50,0.37411
3987760,-0.01000,94.5000,106,50,0.36703
3987770,0.01000,98.7500,106,50,0.36020
3987780,0.03000,104.8750,106,50,0.34676
3987790,0.04000,106.8125,106,50,0.34042
3987800,0.05000,108.0625,106,50,0.33407
3987810,0.06000,108.6875,106,50,0.32796
3987820,0.06000,108.5000,106,50,0.31893
3987830,0.06500,107.8125,106,50,0.31404
3987840,0.07000,106.8750,106,50,0.30867
3987850,0.07000,105.7500,106,50,0.30330
3987860,0.08000,103.1250,106,50,0.29206
3987870,0.08500,101.7500,106,50,0.28645
3987880,0.09000,100.3125,106,50,0.28107
3987890,0.08000,98.8750,106,50,0.27570
3987900,0.06000,96.0625,106,50,0.26520
3987910,0.03500,94.6875,106,50,0.26154
3987920,0.01000,93.3125,106,50,0.25861
3987930,-0.01500,92.0000,106,50,0.25519
3987940,-0.03000,89.4375,106,50,0.25006
3987950,-0.03500,88.0625,106,50,0.25031
3987960,-0.03500,86.5625,106,50,0.25372
3987970,-0.03500,84.8750,106,50,0.26081
3987980,-0.02500,80.7500,106,50,0.28889
3987990,-0.03000,78.5000,106,50,0.30989
3988000,-0.03500,76.3125,106,50,0.33480
3988010,-0.04000,74.3125,106,50,0.36288
3988020,-0.04500,71.2500,106,50,0.41538
3988030,-0.04500,70.1875,106,50,0.44493
3988040,-0.04000,69.2500,106,50,0.47570
3988050,-0.04000,68.5625,106,50,0.50647
3988060,-0.04500,67.4375,106,50,0.56508
3988070,-0.05000,67.0000,106,50,0.59194
3988080,-0.05000,66.6875,106,50,0.61709
3988090,-0.05000,66.3750,106,50,0.64029
3988100,-0.04500,65.8125,106,50,0.67937
3988110,-0.03500,65.5000,106,50,0.69304
3988120,-0.01000,65.1875,106,50,0.70330
3988130,0.03000,64.8125,106,50,0.71355
3988140,0.06000,64.1875,106,50,0.73040
3988150,0.06000,63.7500,106,50,0.73626
3988160,0.02500,63.3750,106,50,0.74042
3988170,-0.01500,63.0000,106,50,0.74335
3988180,-0.04500,62.1250,106,50,0.74432
3988190,-0.08000,61.6875,106,50,0.74286
3988200,-0.10000,61.2500,106,50,0.73993
3988210,-0.11000,60.8125,106,50,0.73578
3988220,-0.11000,59.9375,106,50,0.72479
3988230,-0.11500,59.5000,106,50,0.71770
3988240,-0.11500,59.1250,106,50,0.70965
3988250,-0.12000,58.6875,106,50,0.70061
3988260,-0.11500,58.0000,106,50,0.67985
3988270,-0.11000,57.6875,106,50,0.66813
3988280,-0.11500,57.4375,106,50,0.65592
3988290,-0.07500,57.1250,106,50,0.64347
3988300,0.22500,56.5625,106,50,0.61880
3988310,0.84500,56.3750,106,50,0.60757
3988320,1.15500,56.1250,106,50,0.59707
3988330,0.60500,55.8125,106,50,0.58632
3988340,-0.15000,55.1875,106,50,0.56484
3988350,-0.47000,54.8125,106,50,0.55433
3988360,-0.44000,54.5000,106,50,0.54383
3988370,-0.30000,54.0625,106,50,0.53382
3988380,-0.22000,53.2500,106,50,0.51429
3988390,-0.21000,52.8750,106,50,0.50476
3988400,-0.19500,52.5000,106,50,0.49548
3988410,-0.17500,52.0625,106,50,0.48767
3988420,-0.16000,51.3750,106,50,0.47277
3988430,-0.15000,51.0000,106,50,0.46471
3988440,-0.14000,50.6250,106,50,0.45641
3988450,-0.12500,50.3125,106,50,0.44811
3988460,-0.10500,49.9375,106,50,0.43150
3988470,-0.09500,50.0625,106,50,0.42295
3988480,-0.08500,50.6250,106,50,0.41441
3988490,-0.08000,52.1875,106,50,0.40610
3988500,-0.07500,59.1250,106,50,0.39023
3988510,-0.06000,64.1875,106,50,0.38413
3988520,-0.04500,69.8125,106,50,0.37875
3988530,-0.02500,75.6250,106,50,0.37241
3988540,-0.01000,86.7500,106,50,0.35922
3988550,0.00000,91.6875,106,50,0.35263
3988560,0.02000,95.9375,106,50,0.34603
3988570,0.04500,99.4375,106,50,0.33968
3988580,0.06500,104.1250,106,50,0.32723
3988590,0.07500,105.4375,106,50,0.32088
3988600,0.08000,106.0625,106,50,0.31477
3988610,0.08500,106.2500,106,50,0.31038
3988620,0.09000,105.3125,106,50,0.30159
3988630,0.10000,104.3750,106,50,0.29597
3988640,0.10000,103.3125,106,50,0.29035
3988650,0.11000,102.0625,106,50,0.28474
3988660,0.12000,99.1875,106,50,0.27375
3988670,0.12000,97.6875,106,50,0.26838
3988680,0.10000,96.1875,106,50,0.26325
3988690,0.08000,94.6875,106,50,0.25788
3988700,0.05000,91.8125,106,50,0.24713
3988710,0.02000,90.4375,106,50,0.24347
3988720,-0.00500,89.0625,106,50,0.24103
3988730,-0.02500,87.7500,106,50,0.23810
3988740,-0.03500,85.0000,106,50,0.23565
3988750,-0.03500,83.3750,106,50,0.23810
3988760,-0.03500,81.5625,106,50,0.24396
3988770,-0.03500,79.5625,106,50,0.25397
3988780,-0.03500,75.1875,106,50,0.28767
3988790,-0.03500,73.1875,106,50,0.31062
3988800,-0.03000,71.5000,106,50,0.33700
3988810,-0.02500,70.1250,106,50,0.36239
3988820,-0.03000,68.0625,106,50,0.41636
3988830,-0.03500,67.3750,106,50,0.44664
3988840,-0.05500,66.7500,106,50,0.47839
3988850,-0.06500,66.2500,106,50,0.50989
3988860,-0.07500,65.5625,106,50,0.56532
3988870,-0.08500,65.3125,106,50,0.58950
3988880,-0.08500,65.0625,106,50,0.61148
3988890,-0.07500,64.8125,106,50,0.63101
3988900,-0.05000,64.2500,106,50,0.66349
3988910,-0.00500,63.9375,106,50,0.67424
3988920,0.01000,63.5625,106,50,0.68230
3988930,-0.01500,63.1875,106,50,0.69011
3988940,-0.06500,62.4375,106,50,0.70256
3988950,-0.10000,62.0000,106,50,0.70672
3988960,-0.13000,61.6250,106,50,0.70965
3988970,-0.15500,61.2500,106,50,0.71136
3988980,-0.17000,60.4375,106,50,0.71062
3988990,-0.16500,60.0625,106,50,0.70818
3989000,-0.15500,59.6250,106,50,0.70452
3989010,-0.15500,58.8125,106,50,0.69377
3989020,-0.17000,58.4375,106,50,0.68694
3989030,-0.15500,58.0625,106,50,0.67912
3989040,-0.09500,57.7500,106,50,0.67033
3989050,-0.03000,57.4375,106,50,0.66056
3989060,0.00500,56.9375,106,50,0.63907
3989070,0.06000,56.6875,106,50,0.62784
3989080,0.36500,56.4375,106,50,0.61636
3989090,0.94000,56.1875,106,50,0.60513
3989100,1.11000,55.5625,106,50,0.58364
3989110,0.57500,55.2500,106,50,0.57436
3989120,-0.08500,54.9375,106,50,0.56581
3989130,-0.38500,54.5625,106,50,0.55678
3989140,-0.35500,53.8125,106,50,0.53871
3989150,-0.23000,53.3750,106,50,0.52991
3989160,-0.17000,52.9375,106,50,0.52137
3989170,-0.17000,52.5625,106,50,0.51282
3989180,-0.16000,51.8125,106,50,0.49621
3989190,-0.14500,51.4375,106,50,0.48791
3989200,-0.13000,51.1250,106,50,0.47985
3989210,-0.12000,50.8125,106,50,0.47302
3989220,-0.11500,50.1250,106,50,0.45983
3989230,-0.09500,49.8750,106,50,0.45299
3989240,-0.07500,49.7500,106,50,0.44591
3989250,-0.06000,49.6875,106,50,0.43858
3989260,-0.04500,51.0625,106,50,0.42442
3989270,-0.02500,53.1875,106,50,0.41758
3989280,-0.01000,56.6250,106,50,0.41074
3989290,0.00500,61.1875,106,50,0.40391
3989300,0.02500,71.8125,106,50,0.39048
3989310,0.05000,77.3125,106,50,0.38535
3989320,0.06500,82.6250,106,50,0.38071
3989330,0.08000,87.5000,106,50,0.37558
3989340,0.09500,95.5625,106,50,0.36386
3989350,0.10000,98.5000,106,50,0.35800
3989360,0.10500,100.6875,106,50,0.35214
3989370,0.11000,102.1875,106,50,0.34628
3989380,0.11500,103.4375,106,50,0.33480
3989390,0.11000,103.3125,106,50,0.32918
3989400,0.11500,102.8125,106,50,0.32357
3989410,0.12000,101.9375,106,50,0.31941
3989420,0.12500,99.6250,106,50,0.31160
3989430,0.13000,98.2500,106,50,0.30672
3989440,0.12500,96.7500,106,50,0.30159
3989450,0.12000,95.1875,106,50,0.29646
3989460,0.09000,92.0625,106,50,0.28596
3989470,0.06000,90.5625,106,50,0.28107
3989480,0.03000,89.1250,106,50,0.27619
3989490,0.00000,87.6875,106,50,0.27131
3989500,-0.01500,84.9375,106,50,0.26252
3989510,-0.02500,83.5625,106,50,0.26056
3989520,-0.04500,82.0625,106,50,0.26056
3989530,-0.05500,80.4375,106,50,0.26178
3989540,-0.06000,76.5625,106,50,0.27228
3989550,-0.05500,74.4375,106,50,0.28327
3989560,-0.05000,72.3750,106,50,0.29817
3989570,-0.04500,70.5625,106,50,0.31697
3989580,-0.04000,67.8750,106,50,0.36459
3989590,-0.04500,66.9375,106,50,0.39194
3989600,-0.06500,66.1875,106,50,0.42051
3989610,-0.07500,65.5625,106,50,0.44591
3989620,-0.07500,64.6875,106,50,0.49499
3989630,-0.07500,64.3750,106,50,0.52088
3989640,-0.06000,64.1875,106,50,0.54603
3989650,-0.05500,63.9375,106,50,0.56947
3989660,-0.04000,63.5000,106,50,0.61050
3989670,-0.00500,63.2500,106,50,0.62784
3989680,0.02500,62.9375,106,50,0.64298
3989690,0.03000,62.6250,106,50,0.65617
3989700,0.01000,61.9375,106,50,0.67643
3989710,-0.03000,61.5625,106,50,0.68230
3989720,-0.06500,61.2500,106,50,0.68620
3989730,-0.08500,60.8750,106,50,0.68962
3989740,-0.11000,60.1875,106,50,0.69304
3989750,-0.12000,59.8125,106,50,0.69304
3989760,-0.12917,59.4792,106,50,0.69247
3989770,-0.13500,59.0000,106,50,0.68889
3989780,-0.13500,58.1875,106,50,0.67985
3989790,-0.13500,57.8750,106,50,0.67375
3989800,-0.13000,57.5000,106,50,0.66642
3989810,-0.12500,57.1875,106,50,0.65836
3989820,-0.12500,56.7500,106,50,0.64078
3989830,-0.13000,56.5000,106,50,0.63077
3989840,-0.05500,56.2500,106,50,0.62027
3989850,0.29500,56.0000,106,50,0.60952
3989860,0.88500,55.5000,106,50,0.58803
3989870,1.03000,55.1875,106,50,0.57753
3989880,0.42000,54.8750,106,50,0.56752
3989890,-0.21000,54.5000,106,50,0.55751
3989900,-0.46000,53.7500,106,50,0.53822
3989910,-0.42500,53.3125,106,50,0.52991
3989920,-0.30500,52.9375,106,50,0.52234
3989930,-0.24000,52.5000,106,50,0.51429
3989940,-0.22000,51.6875,106,50,0.49792
3989950,-0.20500,51.3125,106,50,0.49011
3989960,-0.19500,51.0000,106,50,0.48254
3989970,-0.19000,50.6250,106,50,0.47521
3989980,-0.19000,49.9375,106,50,0.46105
3989990,-0.17500,49.6250,106,50,0.45397
3990000,-0.15500,49.3750,106,50,0.44689
3990010,-0.13000,49.1875,106,50,0.44103
3990020,-0.11500,49.5000,106,50,0.42930
3990030,-0.11500,50.6250,106,50,0.42271
3990040,-0.11000,52.8125,106,50,0.41612
3990050,-0.10500,56.3750,106,50,0.40952
3990060,-0.10000,66.2500,106,50,0.39634
3990070,-0.08500,71.8125,106,50,0.38999
3990080,-0.06500,77.3125,106,50,0.38388
3990090,-0.04500,82.6875,106,50,0.37778
3990100,-0.01500,92.0000,106,50,0.36728
3990110,0.02000,95.7500,106,50,0.36337
3990120,0.04000,98.7500,106,50,0.35849
3990130,0.06000,102.5625,106,50,0.35336
3990140,0.05500,103.5000,106,50,0.34261
3990150,0.05000,103.8750,106,50,0.33724
3990160,0.04500,103.8125,106,50,0.33187
3990170,0.05000,103.3750,106,50,0.32674
3990180,0.05500,101.6875,106,50,0.31600
3990190,0.06500,100.5000,106,50,0.31062
3990200,0.07500,99.1875,106,50,0.30549
3990210,0.08000,97.7500,106,50,0.30183
3990220,0.07000,94.6875,106,50,0.29499
3990230,0.05000,93.1875,106,50,0.29060
3990240,0.02000,91.6875,106,50,0.28596
3990250,-0.01000,90.2500,106,50,0.28107
3990260,-0.03500,87.4375,106,50,0.27179
3990270,-0.05500,86.0625,106,50,0.26789
3990280,-0.06500,84.7500,106,50,0.26496
3990290,-0.06500,83.3125,106,50,0.26374
3990300,-0.06000,79.9375,106,50,0.26911
3990310,-0.05000,77.9375,106,50,0.27619
3990320,-0.04500,75.6875,106,50,0.28694
3990330,-0.04500,73.4375,106,50,0.30183
3990340,-0.04500,69.5000,106,50,0.34335
3990350,-0.04500,68.0000,106,50,0.36899
3990360,-0.04500,66.9375,106,50,0.39683
3990370,-0.04500,66.0625,106,50,0.42613
3990380,-0.04500,64.8750,106,50,0.48547
3990390,-0.04500,64.4375,106,50,0.51404
3990400,-0.04500,64.0625,106,50,0.54115
3990410,-0.04500,63.8125,106,50,0.56361
3990420,-0.03500,63.3750,106,50,0.60269
3990430,-0.02500,63.1250,106,50,0.62222
3990440,-0.00500,62.8750,106,50,0.64005
3990450,0.03000,62.6250,106,50,0.65617
3990460,0.05000,62.0000,106,50,0.68205
3990470,0.04500,61.6875,106,50,0.69182
3990480,0.01000,61.3750,106,50,0.69939
3990490,-0.02500,61.0625,106,50,0.70525
3990500,-0.06000,60.4375,106,50,0.71160
3990510,-0.08500,60.0625,106,50,0.71184
3990520,-0.10500,59.6875,106,50,0.71160
3990530,-0.11000,59.3125,106,50,0.71062
3990540,-0.11500,58.5625,106,50,0.70549
3990550,-0.11500,58.2500,106,50,0.70110
3990560,-0.12000,57.8750,106,50,0.69548
3990570,-0.12000,57.5625,106,50,0.68864
3990580,-0.12000,56.9375,106,50,0.67155
3990590,-0.11500,56.6875,106,50,0.66154
3990600,-0.12500,56.4375,106,50,0.65055
3990610,-0.09000,56.1875,106,50,0.64005
3990620,0.20500,55.7500,106,50,0.61880
3990630,0.78500,55.5000,106,50,0.60757
3990640,1.06000,55.1875,106,50,0.59634
3990650,0.61000,54.8125,106,50,0.58510
3990660,-0.06500,54.1875,106,50,0.56386
3990670,-0.39500,53.8125,106,50,0.55385
3990680,-0.36500,53.3750,106,50,0.54408
3990690,-0.27000,53.0000,106,50,0.53480
3990700,-0.20000,52.1250,106,50,0.51844
3990710,-0.18000,51.7500,106,50,0.51136
3990720,-0.17000,51.3750,106,50,0.50379
3990730,-0.15000,51.0625,106,50,0.49597
3990740,-0.13500,50.3750,106,50,0.48010
3990750,-0.14500,50.0000,106,50,0.47228
3990760,-0.14500,49.6875,106,50,0.46471
3990770,-0.13500,49.3750,106,50,0.45714
3990780,-0.12000,49.0938,106,50,0.44636
3990790,-0.11000,49.1875,106,50,0.43590
3990800,-0.10000,50.0000,106,50,0.42930
3990810,-0.09000,51.7500,106,50,0.42393
3990820,-0.08500,59.2500,106,50,0.41319
3990830,-0.08000,64.4375,106,50,0.40708
3990840,-0.07000,69.9375,106,50,0.40073
3990850,-0.05500,75.5625,106,50,0.39438
3990860,-0.04000,86.1875,106,50,0.38169
3990870,-0.02000,90.8750,106,50,0.37558
3990880,0.00000,95.0000,106,50,0.36972
3990890,0.02000,98.3750,106,50,0.36435
3990900,0.03000,102.9375,106,50,0.35531
3990910,0.04000,104.1875,106,50,0.35189
3990920,0.04500,104.8750,106,50,0.34725
3990930,0.05000,105.0000,106,50,0.34188
3990940,0.05500,104.1250,106,50,0.33040
3990950,0.06000,103.1875,106,50,0.32454
3990960,0.07000,102.0625,106,50,0.31844
3990970,0.07500,100.8125,106,50,0.31258
3990980,0.08000,97.9375,106,50,0.30134
3990990,0.08000,96.4375,106,50,0.29597
3991000,0.06000,95.0000,106,50,0.29060
3991010,0.03500,93.5000,106,50,0.28669
3991020,0.00000,90.7500,106,50,0.27888
3991030,-0.02500,89.4375,106,50,0.27399
3991040,-0.04500,88.1250,106,50,0.26911
3991050,-0.06000,86.8125,106,50,0.26520
3991060,-0.07000,84.1250,106,50,0.26300
3991070,-0.06500,82.5625,106,50,0.26618
3991080,-0.06000,80.8125,106,50,0.27326
3991090,-0.06000,78.7500,106,50,0.28474
3991100,-0.05500,74.5000,106,50,0.31868
3991110,-0.05500,72.5625,106,50,0.33871
3991120,-0.05000,70.9375,106,50,0.36410
3991130,-0.04500,69.5625,106,50,0.39292
3991140,-0.05000,67.5000,106,50,0.45690
3991150,-0.05500,66.7500,106,50,0.48987
3991160,-0.06000,66.1250,106,50,0.52234
3991170,-0.06000,65.6250,106,50,0.55385
3991180,-0.06500,64.7500,106,50,0.61123
3991190,-0.05500,64.4375,106,50,0.63663
3991200,-0.05000,64.1250,106,50,0.65958
3991210,-0.03500,63.8125,106,50,0.67741
3991220,0.00000,63.1875,106,50,0.70598
3991230,0.03500,62.8750,106,50,0.71941
3991240,0.03000,62.5625,106,50,0.73114
3991250,-0.00500,62.1875,106,50,0.74115
3991260,-0.05000,61.5000,106,50,0.75604
3991270,-0.08500,61.1875,106,50,0.76068
3991280,-0.11500,60.8125,106,50,0.76337
3991290,-0.13000,60.5000,106,50,0.76459
3991300,-0.13500,59.7500,106,50,0.76239
3991310,-0.13500,59.3750,106,50,0.75897
3991320,-0.13500,59.0000,106,50,0.75507
3991330,-0.13000,58.6250,106,50,0.74994
3991340,-0.12500,57.8750,106,50,0.73651
3991350,-0.11500,57.5625,106,50,0.72796
3991360,-0.11000,57.3125,106,50,0.71819
3991370,-0.11000,57.0625,106,50,0.70745
3991380,-0.11000,56.5000,106,50,0.68376
3991390,0.05000,56.3125,106,50,0.67155
3991400,0.54500,56.0625,106,50,0.65910
3991410,1.06500,55.7500,106,50,0.64762
3991420,0.89000,55.0625,106,50,0.62589
3991430,0.18500,54.6875,106,50,0.61465
3991440,-0.30500,54.3125,106,50,0.60317
3991450,-0.44000,53.9375,106,50,0.59194
3991460,-0.34500,53.0625,106,50,0.57070
3991470,-0.24000,52.6250,106,50,0.56020
3991480,-0.21000,52.2500,106,50,0.55018
3991490,-0.20000,51.8750,106,50,0.54042
3991500,-0.18500,51.1250,106,50,0.52259
3991510,-0.17500,50.7500,106,50,0.51502
3991520,-0.17000,50.4375,106,50,0.50672
3991530,-0.16500,50.0625,106,50,0.49817
3991540,-0.15500,49.4375,106,50,0.48107
3991550,-0.14500,49.2500,106,50,0.47302
3991560,-0.13500,49.2500,106,50,0.46496
3991570,-0.12500,49.6250,106,50,0.45714
3991580,-0.12500,53.0625,106,50,0.44176
3991590,-0.11500,56.6875,106,50,0.43394
3991600,-0.10500,61.4375,106,50,0.42637
3991610,-0.09000,66.8750,106,50,0.42027
3991620,-0.07500,78.3125,106,50,0.40904
3991630,-0.05500,83.8125,106,50,0.40244
3991640,-0.03000,88.8750,106,50,0.39560
3991650,-0.01000,93.3750,106,50,0.38877
3991660,0.00000,100.3125,106,50,0.37534
3991670,0.02000,102.6250,106,50,0.36899
3991680,0.04000,104.3125,106,50,0.36264
3991690,0.05000,105.3750,106,50,0.35653
3991700,0.06000,105.8750,106,50,0.34554
3991710,0.06000,105.5000,106,50,0.34139
3991720,0.06000,104.7500,106,50,0.33651
3991730,0.06000,103.8125,106,50,0.33114
3991740,0.06500,101.3750,106,50,0.31941
3991750,0.07000,100.0000,106,50,0.31355
3991760,0.07000,98.5625,106,50,0.30769
3991770,0.06000,97.0625,106,50,0.30159
3991780,0.03500,94.1250,106,50,0.28938
3991790,0.01000,92.6875,106,50,0.28352
3991800,-0.01500,91.3125,106,50,0.27937
3991810,-0.04000,89.2813,106,50,0.27395
3991820,-0.06000,87.2500,106,50,0.26935
3991830,-0.07000,85.8750,106,50,0.26764
3991840,-0.07500,84.4375,106,50,0.26838
3991850,-0.06500,82.8125,106,50,0.27228
3991860,-0.06000,78.8125,106,50,0.29255
3991870,-0.05500,76.5625,106,50,0.30940
3991880,-0.06000,74.3750,106,50,0.33089
3991890,-0.06000,72.4375,106,50,0.35653
3991900,-0.05500,69.4375,106,50,0.41197
3991910,-0.05500,68.3750,106,50,0.43834
3991920,-0.05500,67.4375,106,50,0.46862
3991930,-0.05500,66.7500,106,50,0.50037
3991940,-0.06500,65.6250,106,50,0.56288
3991950,-0.06500,65.1875,106,50,0.59219
3991960,-0.06500,64.8750,106,50,0.61954
3991970,-0.06000,64.5000,106,50,0.64493
3991980,-0.04500,63.8750,106,50,0.68889
3991990,-0.01500,63.5625,106,50,0.70720
3992000,0.02000,63.2500,107,51,0.72063
3992010,0.03000,62.9375,107,51,0.73089
3992020,0.00500,62.3125,107,51,0.75043
3992030,-0.03000,61.9375,107,51,0.75800
3992040,-0.06500,61.6250,107,51,0.76410
3992050,-0.09500,61.2500,107,51,0.76850
3992060,-0.12000,60.5000,107,51,0.77241
3992070,-0.13000,60.1875,107,51,0.77216
3992080,-0.13500,59.8125,107,51,0.77070
3992090,-0.14000,59.4375,107,51,0.76777
3992100,-0.14000,58.6875,107,51,0.75824
3992110,-0.13500,58.3125,107,51,0.75165
3992120,-0.12500,58.0625,107,51,0.74383
3992130,-0.11500,57.7500,107,51,0.73504
3992140,-0.10500,57.1875,107,51,0.71429
3992150,-0.11500,56.9375,107,51,0.70256
3992160,-0.03000,56.6875,107,51,0.69011
3992170,0.32500,56.4375,107,51,0.67741
3992180,0.92000,55.8750,107,51,0.65153
3992190,1.08500,55.5625,107,51,0.63883
3992200,0.47500,55.1875,107,51,0.62735
3992210,-0.17500,54.8125,107,51,0.61661
3992220,-0.42500,54.0000,107,51,0.59414
3992230,-0.38500,53.5625,107,51,0.58315
3992240,-0.26500,53.1875,107,51,0.57241
3992250,-0.21000,52.7500,107,51,0.56190
3992260,-0.19500,52.0000,107,51,0.54212
3992270,-0.18000,51.6250,107,51,0.53260
3992280,-0.16500,51.2500,107,51,0.52332
3992290,-0.15500,50.8750,107,51,0.51404
3992300,-0.14500,50.1875,107,51,0.49719
3992310,-0.13500,49.8750,107,51,0.49011
3992320,-0.12000,49.6250,107,51,0.48205
3992330,-0.11000,49.4375,107,51,0.47375
3992340,-0.10500,50.1875,107,51,0.45690
3992350,-0.09500,51.6875,107,51,0.44860
3992360,-0.09500,54.5000,107,51,0.44078
3992370,-0.09000,58.5625,107,51,0.43297
3992380,-0.08500,69.0625,107,51,0.41807
3992390,-0.07500,74.8125,107,51,0.41099
3992400,-0.06000,80.4375,107,51,0.40537
3992410,-0.04500,85.8125,107,51,0.40049
3992420,-0.02000,95.0000,107,51,0.38828
3992430,0.01000,98.5625,107,51,0.38169
3992440,0.03000,101.4375,107,51,0.37509
3992450,0.05000,103.5625,107,51,0.36874
3992460,0.05500,105.8125,107,51,0.35604
3992470,0.06000,106.1250,107,51,0.34969
3992480,0.06000,106.0000,107,51,0.34359
3992490,0.06000,105.5625,107,51,0.33748
3992500,0.05500,103.9375,107,51,0.32625
3992510,0.06500,102.8125,107,51,0.32210
3992520,0.07500,101.5000,107,51,0.31697
3992530,0.08000,100.1250,107,51,0.31111
3992540,0.07000,97.2500,107,51,0.29890
3992550,0.06000,95.8125,107,51,0.29304
3992560,0.03500,94.3750,107,51,0.28694
3992570,0.01000,93.0000,107,51,0.28107
3992580,-0.01500,90.3125,107,51,0.27033
3992590,-0.03500,88.9375,107,51,0.26618
3992600,-0.04500,87.6250,107,51,0.26422
3992610,-0.04500,86.2500,107,51,0.26447
3992620,-0.04500,83.0625,107,51,0.27131
3992630,-0.04000,81.1250,107,51,0.28010
3992640,-0.03500,78.9375,107,51,0.29353
3992650,-0.03500,74.4375,107,51,0.31136
3992660,-0.03000,72.4375,107,51,0.35946
3992670,-0.02500,70.8125,107,51,0.38877
3992680,-0.03000,69.4375,107,51,0.42027
3992690,-0.03000,68.3750,107,51,0.45299
3992700,-0.03500,66.7500,107,51,0.51453
3992710,-0.04500,66.0625,107,51,0.54042
3992720,-0.04500,65.5625,107,51,0.56850
3992730,-0.04500,65.1250,107,51,0.59634
3992740,-0.03500,64.4375,107,51,0.64737
3992750,-0.01500,64.1250,107,51,0.66984
3992760,0.01500,63.8125,107,51,0.69011
3992770,0.04500,63.5000,107,51,0.70818
3992780,0.05000,62.9375,107,51,0.73675
3992790,0.02000,62.6875,107,51,0.74750
3992800,-0.02500,62.3750,107,51,0.75433
3992810,-0.06500,62.0000,107,51,0.75873
3992820,-0.09500,61.3125,107,51,0.76606
3992830,-0.12000,60.9167,107,51,0.76891
3992840,-0.13000,60.6250,107,51,0.76923
3992850,-0.13500,60.2500,107,51,0.76899
3992860,-0.14500,59.5000,107,51,0.76435
3992870,-0.15000,59.1250,107,51,0.75995
3992880,-0.15000,58.8125,107,51,0.75433
3992890,-0.14500,58.5000,107,51,0.74750
3992900,-0.13500,57.9375,107,51,0.73016
3992910,-0.13000,57.6250,107,51,0.72039
3992920,-0.13500,57.3750,107,51,0.70965
3992930,-0.05500,57.1250,107,51,0.69817
3992940,0.31000,56.6250,107,51,0.66032
3992950,0.91000,56.3125,107,51,0.64396
3992960,1.06500,55.9375,107,51,0.62979
3992970,0.45000,55.5625,107,51,0.61661
3992980,-0.19000,54.7500,107,51,0.59243
3992990,-0.44000,54.3750,107,51,0.58120
3993000,-0.40500,53.9375,106,51,0.57143
3993010,-0.29000,53.5000,106,51,0.56239
3993020,-0.23000,52.6875,106,51,0.54286
3993030,-0.22000,52.2500,106,51,0.53309
3993040,-0.21000,51.8750,106,51,0.52357
3993050,-0.20000,51.5000,106,51,0.51453
3993060,-0.19000,50.6875,106,51,0.49597
3993070,-0.18000,50.3125,106,51,0.48669
3993080,-0.17000,50.0000,106,51,0.47741
3993090,-0.16000,49.7500,106,51,0.46838
3993100,-0.14500,49.6250,106,51,0.45275
3993110,-0.13500,50.1875,106,51,0.44615
3993120,-0.12000,51.7500,106,51,0.43907
3993130,-0.11000,54.5000,106,51,0.43175
3993140,-0.10000,63.7500,106,51,0.41709
3993150,-0.09000,69.3750,106,51,0.40977
3993160,-0.08000,75.1250,106,51,0.40244
3993170,-0.06000,86.1250,106,51,0.38803
3993180,-0.04500,91.0625,106,51,0.38095
3993190,-0.02500,95.4375,106,51,0.37411
3993200,-0.00500,99.0000,106,51,0.36874
3993210,0.02000,101.8750,106,51,0.36410
3993220,0.03500,105.4375,106,51,0.35214
3993230,0.04500,106.2500,106,51,0.34579
3993240,0.05000,106.5625,106,51,0.33944
3993250,0.04500,106.3750,106,51,0.33333
3993260,0.04500,105.0625,106,51,0.32112
3993270,0.05000,104.0625,106,51,0.31502
3993280,0.05000,102.8750,106,51,0.30891
3993290,0.06000,101.6250,106,51,0.30305
3993300,0.07000,98.7500,106,51,0.29328
3993310,0.06000,97.3125,106,51,0.28962
3993320,0.05000,95.8750,106,51,0.28474
3993330,0.02500,94.4375,106,51,0.27937
3993340,-0.00500,91.6250,106,51,0.26862
3993350,-0.02500,90.3125,106,51,0.26349
3993360,-0.04500,88.9375,106,51,0.25885
3993370,-0.06000,87.6250,106,51,0.25568
3993380,-0.06500,84.6875,106,51,0.25617
3993390,-0.06500,82.9375,106,51,0.26178
3993400,-0.06500,81.0000,106,51,0.27033
3993410,-0.07000,78.8750,106,51,0.28205
3993420,-0.07000,74.3125,106,51,0.31966
3993430,-0.07000,72.2500,106,51,0.34432
3993440,-0.07000,70.6250,106,51,0.37216
3993450,-0.07000,69.2500,106,51,0.40220
3993460,-0.06500,67.3750,106,51,0.46496
3993470,-0.07000,66.6875,106,51,0.49621
3993480,-0.07000,66.1250,106,51,0.52674
3993490,-0.07500,65.6875,106,51,0.55580
3993500,-0.07500,65.0000,106,51,0.60513
3993510,-0.07000,64.6875,106,51,0.62369
3993520,-0.06000,64.4375,106,51,0.64322
3993530,-0.04500,64.1875,106,51,0.66203
3993540,-0.02000,63.6250,106,51,0.69426
3993550,0.01500,63.3125,106,51,0.70720
3993560,0.04000,63.0000,106,51,0.71819
3993570,0.02000,62.6875,106,51,0.72723
3993580,-0.01500,62.0000,106,51,0.73968
3993590,-0.05500,61.6250,106,51,0.74359
3993600,-0.09000,61.3125,106,51,0.74481
3993610,-0.12500,60.9375,106,51,0.74408
3993620,-0.14500,60.1250,106,51,0.74090
3993630,-0.14500,59.6875,106,51,0.73773
3993640,-0.14500,59.3125,106,51,0.73333
3993650,-0.14500,58.8750,106,51,0.72796
3993660,-0.14500,58.1250,106,51,0.71331
3993670,-0.14000,57.8125,106,51,0.70403
3993680,-0.13000,57.4375,106,51,0.69353
3993690,-0.12000,57.1875,106,51,0.68230
3993700,-0.12500,56.6250,106,51,0.66032
3993710,-0.08000,56.3750,106,51,0.64835
3993720,0.22500,56.1250,106,51,0.63639
3993730,0.84500,55.8750,106,51,0.62418
3993740,1.15500,55.3125,106,51,0.60073
3993750,0.62000,55.0000,106,51,0.58926
3993760,-0.12500,54.6250,106,51,0.57802
3993770,-0.44500,54.2500,106,51,0.56728
3993780,-0.43000,53.4375,106,51,0.54652
3993790,-0.30000,53.0625,106,51,0.53651
3993800,-0.23000,52.6250,106,51,0.52772
3993810,-0.22000,52.2500,106,51,0.51941
3993820,-0.20000,51.5000,106,51,0.50159
3993830,-0.19000,51.1875,106,51,0.49255
3993840,-0.18000,50.8125,106,51,0.48352
3993850,-0.17500,50.4375,106,51,0.47497
3993860,-0.16916,49.9896,106,51,0.46268
3993870,-0.16000,49.6250,106,51,0.45055
3993880,-0.14500,49.5000,106,51,0.44249
3993890,-0.13000,49.7500,106,51,0.43468
3993900,-0.12000,52.7500,106,51,0.42222
3993910,-0.11000,56.1875,106,51,0.41563
3993920,-0.09500,60.8750,106,51,0.40879
3993930,-0.07000,66.3750,106,51,0.40171
3993940,-0.05500,78.1875,106,51,0.38730
3993950,-0.04500,83.9375,106,51,0.38022
3993960,-0.02500,89.2500,106,51,0.37338
3993970,-0.00500,94.0625,106,51,0.36679
3993980,0.01500,101.5000,106,51,0.35409
3993990,0.03000,104.0625,106,51,0.34774
3994000,0.04000,105.9375,106,51,0.34310
3994010,0.05000,107.0625,106,51,0.33919
3994020,0.05000,107.8125,106,51,0.32869
3994030,0.05500,107.5000,106,51,0.32308
3994040,0.05500,106.8750,106,51,0.31746
3994050,0.06000,106.0625,106,51,0.31160
3994060,0.06500,103.8125,106,51,0.29988
3994070,0.07000,102.5000,106,51,0.29426
3994080,0.07500,101.0625,106,51,0.28864
3994090,0.07000,99.6250,106,51,0.28278
3994100,0.06000,96.7500,106,51,0.27521
3994110,0.03000,95.3125,106,51,0.27082
3994120,0.00500,93.9375,106,51,0.26593
3994130,-0.02500,92.5625,106,51,0.26129
3994140,-0.04500,89.8750,106,51,0.25324
3994150,-0.06500,88.5625,106,51,0.25128
3994160,-0.07000,87.1875,106,51,0.25128
3994170,-0.07000,85.6250,106,51,0.25446
3994180,-0.06500,81.9375,106,51,0.27302
3994190,-0.06500,79.7500,106,51,0.28938
3994200,-0.05500,77.5000,106,51,0.30720
3994210,-0.05500,75.3750,106,51,0.32723
3994220,-0.05500,71.8750,106,51,0.38071
3994230,-0.05500,70.5625,106,51,0.41172
3994240,-0.05500,69.5000,106,51,0.44396
3994250,-0.06500,68.6250,106,51,0.47668
3994260,-0.07500,67.3125,106,51,0.54042
3994270,-0.08000,66.8125,106,51,0.57045
3994280,-0.08500,66.3750,106,51,0.59853
3994290,-0.08500,66.0000,106,51,0.62466
3994300,-0.08500,65.3750,106,51,0.66252
3994310,-0.08000,65.0625,106,51,0.68010
3994320,-0.06500,64.6875,106,51,0.69670
3994330,-0.04000,64.3750,106,51,0.71160
3994340,0.00000,63.7500,106,51,0.73553
3994350,0.02000,63.3750,106,51,0.74432
3994360,0.00000,63.0625,106,51,0.75116
3994370,-0.03500,62.6875,106,51,0.75604
3994380,-0.08000,61.9375,106,51,0.76093
3994390,-0.11500,61.5625,106,51,0.76142
3994400,-0.13500,61.1875,106,51,0.75971
3994410,-0.14500,60.8125,106,51,0.75678
