RelativeTimeMilliseconds,ECG,ART,ART (Sys),ART (Dia),PPG
3600000,-0.01500,100.8125,113,53,0.29304
3600010,-0.04000,99.4375,113,53,0.28913
3600020,-0.05500,96.7500,113,53,0.27961
3600030,-0.07500,95.3750,113,53,0.27521
3600040,-0.09500,93.9375,113,53,0.27155
3600050,-0.10500,92.3750,113,53,0.26935
3600060,-0.09500,88.5000,113,53,0.27302
3600070,-0.08500,86.1875,113,53,0.28034
3600080,-0.07500,83.6250,113,53,0.29206
3600090,-0.07000,81.1250,113,53,0.30598
3600100,-0.07500,76.8125,113,53,0.34457
3600110,-0.07500,75.1875,113,53,0.37021
3600120,-0.07500,73.8750,113,53,0.39878
3600130,-0.07500,72.8125,113,53,0.42930
3600140,-0.07000,71.2500,113,53,0.49255
3600150,-0.06500,70.6250,113,53,0.52405
3600160,-0.06500,70.0625,113,53,0.55433
3600170,-0.06500,69.5000,113,53,0.58315
3600180,-0.06500,68.5000,113,53,0.63516
3600190,-0.06000,67.9375,113,53,0.65495
3600200,-0.04500,67.3750,113,53,0.67155
3600210,-0.02500,66.8125,113,53,0.68864
3600220,0.01500,65.6875,113,53,0.71941
3600230,0.05500,65.1250,113,53,0.73211
3600240,0.06000,64.5625,113,53,0.74310
3600250,0.03000,64.0625,113,53,0.75214
3600260,-0.00500,63.1250,113,53,0.76532
3600270,-0.04000,62.7500,113,53,0.76948
3600280,-0.08000,62.3125,113,53,0.77216
3600290,-0.11500,61.8750,113,53,0.77265
3600300,-0.13500,61.0625,113,53,0.77021
3600310,-0.14500,60.6875,113,53,0.76801
3600320,-0.14500,60.2500,113,53,0.76459
3600330,-0.14500,59.8750,113,53,0.75971
3600340,-0.14500,59.0000,113,53,0.74628
3600350,-0.14000,58.6250,113,53,0.73773
3600360,-0.14500,58.3125,113,53,0.72796
3600370,-0.14500,58.0000,113,53,0.71722
3600380,0.09000,57.5000,113,53,0.69475
3600390,0.67000,57.3125,113,53,0.68400
3600400,1.14500,57.0625,113,53,0.67277
3600410,0.83000,56.8750,113,53,0.66081
3600420,-0.00500,56.3125,113,53,0.63663
3600430,-0.49000,56.0625,113,53,0.62466
3600440,-0.51000,55.7500,113,53,0.61319
3600450,-0.34500,55.3750,113,53,0.60195
3600460,-0.23000,54.7917,113,53,0.58604
3600470,-0.20000,54.1875,113,53,0.57045
3600480,-0.18500,53.7500,113,53,0.56020
3600490,-0.17000,53.3750,113,53,0.55116
3600500,-0.16000,52.5625,113,53,0.53407
3600510,-0.15500,52.1875,113,53,0.52479
3600520,-0.15500,51.8750,113,53,0.51551
3600530,-0.14500,51.5625,113,53,0.50623
3600540,-0.13500,51.3125,113,53,0.48816
3600550,-0.12000,51.8750,113,53,0.47912
3600560,-0.11000,53.5000,113,53,0.47033
3600570,-0.10000,56.6875,113,53,0.46154
3600580,-0.10000,67.6875,113,53,0.44591
3600590,-0.09500,74.3750,113,53,0.43956
3600600,-0.08000,81.2500,113,53,0.43223
3600610,-0.05500,87.8125,113,53,0.42466
3600620,-0.03000,99.0625,113,53,0.40904
3600630,-0.01000,103.3125,113,53,0.40122
3600640,0.01000,106.6250,113,53,0.39341
3600650,0.02000,109.0625,113,53,0.38584
3600660,0.02000,111.7500,113,53,0.37167
3600670,0.03000,112.1875,113,53,0.36484
3600680,0.04000,112.2500,113,53,0.35824
3600690,0.04000,112.0000,113,53,0.35311
3600700,0.03000,110.7500,113,53,0.34383
3600710,0.04000,109.8750,113,53,0.33797
3600720,0.06000,108.8750,113,53,0.33187
3600730,0.09000,107.7500,113,53,0.32576
3600740,0.10000,105.3750,113,53,0.31355
3600750,0.09500,104.1250,113,53,0.30769
3600760,0.07000,102.8750,113,53,0.30208
3600770,0.03000,101.5625,113,53,0.29646
3600780,-0.00500,98.9375,113,53,0.28694
3600790,-0.03000,97.5625,113,53,0.28376
3600800,-0.03500,96.1875,113,53,0.27937
3600810,-0.04000,94.7500,113,53,0.27497
3600820,-0.03500,91.3750,113,53,0.26984
3600830,-0.02500,89.3750,113,53,0.27106
3600840,-0.01500,87.0625,113,53,0.27595
3600850,-0.00500,84.5000,113,53,0.28498
3600860,0.00000,79.1875,113,53,0.31648
3600870,0.00500,76.8750,113,53,0.33871
3600880,0.00000,74.9375,113,53,0.36459
3600890,0.00000,73.3750,113,53,0.38974
3600900,0.00000,71.1875,113,53,0.44347
3600910,0.00000,70.4375,113,53,0.47424
3600920,-0.01000,69.8750,113,53,0.50525
3600930,-0.02000,69.4375,113,53,0.53578
3600940,-0.03500,68.5625,113,53,0.59292
3600950,-0.04000,68.1875,113,53,0.61905
3600960,-0.04500,67.7500,113,53,0.64322
3600970,-0.04500,67.3125,113,53,0.66496
3600980,-0.03500,66.3750,113,53,0.69988
3600990,-0.00500,65.8125,113,53,0.71160
3601000,0.03000,65.3125,113,53,0.72357
3601010,0.06000,64.8125,113,53,0.73480
3601020,0.05500,63.8125,113,53,0.75263
3601030,0.02000,63.3125,113,53,0.75922
3601040,-0.01500,62.8125,113,53,0.76410
3601050,-0.05500,62.3125,113,53,0.76752
3601060,-0.08500,61.3125,113,53,0.77045
3601070,-0.11500,60.8125,113,53,0.76972
3601080,-0.11500,60.3750,113,53,0.76752
3601090,-0.12000,59.8750,113,53,0.76361
3601100,-0.12000,58.9375,113,53,0.75263
3601110,-0.11500,58.5000,113,53,0.74530
3601120,-0.09500,58.0625,113,53,0.73675
3601130,-0.08500,57.6875,113,53,0.72698
3601140,-0.09000,57.1875,113,53,0.70525
3601150,0.08000,56.9375,113,53,0.69328
3601160,0.57000,56.7500,113,53,0.68083
3601170,1.13500,56.3750,113,53,0.65495
3601180,0.91000,56.1875,113,53,0.64322
3601190,0.11500,55.9375,113,53,0.63223
3601200,-0.44000,55.6250,113,53,0.62051
3601210,-0.52000,55.3125,113,53,0.60879
3601220,-0.37500,54.5625,113,53,0.58608
3601230,-0.26000,54.0625,113,53,0.57509
3601240,-0.23000,53.6250,113,53,0.56435
3601250,-0.21000,53.1875,113,53,0.55385
3601260,-0.18000,52.3125,113,53,0.53309
3601270,-0.16500,51.9375,113,53,0.52283
3601280,-0.15500,51.5625,113,53,0.51258
3601290,-0.15500,51.1875,113,53,0.50379
3601300,-0.15500,50.6250,113,53,0.48718
3601310,-0.15500,50.5000,113,53,0.47790
3601320,-0.14500,50.7500,113,53,0.46838
3601330,-0.13500,51.8125,113,53,0.45910
3601340,-0.12500,58.0625,113,53,0.44127
3601350,-0.11500,63.3750,113,53,0.43272
3601360,-0.09000,69.6875,113,53,0.42442
3601370,-0.06500,76.2500,113,53,0.41612
3601380,-0.04000,88.8125,113,53,0.40098
3601390,-0.01500,94.1875,113,53,0.39487
3601400,0.01000,98.8125,113,53,0.38803
3601410,0.02500,102.5000,113,53,0.38071
3601420,0.04000,107.3125,113,53,0.36606
3601430,0.05500,108.6250,113,53,0.35897
3601440,0.06000,109.3125,113,53,0.35189
3601450,0.07000,109.3750,113,53,0.34505
3601460,0.07500,108.8750,113,53,0.33187
3601470,0.08000,108.1250,113,53,0.32552
3601480,0.08500,107.2500,113,53,0.31941
3601490,0.09417,105.6042,113,53,0.31278
3601500,0.10000,103.8125,113,53,0.30647
3601510,0.09500,102.5000,113,53,0.30134
3601520,0.08500,101.1875,113,53,0.29573
3601530,0.06000,99.8750,113,53,0.29011
3601540,0.03000,97.1875,113,53,0.27912
3601550,0.00000,95.8750,113,53,0.27350
3601560,-0.01500,94.5625,113,53,0.26789
3601570,-0.03000,93.2500,113,53,0.26252
3601580,-0.03500,90.1875,113,53,0.25519
3601590,-0.03000,88.4375,113,53,0.25446
3601600,-0.01500,86.3750,113,53,0.25470
3601610,-0.00500,84.0625,113,53,0.25714
3601620,-0.00500,79.0000,113,53,0.27350
3601630,-0.00500,76.7500,113,53,0.28816
3601640,-0.01000,74.8125,113,53,0.30720
3601650,-0.01500,73.1875,113,53,0.33040
3601660,-0.02000,70.8125,113,53,0.38584
3601670,-0.02500,69.9375,113,53,0.41636
3601680,-0.02500,69.1875,113,53,0.44737
3601690,-0.03000,68.6250,113,53,0.47448
3601700,-0.03500,67.6875,113,53,0.52576
3601710,-0.03500,67.2500,113,53,0.55214
3601720,-0.03000,66.8125,113,53,0.57753
3601730,-0.02000,66.3750,113,53,0.60147
3601740,-0.00500,65.4375,113,53,0.64396
3601750,0.01000,65.0000,113,53,0.66203
3601760,0.04000,64.5000,113,53,0.67790
3601770,0.06500,64.0000,113,53,0.69158
3601780,0.06000,63.0625,113,53,0.71209
3601790,0.03000,62.5625,113,53,0.71209
3601800,-0.00500,62.1250,113,53,0.70891
3601810,-0.04500,61.6250,113,53,0.70916
3601820,-0.09000,60.6250,113,53,0.71209
3601830,-0.11000,60.1875,113,53,0.71282
3601840,-0.12500,59.6875,113,53,0.71258
3601850,-0.12500,59.2500,113,53,0.71087
3601860,-0.12000,58.4375,113,53,0.70379
3601870,-0.10500,58.0000,113,53,0.69817
3601880,-0.09000,57.6250,113,53,0.69133
3601890,-0.08000,57.2500,113,53,0.68400
3601900,-0.08000,56.6875,113,53,0.66740
3601910,0.02000,56.5000,113,53,0.65763
3601920,0.38000,56.3125,113,53,0.64713
3601930,0.93000,56.1875,113,53,0.63639
3601940,0.99000,55.8125,113,53,0.61441
3601950,0.34000,55.5625,113,53,0.60342
3601960,-0.27000,55.2500,113,53,0.59267
3601970,-0.47000,54.8750,113,53,0.58217
3601980,-0.41500,54.0625,113,53,0.56264
3601990,-0.28500,53.6250,113,53,0.55409
3602000,-0.22000,53.2500,112,52,0.54505
3602010,-0.21000,52.8125,112,52,0.53553
3602020,-0.21000,52.0000,112,52,0.51673
3602030,-0.20000,51.6250,112,52,0.50745
3602040,-0.19000,51.1875,112,52,0.49817
3602050,-0.18000,50.8125,112,52,0.48938
3602060,-0.16500,50.0625,112,52,0.47204
3602070,-0.14500,49.8125,112,52,0.46349
3602080,-0.11500,49.7500,112,52,0.45519
3602090,-0.08500,50.1875,112,52,0.44811
3602100,-0.06500,54.3750,112,52,0.43419
3602110,-0.06500,58.6250,112,52,0.42637
3602120,-0.06500,64.1875,112,52,0.41832
3602130,-0.05500,70.3125,112,52,0.41026
3602140,-0.03500,82.6875,112,52,0.39463
3602150,-0.01500,88.3125,112,52,0.38706
3602160,0.00500,93.2500,112,52,0.37973
3602170,0.02500,97.3750,112,52,0.37241
3602180,0.04000,103.1250,112,52,0.35971
3602190,0.05000,104.8750,112,52,0.35482
3602200,0.06000,105.9375,112,52,0.34921
3602210,0.07000,106.4375,112,52,0.34335
3602220,0.07500,106.0625,112,52,0.33162
3602230,0.08000,105.4375,112,52,0.32576
3602240,0.09000,104.5000,112,52,0.31990
3602250,0.10000,103.4375,112,52,0.31404
3602260,0.12000,101.0000,112,52,0.30281
3602270,0.12000,99.6875,112,52,0.29744
3602280,0.10500,98.3750,112,52,0.29328
3602290,0.07500,97.0000,112,52,0.29011
3602300,0.03500,94.2500,112,52,0.28083
3602310,-0.00500,92.9375,112,52,0.27595
3602320,-0.03500,91.5000,112,52,0.27106
3602330,-0.06000,90.1250,112,52,0.26618
3602340,-0.07000,87.0000,112,52,0.25739
3602350,-0.06500,85.1250,112,52,0.25446
3602360,-0.05000,83.0000,112,52,0.25299
3602370,-0.03000,80.6250,112,52,0.25372
3602380,-0.02500,75.3125,112,52,0.26398
3602390,-0.02000,72.7500,112,52,0.27350
3602400,-0.01500,70.5625,112,52,0.28694
3602410,-0.01000,68.9375,112,52,0.30452
3602420,-0.01500,67.0000,112,52,0.35018
3602430,-0.03000,66.4375,112,52,0.37656
3602440,-0.04000,66.0625,112,52,0.40440
3602450,-0.04500,65.7500,112,52,0.43297
3602460,-0.05000,65.3750,112,52,0.48913
3602470,-0.06000,65.1250,112,52,0.51551
3602480,-0.07000,64.8750,112,52,0.53724
3602490,-0.07500,64.5625,112,52,0.55604
3602500,-0.06500,63.7500,112,52,0.59463
3602510,-0.05000,63.2292,112,52,0.61538
3602520,-0.02500,62.8125,112,52,0.62784
3602530,0.01000,62.3125,112,52,0.64151
3602540,0.05500,61.3125,112,52,0.66325
3602550,0.06000,60.8125,112,52,0.67179
3602560,0.02500,60.3750,112,52,0.67863
3602570,-0.02500,59.9375,112,52,0.68376
3602580,-0.07000,59.1250,112,52,0.68840
3602590,-0.10500,58.6875,112,52,0.68816
3602600,-0.13500,58.3125,112,52,0.68742
3602610,-0.15500,57.8750,112,52,0.68571
3602620,-0.16000,57.0625,112,52,0.67888
3602630,-0.16000,56.6875,112,52,0.67350
3602640,-0.15500,56.3125,112,52,0.66667
3602650,-0.15000,55.9375,112,52,0.65861
3602660,-0.14000,55.3125,112,52,0.63907
3602670,-0.13500,55.0625,112,52,0.62808
3602680,-0.08000,54.8750,112,52,0.61758
3602690,0.24000,54.7500,112,52,0.60757
3602700,0.80500,54.4375,112,52,0.58559
3602710,1.02000,54.2500,112,52,0.57485
3602720,0.52500,54.0625,112,52,0.56435
3602730,-0.13000,53.8125,112,52,0.55409
3602740,-0.44000,53.1250,112,52,0.53431
3602750,-0.42500,52.7500,112,52,0.52479
3602760,-0.29500,52.3750,112,52,0.51526
3602770,-0.22000,51.9375,112,52,0.50623
3602780,-0.20000,51.1250,112,52,0.49011
3602790,-0.19000,50.7500,112,52,0.48327
3602800,-0.17500,50.3750,112,52,0.47595
3602810,-0.16000,50.0000,112,52,0.46813
3602820,-0.14500,49.3750,112,52,0.45275
3602830,-0.13500,49.0625,112,52,0.44518
3602840,-0.11500,48.8125,112,52,0.43736
3602850,-0.10000,48.6875,112,52,0.42955
3602860,-0.09000,49.8750,112,52,0.41392
3602870,-0.08500,52.0625,112,52,0.40635
3602880,-0.08000,55.7500,112,52,0.40024
3602890,-0.07500,60.8750,112,52,0.39487
3602900,-0.06500,73.1875,112,52,0.38193
3602910,-0.06000,79.3750,112,52,0.37534
3602920,-0.04000,85.1875,112,52,0.36874
3602930,-0.02000,90.3750,112,52,0.36239
3602940,0.00000,98.6875,112,52,0.34969
3602950,0.02000,101.6250,112,52,0.34359
3602960,0.03000,103.8750,112,52,0.33773
3602970,0.04000,105.3750,112,52,0.33211
3602980,0.04500,106.8125,112,52,0.32283
3602990,0.04000,106.8125,112,52,0.31941
3603000,0.04000,106.5000,112,52,0.31526
3603010,0.04000,105.9375,112,52,0.31062
3603020,0.04500,104.0625,112,52,0.30110
3603030,0.05000,102.8750,112,52,0.29597
3603040,0.06000,101.5625,112,52,0.29109
3603050,0.05000,100.2500,112,52,0.28620
3603060,0.02500,97.6250,112,52,0.27692
3603070,-0.00500,96.3125,112,52,0.27228
3603080,-0.04000,95.0000,112,52,0.26911
3603090,-0.06000,93.7500,112,52,0.26642
3603100,-0.07500,91.1250,112,52,0.25861
3603110,-0.08500,89.8125,112,52,0.25470
3603120,-0.08500,88.3125,112,52,0.25128
3603130,-0.07500,86.6250,112,52,0.24908
3603140,-0.06000,82.4375,112,52,0.25104
3603150,-0.05500,80.0625,112,52,0.25665
3603160,-0.06000,77.5625,112,52,0.26642
3603170,-0.06500,75.3125,112,52,0.28059
3603180,-0.05500,71.8750,112,52,0.31795
3603190,-0.05000,70.6250,112,52,0.33846
3603200,-0.04000,69.7500,112,52,0.36313
3603210,-0.04000,68.4375,112,52,0.39048
3603220,-0.04000,68.0000,112,52,0.44860
3603230,-0.04000,67.5625,112,52,0.47741
3603240,-0.04000,67.1250,112,52,0.50549
3603250,-0.04500,66.6875,112,52,0.53236
3603260,-0.05000,65.7500,112,52,0.58144
3603270,-0.05500,65.2500,112,52,0.60317
3603280,-0.05500,64.6875,112,52,0.62002
3603290,-0.05500,64.1250,112,52,0.63394
3603300,-0.02000,62.8750,112,52,0.66178
3603310,0.02000,62.3125,112,52,0.67350
3603320,0.02000,62.3125,112,52,0.67350
3603330,0.02000,62.3125,112,52,0.67350
3603340,-0.02500,60.0000,112,52,0.70452
3603350,-0.03500,59.4375,112,52,0.70842
3603360,-0.06500,58.8750,112,52,0.71087
3603370,-0.09500,58.3125,112,52,0.71184
3603380,-0.10500,57.1875,112,52,0.70940
3603390,-0.11000,56.6875,112,52,0.70598
3603400,-0.11500,56.1875,112,52,0.70183
3603410,-0.11500,55.6875,112,52,0.69646
3603420,-0.11000,54.7500,112,52,0.68205
3603430,-0.10500,54.3125,112,52,0.67326
3603440,-0.10000,54.0000,112,52,0.66349
3603450,-0.09000,53.6875,112,52,0.65324
3603460,0.10500,53.3125,112,52,0.63199
3603470,0.63000,53.1250,112,52,0.62100
3603480,1.05500,52.8750,112,52,0.61099
3603490,0.73000,52.5625,112,52,0.60147
3603500,0.01000,52.0000,112,52,0.58095
3603510,-0.39500,51.6875,112,52,0.57094
3603520,-0.46000,51.3750,112,52,0.56093
3603530,-0.33500,51.0000,112,52,0.55116
3603540,-0.24500,50.1250,112,52,0.53675
3603550,-0.19000,49.8125,112,52,0.52259
3603560,-0.17000,49.6250,112,52,0.51355
3603570,-0.14500,49.3750,112,52,0.50452
3603580,-0.12500,48.9375,112,52,0.48767
3603590,-0.13500,48.7500,112,52,0.48059
3603600,-0.13500,48.6250,112,52,0.47302
3603610,-0.13500,48.5000,112,52,0.46520
3603620,-0.12000,48.5625,112,52,0.44908
3603630,-0.11500,49.1875,112,52,0.44127
3603640,-0.12000,50.6875,112,52,0.43346
3603650,-0.12000,53.6875,112,52,0.42564
3603660,-0.11000,63.8125,112,52,0.41026
3603670,-0.09500,70.0000,112,52,0.40293
3603680,-0.07500,76.2500,112,52,0.39707
3603690,-0.05000,82.2500,112,52,0.39194
3603700,-0.02500,92.6875,112,52,0.37949
3603710,0.00000,96.8125,112,52,0.37314
3603720,0.02500,100.1250,112,52,0.36703
3603730,0.04000,102.7500,112,52,0.36093
3603740,0.04500,105.6875,112,52,0.34921
3603750,0.04500,106.3125,112,52,0.34310
3603760,0.03500,106.5000,112,52,0.33724
3603770,0.02500,106.3125,112,52,0.33187
3603780,0.02500,105.0625,112,52,0.32259
3603790,0.03000,104.1875,112,52,0.31941
3603800,0.04000,103.1250,112,52,0.31526
3603810,0.06000,102.0000,112,52,0.31087
3603820,0.07000,99.6250,112,52,0.30159
3603830,0.06500,98.3125,112,52,0.29695
3603840,0.04500,97.0000,112,52,0.29353
3603850,0.02000,95.6250,112,52,0.29060
3603860,0.00000,92.9375,112,52,0.28181
3603870,-0.02000,91.5625,112,52,0.27668
3603880,-0.03500,90.2500,112,52,0.27326
3603890,-0.05000,88.8125,112,52,0.27082
3603900,-0.05500,85.5625,112,52,0.26618
3603910,-0.05500,83.5625,112,52,0.26642
3603920,-0.06000,81.2500,112,52,0.26984
3603930,-0.06500,78.8750,112,52,0.27692
3603940,-0.07000,74.3125,112,52,0.30452
3603950,-0.06500,72.4375,112,52,0.32503
3603960,-0.06000,70.9375,112,52,0.34921
3603970,-0.05500,69.7500,112,52,0.37656
3603980,-0.05500,67.9375,112,52,0.43321
3603990,-0.06000,67.3125,112,52,0.45910
3604000,-0.06500,66.6875,112,52,0.48767
3604010,-0.07500,66.1875,112,52,0.51722
3604020,-0.08000,65.2500,112,52,0.57485
3604030,-0.08500,64.8125,112,52,0.60171
3604040,-0.07500,64.3125,112,52,0.62662
3604050,-0.05500,63.8750,112,52,0.64933
3604060,-0.04500,62.8750,112,52,0.68864
3604070,-0.02000,62.4375,112,52,0.70501
3604080,0.01500,62.0000,112,52,0.71722
3604090,0.03000,61.5625,112,52,0.72650
3604100,0.01000,60.6875,112,52,0.74432
3604110,-0.03500,60.3125,112,52,0.75140
3604120,-0.08000,59.8750,112,52,0.75702
3604130,-0.10500,59.4375,112,52,0.76117
3604140,-0.12500,58.6250,112,52,0.76459
3604150,-0.14000,58.1875,112,52,0.76435
3604160,-0.14000,57.8125,112,52,0.76239
3604170,-0.14500,57.3750,112,52,0.75922
3604180,-0.14000,56.5625,112,52,0.74823
3604190,-0.13500,56.1875,112,52,0.74115
3604200,-0.12000,55.8750,112,52,0.73284
3604210,-0.10500,55.5625,112,52,0.72332
3604220,-0.10500,55.0625,112,52,0.70183
3604230,0.02000,54.8750,112,52,0.68987
3604240,0.43000,54.6875,112,52,0.67766
3604250,0.99000,54.5000,112,52,0.66520
3604260,1.02000,54.0625,112,52,0.64078
3604270,0.33000,53.8125,112,52,0.62882
3604280,-0.28500,53.5000,112,52,0.61807
3604290,-0.48500,53.1250,112,52,0.60830
3604300,-0.40500,52.3750,112,52,0.58730
3604310,-0.28000,51.9375,112,52,0.57656
3604320,-0.23000,51.5625,112,52,0.56606
3604330,-0.23000,51.1250,112,52,0.55556
3604340,-0.21500,50.3750,112,52,0.53504
3604350,-0.20000,50.0000,112,52,0.52503
3604360,-0.19000,49.6875,112,52,0.51526
3604370,-0.18000,49.3125,112,52,0.50549
3604380,-0.17000,48.7500,112,52,0.48962
3604390,-0.16000,48.5000,112,52,0.48132
3604400,-0.13500,48.6250,112,52,0.47277
3604410,-0.12000,49.3125,112,52,0.46398
3604420,-0.11500,54.5625,112,52,0.44615
3604430,-0.11000,59.5000,112,52,0.43761
3604440,-0.09500,65.5000,112,52,0.42930
3604450,-0.08000,71.8750,112,52,0.42100
3604460,-0.06000,84.3125,112,52,0.40464
3604470,-0.04000,89.8125,112,52,0.39683
3604480,-0.01500,94.5625,112,52,0.39048
3604490,0.00000,98.5625,112,52,0.38535
3604500,0.02000,104.0625,112,52,0.37289
3604510,0.03000,105.6875,112,52,0.36630
3604520,0.04000,106.6875,112,52,0.35971
3604530,0.04000,107.2500,112,52,0.35311
3604540,0.04000,107.0625,112,52,0.34066
3604550,0.03500,106.5000,112,52,0.33480
3604560,0.03500,105.9479,112,52,0.32943
3604570,0.04000,104.8750,112,52,0.32357
3604580,0.05000,102.7500,112,52,0.31624
3604590,0.06000,101.5625,112,52,0.31184
3604600,0.06500,100.3125,112,52,0.30672
3604610,0.05000,99.0625,112,52,0.30134
3604620,0.03000,96.3750,112,52,0.29084
3604630,0.00000,95.0000,112,52,0.28596
3604640,-0.01500,93.6875,112,52,0.28083
3604650,-0.03000,90.9375,112,52,0.27595
3604660,-0.05000,89.5000,112,52,0.26740
3604670,-0.05500,87.9375,112,52,0.26471
3604680,-0.05000,86.1875,112,52,0.26447
3604690,-0.04000,84.1875,112,52,0.26667
3604700,-0.02500,79.4375,112,52,0.27937
3604710,-0.03000,77.0000,112,52,0.29206
3604720,-0.03500,74.7500,112,52,0.30940
3604730,-0.04500,72.8750,112,52,0.33089
3604740,-0.04500,70.1250,112,52,0.38486
3604750,-0.05500,69.1875,112,52,0.41538
3604760,-0.06500,68.3750,112,52,0.44713
3604770,-0.08000,67.7500,112,52,0.47912
3604780,-0.09500,66.7500,112,52,0.53236
3604790,-0.11000,66.3125,112,52,0.55971
3604800,-0.13000,65.8750,112,52,0.58706
3604810,-0.15500,65.3750,112,52,0.61319
3604820,-0.17500,64.4375,112,52,0.66007
3604830,-0.20000,63.9375,112,52,0.68059
3604840,-0.26000,63.3750,112,52,0.69890
3604850,-0.35000,62.8125,112,52,0.71477
3604860,-0.45000,61.6875,112,52,0.74042
3604870,-0.52000,61.1875,112,52,0.75018
3604880,-0.54000,60.7500,112,52,0.75678
3604890,-0.53500,60.2500,112,52,0.76068
3604900,-0.51000,59.3125,112,52,0.76728
3604910,-0.47000,58.8750,112,52,0.76923
3604920,-0.42000,58.4375,112,52,0.76996
3604930,-0.36500,58.0625,112,52,0.76948
3604940,-0.30000,57.3125,112,52,0.76459
3604950,-0.25000,56.8750,112,52,0.76020
3604960,-0.20000,56.5000,112,52,0.75433
3604970,-0.15500,56.1250,112,52,0.74701
3604980,-0.11500,55.5625,112,52,0.72967
3604990,-0.08500,55.2500,112,52,0.71941
3605000,-0.07500,55.0000,112,52,0.70842
3605010,0.07000,54.6875,112,52,0.69670
3605020,0.53500,54.1875,112,52,0.67277
3605030,1.14000,53.9375,112,52,0.66056
3605040,1.14000,53.7500,112,52,0.64860
3605050,0.40000,53.4375,112,52,0.63687
3605060,-0.22500,52.8125,112,52,0.61392
3605070,-0.37500,52.5000,112,52,0.60269
3605080,-0.26500,52.1875,112,52,0.59267
3605090,-0.14500,51.8125,112,52,0.58339
3605100,-0.10500,51.0000,112,52,0.56410
3605110,-0.10000,50.6250,112,52,0.55409
3605120,-0.09500,50.3125,112,52,0.54432
3605130,-0.08500,50.0000,112,52,0.53480
3605140,-0.06500,49.3125,112,52,0.51575
3605150,-0.05500,49.0625,112,52,0.50647
3605160,-0.04500,48.8125,112,52,0.49695
3605170,-0.03500,48.5625,112,52,0.48767
3605180,-0.02000,49.0625,112,52,0.47228
3605190,-0.00500,50.5000,112,52,0.46398
3605200,0.00500,53.4375,112,52,0.45543
3605210,0.01000,57.9375,112,52,0.44689
3605220,0.01500,70.0625,112,52,0.43004
3605230,0.02500,76.6250,112,52,0.42149
3605240,0.04000,82.9375,112,52,0.41294
3605250,0.05500,88.7500,112,52,0.40464
3605260,0.07500,98.1875,112,52,0.38877
3605270,0.09000,101.6250,112,52,0.38120
3605280,0.11000,104.3125,112,52,0.37534
3605290,0.12000,106.1875,112,52,0.37045
3605300,0.13000,108.0000,112,52,0.35824
3605310,0.13000,108.1875,112,52,0.35189
3605320,0.13000,108.0000,112,52,0.34530
3605330,0.12667,107.5729,112,52,0.33891
3605340,0.12500,106.9375,112,52,0.33260
3605350,0.13000,106.1250,112,52,0.32625
3605360,0.13500,105.1875,112,52,0.32015
3605370,0.14500,104.0625,112,52,0.31429
3605380,0.14000,101.6875,112,52,0.30452
3605390,0.12000,100.3125,112,52,0.30110
3605400,0.09500,99.0000,112,52,0.29670
3605410,0.06500,97.5625,112,52,0.29206
3605420,0.04000,94.8125,112,52,0.28181
3605430,0.02500,93.4375,112,52,0.27643
3605440,0.01000,92.0625,112,52,0.27082
3605450,0.01000,90.6875,112,52,0.26569
3605460,0.01000,87.5625,112,52,0.25958
3605470,0.02000,85.7500,112,52,0.26007
3605480,0.03000,83.6250,112,52,0.26398
3605490,0.03500,81.2500,112,52,0.27106
3605500,0.03000,76.5000,112,52,0.29670
3605510,0.03000,74.3750,112,52,0.31624
3605520,0.03000,72.6875,112,52,0.34017
3605530,0.03000,71.2500,112,52,0.36752
3605540,0.03000,69.1875,112,52,0.42930
3605550,0.02500,68.4375,112,52,0.46203
3605560,0.02000,67.8750,112,52,0.49451
3605570,0.02000,67.4375,112,52,0.52650
3605580,0.01000,66.6250,112,52,0.58339
3605590,0.00500,66.1875,112,52,0.60562
3605600,0.00000,65.7500,112,52,0.62882
3605610,0.00000,65.3750,112,52,0.65128
3605620,0.00500,64.5000,112,52,0.69231
3605630,0.02500,64.0000,112,52,0.70989
3605640,0.06000,63.5000,112,52,0.72527
3605650,0.08000,63.0625,112,52,0.73846
3605660,0.08000,62.0625,112,52,0.75849
3605670,0.04500,61.5000,112,52,0.76581
3605680,-0.00500,61.0000,112,52,0.77118
3605690,-0.04000,60.5625,112,52,0.77387
3605700,-0.07500,59.5625,112,52,0.77509
3605710,-0.09000,59.0625,112,52,0.77509
3605720,-0.09500,58.5625,112,52,0.77387
3605730,-0.09500,58.0625,112,52,0.77167
3605740,-0.09500,57.1875,112,52,0.76288
3605750,-0.09500,56.8125,112,52,0.75604
3605760,-0.09500,56.3750,112,52,0.74799
3605770,-0.08500,56.0000,112,52,0.73895
3605780,-0.10500,55.4375,112,52,0.71893
3605790,-0.03500,55.1875,112,52,0.70842
3605800,0.35000,54.9375,112,52,0.69719
3605810,0.99500,54.6875,112,52,0.68523
3605820,1.12000,54.1875,112,52,0.66056
3605830,0.46000,53.9375,112,52,0.64811
3605840,-0.24000,53.6875,112,52,0.63565
3605850,-0.48000,53.4375,112,52,0.62369
3605860,-0.37500,52.8125,112,52,0.60073
3605870,-0.23000,52.5000,112,52,0.58974
3605880,-0.18500,52.1250,112,52,0.57998
3605890,-0.17500,51.7500,112,52,0.57070
3605900,-0.17000,50.9375,112,52,0.53944
3605910,-0.15500,50.5000,112,52,0.52601
3605920,-0.14000,50.0625,112,52,0.51453
3605930,-0.12500,49.6875,112,52,0.50427
3605940,-0.12500,48.9375,112,52,0.48523
3605950,-0.12500,48.6250,112,52,0.47595
3605960,-0.11500,48.4375,112,52,0.46691
3605970,-0.10500,48.5625,112,52,0.45812
3605980,-0.09500,51.3750,112,52,0.44225
3605990,-0.09000,54.8750,112,52,0.43565
3606000,-0.08500,59.9375,111,52,0.42808
3606010,-0.06500,66.0000,111,52,0.42002
3606020,-0.04500,79.0000,111,52,0.40415
3606030,-0.01500,85.1875,111,52,0.39634
3606040,0.01000,90.7500,111,52,0.38852
3606050,0.03000,95.5000,111,52,0.38095
3606060,0.05000,102.4375,111,52,0.36654
3606070,0.06000,104.6875,111,52,0.35971
3606080,0.07000,106.1250,111,52,0.35433
3606090,0.07500,107.0000,111,52,0.34994
3606100,0.07000,107.3125,111,52,0.33895
3606110,0.07000,106.9375,111,52,0.33309
3606120,0.07000,106.3750,111,52,0.32723
3606130,0.08000,105.5625,111,52,0.32137
3606140,0.09000,103.5625,111,52,0.30989
3606150,0.09500,102.3750,111,52,0.30427
3606160,0.10000,101.1875,111,52,0.29866
3606170,0.09000,99.8750,111,52,0.29304
3606180,0.06000,97.1875,111,52,0.28327
3606190,0.04000,95.8750,111,52,0.28010
3606200,0.01500,94.5000,111,52,0.27546
3606210,-0.00500,93.1250,111,52,0.27033
3606220,-0.02500,90.3750,111,52,0.25983
3606230,-0.03000,88.8750,111,52,0.25543
3606240,-0.02500,87.3125,111,52,0.25226
3606250,-0.02000,85.5000,111,52,0.25104
3606260,-0.01500,81.1250,111,52,0.25739
3606270,-0.01000,78.6875,111,52,0.26618
3606280,-0.01500,76.3125,111,52,0.27741
3606290,-0.01500,74.1250,111,52,0.29158
3606300,-0.02000,70.7500,111,52,0.33382
3606310,-0.02500,69.5625,111,52,0.36044
3606320,-0.02500,68.5625,111,52,0.38926
3606330,-0.02500,67.8125,111,52,0.41954
3606340,-0.03500,66.6875,111,52,0.48107
3606350,-0.03500,66.2500,111,52,0.51111
3606360,-0.04000,65.8750,111,52,0.53993
3606370,-0.04500,65.4375,111,52,0.56703
3606380,-0.04000,64.6250,111,52,0.61270
3606390,-0.02500,64.1875,111,52,0.62979
3606400,-0.00500,63.7500,111,52,0.64737
3606410,0.03000,63.2500,111,52,0.66422
3606420,0.07000,62.3125,111,52,0.69328
3606430,0.08000,61.8125,111,52,0.70501
3606440,0.05000,61.3125,111,52,0.71477
3606450,0.01000,60.8125,111,52,0.72259
3606460,-0.03000,59.8750,111,52,0.73284
3606470,-0.06500,59.4375,111,52,0.73578
3606480,-0.09500,58.9375,111,52,0.73651
3606490,-0.10500,58.5000,111,52,0.73553
3606500,-0.11000,57.5625,111,52,0.73236
3606510,-0.10500,57.1250,111,52,0.72943
3606520,-0.10500,56.6875,111,52,0.72503
3606530,-0.10500,56.2500,111,52,0.71941
3606540,-0.09500,55.5000,111,52,0.70452
3606550,-0.09500,55.1875,111,52,0.69524
3606560,-0.07500,54.9375,111,52,0.68498
3606570,0.16000,54.7500,111,52,0.67399
3606580,0.71000,54.3125,111,52,0.65177
3606590,1.07500,54.1250,111,52,0.64127
3606600,0.66500,53.9375,111,52,0.63004
3606610,-0.05500,53.6875,111,52,0.61856
3606620,-0.43000,53.1875,111,52,0.59634
3606630,-0.45500,52.8125,111,52,0.58535
3606640,-0.32500,52.4375,111,52,0.57436
3606650,-0.23500,52.0625,111,52,0.56361
3606660,-0.21000,51.2500,111,52,0.54335
3606670,-0.19500,50.8125,111,52,0.53358
3606680,-0.17500,50.3750,111,52,0.52503
3606690,-0.16000,50.0000,111,52,0.51722
3606700,-0.14500,49.2500,111,52,0.49988
3606710,-0.13000,48.8750,111,52,0.49109
3606720,-0.12000,48.5625,111,52,0.48230
3606730,-0.10500,48.2500,111,52,0.47350
3606740,-0.09500,48.1250,111,52,0.45641
3606750,-0.09000,48.8125,111,52,0.44786
3606760,-0.08500,50.5625,111,52,0.43907
3606770,-0.08000,53.8125,111,52,0.43053
3606780,-0.07000,64.3125,111,52,0.41538
3606790,-0.05500,70.5000,111,52,0.40928
3606800,-0.03500,76.5625,111,52,0.40244
3606810,-0.01500,82.3750,111,52,0.39512
3606820,0.00500,92.1875,111,52,0.38071
3606830,0.02500,96.0000,111,52,0.37363
3606840,0.04500,98.9375,111,52,0.36679
3606850,0.06000,101.0625,111,52,0.35995
3606860,0.06500,103.3750,111,52,0.34652
3606870,0.07000,103.6250,111,52,0.34017
3606880,0.07000,103.5000,111,52,0.33553
3606890,0.07500,102.9375,111,52,0.33138
3606900,0.08000,101.1250,111,52,0.32088
3606910,0.09500,100.0000,111,52,0.31502
3606920,0.10500,98.7500,111,52,0.30940
3606930,0.11000,97.3750,111,52,0.30379
3606940,0.09000,94.6250,111,52,0.29280
3606950,0.06500,93.2500,111,52,0.28767
3606960,0.02500,91.8750,111,52,0.28254
3606970,0.00000,90.5000,111,52,0.27717
3606980,-0.02000,87.8125,111,52,0.26789
3606990,-0.03500,86.4375,111,52,0.26471
3607000,-0.04000,85.0000,110,52,0.26056
3607010,-0.04000,83.4375,110,52,0.25641
3607020,-0.03500,79.6875,110,52,0.25104
3607030,-0.03000,77.5000,110,52,0.25153
3607040,-0.03000,75.2500,110,52,0.25495
3607050,-0.03000,73.1250,110,52,0.26227
3607060,-0.02500,69.6875,110,52,0.28938
3607070,-0.02000,68.4375,110,52,0.30891
3607080,-0.01500,67.4375,110,52,0.32894
3607090,-0.02000,66.6250,110,52,0.35018
3607100,-0.03000,65.3750,110,52,0.40269
3607110,-0.03500,64.8750,110,52,0.43126
3607120,-0.04500,64.4375,110,52,0.46007
3607130,-0.05000,64.0625,110,52,0.48816
3607140,-0.05500,63.2500,110,52,0.54139
3607150,-0.05000,62.8125,110,52,0.56557
3607160,-0.04500,62.3750,110,52,0.58779
3607170,-0.02500,61.9375,110,52,0.60806
3607180,0.00000,61.0625,110,52,0.64005
3607190,0.03500,60.5625,110,52,0.65104
3607200,0.06500,60.0625,110,52,0.66203
3607210,0.06000,59.6250,110,52,0.67204
3607220,0.02500,58.7500,110,52,0.68718
3607230,-0.01500,58.3125,110,52,0.69231
3607240,-0.05000,57.8750,110,52,0.69597
3607250,-0.08000,57.5000,110,52,0.69841
3607260,-0.10500,56.6250,110,52,0.69890
3607270,-0.11000,56.1875,110,52,0.69719
3607280,-0.11000,55.7500,110,52,0.69402
3607290,-0.10500,55.3750,110,52,0.68938
3607300,-0.10500,54.6250,110,52,0.67741
3607310,-0.09000,54.2500,110,52,0.66984
3607320,-0.08000,53.9375,110,52,0.66105
3607330,-0.09500,53.6875,110,52,0.65153
3607340,-0.02500,53.2500,110,52,0.63053
3607350,0.31500,53.0625,110,52,0.61954
3607360,0.87500,52.9375,110,52,0.60855
3607370,1.00000,52.6875,110,52,0.59780
3607380,0.41000,52.2500,110,52,0.57729
3607390,-0.20000,52.0000,110,52,0.56825
3607400,-0.43500,51.6875,110,52,0.55897
3607410,-0.39500,51.3750,110,52,0.54945
3607420,-0.27000,50.6250,110,52,0.53089
3607430,-0.21000,50.1875,110,52,0.52186
3607440,-0.20000,49.8125,110,52,0.51282
3607450,-0.18000,49.3750,110,52,0.50403
3607460,-0.17000,48.6250,110,52,0.48645
3607470,-0.16000,48.3125,110,52,0.47790
3607480,-0.15000,48.0625,110,52,0.47033
3607490,-0.13500,47.7500,110,52,0.46349
3607500,-0.12000,47.1875,110,52,0.44762
3607510,-0.10000,47.0000,110,52,0.43980
3607520,-0.09500,47.0625,110,52,0.43199
3607530,-0.09000,47.6875,110,52,0.42442
3607540,-0.08500,52.6250,110,52,0.40904
3607550,-0.08500,57.3125,110,52,0.40147
3607560,-0.07500,63.0000,110,52,0.39414
3607570,-0.05500,69.0000,110,52,0.38706
3607580,-0.03500,80.6875,110,52,0.37411
3607590,-0.01500,85.9375,110,52,0.36923
3607600,0.00000,90.5000,110,52,0.36361
3607610,0.01500,94.3750,110,52,0.35751
3607620,0.03000,99.6875,110,52,0.34579
3607630,0.03500,101.2500,110,52,0.33993
3607640,0.04000,102.1875,110,52,0.33407
3607650,0.04500,102.6250,110,52,0.32821
3607660,0.04500,102.3750,110,52,0.31697
3607670,0.05000,101.7500,110,52,0.31136
3607680,0.06500,100.8750,110,52,0.30720
3607690,0.08000,99.8125,110,52,0.30403
3607700,0.08500,97.3750,110,52,0.29499
3607710,0.07500,96.0625,110,52,0.29035
3607720,0.05000,94.6875,110,52,0.28547
3607730,0.03000,93.2500,110,52,0.28059
3607740,0.00000,90.5000,110,52,0.27033
3607750,-0.01500,89.1250,110,52,0.26545
3607760,-0.02500,87.7500,110,52,0.26056
3607770,-0.03500,86.3125,110,52,0.25568
3607780,-0.04000,83.3125,110,52,0.25055
3607790,-0.04000,81.5625,110,52,0.24811
3607800,-0.04500,79.6250,110,52,0.24664
3607810,-0.04500,77.5000,110,52,0.24713
3607820,-0.04500,72.9375,110,52,0.25739
3607830,-0.04500,70.8750,110,52,0.26838
3607840,-0.04500,69.1875,110,52,0.28376
3607850,-0.03500,67.8125,110,52,0.30281
3607860,-0.03500,65.8125,110,52,0.35140
3607870,-0.04000,65.1250,110,52,0.37949
3607880,-0.05000,64.5625,110,52,0.40537
3607890,-0.05500,64.0625,110,52,0.43004
3607900,-0.06500,63.3125,110,52,0.48498
3607910,-0.06500,63.0000,110,52,0.51258
3607920,-0.06000,62.6250,110,52,0.53919
3607930,-0.05500,62.2500,110,52,0.56410
3607940,-0.05000,61.3750,110,52,0.61099
3607950,-0.03500,60.9375,110,52,0.63394
3607960,-0.00500,60.4375,110,52,0.65299
3607970,0.02000,60.0000,110,52,0.66935
3607980,0.03000,59.0625,110,52,0.68987
3607990,0.01000,58.6250,110,52,0.69841
3608000,-0.02500,58.1875,110,51,0.70574
3608010,-0.06500,57.8125,110,51,0.71160
3608020,-0.08500,57.0000,110,51,0.71917
3608030,-0.10500,56.6250,110,51,0.72063
3608040,-0.12000,56.2500,110,51,0.72063
3608050,-0.12500,55.8750,110,51,0.71917
3608060,-0.12500,55.1875,110,51,0.71258
3608070,-0.12500,54.8125,110,51,0.70720
3608080,-0.11500,54.4375,110,51,0.70085
3608090,-0.10500,54.1250,110,51,0.69353
3608100,-0.09500,53.5625,110,51,0.67619
3608110,-0.09500,53.3125,110,51,0.66642
3608120,0.06500,53.1250,110,51,0.65592
3608130,0.53500,52.9375,110,51,0.64518
3608140,1.02500,52.5000,110,51,0.62295
3608150,0.86000,52.2500,110,51,0.61197
3608160,0.15500,52.0000,110,51,0.60122
3608170,-0.33500,51.6875,110,51,0.59072
3608180,-0.45000,50.9375,110,51,0.57241
3608190,-0.35500,50.5000,110,51,0.56288
3608200,-0.24500,50.1250,110,51,0.55311
3608210,-0.20000,49.8125,110,51,0.54335
3608220,-0.19000,49.0625,110,51,0.52454
3608230,-0.17500,48.7500,110,51,0.51526
3608240,-0.16000,48.3750,110,51,0.50598
3608250,-0.14500,48.1250,110,51,0.49695
3608260,-0.14000,47.5000,110,51,0.47937
3608270,-0.13000,47.2500,110,51,0.47082
3608280,-0.12000,46.9375,110,51,0.46349
3608290,-0.10500,46.7500,110,51,0.45690
3608300,-0.10500,47.6250,110,51,0.44200
3608310,-0.10000,49.5000,110,51,0.43443
3608320,-0.10000,52.8750,110,51,0.42686
3608330,-0.09000,57.6875,110,51,0.41954
3608340,-0.07500,69.4375,110,51,0.40464
3608350,-0.05500,75.4375,110,51,0.39707
3608360,-0.03500,81.1875,110,51,0.38974
3608370,-0.01000,86.4375,110,51,0.38242
3608380,0.01000,94.9375,110,51,0.37216
3608390,0.02500,98.0625,110,51,0.36679
3608400,0.04000,100.3750,110,51,0.36117
3608410,0.04500,102.0625,110,51,0.35531
3608420,0.05000,103.5625,110,51,0.34383
3608430,0.05000,103.6250,110,51,0.33797
3608440,0.05000,103.3750,110,51,0.33211
3608450,0.06000,102.8125,110,51,0.32650
3608460,0.06000,101.0000,110,51,0.31575
3608470,0.07000,99.8125,110,51,0.31038
3608480,0.07000,98.5625,110,51,0.30647
3608490,0.06500,97.3125,110,51,0.30330
3608500,0.04500,94.5625,110,51,0.29475
3608510,0.02000,93.1875,110,51,0.28987
3608520,-0.00500,91.8125,110,51,0.28498
3608530,-0.03000,90.5000,110,51,0.27985
3608540,-0.05000,87.9375,110,51,0.26984
3608550,-0.05500,86.5625,110,51,0.26520
3608560,-0.06000,85.1250,110,51,0.26105
3608570,-0.05500,83.5000,110,51,0.25812
3608580,-0.05000,79.6250,110,51,0.25958
3608590,-0.05000,77.3125,110,51,0.26349
3608600,-0.05500,75.0000,110,51,0.27082
3608610,-0.05500,72.8125,110,51,0.28181
3608620,-0.04500,69.4375,110,51,0.31624
3608630,-0.04500,68.1250,110,51,0.33919
3608640,-0.05000,67.1250,110,51,0.36532
3608650,-0.05500,66.2500,110,51,0.39365
3608660,-0.05750,65.2396,110,51,0.43964
3608670,-0.06000,64.3750,110,51,0.48498
3608680,-0.06500,63.9375,110,51,0.51136
3608690,-0.06500,63.4375,110,51,0.53480
3608700,-0.06500,62.5625,110,51,0.58486
3608710,-0.06500,62.0625,110,51,0.60855
3608720,-0.06500,61.6250,110,51,0.63077
3608730,-0.04500,61.1875,110,51,0.65104
3608740,-0.00500,60.3125,110,51,0.68498
3608750,0.03000,59.8750,110,51,0.69866
3608760,0.04000,59.4375,110,51,0.71013
3608770,0.01500,59.0625,110,51,0.71990
3608780,-0.02500,58.3125,110,51,0.73040
3608790,-0.06500,57.8750,110,51,0.73431
3608800,-0.10000,57.4375,110,51,0.73724
3608810,-0.12500,57.0000,110,51,0.73919
3608820,-0.14000,56.2500,110,51,0.73968
3608830,-0.14500,55.8750,110,51,0.73797
3608840,-0.14500,55.4375,110,51,0.73504
3608850,-0.14000,55.0625,110,51,0.73065
3608860,-0.13000,54.3750,110,51,0.71770
3608870,-0.11500,54.1250,110,51,0.70940
3608880,-0.11500,53.8125,110,51,0.70037
3608890,-0.09500,53.5625,110,51,0.69084
3608900,0.14500,53.1875,110,51,0.66935
3608910,0.69000,53.0000,110,51,0.65812
3608920,1.05000,52.7500,110,51,0.64664
3608930,0.69000,52.5625,110,51,0.63516
3608940,-0.01500,52.0000,110,51,0.61270
3608950,-0.40500,51.6875,110,51,0.60147
3608960,-0.44500,51.3750,110,51,0.59048
3608970,-0.33000,51.0000,110,51,0.57973
3608980,-0.25000,50.3125,110,51,0.56142
3608990,-0.23000,49.9375,110,51,0.55214
3609000,-0.22000,49.5625,109,51,0.54261
3609010,-0.20000,49.2500,109,51,0.53333
3609020,-0.18000,48.5625,109,51,0.51502
3609030,-0.16500,48.2500,109,51,0.50598
3609040,-0.16000,47.9375,109,51,0.49695
3609050,-0.14500,47.6250,109,51,0.48816
3609060,-0.12500,47.1250,109,51,0.47106
3609070,-0.10500,47.1875,109,51,0.46252
3609080,-0.10500,47.8750,109,51,0.45543
3609090,-0.10500,49.5625,109,51,0.44908
3609100,-0.10500,57.4375,109,51,0.43419
3609110,-0.10000,63.0625,109,51,0.42637
3609120,-0.09500,69.1250,109,51,0.41880
3609130,-0.08000,75.1875,109,51,0.41148
3609140,-0.06000,86.3125,109,51,0.39707
3609150,-0.03500,91.0625,109,51,0.38999
3609160,-0.00500,95.0625,109,51,0.38291
3609170,0.02000,98.3125,109,51,0.37631
3609180,0.03500,102.5000,109,51,0.36459
3609190,0.05000,103.6875,109,51,0.36044
3609200,0.05000,104.3125,109,51,0.35531
3609210,0.05500,104.5000,109,51,0.34969
3609220,0.05500,103.7500,109,51,0.33822
3609230,0.05500,103.0000,109,51,0.33260
3609240,0.05500,102.0000,109,51,0.32698
3609250,0.06000,99.6250,109,51,0.32137
3609260,0.06500,98.3125,109,51,0.31062
3609270,0.05500,96.9375,109,51,0.30549
3609280,0.03000,95.5000,109,51,0.30183
3609290,0.00000,94.1250,109,51,0.29915
3609300,-0.03000,91.3750,109,51,0.29084
3609310,-0.05000,90.0625,109,51,0.28620
3609320,-0.06500,88.7500,109,51,0.28132
3609330,-0.07000,87.4375,109,51,0.27643
3609340,-0.07000,84.5625,109,51,0.26862
3609350,-0.06500,82.8750,109,51,0.26716
3609360,-0.05500,81.0625,109,51,0.26813
3609370,-0.05000,78.9375,109,51,0.27204
3609380,-0.05000,74.4375,109,51,0.28864
3609390,-0.05000,72.3750,109,51,0.30281
3609400,-0.05000,70.6875,109,51,0.32112
3609410,-0.04500,69.2500,109,51,0.34335
3609420,-0.05000,67.1875,109,51,0.39683
3609430,-0.05500,66.3750,109,51,0.42662
3609440,-0.07000,65.7500,109,51,0.45714
3609450,-0.07500,65.1875,109,51,0.48791
3609460,-0.08000,64.1875,109,51,0.54701
3609470,-0.08000,63.6875,109,51,0.57460
3609480,-0.08500,63.2500,109,51,0.59707
3609490,-0.08000,62.7500,109,51,0.61612
3609500,-0.07000,61.7500,109,51,0.65543
3609510,-0.05000,61.3125,109,51,0.67350
3609520,-0.01500,60.8750,109,51,0.68987
3609530,0.03000,60.0000,109,51,0.70403
3609540,0.04500,59.6250,109,51,0.72674
3609550,0.02500,59.1875,109,51,0.73529
3609560,-0.01500,58.7500,109,51,0.74212
3609570,-0.05500,58.3125,109,51,0.74701
3609580,-0.09000,57.5000,109,51,0.74994
3609590,-0.11500,57.1250,109,51,0.75018
3609600,-0.13500,56.6875,109,51,0.74969
3609610,-0.14000,56.3125,109,51,0.74823
3609620,-0.14500,55.6250,109,51,0.74164
3609630,-0.14500,55.2500,109,51,0.73626
3609640,-0.14000,54.9375,109,51,0.72918
3609650,-0.12500,54.5625,109,51,0.72112
3609660,-0.12000,54.0000,109,51,0.70208
3609670,-0.11000,53.8125,109,51,0.69206
3609680,0.08500,53.5625,109,51,0.68205
3609690,0.47500,53.3750,109,51,0.67131
3609700,1.06500,52.9375,109,51,0.64884
3609710,0.99500,52.7500,109,51,0.63785
3609720,0.26000,52.5000,109,51,0.62662
3609730,-0.33000,52.2500,109,51,0.61563
3609740,-0.49000,51.5625,109,51,0.59463
3609750,-0.37500,51.1875,109,51,0.58437
3609760,-0.25500,50.8125,109,51,0.57411
3609770,-0.22000,50.4375,109,51,0.56410
3609780,-0.21500,49.6875,109,51,0.54676
3609790,-0.20500,49.3125,109,51,0.53748
3609800,-0.19000,49.0000,109,51,0.52796
3609810,-0.18000,48.6875,109,51,0.51868
3609820,-0.17000,48.0625,109,51,0.50037
3609830,-0.16000,47.7500,109,51,0.49133
3609840,-0.15500,47.5000,109,51,0.48278
3609850,-0.13500,47.4375,109,51,0.47424
3609860,-0.11500,48.8125,109,51,0.45763
3609870,-0.11500,51.1875,109,51,0.45055
3609880,-0.10500,55.0625,109,51,0.44396
3609890,-0.09500,60.2500,109,51,0.43639
3609900,-0.08000,72.6250,109,51,0.42076
3609910,-0.06500,78.8750,109,51,0.41319
3609920,-0.04500,84.6875,109,51,0.40562
3609930,-0.02000,89.9375,109,51,0.39829
3609940,0.00000,98.0000,109,51,0.38437
3609950,0.02000,100.8750,109,51,0.37778
3609960,0.03000,103.0000,109,51,0.37118
3609970,0.04000,104.4375,109,51,0.36484
3609980,0.05000,105.6875,109,51,0.35604
3609990,0.05000,105.6250,109,51,0.34994
3610000,0.04500,105.3125,109,51,0.34310
3610010,0.04500,104.7500,109,51,0.33675
3610020,0.05000,103.0625,109,51,0.32503
3610030,0.05500,102.0000,109,51,0.31941
3610040,0.06000,100.8750,109,51,0.31355
3610050,0.06000,99.5625,109,51,0.30794
3610060,0.04500,96.9375,109,51,0.29695
3610070,0.01500,95.6250,109,51,0.29304
3610080,-0.01000,94.1875,109,51,0.28987
3610090,-0.03000,92.8125,109,51,0.28571
3610100,-0.04500,90.0625,109,51,0.27619
3610110,-0.06000,88.6250,109,51,0.27131
3610120,-0.06500,87.1875,109,51,0.26691
3610130,-0.06000,85.6250,109,51,0.26374
3610140,-0.05000,81.8750,109,51,0.26398
3610150,-0.04500,79.6875,109,51,0.26886
3610160,-0.04500,77.3750,109,51,0.27790
3610170,-0.04500,75.1250,109,51,0.29133
3610180,-0.04500,71.3750,109,51,0.32405
3610190,-0.05000,69.9375,109,51,0.34652
3610200,-0.05500,68.7500,109,51,0.38095
3610210,-0.05500,67.8125,109,51,0.41392
3610220,-0.06000,66.4375,109,51,0.46667
3610230,-0.07000,65.9375,109,51,0.49621
3610240,-0.07500,65.4375,109,51,0.52601
3610250,-0.07500,65.0625,109,51,0.55507
3610260,-0.07500,64.2500,109,51,0.60855
3610270,-0.08000,63.8125,109,51,0.62930
3610280,-0.08000,63.3750,109,51,0.64664
3610290,-0.06500,62.9375,109,51,0.66471
3610300,-0.03500,62.0000,109,51,0.69841
3610310,-0.00500,61.5625,109,51,0.71282
3610320,0.01500,61.1250,109,51,0.72527
3610330,0.01500,60.6875,109,51,0.73578
3610340,-0.00500,59.7500,109,51,0.75067
3610350,-0.04500,59.3125,109,51,0.75580
3610360,-0.08500,58.9375,109,51,0.75946
3610370,-0.11000,58.5000,109,51,0.76166
3610380,-0.12500,57.6875,109,51,0.75971
3610390,-0.13000,57.3125,109,51,0.75751
3610400,0.04000,105.8750,109,51,0.36459
3610410,0.04000,105.8750,109,51,0.36459
3610420,0.04000,105.8750,109,51,0.36459
3610430,0.04000,105.8750,109,51,0.36459
3610440,0.04000,105.8750,109,51,0.36459
3610450,0.04000,105.8750,109,51,0.36459
3610460,0.04000,105.8750,109,51,0.36459
3610470,0.04000,105.8750,109,51,0.36459
3610480,0.04000,105.8750,109,51,0.36459
3610490,0.06000,102.8125,109,51,0.32747
3610500,0.06000,102.8125,109,51,0.32747
3610510,0.06000,102.8125,109,51,0.32747
3610520,0.06000,102.8125,109,51,0.32747
3610530,0.06000,102.8125,109,51,0.32747
3610540,0.06000,102.8125,109,51,0.32747
3610550,0.06000,102.8125,109,51,0.32747
3610560,0.06000,102.8125,109,51,0.32747
3610570,0.06000,102.8125,109,51,0.32747
3610580,0.06000,102.8125,109,51,0.32747
3610590,0.06000,102.8125,109,51,0.32747
3610600,0.06000,102.8125,109,51,0.32747
3610610,0.06000,102.8125,109,51,0.32747
3610620,0.06000,102.8125,109,51,0.32747
3610630,0.06000,102.8125,109,51,0.32747
3610640,0.06000,102.8125,109,51,0.32747
3610650,0.06000,102.8125,109,51,0.32747
3610660,0.06000,102.8125,109,51,0.32747
3610670,0.06000,102.8125,109,51,0.32747
3610680,0.06000,102.8125,109,51,0.32747
3610690,0.06000,102.8125,109,51,0.32747
3610700,0.06000,102.8125,109,51,0.32747
3610710,0.06000,102.8125,109,51,0.32747
3610720,0.06000,102.8125,109,51,0.32747
3610730,0.06000,102.8125,109,51,0.32747
3610740,0.06000,102.8125,109,51,0.32747
3610750,0.06000,102.8125,109,51,0.32747
3610760,0.06000,102.8125,109,51,0.32747
3610770,0.06000,102.8125,109,51,0.32747
3610780,0.06000,102.8125,109,51,0.32747
3610790,0.06000,102.8125,109,51,0.32747
3610800,0.06000,102.8125,109,51,0.32747
3610810,0.06000,102.8125,109,51,0.32747
3610820,0.07000,100.3125,109,51,0.31624
3610830,0.08500,99.0625,109,51,0.31062
3610840,0.08000,97.7500,109,51,0.30501
3610850,0.04500,96.4375,109,51,0.29963
3610860,0.01000,93.8125,109,51,0.28913
3610870,-0.01000,92.5000,109,51,0.28547
3610880,-0.02000,91.1875,109,51,0.28254
3610890,-0.03500,89.8750,109,51,0.27863
3610900,-0.03500,87.0625,109,51,0.27106
3610910,-0.03500,85.4375,109,51,0.26886
3610920,-0.02500,83.5625,109,51,0.26862
3610930,-0.02500,79.1875,109,51,0.27106
3610940,-0.02500,76.8125,109,51,0.28742
3610950,-0.03000,74.5000,109,51,0.30232
3610960,-0.03500,72.5000,109,51,0.32161
3610970,-0.04000,70.8125,109,51,0.34481
3610980,-0.04000,68.2500,109,51,0.39145
3610990,-0.04500,67.3125,109,51,0.41929
3611000,-0.05000,66.5625,108,50,0.44933
3611010,-0.05500,66.0000,108,50,0.48010
3611020,-0.05500,65.0625,108,50,0.54090
3611030,-0.06500,64.6250,108,50,0.56947
3611040,-0.06500,64.2500,108,50,0.59634
3611050,-0.06500,63.8750,108,50,0.62125
3611060,-0.06000,63.0625,108,50,0.66520
3611070,-0.04500,62.6875,108,50,0.68132
3611080,-0.01500,62.2500,108,50,0.69426
3611090,0.02500,61.7500,108,50,0.70720
3611100,0.06000,60.8125,108,50,0.72991
3611110,0.05000,60.3125,108,50,0.73871
3611120,0.01000,59.8750,108,50,0.74603
3611130,-0.03000,59.4375,108,50,0.75189
3611140,-0.06000,58.5000,108,50,0.75922
3611150,-0.09000,58.0000,108,50,0.76068
3611160,-0.10500,57.5625,108,50,0.76044
3611170,-0.11500,57.1250,108,50,0.75897
3611180,-0.11500,56.3125,108,50,0.75116
3611190,-0.11500,55.8750,108,50,0.74579
3611200,-0.11500,55.5000,108,50,0.73944
3611210,-0.11500,55.1250,108,50,0.73187
3611220,-0.11000,54.4375,108,50,0.71087
3611230,-0.11000,54.1250,108,50,0.69890
3611240,0.01000,53.8750,108,50,0.68987
3611250,0.44500,53.6250,108,50,0.67912
3611260,1.01500,53.2500,108,50,0.65568
3611270,0.96000,53.0625,108,50,0.64444
3611280,0.25000,52.8125,108,50,0.63370
3611290,-0.32500,52.5625,108,50,0.62247
3611300,-0.48500,51.9375,108,50,0.60000
3611310,-0.37500,51.6875,108,50,0.58877
3611320,-0.25500,51.3125,108,50,0.57753
3611330,-0.21500,50.9375,108,50,0.56654
3611340,-0.19000,50.1250,108,50,0.54554
3611350,-0.17000,49.7500,108,50,0.53504
3611360,-0.14500,49.3750,108,50,0.52479
3611370,-0.13500,49.0000,108,50,0.51600
3611380,-0.13000,48.3125,108,50,0.49939
3611390,-0.13500,48.0000,108,50,0.49060
3611400,-0.13000,47.6875,108,50,0.48156
3611410,-0.11500,47.5625,108,50,0.47253
3611420,-0.10500,48.3125,108,50,0.45470
3611430,-0.09500,50.1875,108,50,0.44591
3611440,-0.08500,53.5000,108,50,0.43736
3611450,-0.08500,58.3125,108,50,0.42906
3611460,-0.07000,70.3125,108,50,0.41270
3611470,-0.05500,76.4375,108,50,0.40586
3611480,-0.03500,82.1875,108,50,0.40000
3611490,-0.01000,87.4375,108,50,0.39316
3611500,0.01000,95.7500,108,50,0.37851
3611510,0.03000,98.6875,108,50,0.37118
3611520,0.05000,100.8750,108,50,0.36410
3611530,0.06000,102.3750,108,50,0.35726
3611540,0.06500,103.5000,108,50,0.34432
3611550,0.07000,103.4375,108,50,0.33797
3611560,0.07000,103.0000,108,50,0.33187
3611570,0.08000,102.3750,108,50,0.32723
3611580,0.09000,100.4375,108,50,0.31844
3611590,0.10000,99.2500,108,50,0.31282
3611600,0.11000,98.0000,108,50,0.30720
3611610,0.11000,95.3125,108,50,0.30159
3611620,0.09000,94.0000,108,50,0.29011
3611630,0.06500,92.6250,108,50,0.28449
3611640,0.03500,91.2500,108,50,0.27912
3611650,0.00500,89.8750,108,50,0.27375
3611660,-0.01000,87.1250,108,50,0.26349
3611670,-0.02500,85.6250,108,50,0.26007
3611680,-0.02500,84.1250,108,50,0.25763
3611690,-0.02500,82.4375,108,50,0.25470
3611700,-0.03000,78.4375,108,50,0.25250
3611710,-0.03000,76.1250,108,50,0.25495
3611720,-0.03000,73.8125,108,50,0.26081
3611730,-0.03000,71.6250,108,50,0.27082
3611740,-0.03000,68.1875,108,50,0.30403
3611750,-0.03000,67.0000,108,50,0.32650
3611760,-0.02500,66.0000,108,50,0.35238
3611770,-0.02000,65.2500,108,50,0.37705
3611780,-0.02500,64.1250,108,50,0.42906
3611790,-0.02500,63.6875,108,50,0.45836
3611800,-0.03000,63.3750,108,50,0.48767
3611810,-0.02500,63.0625,108,50,0.51648
3611820,-0.01500,62.5000,108,50,0.56972
3611830,-0.00500,62.1250,108,50,0.59365
3611840,0.01000,61.7500,108,50,0.61563
3611850,0.02000,61.3750,108,50,0.63565
3611860,0.04000,60.6250,108,50,0.66886
3611870,0.07000,60.1875,108,50,0.68034
3611880,0.08500,59.7500,108,50,0.68889
3611890,0.06500,59.3125,108,50,0.69744
3611900,0.02500,58.5000,108,50,0.71087
3611910,-0.02000,58.0625,108,50,0.71575
3611920,-0.05500,57.6250,108,50,0.71941
3611930,-0.08500,57.1250,108,50,0.72161
3611940,-0.10500,56.2500,108,50,0.72186
3611950,-0.10500,55.8125,108,50,0.71966
3611960,-0.10500,55.3125,108,50,0.71600
3611970,-0.09500,54.8750,108,50,0.71087
3611980,-0.09500,54.1250,108,50,0.69768
3611990,-0.08500,53.7500,108,50,0.68938
3612000,-0.08500,53.4375,107,50,0.68010
3612010,-0.08500,52.8750,107,50,0.65934
3612020,0.03500,52.6875,107,50,0.64811
3612030,0.47000,52.5000,107,50,0.63663
3612040,0.98000,52.3125,107,50,0.62295
3612050,0.86000,52.1250,107,50,0.60806
3612060,0.18000,51.6875,107,50,0.58364
3612070,-0.32500,51.4375,107,50,0.57363
3612080,-0.46500,51.1250,107,50,0.56435
3612090,-0.37000,50.8125,107,50,0.55482
3612100,-0.25000,50.0625,107,50,0.53529
3612110,-0.21500,49.6875,107,50,0.52576
3612120,-0.20000,49.3750,107,50,0.51624
3612130,-0.18000,49.0000,107,50,0.50720
3612140,-0.16000,48.3125,107,50,0.48987
3612150,-0.15000,48.0000,107,50,0.48132
3612160,-0.13500,47.6250,107,50,0.47302
3612170,-0.12500,47.3750,107,50,0.46593
3612180,-0.11500,46.8750,107,50,0.45201
3612190,-0.10000,46.7500,107,50,0.44420
3612200,-0.08500,47.0000,107,50,0.43639
3612210,-0.08500,48.0625,107,50,0.42882
3612220,-0.07500,54.2500,107,50,0.41392
3612230,-0.07000,59.3750,107,50,0.40635
3612240,-0.05500,65.1875,107,50,0.39902
3612250,-0.04000,71.1250,107,50,0.38999
3612260,-0.02500,82.3125,107,50,0.37582
3612270,-0.01000,87.1250,107,50,0.37070
3612280,0.00000,91.2500,107,50,0.36606
3612290,0.01500,94.6250,107,50,0.36044
3612300,0.03000,99.0625,107,50,0.34847
3612310,0.04000,100.2500,107,50,0.34261
3612320,0.04500,100.8750,107,50,0.33675
3612330,0.04500,101.0625,107,50,0.33089
3612340,0.05000,100.3125,107,50,0.31990
3612350,0.05000,99.5000,107,50,0.31453
3612360,0.06000,98.5000,107,50,0.30916
3612370,0.07500,96.0625,107,50,0.30525
3612380,0.09000,94.7500,107,50,0.29817
3612390,0.08000,93.3125,107,50,0.29353
3612400,0.06000,91.9375,107,50,0.28864
3612410,0.03000,90.5000,107,50,0.28352
3612420,-0.00500,87.6250,107,50,0.27326
3612430,-0.03000,86.2500,107,50,0.26813
3612440,-0.04500,84.8750,107,50,0.26325
3612450,-0.05500,83.5000,107,50,0.25836
3612460,-0.05500,80.3750,107,50,0.24982
3612470,-0.04500,78.6250,107,50,0.24811
3612480,-0.04000,76.6250,107,50,0.24835
3612490,-0.04000,74.4375,107,50,0.24957
3612500,-0.04500,70.3125,107,50,0.26007
3612510,-0.04500,68.6250,107,50,0.27057
3612520,-0.04000,67.2500,107,50,0.28547
3612530,-0.04500,66.1250,107,50,0.30427
3612540,-0.04500,64.5000,107,50,0.35140
3612550,-0.05000,63.8750,107,50,0.37851
3612560,-0.05000,63.3750,107,50,0.40708
3612570,-0.05500,62.9375,107,50,0.43272
3612580,-0.06000,62.1875,107,50,0.48205
3612590,-0.06500,61.8125,107,50,0.50818
3612600,-0.06500,61.4375,107,50,0.53382
3612610,-0.06500,61.0625,107,50,0.55775
3612620,-0.05500,60.2500,107,50,0.60000
3612630,-0.03500,59.8125,107,50,0.61832
3612640,-0.00500,59.4375,107,50,0.63468
3612650,0.03000,59.0000,107,50,0.64908
3612660,0.05000,58.1875,107,50,0.67155
3612670,0.03500,57.7500,107,50,0.67863
3612680,-0.00500,57.3125,107,50,0.68327
3612690,-0.04500,56.8750,107,50,0.68767
3612700,-0.08000,56.1250,107,50,0.69402
3612710,-0.10500,55.6875,107,50,0.69524
3612720,-0.12500,55.3125,107,50,0.69524
3612730,-0.13000,54.8750,107,50,0.69402
3612740,-0.13000,54.1250,107,50,0.68718
3612750,-0.12500,53.7500,107,50,0.68156
3612760,-0.12500,53.3750,107,50,0.67473
3612770,-0.11500,53.0625,107,50,0.66716
3612780,-0.11000,52.5000,107,50,0.65006
3612790,-0.12000,52.3125,107,50,0.64029
3612800,0.00000,52.1250,107,50,0.63028
3612810,0.42000,52.0000,107,50,0.61978
3612820,1.00500,51.6250,107,50,0.59853
3612830,0.91000,51.4375,107,50,0.58803
3612840,0.26000,51.1875,107,50,0.57753
3612850,-0.27500,50.9375,107,50,0.56703
3612860,-0.45000,50.2500,107,50,0.54725
3612870,-0.36500,49.9375,107,50,0.53871
3612880,-0.25000,49.6250,107,50,0.53089
3612890,-0.21000,49.2500,107,50,0.52234
3612900,-0.20000,48.5625,107,50,0.50501
3612910,-0.18500,48.1875,107,50,0.49646
3612920,-0.17000,47.8750,107,50,0.48816
3612930,-0.16000,47.5000,107,50,0.48010
3612940,-0.15000,46.9375,107,50,0.46398
3612950,-0.14000,46.6250,107,50,0.45592
3612960,-0.12500,46.3750,107,50,0.44786
3612970,-0.11000,46.1250,107,50,0.44103
3612980,-0.10000,46.8750,107,50,0.42808
3612990,-0.09500,48.6250,107,50,0.42076
3613000,-0.09500,51.8125,107,50,0.41319
3613010,-0.08500,56.3750,107,50,0.40562
3613020,-0.07500,67.6875,107,50,0.39096
3613030,-0.05500,73.5000,107,50,0.38413
3613040,-0.04000,79.0625,107,50,0.37729
3613050,-0.02000,84.2500,107,50,0.37070
3613060,0.00000,92.6250,107,50,0.35922
3613070,0.01500,95.6875,107,50,0.35531
3613080,0.03000,98.0625,107,50,0.35043
3613090,0.03500,99.8125,107,50,0.34505
3613100,0.04000,101.5000,107,50,0.33382
3613110,0.05000,101.6250,107,50,0.32821
3613120,0.05500,101.3125,107,50,0.32259
3613130,0.06000,100.6875,107,50,0.31697
3613140,0.07000,98.8125,107,50,0.30672
3613150,0.08000,97.6250,107,50,0.30183
3613160,0.08000,96.3750,107,50,0.29695
3613170,0.07000,95.0000,107,50,0.29377
3613180,0.05000,92.2500,107,50,0.28718
3613190,0.02000,90.8750,107,50,0.28278
3613200,0.00000,89.5000,107,50,0.27839
3613210,-0.02500,88.1875,107,50,0.27375
3613220,-0.04000,85.5625,107,50,0.26398
3613230,-0.05500,84.2500,107,50,0.25910
3613240,-0.05000,82.8125,107,50,0.25495
3613250,-0.04000,81.2500,107,50,0.25153
3613260,-0.03000,77.5000,107,50,0.25006
3613270,-0.02500,75.3125,107,50,0.25568
3613280,-0.02500,73.1250,107,50,0.26252
3613290,-0.03500,71.0625,107,50,0.26960
3613300,-0.04500,67.8125,107,50,0.29817
3613310,-0.04500,66.6250,107,50,0.31893
3613320,-0.04500,65.6875,107,50,0.34310
3613330,-0.05500,64.8750,107,50,0.36972
3613340,-0.06000,63.7500,107,50,0.42759
3613350,-0.06500,63.2500,107,50,0.45714
3613360,-0.06500,62.8125,107,50,0.48620
3613370,-0.06000,62.3750,107,50,0.51111
3613380,-0.05500,61.6250,107,50,0.55653
3613390,-0.05500,61.1875,107,50,0.57949
3613400,-0.04000,60.7500,107,50,0.60122
3613410,-0.02500,60.3125,107,50,0.62125
3613420,0.00000,59.5000,107,50,0.65592
3613430,0.03000,59.0625,107,50,0.67033
3613440,0.06000,58.6250,107,50,0.68254
3613450,0.05000,58.1875,107,50,0.69304
3613460,0.01500,57.3125,107,50,0.70696
3613470,-0.02500,56.9375,107,50,0.71038
3613480,-0.06000,56.5000,107,50,0.71355
3613490,-0.08500,56.1250,107,50,0.71600
3613500,-0.11000,55.3125,107,50,0.71722
3613510,-0.11500,54.9375,107,50,0.71575
3613520,-0.11500,54.5000,107,50,0.71331
3613530,-0.11000,54.1250,107,50,0.70940
3613540,-0.10000,53.3750,107,50,0.69768
3613550,-0.09500,53.0625,107,50,0.68987
3613560,-0.08000,52.7500,107,50,0.68132
3613570,-0.09000,52.5000,107,50,0.67253
3613580,-0.07000,52.1250,107,50,0.65324
3613590,0.19500,51.8750,107,50,0.64249
3613600,0.74500,51.6875,107,50,0.63175
3613610,1.03000,51.5000,107,50,0.62076
3613620,0.61000,51.1250,107,50,0.59878
3613630,-0.07500,50.8125,107,50,0.58779
3613640,-0.43500,50.5000,107,50,0.57729
3613650,-0.44000,50.1875,107,50,0.56679
3613660,-0.31500,49.5000,107,50,0.54750
3613670,-0.23000,49.1250,107,50,0.53919
3613680,-0.20000,48.7500,107,50,0.53040
3613690,-0.19000,48.4375,107,50,0.52137
3613700,-0.18000,47.7500,107,50,0.50379
3613710,-0.16500,47.4375,107,50,0.49499
3613720,-0.15500,47.1250,107,50,0.48645
3613730,-0.14500,46.8750,107,50,0.47814
3613740,-0.13500,46.2500,107,50,0.46129
3613750,-0.12500,46.1250,107,50,0.45299
3613760,-0.11500,46.2500,107,50,0.44469
3613770,-0.11500,47.0000,107,50,0.43785
3613780,-0.10500,51.0521,107,50,0.42788
3613790,-0.10500,56.6875,107,50,0.41783
3613800,-0.08500,62.1875,107,50,0.41074
3613810,-0.07000,68.0625,107,50,0.40342
3613820,-0.05000,79.5625,107,50,0.38901
3613830,-0.03000,84.7500,107,50,0.38217
3613840,-0.01000,89.3125,107,50,0.37534
3613850,0.01000,93.1875,107,50,0.36874
3613860,0.03000,98.7500,107,50,0.35751
3613870,0.04500,100.4375,107,50,0.35336
3613880,0.05500,101.5000,107,50,0.34847
3613890,0.05000,102.0000,107,50,0.34335
3613900,0.05000,101.8750,107,50,0.33284
3613910,0.04500,101.3125,107,50,0.32772
3613920,0.04500,100.5625,107,50,0.32259
3613930,0.05000,99.6250,107,50,0.31746
3613940,0.05500,97.3125,107,50,0.30720
3613950,0.06000,96.0000,107,50,0.30208
3613960,0.05000,94.6875,107,50,0.29695
3613970,0.02500,93.3750,107,50,0.29328
3613980,0.00000,90.7500,107,50,0.28645
3613990,-0.02500,89.4375,107,50,0.28181
3614000,-0.04500,88.1875,107,49,0.27692
3614010,-0.06000,86.8750,107,49,0.27082
3614020,-0.07000,84.1875,107,49,0.26154
3614030,-0.07500,82.6875,107,49,0.25812
3614040,-0.06500,81.0000,107,49,0.25592
3614050,-0.06000,79.1250,107,49,0.25617
3614060,-0.06000,74.7500,107,49,0.26471
3614070,-0.06000,72.5000,107,49,0.27326
3614080,-0.06500,70.5000,107,49,0.28571
3614090,-0.06500,68.8750,107,49,0.30476
3614100,-0.06000,66.3125,107,49,0.35556
3614110,-0.06500,65.4375,107,49,0.38413
3614120,-0.07000,64.6875,107,49,0.41441
3614130,-0.07500,64.0000,107,49,0.44567
3614140,-0.08000,63.0000,107,49,0.50818
3614150,-0.08500,62.5625,107,49,0.53846
3614160,-0.08500,62.1250,107,49,0.56728
3614170,-0.08500,61.6875,107,49,0.59121
3614180,-0.08000,60.8750,107,49,0.63370
3614190,-0.07000,60.4375,107,49,0.65495
3614200,-0.05500,60.0000,107,49,0.67473
3614210,-0.02500,59.6250,107,49,0.69280
3614220,0.01500,58.8125,107,49,0.72283
3614230,0.03000,58.4375,107,49,0.73455
3614240,0.02000,58.0625,107,49,0.74432
3614250,-0.02500,57.6875,107,49,0.75189
3614260,-0.06500,56.8750,107,49,0.76068
3614270,-0.10000,56.5000,107,49,0.76142
3614280,-0.12500,56.1250,107,49,0.76190
3614290,-0.14500,55.6875,107,49,0.76190
3614300,-0.14500,54.9375,107,49,0.75726
3614310,-0.15000,54.5625,107,49,0.75458
3614320,-0.15000,54.2500,107,49,0.75018
3614330,-0.14500,53.8750,107,49,0.74408
3614340,-0.13500,53.1875,107,49,0.72772
3614350,-0.12500,52.9375,107,49,0.71795
3614360,-0.13000,52.7500,107,49,0.70720
3614370,-0.02500,52.5625,107,49,0.69670
3614380,0.38000,52.1875,107,49,0.67473
3614390,0.96500,52.0625,107,49,0.66300
3614400,0.99000,51.8750,107,49,0.65128
3614410,0.32500,51.6250,107,49,0.63980
3614420,-0.29000,51.1250,107,49,0.61709
3614430,-0.50000,50.8125,107,49,0.60586
3614440,-0.41000,50.4375,107,49,0.59487
3614450,-0.29000,50.0625,107,49,0.58413
3614460,-0.25000,49.3125,107,49,0.56410
3614470,-0.23500,49.0000,107,49,0.55531
3614480,-0.22000,48.6875,107,49,0.54603
3614490,-0.20000,48.3125,107,49,0.53651
3614500,-0.18500,47.6250,107,49,0.51770
3614510,-0.17500,47.3125,107,49,0.50842
3614520,-0.16000,47.0625,107,49,0.49939
3614530,-0.15000,46.6875,107,49,0.49060
3614540,-0.13500,46.8125,107,49,0.47253
3614550,-0.12500,47.5625,107,49,0.46374
3614560,-0.12000,49.4375,107,49,0.45519
3614570,-0.11500,52.7500,107,49,0.44811
3614580,-0.10500,63.1250,107,49,0.43468
3614590,-0.09000,69.1875,107,49,0.42735
3614600,-0.07000,75.1875,107,49,0.42002
3614610,-0.04500,80.8750,107,49,0.41245
3614620,-0.02000,90.7500,107,49,0.39805
3614630,0.00000,94.6250,107,49,0.39096
3614640,0.02000,97.7500,107,49,0.38413
3614650,0.03000,100.1250,107,49,0.37729
3614660,0.03000,102.8750,107,49,0.36581
3614670,0.03000,103.3750,107,49,0.36166
3614680,0.03000,103.5000,107,49,0.35653
3614690,0.04000,102.6875,107,49,0.35116
3614700,0.04500,101.9375,107,49,0.33968
3614710,0.05500,101.0000,107,49,0.33382
3614720,0.06000,99.9375,107,49,0.32821
3614730,0.07000,98.7500,107,49,0.32259
3614740,0.07000,96.1875,107,49,0.31184
3614750,0.05500,94.8750,107,49,0.30672
3614760,0.03000,93.5625,107,49,0.30183
3614770,0.00000,92.1875,107,49,0.29817
3614780,-0.02500,89.5625,107,49,0.28987
3614790,-0.04500,88.1875,107,49,0.28449
3614800,-0.05500,86.8750,107,49,0.28059
3614810,-0.06000,85.4375,107,49,0.27643
3614820,-0.06000,82.3750,107,49,0.26984
3614830,-0.05500,80.5625,107,49,0.26935
3614840,-0.04500,78.5000,107,49,0.27204
3614850,-0.04000,76.3750,107,49,0.27863
3614860,-0.04000,72.1875,107,49,0.30256
3614870,-0.04500,70.4375,107,49,0.31844
3614880,-0.04500,68.9375,107,49,0.33919
3614890,-0.05500,67.7500,107,49,0.36410
3614900,-0.06500,66.0625,107,49,0.43028
3614910,-0.06500,65.3750,107,49,0.46569
3614920,-0.06500,64.8750,107,49,0.49158
3614930,-0.06500,64.3750,107,49,0.52015
3614940,-0.06500,63.5625,107,49,0.57778
3614950,-0.07000,63.1250,107,49,0.60537
3614960,-0.07000,62.7500,107,49,0.62784
3614970,-0.07500,62.3125,107,49,0.65177
3614980,-0.06500,61.5000,107,49,0.68987
3614990,-0.06000,61.0625,107,49,0.70574
3615000,-0.03500,60.6875,106,49,0.72063
3615010,0.00000,60.2500,106,49,0.73382
3615020,0.03000,59.3750,106,49,0.75629
3615030,0.03000,58.9375,106,49,0.76557
3615040,-0.00500,58.5000,106,49,0.77094
3615050,-0.04000,58.1250,106,49,0.77387
3615060,-0.07000,57.3125,106,49,0.77631
3615070,-0.10500,56.8750,106,49,0.77436
3615080,-0.12500,56.4375,106,49,0.77241
3615090,-0.13000,56.0625,106,49,0.77045
3615100,-0.13500,55.3125,106,49,0.76239
3615110,-0.13000,54.9375,106,49,0.75653
3615120,-0.12500,54.5625,106,49,0.74676
3615130,-0.11500,54.2500,106,49,0.73431
3615140,-0.11000,53.6250,106,49,0.71844
3615150,-0.13000,53.3750,106,49,0.70696
3615160,-0.05000,53.1250,106,49,0.69304
3615170,0.34000,52.8750,106,49,0.68327
3615180,0.98000,52.5000,106,49,0.65836
3615190,1.13000,52.3125,106,49,0.64542
3615200,0.43500,52.1250,106,49,0.63614
3615210,-0.27500,51.8750,106,49,0.62589
3615220,-0.50500,51.3750,106,49,0.60049
3615230,-0.41500,51.0625,106,49,0.58926
3615240,-0.27500,50.8125,106,49,0.57851
3615250,-0.21500,50.4375,106,49,0.56801
3615260,-0.20000,49.6875,106,49,0.55043
3615270,-0.18500,49.3125,106,49,0.54139
3615280,-0.17000,49.0000,106,49,0.53211
3615290,-0.16000,48.6875,106,49,0.52259
3615300,-0.15500,48.0625,106,49,0.50379
3615310,-0.15500,47.7500,106,49,0.49475
3615320,-0.15000,47.5000,106,49,0.48596
3615330,-0.14500,47.4375,106,49,0.47741
3615340,-0.13500,48.6875,106,49,0.46081
3615350,-0.11500,50.9375,106,49,0.45372
3615360,-0.10000,54.6875,106,49,0.44737
3615370,-0.08000,59.8125,106,49,0.44029
3615380,-0.06000,72.0000,106,49,0.42564
3615390,-0.04500,78.1875,106,49,0.41807
3615400,-0.02000,83.9375,106,49,0.41050
3615410,0.00000,89.1250,106,49,0.40293
3615420,0.02000,97.3750,106,49,0.38852
3615430,0.04000,100.2500,106,49,0.38144
3615440,0.05000,102.3750,106,49,0.37485
3615450,0.05500,103.8125,106,49,0.36825
3615460,0.06000,105.0625,106,49,0.35922
3615470,0.06000,105.0000,106,49,0.35409
3615480,0.06500,104.6875,106,49,0.34872
3615490,0.06500,103.3125,106,49,0.34335
3615500,0.06500,102.3750,106,49,0.33236
3615510,0.07500,101.3125,106,49,0.32698
3615520,0.08000,100.1875,106,49,0.32161
3615530,0.08500,99.0000,106,49,0.31624
3615540,0.07000,96.5000,106,49,0.30501
3615550,0.05000,95.1875,106,49,0.30110
3615560,0.02000,93.8750,106,49,0.29792
3615570,0.00000,92.5625,106,49,0.29353
3615580,-0.01500,89.8750,106,49,0.28376
3615590,-0.02500,88.5625,106,49,0.27937
3615600,-0.03500,87.1250,106,49,0.27570
3615610,-0.04500,85.6250,106,49,0.27350
3615620,-0.04500,82.0625,106,49,0.27766
3615630,-0.04500,79.9375,106,49,0.28498
3615640,-0.04500,77.6250,106,49,0.29670
3615650,-0.04500,75.3125,106,49,0.31306
3615660,-0.05000,71.1250,106,49,0.35067
3615670,-0.05500,69.5625,106,49,0.37558
3615680,-0.06000,68.2500,106,49,0.40391
3615690,-0.06500,67.1875,106,49,0.43443
3615700,-0.06500,65.6875,106,49,0.49866
3615710,-0.07000,65.1250,106,49,0.53065
3615720,-0.07000,64.6875,106,49,0.56166
3615730,-0.07000,64.2500,106,49,0.59121
3615740,-0.07500,63.5000,106,49,0.64469
3615750,-0.07000,63.0625,106,49,0.66496
3615760,-0.06500,62.6875,106,49,0.68156
3615770,-0.05500,62.2500,106,49,0.69890
3615780,-0.05000,61.3750,106,49,0.73040
3615790,-0.02500,60.9375,106,49,0.74359
3615800,0.01000,60.5000,106,49,0.75507
3615810,0.04500,60.0625,106,49,0.76484
3615820,0.04000,59.1875,106,49,0.77851
3615830,0.01000,58.7396,106,49,0.78380
3615840,-0.03500,58.3125,106,49,0.78486
3615850,-0.07000,57.5000,106,49,0.78584
3615860,-0.10500,57.0625,106,49,0.78217
3615870,-0.12500,56.6250,106,49,0.77924
3615880,-0.13500,56.1875,106,49,0.77558
3615890,-0.13000,55.7500,106,49,0.77070
3615900,-0.13000,55.0000,106,49,0.75726
3615910,-0.13000,54.6250,106,49,0.74872
3615920,-0.12500,54.3125,106,49,0.73895
3615930,-0.11500,54.0000,106,49,0.72796
3615940,-0.13000,53.4375,106,49,0.70403
3615950,-0.04000,53.1875,106,49,0.69255
3615960,0.37000,53.0000,106,49,0.68132
3615970,0.99500,52.7500,106,49,0.66960
3615980,1.04500,52.3125,106,49,0.64542
3615990,0.35500,52.1250,106,49,0.63346
3616000,-0.30500,51.8125,105,49,0.62149
3616010,-0.50500,51.5625,105,49,0.61001
3616020,-0.38500,51.0000,105,49,0.58803
3616030,-0.24000,50.6250,105,49,0.57729
3616040,-0.20000,50.2500,105,49,0.56679
3616050,-0.18500,49.8750,105,49,0.55629
3616060,-0.18000,49.1250,105,49,0.53846
3616070,-0.17000,48.7500,105,49,0.52918
3616080,-0.16000,48.3750,105,49,0.51966
3616090,-0.15500,48.0625,105,49,0.51013
3616100,-0.15000,47.3750,105,49,0.49109
3616110,-0.14500,47.1250,105,49,0.48181
3616120,-0.13500,47.0625,105,49,0.47277
3616130,-0.11000,47.3125,105,49,0.45788
3616140,-0.09500,50.8750,105,49,0.42711
3616150,-0.08500,54.8750,105,49,0.41783
3616160,-0.07500,60.1250,105,49,0.41050
3616170,-0.06000,66.1250,105,49,0.40293
3616180,-0.03500,78.3125,105,49,0.38779
3616190,-0.01500,83.9375,105,49,0.38022
3616200,0.00000,88.9375,105,49,0.37289
3616210,0.02000,93.2500,105,49,0.36581
3616220,0.04000,99.4375,105,49,0.35165
3616230,0.05500,101.3750,105,49,0.34481
3616240,0.06000,102.6875,105,49,0.33846
3616250,0.06000,103.4375,105,49,0.33211
3616260,0.07000,103.5000,105,49,0.32332
3616270,0.07500,103.0625,105,49,0.31844
3616280,0.08000,102.3125,105,49,0.31306
3616290,0.09000,101.4375,105,49,0.30769
3616300,0.10000,99.1875,105,49,0.29646
3616310,0.11000,98.0000,105,49,0.29084
3616320,0.10000,96.6875,105,49,0.28547
3616330,0.08500,95.3750,105,49,0.28010
3616340,0.05500,92.6250,105,49,0.26960
3616350,0.02500,91.3125,105,49,0.26569
3616360,0.00000,90.0000,105,49,0.26276
3616370,-0.01500,88.7500,105,49,0.25861
3616380,-0.03500,86.1250,105,49,0.24957
3616390,-0.04500,84.7500,105,49,0.24567
3616400,-0.04500,83.1875,105,49,0.24347
3616410,-0.03500,81.4375,105,49,0.24371
3616420,-0.03000,77.2500,105,49,0.25470
3616430,-0.02500,74.8750,105,49,0.26618
3616440,-0.02500,72.6250,105,49,0.28205
3616450,-0.03000,70.5625,105,49,0.30208
3616460,-0.03000,67.4375,105,49,0.34432
3616470,-0.03000,66.3125,105,49,0.36996
3616480,-0.03000,65.3750,105,49,0.39829
3616490,-0.03500,64.1250,105,49,0.42784
3616500,-0.04000,63.6875,105,49,0.48742
3616510,-0.04500,63.2500,105,49,0.51648
3616520,-0.04500,62.8750,105,49,0.54408
3616530,-0.04500,62.5625,105,49,0.56996
3616540,-0.05000,61.8750,105,49,0.61587
3616550,-0.04500,61.5000,105,49,0.63321
3616560,-0.04000,61.0625,105,49,0.64737
3616570,-0.02500,60.2500,105,49,0.66178
3616580,0.02000,59.8750,105,49,0.68742
3616590,0.06000,59.4375,105,49,0.69768
3616600,0.05000,59.0000,105,49,0.70623
3616610,0.00500,58.6250,105,49,0.71306
3616620,-0.03500,57.7500,105,49,0.72210
3616630,-0.07000,57.3125,105,49,0.72454
3616640,-0.10000,56.8750,105,49,0.72527
3616650,-0.12500,56.4375,105,49,0.72479
3616660,-0.12500,55.6250,105,49,0.71868
3616670,-0.13000,55.2500,105,49,0.71429
3616680,-0.13000,54.8125,105,49,0.70867
3616690,-0.13000,54.4375,105,49,0.70183
3616700,-0.12000,53.6875,105,49,0.68523
3616710,-0.10500,53.3750,105,49,0.67546
3616720,-0.11500,53.1250,105,49,0.66496
3616730,-0.06500,52.9375,105,49,0.65372
3616740,0.25500,52.5000,105,49,0.63053
3616750,0.82500,52.3125,105,49,0.61954
3616760,0.98500,52.1250,105,49,0.60928
3616770,0.44000,51.9375,105,49,0.59853
3616780,-0.20000,51.4375,105,49,0.57729
3616790,-0.47500,51.1875,105,49,0.56703
3616800,-0.43500,50.8750,105,49,0.55678
3616810,-0.30000,50.5000,105,49,0.54676
3616820,-0.23000,49.7500,105,49,0.52772
3616830,-0.21000,49.3750,105,49,0.51819
3616840,-0.20000,49.0000,105,49,0.50891
3616850,-0.18500,48.6250,105,49,0.50085
3616860,-0.17000,47.9375,105,49,0.48498
3616870,-0.15500,47.6250,105,49,0.47643
3616880,-0.14500,47.3125,105,49,0.46789
3616890,-0.13500,47.0000,105,49,0.45958
3616900,-0.11500,46.6250,105,49,0.44298
3616910,-0.09500,46.8750,105,49,0.43468
3616920,-0.08500,47.8125,105,49,0.42662
3616930,-0.07500,50.0000,105,49,0.41856
3616940,-0.06500,58.6250,105,49,0.40342
3616950,-0.06000,64.2500,105,49,0.39731
3616960,-0.05500,70.1250,105,49,0.39170
3616970,-0.04500,75.8125,105,49,0.38535
3616980,-0.03000,85.8750,105,49,0.37167
3616990,-0.01500,90.0000,105,49,0.36484
3617000,0.00500,93.3750,105,49,0.35800
3617010,0.02000,96.0000,105,49,0.35116
3617020,0.03000,99.0625,105,49,0.33822
3617030,0.04000,99.6875,105,49,0.33211
3617040,0.04500,99.8125,105,49,0.32625
3617050,0.05000,99.6250,105,49,0.32186
3617060,0.06500,98.2500,105,49,0.31355
3617070,0.08000,97.2500,105,49,0.30842
3617080,0.09000,96.1250,105,49,0.30305
3617090,0.10500,94.8750,105,49,0.29744
3617100,0.10500,92.2500,105,49,0.28620
3617110,0.09000,90.9375,105,49,0.28083
3617120,0.06000,89.5625,105,49,0.27521
3617130,0.02000,88.1250,105,49,0.26960
3617140,-0.00500,85.4375,105,49,0.25861
3617150,-0.03000,84.0625,105,49,0.25470
3617160,-0.04500,82.6875,105,49,0.25177
3617170,-0.05500,81.2500,105,49,0.24811
3617180,-0.06000,77.9375,105,49,0.24249
3617190,-0.05000,76.0625,105,49,0.24225
3617200,-0.04500,73.9375,105,49,0.24469
3617210,-0.04500,71.7500,105,49,0.25031
3617220,-0.05000,68.0000,105,49,0.27350
3617230,-0.04500,66.5625,105,49,0.29133
3617240,-0.04500,65.4375,105,49,0.31258
3617250,-0.04500,64.5000,105,49,0.33382
3617260,-0.04000,63.2500,105,49,0.38144
3617270,-0.04500,62.7500,105,49,0.40904
3617280,-0.04500,62.3125,105,49,0.43785
3617290,-0.05000,61.9375,105,49,0.46642
3617300,-0.05500,61.2500,105,49,0.52039
3617310,-0.05500,60.9375,105,49,0.54505
3617320,-0.05500,60.5625,105,49,0.56801
3617330,-0.04500,60.1875,105,49,0.58877
3617340,-0.04000,59.5000,105,49,0.62466
3617350,-0.02500,59.0625,105,49,0.63736
3617360,0.00500,58.6250,105,49,0.64737
3617370,0.04000,58.1875,105,49,0.65739
3617380,0.05000,57.3125,105,49,0.67399
3617390,0.03500,56.8750,105,49,0.68010
3617400,-0.00500,56.5000,105,49,0.68449
3617410,-0.04500,56.0625,105,49,0.68742
3617420,-0.08500,55.2500,105,49,0.68938
3617430,-0.11000,54.8750,105,49,0.68816
3617440,-0.12500,54.5000,105,49,0.68547
3617450,-0.12500,54.0625,105,49,0.68156
3617460,-0.12500,53.3125,105,49,0.66960
3617470,-0.12500,52.9375,105,49,0.66203
3617480,-0.12500,52.6250,105,49,0.65372
3617490,-0.11000,52.2500,105,49,0.64444
3617500,-0.10000,51.7500,105,49,0.62418
3617510,-0.10500,51.5625,105,49,0.61368
3617520,0.03500,51.3750,105,49,0.60317
3617530,0.45500,51.1875,105,49,0.59243
3617540,0.97000,50.8750,105,49,0.57167
3617550,0.90000,50.7500,105,49,0.56239
3617560,0.22500,50.5625,105,49,0.55385
3617570,-0.30000,50.3125,105,49,0.54481
3617580,-0.44500,49.6875,105,49,0.52576
3617590,-0.36500,49.3750,105,49,0.51624
3617600,-0.25000,49.0625,105,49,0.50696
3617610,-0.21000,48.6875,105,49,0.49792
3617620,-0.20000,48.0000,105,49,0.48010
3617630,-0.18500,47.6250,105,49,0.47155
3617640,-0.17000,47.3125,105,49,0.46300
3617650,-0.15500,47.0000,105,49,0.45592
3617660,-0.14500,46.3125,105,49,0.44249
3617670,-0.13500,46.0000,105,49,0.43516
3617680,-0.12500,45.7500,105,49,0.42784
3617690,-0.11500,45.6250,105,49,0.42027
3617700,-0.10000,46.5625,105,49,0.40513
3617710,-0.09500,48.5000,105,49,0.39731
3617720,-0.09000,51.8125,105,49,0.38974
3617730,-0.08500,56.4375,105,49,0.38242
3617740,-0.07000,67.5000,105,49,0.36850
3617750,-0.05500,73.1250,105,49,0.36313
3617760,-0.03500,78.5000,105,49,0.35849
3617770,-0.01500,83.4375,105,49,0.35311
3617780,0.00000,91.3750,105,49,0.34164
3617790,0.02500,94.3125,105,49,0.33578
3617800,0.04000,96.5000,105,49,0.32991
3617810,0.05500,98.0000,105,49,0.32405
3617820,0.06000,99.3125,105,49,0.31306
3617830,0.07000,99.3125,105,49,0.30769
3617840,0.07000,98.9375,105,49,0.30256
3617850,0.07500,98.3125,105,49,0.29890
3617860,0.08000,96.4375,105,49,0.29206
3617870,0.09000,95.2500,105,49,0.28767
3617880,0.09750,94.2292,105,49,0.28384
3617890,0.09500,92.6875,105,49,0.27814
3617900,0.07500,89.9375,105,49,0.26813
3617910,0.05000,88.5625,105,49,0.26325
3617920,0.01500,87.1875,105,49,0.25861
3617930,-0.01000,85.8750,105,49,0.25372
3617940,-0.03000,83.3125,105,49,0.24420
3617950,-0.04000,81.9375,105,49,0.24151
3617960,-0.04500,80.5000,105,49,0.24005
3617970,-0.04500,78.8750,105,49,0.23858
3617980,-0.03500,75.0625,105,49,0.24005
3617990,-0.03500,72.8750,105,49,0.24493
3618000,-0.03500,70.6875,105,49,0.25348
3618010,-0.03000,68.6875,105,49,0.26642
3618020,-0.03000,65.6875,105,49,0.30427
3618030,-0.03000,64.6250,105,49,0.32845
3618040,-0.03500,63.7500,105,49,0.35531
3618050,-0.04500,63.0625,105,49,0.38046
3618060,-0.04500,62.0625,105,49,0.43223
3618070,-0.04500,61.6250,105,49,0.46056
3618080,-0.05000,61.2500,105,49,0.48864
3618090,-0.05500,60.8750,105,49,0.51600
3618100,-0.05500,60.1875,105,49,0.56654
3618110,-0.05500,59.8750,105,49,0.58901
3618120,-0.05500,59.5000,105,49,0.60952
3618130,-0.04500,59.1250,105,49,0.62784
3618140,-0.02500,58.3125,105,49,0.65763
3618150,0.00000,57.9375,105,49,0.66764
3618160,0.03500,57.5000,105,49,0.67497
3618170,0.04500,57.1250,105,49,0.68230
3618180,0.01000,56.3125,105,49,0.70842
3618190,-0.03000,55.8750,105,49,0.71697
3618200,-0.07500,55.5000,105,49,0.72186
3618210,-0.10500,55.1250,105,49,0.72430
3618220,-0.12500,54.3125,105,49,0.72332
3618230,-0.13500,53.9375,105,49,0.72039
3618240,-0.13000,53.5625,105,49,0.71600
3618250,-0.12500,53.1875,105,49,0.71038
3618260,-0.12000,52.5000,105,49,0.69621
3618270,-0.11500,52.1875,105,49,0.68767
3618280,-0.10500,51.9375,105,49,0.67814
3618290,-0.10000,51.6875,105,49,0.66789
3618300,-0.09500,51.3125,105,49,0.64615
3618310,0.09000,51.1250,105,49,0.63516
3618320,0.59500,50.9375,105,49,0.62393
3618330,1.03500,50.8125,105,49,0.61294
3618340,0.75000,50.3750,105,49,0.59145
3618350,0.05000,50.1250,105,49,0.58169
3618360,-0.38500,49.8125,105,49,0.57265
3618370,-0.46000,49.4375,105,49,0.56337
3618380,-0.34500,48.7500,105,49,0.54481
3618390,-0.25000,48.3750,105,49,0.53553
3618400,-0.22000,48.0000,105,49,0.52625
3618410,-0.20500,47.6875,105,49,0.51697
3618420,-0.19000,47.0625,105,49,0.49915
3618430,-0.17500,46.7500,105,49,0.49035
3618440,-0.16500,46.4375,105,49,0.48181
3618450,-0.15500,46.1250,105,49,0.47448
3618460,-0.14500,45.5625,105,49,0.46032
3618470,-0.13500,45.3750,105,49,0.45250
3618480,-0.12500,45.3750,105,49,0.44444
3618490,-0.11500,45.9375,105,49,0.43663
3618500,-0.11000,50.3125,105,49,0.42149
3618510,-0.10500,54.5000,105,49,0.41416
3618520,-0.09500,59.7500,105,49,0.40684
3618530,-0.07500,65.4375,105,49,0.39951
3618540,-0.05500,76.6875,105,49,0.38510
3618550,-0.03500,81.8750,105,49,0.37973
3618560,-0.01500,86.4375,105,49,0.37509
3618570,0.00500,90.3750,105,49,0.36972
3618580,0.03000,96.1875,105,49,0.35897
3618590,0.04000,98.0000,105,49,0.35336
3618600,0.05000,99.2500,105,49,0.34774
3618610,0.05500,99.8750,105,49,0.34212
3618620,0.06000,99.8750,105,49,0.33114
3618630,0.06000,99.3750,105,49,0.32576
3618640,0.07000,98.6875,105,49,0.32039
3618650,0.07500,97.7500,105,49,0.31648
3618660,0.08500,95.5000,105,49,0.30916
3618670,0.09000,94.1875,105,49,0.30452
3618680,0.08500,92.8750,105,49,0.29963
3618690,0.07000,90.0625,105,49,0.29451
3618700,0.04000,88.6875,105,49,0.28449
3618710,0.01000,87.3125,105,49,0.27961
3618720,-0.00500,86.0000,105,49,0.27473
3618730,-0.02500,84.6875,105,49,0.26984
3618740,-0.04000,82.1250,105,49,0.26252
3618750,-0.04500,80.6875,105,49,0.26105
3618760,-0.04000,79.1875,105,49,0.26007
3618770,-0.04000,77.3750,105,49,0.26081
3618780,-0.04000,73.3125,105,49,0.27131
3618790,-0.04000,71.1875,105,49,0.28230
3618800,-0.04000,69.2500,105,49,0.29744
3618810,-0.03500,67.6875,105,49,0.31673
3618820,-0.03500,65.3125,105,49,0.36606
3618830,-0.03500,64.4375,105,49,0.39463
3618840,-0.04500,63.7500,105,49,0.42466
3618850,-0.04500,63.1250,105,49,0.45153
3618860,-0.05000,62.1250,105,49,0.50403
3618870,-0.05000,61.6875,105,49,0.53187
3618880,-0.05500,61.2500,105,49,0.55922
3618890,-0.05500,60.8125,105,49,0.58510
3618900,-0.05000,60.2083,105,49,0.62002
3618910,-0.04500,59.6250,105,49,0.65250
3618920,-0.03500,59.2500,105,49,0.67106
3618930,-0.01500,58.8125,105,49,0.68742
3618940,0.02500,58.0000,105,49,0.71184
3618950,0.05500,57.6250,105,49,0.71917
3618960,0.05500,57.1875,105,49,0.72650
3618970,0.02500,56.8125,105,49,0.73309
3618980,-0.01000,56.0000,105,49,0.74188
3618990,-0.04500,55.6250,105,49,0.74432
3619000,-0.07000,55.1875,104,48,0.74530
3619010,-0.09500,54.4375,104,48,0.74310
3619020,-0.10000,54.0625,104,48,0.73993
3619030,-0.10500,53.7500,104,48,0.73529
3619040,-0.10500,53.3750,104,48,0.72918
3619050,-0.11000,53.0000,104,48,0.72210
3619060,-0.10500,52.4375,104,48,0.70501
3619070,-0.10000,52.1875,104,48,0.69548
3619080,-0.10000,51.9375,104,48,0.68523
3619090,-0.08500,51.7500,104,48,0.67448
3619100,0.13500,51.4375,104,48,0.65201
3619110,0.67500,51.2500,104,48,0.64078
3619120,1.08000,51.1250,104,48,0.62955
3619130,0.72000,50.9375,104,48,0.61807
3619140,0.00000,50.3750,104,48,0.59683
3619150,-0.39500,50.0625,104,48,0.58730
3619160,-0.44000,49.7500,104,48,0.57753
3619170,-0.32000,49.3750,104,48,0.56752
3619180,-0.23000,48.6875,104,48,0.54750
3619190,-0.21000,48.3750,104,48,0.53773
3619200,-0.20500,48.0625,104,48,0.52796
3619210,-0.19500,47.7500,104,48,0.51844
3619220,-0.18000,47.0625,104,48,0.50012
3619230,-0.17500,46.8125,104,48,0.49109
3619240,-0.17000,46.5000,104,48,0.48254
3619250,-0.16500,46.1875,104,48,0.47521
3619260,-0.15000,45.9375,104,48,0.46105
3619270,-0.13500,46.3125,104,48,0.45299
3619280,-0.11500,47.5000,104,48,0.44493
3619290,-0.10500,49.9375,104,48,0.43712
3619300,-0.09500,58.9375,104,48,0.42173
3619310,-0.08000,64.6250,104,48,0.41441
3619320,-0.06500,70.4375,104,48,0.40733
3619330,-0.04500,76.1250,104,48,0.40049
3619340,-0.02000,86.2500,104,48,0.38852
3619350,0.00000,90.3750,104,48,0.38388
3619360,0.02500,93.8125,104,48,0.37875
3619370,0.03500,96.5000,104,48,0.37314
3619380,0.05000,99.9375,104,48,0.36142
3619390,0.06000,100.6875,104,48,0.35556
3619400,0.07000,101.0625,104,48,0.34969
3619410,0.07000,100.5625,104,48,0.34383
3619420,0.07000,99.9375,104,48,0.33309
3619430,0.07000,99.0625,104,48,0.32747
3619440,0.07500,98.0625,104,48,0.32210
3619450,0.08000,96.9375,104,48,0.31795
3619460,0.09000,94.5000,104,48,0.31062
3619470,0.08000,93.2500,104,48,0.30598
3619480,0.06500,91.9375,104,48,0.30085
3619490,0.03500,90.5625,104,48,0.29573
3619500,0.00500,87.8750,104,48,0.28547
3619510,-0.02000,86.5625,104,48,0.28059
3619520,-0.03500,85.2500,104,48,0.27595
3619530,-0.04500,83.9375,104,48,0.27179
3619540,-0.04500,81.0625,104,48,0.26764
3619550,-0.04500,79.3750,104,48,0.26886
3619560,-0.03500,77.5000,104,48,0.27204
3619570,-0.03000,75.5000,104,48,0.27839
3619580,-0.03500,71.3125,104,48,0.30232
3619590,-0.03500,69.5625,104,48,0.32039
3619600,-0.03500,68.0000,104,48,0.34237
3619610,-0.04500,66.7500,104,48,0.36777
3619620,-0.04500,64.8750,104,48,0.42515
3619630,-0.05500,64.1875,104,48,0.45568
3619640,-0.05500,63.6250,104,48,0.48645
3619650,-0.06000,63.0625,104,48,0.51306
3619660,-0.06500,62.1875,104,48,0.56288
3619670,-0.07500,61.7500,104,48,0.58877
3619680,-0.07500,61.3750,104,48,0.61368
3619690,-0.08500,60.9375,104,48,0.63687
3619700,-0.07500,60.1250,104,48,0.67741
3619710,-0.07000,59.6875,104,48,0.69451
3619720,-0.05500,59.2500,104,48,0.70916
3619730,-0.02500,58.8125,104,48,0.72186
3619740,0.02000,58.0625,104,48,0.73944
3619750,0.04000,57.6875,104,48,0.74408
3619760,0.02500,57.3125,104,48,0.74847
3619770,-0.01500,56.9375,104,48,0.75189
3619780,-0.05500,56.1250,104,48,0.75556
3619790,-0.08500,55.7500,104,48,0.75580
3619800,-0.12000,55.3750,104,48,0.75482
3619810,-0.13500,55.0625,104,48,0.75263
3619820,-0.13500,54.3125,104,48,0.74408
3619830,-0.13500,54.0000,104,48,0.73797
3619840,-0.13500,53.6250,104,48,0.73040
3619850,-0.14000,53.2500,104,48,0.72210
3619860,-0.13500,52.6875,104,48,0.70354
3619870,-0.13500,52.4375,104,48,0.69280
3619880,-0.14500,52.2500,104,48,0.68132
3619890,-0.01500,52.0625,104,48,0.66960
3619900,0.41500,51.6875,104,48,0.64615
3619910,1.01000,51.5000,104,48,0.63468
3619920,1.03500,51.2500,104,48,0.62344
3619930,0.38333,50.9479,104,48,0.60745
3619940,-0.33500,50.6250,104,48,0.59219
3619950,-0.51000,50.3125,104,48,0.58315
3619960,-0.40500,50.0000,104,48,0.57338
3619970,-0.27000,49.6875,104,48,0.56361
3619980,-0.22500,49.0000,104,48,0.54408
3619990,-0.22000,48.6250,104,48,0.53455
3620000,-0.20500,48.3125,104,48,0.52503
3620010,-0.19000,48.0000,104,48,0.51575
3620020,-0.18000,47.3750,104,48,0.49744
3620030,-0.17000,47.0625,104,48,0.48864
3620040,-0.17000,46.7500,104,48,0.48010
3620050,-0.17000,46.5000,104,48,0.47277
3620060,-0.16000,46.6250,104,48,0.45812
3620070,-0.15500,47.6250,104,48,0.45031
3620080,-0.14000,49.8750,104,48,0.44225
3620090,-0.13000,53.5625,104,48,0.43443
3620100,-0.11500,64.4375,104,48,0.41905
3620110,-0.09500,70.5000,104,48,0.41148
3620120,-0.06500,76.4375,104,48,0.40391
3620130,-0.03500,82.0000,104,48,0.39658
3620140,-0.00500,91.3125,104,48,0.38364
3620150,0.01000,94.9375,104,48,0.37875
3620160,0.02500,97.7500,104,48,0.37314
3620170,0.04000,99.8750,104,48,0.36703
3620180,0.05000,102.2500,104,48,0.35507
3620190,0.06000,102.6250,104,48,0.34945
3620200,0.06500,102.6250,104,48,0.34383
3620210,0.07000,102.3750,104,48,0.33846
3620220,0.08000,101.0625,104,48,0.32576
3620230,0.08000,100.1250,104,48,0.31746
3620240,0.09500,99.0625,104,48,0.31087
3620250,0.11000,96.6875,104,48,0.30281
3620260,0.11000,95.3750,104,48,0.29841
3620270,0.09000,94.1250,104,48,0.29377
3620280,0.06000,92.8125,104,48,0.28889
3620290,0.03000,90.2500,104,48,0.28400
3620300,0.01000,89.0000,104,48,0.27375
3620310,-0.01000,87.7500,104,48,0.26886
3620320,-0.02500,86.4375,104,48,0.26422
3620330,-0.03500,85.1250,104,48,0.26056
3620340,-0.03500,82.0625,104,48,0.25836
3620350,-0.03500,80.3125,104,48,0.26129
3620360,-0.03500,78.3125,104,48,0.26691
3620370,-0.04000,76.1875,104,48,0.27619
3620380,-0.04000,72.0625,104,48,0.30769
3620390,-0.04500,70.3750,104,48,0.32967
3620400,-0.04500,68.9375,104,48,0.35507
3620410,-0.05000,67.6875,104,48,0.38339
3620420,-0.05000,65.8750,104,48,0.44518
3620430,-0.05000,65.1875,104,48,0.47668
3620440,-0.05500,64.6250,104,48,0.50403
3620450,-0.05500,64.1250,104,48,0.52869
3620460,-0.06000,63.3125,104,48,0.58242
3620470,-0.06500,62.9375,104,48,0.60830
3620480,-0.07500,62.5625,104,48,0.63272
3620490,-0.07000,62.1250,104,48,0.65519
3620500,-0.05500,61.3125,104,48,0.69377
3620510,-0.04500,60.9375,104,48,0.70965
3620520,-0.01500,60.5000,104,48,0.72332
3620530,0.01500,60.0625,104,48,0.73480
3620540,0.04000,59.1875,104,48,0.75067
3620550,0.03500,58.8125,104,48,0.75458
3620560,0.01500,58.3750,104,48,0.75824
3620570,-0.01500,58.0000,104,48,0.76117
3620580,-0.06500,57.1875,104,48,0.76361
3620590,-0.10500,56.7500,104,48,0.76288
3620600,-0.14000,56.3750,104,48,0.76117
3620610,-0.15500,56.0000,104,48,0.75800
3620620,-0.16000,55.2500,104,48,0.74750
3620630,-0.16000,54.8750,104,48,0.74042
3620640,-0.16000,54.5000,104,48,0.73236
3620650,-0.15500,54.1875,104,48,0.72357
3620660,-0.15500,53.6875,104,48,0.70354
3620670,-0.17000,53.4375,104,48,0.69255
3620680,-0.15500,53.1875,104,48,0.68107
3620690,0.13000,52.9375,104,48,0.66935
3620700,0.76000,52.4375,104,48,0.64591
3620710,1.12500,52.1875,104,48,0.63419
3620720,0.63500,51.9375,104,48,0.62271
3620730,-0.18500,51.6875,104,48,0.61148
3620740,-0.56000,51.1875,104,48,0.59096
3620750,-0.50000,50.8750,104,48,0.58193
3620760,-0.32000,50.5000,104,48,0.57241
3620770,-0.23000,50.1250,104,48,0.56239
3620780,-0.20500,49.4375,104,48,0.54237
3620790,-0.18500,49.0625,104,48,0.53260
3620800,-0.17000,48.6875,104,48,0.52283
3620810,-0.16000,48.3125,104,48,0.51355
3620820,-0.15500,47.6250,104,48,0.49548
3620830,-0.15500,47.3125,104,48,0.48669
3620840,-0.16000,47.0000,104,48,0.47912
3620850,-0.16000,46.8125,104,48,0.47228
3620860,-0.14500,47.5625,104,48,0.45665
3620870,-0.13500,49.3750,104,48,0.44860
3620880,-0.11500,52.6875,104,48,0.44078
3620890,-0.10500,63.1875,104,48,0.43272
3620900,-0.09000,69.2500,104,48,0.41709
3620910,-0.07000,75.3125,104,48,0.40977
3620920,-0.04500,81.0000,104,48,0.40244
3620930,-0.02500,86.2500,104,48,0.39536
3620940,-0.00500,94.5625,104,48,0.38291
3620950,0.01000,98.3125,104,48,0.37668
3620960,0.02500,99.8125,104,48,0.37265
3620970,0.03500,101.3750,104,48,0.36679
3620980,0.04500,102.7500,104,48,0.35507
3620990,0.05000,102.7500,104,48,0.34945
3621000,0.05500,102.4375,104,48,0.34359
3621010,0.06000,101.9375,104,48,0.33773
3621020,0.06000,100.3125,104,48,0.32601
3621030,0.06500,99.3125,104,48,0.32015
3621040,0.07000,98.1875,104,48,0.31575
3621050,0.07000,97.0000,104,48,0.31233
3621060,0.06500,94.4375,104,48,0.30256
3621070,0.05000,93.1250,104,48,0.29719
3621080,0.03000,91.8125,104,48,0.29182
3621090,0.00500,90.5000,104,48,0.28645
3621100,-0.01500,87.8125,104,48,0.27595
3621110,-0.04000,86.5000,104,48,0.27106
3621120,-0.05500,85.1250,104,48,0.26691
3621130,-0.06500,83.6875,104,48,0.26398
3621140,-0.06500,80.3750,104,48,0.26471
3621150,-0.05500,78.4375,104,48,0.26911
3621160,-0.05000,76.2500,104,48,0.27668
3621170,-0.05500,74.0000,104,48,0.28791
3621180,-0.06500,70.0625,104,48,0.32308
3621190,-0.07000,68.5000,104,48,0.34652
3621200,-0.07500,67.2500,104,48,0.37338
3621210,-0.08000,66.1875,104,48,0.40244
3621220,-0.08500,64.6875,104,48,0.46447
3621230,-0.09000,64.1250,104,48,0.49573
3621240,-0.09500,63.6875,104,48,0.52210
3621250,-0.09000,63.3125,104,48,0.54579
3621260,-0.09000,62.5625,104,48,0.59585
3621270,-0.09500,62.1875,104,48,0.61978
3621280,-0.09500,61.7500,104,48,0.64200
3621290,-0.09500,61.3750,104,48,0.66227
3621300,-0.09000,60.5000,104,48,0.69670
3621310,-0.07000,60.0000,104,48,0.71087
3621320,-0.04000,59.5625,104,48,0.72283
3621330,0.00000,59.0625,104,48,0.73284
3621340,0.01000,58.1250,104,48,0.74579
3621350,-0.01500,57.6875,104,48,0.74847
3621360,-0.05500,57.1875,104,48,0.75092
3621370,-0.09000,56.8125,104,48,0.75238
3621380,-0.11500,56.0000,104,48,0.75189
3621390,-0.13500,55.6250,104,48,0.74994
3621400,-0.14500,55.2500,104,48,0.74676
3621410,-0.15000,54.8750,104,48,0.74212
3621420,-0.15500,54.1250,104,48,0.72918
3621430,-0.15500,53.8125,104,48,0.72088
3621440,-0.15500,53.4375,104,48,0.71209
3621450,-0.14500,53.1250,104,48,0.70281
3621460,-0.13500,52.6250,104,48,0.68107
3621470,-0.13500,52.4375,104,48,0.66935
3621480,0.04000,52.2500,104,48,0.65714
3621490,0.53000,52.0625,104,48,0.64493
3621500,1.02000,51.8125,104,48,0.62076
3621510,0.80000,51.6250,104,48,0.60904
3621520,0.07000,51.4375,104,48,0.59756
3621530,-0.40500,51.1875,104,48,0.58657
3621540,-0.49000,50.5625,104,48,0.56606
3621550,-0.36000,50.1875,104,48,0.55727
3621560,-0.24000,49.8125,104,48,0.54799
3621570,-0.20000,49.3750,104,48,0.53822
3621580,-0.18000,48.5625,104,48,0.51893
3621590,-0.16000,48.2500,104,48,0.50940
3621600,-0.15000,47.8750,104,48,0.50037
3621610,-0.14000,47.5625,104,48,0.49158
3621620,-0.13500,46.8750,104,48,0.47375
3621630,-0.12500,46.5625,104,48,0.46471
3621640,-0.12000,46.3125,104,48,0.45714
3621650,-0.11500,46.1875,104,48,0.45031
3621660,-0.10500,47.6250,104,48,0.43468
3621670,-0.10000,50.0625,104,48,0.42637
3621680,-0.09000,54.0000,104,48,0.41832
3621690,-0.07500,59.0000,104,48,0.41026
3621700,-0.06000,70.4375,104,48,0.39487
3621710,-0.04000,76.0625,104,48,0.38730
3621720,-0.01500,81.2500,104,48,0.37998
3621730,0.01000,85.9375,104,48,0.37265
3621740,0.04000,93.1875,104,48,0.35995
3621750,0.06000,95.6250,104,48,0.35531
3621760,0.08000,97.4375,104,48,0.34994
3621770,0.09000,98.6250,104,48,0.34408
3621780,0.08500,99.4375,104,48,0.33211
3621790,0.08000,99.1875,104,48,0.32625
3621800,0.07500,98.6250,104,48,0.32039
3621810,0.07500,97.8750,104,48,0.31477
3621820,0.07500,95.7500,104,48,0.30354
3621830,0.08000,94.5000,104,48,0.29792
3621840,0.09000,93.1875,104,48,0.29377
3621850,0.08500,91.7500,104,48,0.29035
3621860,0.06000,89.0000,104,48,0.28132
3621870,0.03000,87.6875,104,48,0.27643
3621880,0.00500,86.3750,104,48,0.27131
3621890,-0.01000,85.0625,104,48,0.26618
3621900,-0.02000,82.4375,104,48,0.25617
3621910,-0.03500,81.0625,104,48,0.25177
3621920,-0.03500,79.5625,104,48,0.24811
3621930,-0.03500,77.8750,104,48,0.24591
3621940,-0.03500,74.0000,104,48,0.24884
3621950,-0.04000,71.8750,104,48,0.25446
3621960,-0.04500,69.8750,104,48,0.26349
3621970,-0.04000,68.1250,104,48,0.27643
3621980,-0.03500,65.4375,104,48,0.31404
3621990,-0.03500,64.5000,104,48,0.33822
3622000,-0.03500,63.6875,103,48,0.36484
3622010,-0.04500,63.0625,103,48,0.39341
3622020,-0.05500,62.0625,103,48,0.45324
3622030,-0.06000,61.6875,103,48,0.48278
3622040,-0.06500,61.3125,103,48,0.50769
3622050,-0.06500,61.0000,103,48,0.52991
3622060,-0.06500,60.2500,103,48,0.57631
3622070,-0.06500,59.9375,103,48,0.59829
3622080,-0.06500,59.5625,103,48,0.61856
3622090,-0.05500,58.7500,103,48,0.63687
3622100,-0.03500,58.3125,103,48,0.66764
3622110,-0.00500,57.8750,103,48,0.68010
3622120,0.03500,57.5000,103,48,0.69035
3622130,0.06000,57.0625,103,48,0.69866
3622140,0.05000,56.3125,103,48,0.70867
3622150,0.01000,55.8750,103,48,0.71038
3622160,-0.03500,55.5000,103,48,0.71160
3622170,-0.07500,55.0625,103,48,0.71184
3622180,-0.09500,54.2500,103,48,0.70867
3622190,-0.10000,53.8750,103,48,0.70525
3622200,-0.09500,53.5000,103,48,0.70061
3622210,-0.09500,53.1250,103,48,0.69499
3622220,-0.09500,52.4375,103,48,0.68034
3622230,-0.09500,52.1250,103,48,0.67155
3622240,-0.09500,51.8125,103,48,0.66252
3622250,-0.10000,51.5625,103,48,0.65324
3622260,-0.11500,51.1250,103,48,0.63248
3622270,-0.04500,50.9375,103,48,0.61954
3622280,0.30000,50.7500,103,48,0.60562
3622290,0.86500,50.6250,103,48,0.59365
3622300,0.97000,50.2500,103,48,0.57192
3622310,0.35000,50.0625,103,48,0.56166
3622320,-0.25000,49.8750,103,48,0.55189
3622330,-0.46000,49.5625,103,48,0.54237
3622340,-0.40500,48.9375,103,48,0.52650
3622350,-0.27000,48.6250,103,48,0.51844
3622360,-0.20000,48.3125,103,48,0.50989
3622370,-0.18000,47.6250,103,48,0.49304
3622380,-0.17000,47.2500,103,48,0.48474
3622390,-0.15500,46.9375,103,48,0.47643
3622400,-0.14500,46.6250,103,48,0.46813
3622410,-0.14500,46.3125,103,48,0.46007
3622420,-0.13500,45.7500,103,48,0.44420
3622430,-0.12000,45.5000,103,48,0.43639
3622440,-0.10500,45.3750,103,48,0.42979
3622450,-0.09500,45.5625,103,48,0.42393
3622460,-0.08500,48.4375,103,48,0.41050
3622470,-0.07500,51.8125,103,48,0.40317
3622480,-0.06000,56.4375,103,48,0.39609
3622490,-0.04500,61.7500,103,48,0.38901
3622500,-0.03500,72.7500,103,48,0.37534
3622510,-0.02500,77.8750,103,48,0.36899
3622520,-0.01000,82.5625,103,48,0.36264
3622530,0.00500,86.6250,103,48,0.35653
3622540,0.02000,92.8125,103,48,0.34799
3622550,0.03500,94.8750,103,48,0.34310
3622560,0.05000,96.3750,103,48,0.33797
3622570,0.05500,97.2500,103,48,0.33284
3622580,0.06000,97.5625,103,48,0.32283
3622590,0.05500,97.1250,103,48,0.31770
3622600,0.06000,96.5000,103,48,0.31258
3622610,0.06500,95.5625,103,48,0.30769
3622620,0.08000,93.3750,103,48,0.29792
3622630,0.09000,92.0625,103,48,0.29304
3622640,0.09500,90.7500,103,48,0.28938
3622650,0.09000,89.3750,103,48,0.28645
3622660,0.07000,86.6250,103,48,0.27814
3622670,0.04000,85.3125,103,48,0.27375
3622680,0.01000,84.0000,103,48,0.26911
3622690,-0.01500,82.7500,103,48,0.26447
3622700,-0.03500,80.2500,103,48,0.25568
3622710,-0.05000,78.8125,103,48,0.25201
3622720,-0.05500,77.2500,103,48,0.24957
3622730,-0.05000,75.4375,103,48,0.24884
3622740,-0.05500,71.2500,103,48,0.25495
3622750,-0.05500,69.1250,103,48,0.26227
3622760,-0.05500,67.1875,103,48,0.27302
3622770,-0.05000,65.6250,103,48,0.28742
3622780,-0.04000,63.3125,103,48,0.32723
3622790,-0.03500,62.5000,103,48,0.35165
3622800,-0.03500,61.8750,103,48,0.37802
3622810,-0.04500,61.3750,103,48,0.40610
3622820,-0.05000,60.5625,103,48,0.46374
3622830,-0.05500,60.1875,103,48,0.49182
3622840,-0.06000,59.8750,103,48,0.51551
3622850,-0.07500,59.5000,103,48,0.53626
3622860,-0.08500,58.8750,103,48,0.57924
3622870,-0.08500,58.5625,103,48,0.59927
3622880,-0.07500,58.1875,103,48,0.61758
3622890,-0.06500,57.7500,103,48,0.63394
3622900,-0.05000,57.0000,103,48,0.66105
3622910,-0.01500,56.6250,103,48,0.67179
3622920,0.03000,56.2500,103,48,0.68083
3622930,0.04000,55.8750,103,48,0.68791
3622940,0.02500,55.0625,103,48,0.69451
3622950,-0.00500,54.6875,103,48,0.69646
3622960,-0.01500,54.3125,103,48,0.69744
3622970,-0.02500,53.9375,103,48,0.69719
3622980,-0.07500,53.1875,103,48,0.69304
3622990,-0.11500,52.8750,103,48,0.68913
3623000,-0.12500,52.5833,102,48,0.68559
3623010,-0.12500,52.1875,102,48,0.67814
3623020,-0.12500,51.5625,102,48,0.66252
3623030,-0.12000,51.3125,102,48,0.65324
3623040,-0.10500,51.0625,102,48,0.64420
3623050,-0.09500,50.8125,102,48,0.63492
3623060,-0.10000,50.4375,102,48,0.61465
3623070,0.04000,50.3125,102,48,0.60391
3623080,0.46000,50.1250,102,48,0.59316
3623090,0.98000,49.8125,102,48,0.58266
3623100,0.92000,49.6250,102,48,0.56239
3623110,0.23500,49.3750,102,48,0.55263
3623120,-0.30500,49.0625,102,48,0.54310
3623130,-0.46000,48.7500,102,48,0.53382
3623140,-0.37500,48.0625,102,48,0.51844
3623150,-0.26500,47.7500,102,48,0.51038
3623160,-0.22000,47.4375,102,48,0.50208
3623170,-0.21500,47.1250,102,48,0.49377
3623180,-0.20500,46.4375,102,48,0.47741
3623190,-0.19000,46.1250,102,48,0.46960
3623200,-0.17000,45.8125,102,48,0.46154
3623210,-0.16000,45.5000,102,48,0.45348
3623220,-0.14500,45.0000,102,48,0.43761
3623230,-0.13000,44.8125,102,48,0.43004
3623240,-0.11000,44.8125,102,48,0.42369
3623250,-0.09500,45.3125,102,48,0.41807
3623260,-0.09500,46.6250,102,48,0.41172
3623270,-0.08500,49.2500,102,48,0.40513
3623280,-0.08500,53.1875,102,48,0.39853
3623290,-0.07500,58.1250,102,48,0.39219
3623300,-0.05500,69.1250,102,48,0.37949
3623310,-0.03500,74.5000,102,48,0.37314
3623320,-0.01500,79.5000,102,48,0.36703
3623330,0.00000,84.0625,102,48,0.36093
3623340,0.01000,91.2500,102,48,0.35018
3623350,0.02500,93.8750,102,48,0.34652
3623360,0.04000,95.7500,102,48,0.34188
3623370,0.05000,97.0625,102,48,0.33675
3623380,0.05500,98.0625,102,48,0.32674
3623390,0.06000,98.0000,102,48,0.32186
3623400,0.07000,97.5625,102,48,0.31722
3623410,0.08000,96.9375,102,48,0.31258
3623420,0.08500,95.0625,102,48,0.30330
3623430,0.09000,93.9375,102,48,0.29841
3623440,0.08000,92.7500,102,48,0.29353
3623450,0.07000,91.5000,102,48,0.29035
3623460,0.04500,88.8750,102,48,0.28376
3623470,0.02000,87.5625,102,48,0.27937
3623480,-0.00500,86.1875,102,48,0.27497
3623490,-0.02500,84.9375,102,48,0.27057
3623500,-0.04000,82.3750,102,48,0.26154
3623510,-0.04500,81.0625,102,48,0.25739
3623520,-0.05500,79.6875,102,48,0.25397
3623530,-0.05000,78.1250,102,48,0.25201
3623540,-0.04500,74.5000,102,48,0.25495
3623550,-0.05000,72.4375,102,48,0.26056
3623560,-0.05500,70.2500,102,48,0.26911
3623570,-0.05500,68.2500,102,48,0.28156
3623580,-0.05500,65.0625,102,48,0.31770
3623590,-0.05500,63.9375,102,48,0.34090
3623600,-0.05500,63.0625,102,48,0.36679
3623610,-0.05500,62.3125,102,48,0.39438
3623620,-0.05500,61.1875,102,48,0.45275
3623630,-0.05500,60.7500,102,48,0.48205
3623640,-0.06000,60.3750,102,48,0.51062
3623650,-0.06500,60.0000,102,48,0.53455
3623660,-0.06500,59.3125,102,48,0.57753
3623670,-0.06500,58.9375,102,48,0.59902
3623680,-0.05500,58.5625,102,48,0.61929
3623690,-0.04500,58.1875,102,48,0.63785
3623700,-0.02500,57.5000,102,48,0.66935
3623710,0.01000,57.1250,102,48,0.68205
3623720,0.04000,56.7500,102,48,0.69304
3623730,0.04000,56.3750,102,48,0.70232
3623740,0.00500,55.6250,102,48,0.71404
3623750,-0.03500,55.2500,102,48,0.71624
3623760,-0.07500,54.9375,102,48,0.71819
3623770,-0.10500,54.5625,102,48,0.71941
3623780,-0.12500,53.8125,102,48,0.71844
3623790,-0.13500,53.5000,102,48,0.71648
3623800,-0.13500,53.1250,102,48,0.71306
3623810,-0.13500,52.8125,102,48,0.70842
3623820,-0.13500,52.1250,102,48,0.69524
3623830,-0.12500,51.8125,102,48,0.68694
3623840,-0.11500,51.5000,102,48,0.67766
3623850,-0.11500,51.3125,102,48,0.66838
3623860,-0.11500,50.9375,102,48,0.64884
3623870,0.08000,50.8125,102,48,0.63810
3623880,0.60000,50.6250,102,48,0.62711
3623890,1.05500,50.4375,102,48,0.61612
3623900,0.78000,50.0625,102,48,0.59438
3623910,0.07500,49.8125,102,48,0.58388
3623920,-0.36000,49.5625,102,48,0.57338
3623930,-0.46000,49.2500,102,48,0.56337
3623940,-0.36000,48.5625,102,48,0.54457
3623950,-0.26500,48.2500,102,48,0.53651
3623960,-0.24000,47.8750,102,48,0.52796
3623970,-0.24000,47.5625,102,48,0.51917
3623980,-0.25000,46.8750,102,48,0.50159
3623990,-0.24000,46.5625,102,48,0.49304
3624000,-0.23000,46.2500,102,48,0.48449
3624010,-0.25500,45.9375,102,48,0.47595
3624020,-0.23500,45.3125,102,48,0.45958
3624030,-0.19000,45.0625,102,48,0.45153
3624040,-0.15500,44.9375,102,48,0.44371
3624050,-0.12500,45.1875,102,48,0.43712
3624060,-0.11500,48.2500,102,48,0.42466
3624070,-0.10000,51.7500,102,48,0.41758
3624080,-0.08500,56.5000,102,48,0.41074
3624090,-0.06500,61.8750,102,48,0.40391
3624100,-0.04500,72.9375,102,48,0.39072
3624110,-0.02000,78.1250,102,48,0.38413
3624120,0.00000,82.9375,102,48,0.37778
3624130,0.02000,87.1250,102,48,0.37143
3624140,0.04500,93.5000,102,48,0.36044
3624150,0.06000,95.7500,102,48,0.35653
3624160,0.06500,97.3125,102,48,0.35165
3624170,0.06500,98.3125,102,48,0.34652
3624180,0.06000,99.0000,102,48,0.33626
3624190,0.06000,98.8125,102,48,0.33138
3624200,0.06000,98.3125,102,48,0.32650
3624210,0.07000,97.6250,102,48,0.32161
3624220,0.08000,95.7500,102,48,0.31209
3624230,0.09500,94.6250,102,48,0.30745
3624240,0.09000,93.3750,102,48,0.30403
3624250,0.07500,92.1250,102,48,0.30110
3624260,0.04500,89.3750,102,48,0.29231
3624270,0.01500,88.0625,102,48,0.28742
3624280,-0.01000,86.6875,102,48,0.28230
3624290,-0.03000,85.3125,102,48,0.27717
3624300,-0.04500,82.6875,102,48,0.26764
3624310,-0.04500,81.2500,102,48,0.26374
3624320,-0.04500,79.8125,102,48,0.26105
3624330,-0.04000,78.1875,102,48,0.26105
3624340,-0.03500,74.5000,102,48,0.26984
3624350,-0.03500,72.4375,102,48,0.27790
3624360,-0.04000,70.4375,102,48,0.28938
3624370,-0.04500,68.5625,102,48,0.30476
3624380,-0.04500,65.7500,102,48,0.34725
3624390,-0.04000,64.6875,102,48,0.37338
3624400,-0.04500,63.8750,102,48,0.40195
3624410,-0.05000,63.2500,102,48,0.43223
3624420,-0.05500,62.1250,102,48,0.49426
3624430,-0.06000,61.6875,102,48,0.52454
3624440,-0.06500,61.2500,102,48,0.55018
3624450,-0.06500,60.8125,102,48,0.57289
3624460,-0.07000,60.0000,102,48,0.62051
3624470,-0.06500,59.6250,102,48,0.64298
3624480,-0.06000,59.2500,102,48,0.66374
3624490,-0.05000,58.8750,102,48,0.68278
3624500,-0.02500,58.0625,102,48,0.71477
3624510,0.00500,57.6875,102,48,0.72747
3624520,0.04000,57.3125,102,48,0.73822
3624530,0.04500,56.9375,102,48,0.74701
3624540,0.01500,56.1250,102,48,0.75726
3624550,-0.02500,55.7500,102,48,0.75897
3624560,-0.06500,55.3750,102,48,0.76044
3624570,-0.09000,55.0000,102,48,0.76117
3624580,-0.11500,54.2500,102,48,0.75922
3624590,-0.13000,53.8750,102,48,0.75629
3624600,-0.13500,53.5625,102,48,0.75214
3624610,-0.13500,53.1875,102,48,0.74676
3624620,-0.12500,52.5000,102,48,0.73236
3624630,-0.11500,52.1875,102,48,0.72332
3624640,-0.11000,51.8750,102,48,0.71404
3624650,-0.11000,51.6250,102,48,0.70452
3624660,-0.10000,51.1875,102,48,0.68278
3624670,0.12000,51.0625,102,48,0.67131
3624680,0.68000,50.8750,102,48,0.65958
3624690,1.14500,50.7500,102,48,0.64786
3624700,0.80500,50.3750,102,48,0.62540
3624710,0.02500,50.1875,102,48,0.61441
3624720,-0.41500,49.9375,102,48,0.60391
3624730,-0.46000,49.6875,102,48,0.59341
3624740,-0.32500,49.0000,102,48,0.57363
3624750,-0.23000,48.6250,102,48,0.56508
3624760,-0.21000,48.3125,102,48,0.55580
3624770,-0.20000,48.0000,102,48,0.54628
3624780,-0.18000,47.3125,102,48,0.52723
3624790,-0.17000,47.0000,102,48,0.51795
3624800,-0.16500,46.6875,102,48,0.50867
3624810,-0.15500,46.4375,102,48,0.49939
3624820,-0.15000,45.8750,102,48,0.48156
3624830,-0.14000,45.6250,102,48,0.47302
3624840,-0.13000,45.5625,102,48,0.46593
3624850,-0.12000,45.9375,102,48,0.45958
3624860,-0.11500,49.4375,102,48,0.44542
3624870,-0.10500,53.3125,102,48,0.43810
3624880,-0.08500,58.3750,102,48,0.43077
3624890,-0.07000,64.0625,102,48,0.42344
3624900,-0.05000,75.6250,102,48,0.40904
3624910,-0.02500,80.9375,102,48,0.40195
3624920,0.00000,85.6875,102,48,0.39487
3624930,0.02000,89.8125,102,48,0.38803
3624940,0.03000,95.9375,102,48,0.37582
3624950,0.04500,98.0000,102,48,0.37118
3624960,0.05000,99.4375,102,48,0.36581
3624970,0.05500,100.2500,102,48,0.36020
3624980,0.05500,100.6875,102,48,0.34921
3624990,0.05500,100.3125,102,48,0.34383
3625000,0.05000,99.7500,102,48,0.33846
3625010,0.05500,99.0000,102,48,0.33309
3625020,0.06000,97.0000,102,48,0.32283
3625030,0.07000,95.8750,102,48,0.31770
3625040,0.06000,94.6250,102,48,0.31404
3625050,0.04500,93.3750,102,48,0.31087
3625060,0.02000,90.8750,102,48,0.30232
3625070,-0.01000,89.6250,102,48,0.29768
3625080,-0.03000,88.3750,102,48,0.29255
3625090,-0.04500,87.0625,102,48,0.28767
3625100,-0.05000,84.5625,102,48,0.27863
3625110,-0.05500,83.3125,102,48,0.27473
3625120,-0.05500,81.9375,102,48,0.27228
3625130,-0.06000,80.4375,102,48,0.27204
3625140,-0.06000,76.8750,102,48,0.27961
3625150,-0.05500,74.7500,102,48,0.28791
3625160,-0.06000,72.6250,102,48,0.30012
3625170,-0.06500,70.6875,102,48,0.31648
3625180,-0.06500,67.5000,102,48,0.36142
3625190,-0.06500,66.3125,102,48,0.38901
3625200,-0.07000,65.3750,102,48,0.41856
3625210,-0.07500,64.5625,102,48,0.44957
3625220,-0.08500,63.3125,102,48,0.51282
3625230,-0.08500,62.8125,102,48,0.54359
3625240,-0.09000,62.3750,102,48,0.56947
3625250,-0.09500,62.0000,102,48,0.59267
3625260,-0.09500,61.1875,102,48,0.64151
3625270,-0.10000,60.8125,102,48,0.66422
3625280,-0.09500,60.4375,102,48,0.68523
3625290,-0.08000,60.0000,102,48,0.70427
3625300,-0.05500,59.1875,102,48,0.73578
3625310,-0.02500,58.7500,102,48,0.74823
3625320,0.01000,58.3125,102,48,0.75873
3625330,0.02500,57.9375,102,48,0.76728
3625340,0.00000,57.1875,102,48,0.77753
3625350,-0.03500,56.7500,102,48,0.77900
3625360,-0.07500,56.3750,102,48,0.78046
3625370,-0.10500,56.0625,102,48,0.78120
3625380,-0.12500,55.3125,102,48,0.77949
3625390,-0.13500,54.9375,102,48,0.77656
3625400,-0.14000,54.5625,102,48,0.77216
3625410,-0.13500,54.2500,102,48,0.76654
3625420,-0.13500,53.5625,102,48,0.75140
3625430,-0.13500,53.2500,102,48,0.74212
3625440,-0.13000,52.9375,102,48,0.73260
3625450,-0.12500,52.6875,102,48,0.72283
3625460,-0.14000,52.2500,102,48,0.70110
3625470,-0.00500,52.0625,102,48,0.68962
3625480,0.48000,51.8750,102,48,0.67814
3625490,1.10500,51.6875,102,48,0.66642
3625500,1.02000,51.3125,102,48,0.64322
3625510,0.22500,51.1250,102,48,0.63175
3625520,-0.39500,50.9375,102,48,0.62027
3625530,-0.53000,50.6875,102,48,0.60879
3625540,-0.38500,50.1875,102,48,0.58779
3625550,-0.26000,49.8750,102,48,0.57875
3625560,-0.23500,49.5625,102,48,0.56923
3625570,-0.22000,49.2500,102,48,0.55971
3625580,-0.20000,48.5625,102,48,0.54066
3625590,-0.18500,48.2500,102,48,0.53089
3625600,-0.18000,48.0000,102,48,0.52137
3625610,-0.17500,47.6875,102,48,0.51209
3625620,-0.17000,47.0000,102,48,0.49426
3625630,-0.16000,46.7500,102,48,0.48547
3625640,-0.15500,46.5625,102,48,0.47814
3625650,-0.14500,46.6875,102,48,0.47155
3625660,-0.13500,49.5000,102,48,0.45617
3625670,-0.13000,52.9375,102,48,0.44811
3625680,-0.12000,57.7500,102,48,0.44005
3625690,-0.10500,63.4375,102,48,0.43223
3625700,-0.09000,75.1875,102,48,0.41685
3625710,-0.06500,80.6250,102,48,0.40928
3625720,-0.04500,85.6250,102,48,0.40220
3625730,-0.02500,89.9375,102,48,0.39536
3625740,-0.00500,96.4375,102,48,0.38364
3625750,0.00500,98.5625,102,48,0.37900
3625760,0.01500,100.0000,102,48,0.37338
3625770,0.02500,100.8750,102,48,0.36777
3625780,0.02500,101.3125,102,48,0.35604
3625790,0.03000,101.0625,102,48,0.35018
3625800,0.04000,100.5000,102,48,0.34457
3625810,0.05500,99.7500,102,48,0.33895
3625820,0.07000,97.8125,102,48,0.32821
3625830,0.08000,96.6875,102,48,0.32308
3625840,0.08000,95.5000,102,48,0.31941
3625850,0.06500,94.1875,102,48,0.31648
3625860,0.04000,91.5625,102,48,0.30794
3625870,0.00500,90.1875,102,48,0.30305
3625880,-0.02000,88.8750,102,48,0.29817
3625890,-0.04000,87.6250,102,48,0.29304
3625900,-0.05500,85.1250,102,48,0.28303
3625910,-0.05500,83.8750,102,48,0.27863
3625920,-0.05500,82.5000,102,48,0.27546
3625930,-0.04500,81.0000,102,48,0.27448
3625940,-0.03000,77.4375,102,48,0.28034
3625950,-0.02000,75.3750,102,48,0.28767
3625960,-0.02000,73.2500,102,48,0.29866
3625970,-0.02000,71.1875,102,48,0.31404
3625980,-0.02000,67.8125,102,48,0.35751
3625990,-0.01500,66.5625,102,48,0.38437
3626000,-0.01500,65.5000,101,47,0.41392
3626010,-0.01500,64.6875,101,47,0.44493
3626020,-0.02000,63.3750,101,47,0.50842
3626030,-0.02500,62.9375,101,47,0.53968
3626040,-0.02500,62.5000,101,47,0.56606
3626050,-0.03500,62.0625,101,47,0.58901
3626060,-0.04000,61.3750,101,47,0.63761
3626070,-0.04000,61.0625,101,47,0.66032
3626080,-0.03500,60.6875,101,47,0.68132
3626090,-0.02500,60.3125,101,47,0.70037
3626100,-0.01000,59.5000,101,47,0.73211
3626110,0.02000,59.0625,101,47,0.74481
3626120,0.06000,58.6875,101,47,0.75556
3626130,0.07000,58.2500,101,47,0.76435
3626140,0.04000,57.4375,101,47,0.77241
3626150,-0.00500,57.0000,101,47,0.77534
3626160,-0.05000,56.5625,101,47,0.77729
3626170,-0.08500,55.6875,101,47,0.77827
3626180,-0.11500,55.2500,101,47,0.77656
3626190,-0.12500,54.8125,101,47,0.77363
3626200,-0.12500,54.3750,101,47,0.76923
3626210,-0.12500,54.0000,101,47,0.76361
3626220,-0.11500,53.2500,101,47,0.74847
3626230,-0.10500,52.9375,101,47,0.73919
3626240,-0.10500,52.6250,101,47,0.72943
3626250,-0.10000,52.3125,101,47,0.71917
3626260,-0.10000,51.7500,101,47,0.69646
3626270,0.08000,51.5625,101,47,0.68449
3626280,0.59000,51.3750,101,47,0.67228
3626290,1.08500,51.2500,101,47,0.66007
3626300,0.83500,50.8750,101,47,0.63565
3626310,0.07500,50.6250,101,47,0.62344
3626320,-0.41000,50.4375,101,47,0.61148
3626330,-0.48500,50.1875,101,47,0.59976
3626340,-0.34500,49.6250,101,47,0.57998
3626350,-0.23500,49.2500,101,47,0.56996
3626360,-0.20500,48.8750,101,47,0.55995
3626370,-0.19000,48.5000,101,47,0.54994
3626380,-0.17500,47.7500,101,47,0.51575
3626390,-0.16000,47.3750,101,47,0.50208
3626400,-0.15000,47.0625,101,47,0.49060
3626410,-0.13500,46.6875,101,47,0.48034
3626420,-0.13000,46.1250,101,47,0.46154
3626430,-0.11500,45.8750,101,47,0.45250
3626440,-0.10500,45.6875,101,47,0.44493
3626450,-0.09500,45.7500,101,47,0.43834
3626460,-0.09000,48.1250,101,47,0.42344
3626470,-0.08000,51.2500,101,47,0.41563
3626480,-0.07500,55.7500,101,47,0.40757
3626490,-0.06500,61.0625,101,47,0.39976
3626500,-0.05000,72.3750,101,47,0.38462
3626510,-0.03000,77.7500,101,47,0.37753
3626520,-0.00500,82.6250,101,47,0.37045
3626530,0.02000,86.9375,101,47,0.36361
3626540,0.04000,93.3750,101,47,0.35336
3626550,0.05500,95.5000,101,47,0.34799
3626560,0.07000,97.0625,101,47,0.34237
3626570,0.07500,98.0000,101,47,0.33675
3626580,0.08000,98.4375,101,47,0.32503
3626590,0.08000,98.1250,101,47,0.31917
3626600,0.08500,97.5000,101,47,0.31355
3626610,0.09500,96.6875,101,47,0.30818
3626620,0.10500,94.5625,101,47,0.29768
3626630,0.12000,93.3125,101,47,0.29255
3626640,0.11500,92.0000,101,47,0.28889
3626650,0.10000,90.6875,101,47,0.28571
3626660,0.06500,87.9375,101,47,0.27692
3626670,0.03000,86.6250,101,47,0.27204
3626680,0.00000,85.3125,101,47,0.26691
3626690,-0.01000,84.0625,101,47,0.26154
3626700,-0.02500,81.5625,101,47,0.25153
3626710,-0.02500,80.2500,101,47,0.24713
3626720,-0.02500,78.8125,101,47,0.24371
3626730,-0.01500,77.2500,101,47,0.24200
3626740,-0.01500,73.5000,101,47,0.24615
3626750,-0.02000,71.4375,101,47,0.25226
3626760,-0.02500,69.4375,101,47,0.26178
3626770,-0.03000,67.6250,101,47,0.27521
3626780,-0.03500,64.9375,101,47,0.31331
3626790,-0.03500,63.9375,101,47,0.33748
3626800,-0.04500,63.1250,101,47,0.36386
3626810,-0.05000,62.4375,101,47,0.39219
3626820,-0.05500,61.3750,101,47,0.45055
3626830,-0.06500,60.9375,101,47,0.47937
3626840,-0.06500,60.5625,101,47,0.50379
3626850,-0.07000,60.1875,101,47,0.52552
3626860,-0.07000,59.5000,101,47,0.57167
3626870,-0.07000,59.1875,101,47,0.59316
3626880,-0.06000,58.8125,101,47,0.61294
3626890,-0.04500,58.4375,101,47,0.63101
3626900,-0.02500,57.6875,101,47,0.66129
3626910,0.00500,57.2500,101,47,0.67350
3626920,0.04000,56.8125,101,47,0.68352
3626930,0.05000,56.4375,101,47,0.69182
3626940,0.02000,55.6875,101,47,0.69988
3626950,-0.01500,55.3125,101,47,0.70256
3626960,-0.05500,55.0000,101,47,0.70427
3626970,-0.08500,54.6250,101,47,0.70476
3626980,-0.11000,53.8750,101,47,0.70232
3626990,-0.12500,53.5000,101,47,0.69939
3627000,-0.13000,53.1875,101,47,0.69524
3627010,-0.13500,52.8125,101,47,0.68987
3627020,-0.13500,52.1250,101,47,0.67570
3627030,-0.12500,51.8125,101,47,0.66716
3627040,-0.11000,51.5625,101,47,0.65836
3627050,-0.10500,51.3125,101,47,0.64908
3627060,-0.10000,50.8125,101,47,0.62808
3627070,0.08000,50.6250,101,47,0.61709
3627080,0.57500,50.4375,101,47,0.60611
3627090,1.00500,50.3125,101,47,0.59512
3627100,0.65833,50.0625,101,47,0.57916
3627110,0.03000,49.7500,101,47,0.56361
3627120,-0.38500,49.4375,101,47,0.55385
3627130,-0.46500,49.1875,101,47,0.54408
3627140,-0.35500,48.5625,101,47,0.52747
3627150,-0.25000,48.1875,101,47,0.51893
3627160,-0.22000,47.8750,101,47,0.51038
3627170,-0.20500,47.5625,101,47,0.50183
3627180,-0.19000,46.9375,101,47,0.48449
3627190,-0.17000,46.6250,101,47,0.47595
3627200,-0.16000,46.3125,101,47,0.46716
3627210,-0.16000,46.0000,101,47,0.45861
3627220,-0.15500,45.3750,101,47,0.44249
3627230,-0.14000,45.1250,101,47,0.43443
3627240,-0.12500,45.0000,101,47,0.42784
3627250,-0.10500,45.0625,101,47,0.42173
3627260,-0.09500,47.3125,101,47,0.40781
3627270,-0.08500,50.2500,101,47,0.40073
3627280,-0.07500,54.5000,101,47,0.39390
3627290,-0.06500,59.5625,101,47,0.38706
3627300,-0.04500,70.4375,101,47,0.37387
3627310,-0.03000,75.5625,101,47,0.36728
3627320,-0.01000,80.3125,101,47,0.36093
3627330,0.00500,84.5000,101,47,0.35433
3627340,0.02000,90.9375,101,47,0.34432
3627350,0.03000,93.1250,101,47,0.33919
3627360,0.04000,94.6875,101,47,0.33358
3627370,0.05000,95.6875,101,47,0.32821
3627380,0.05500,96.2500,101,47,0.31746
3627390,0.06000,96.0000,101,47,0.31209
3627400,0.07000,95.4375,101,47,0.30696
3627410,0.07500,94.6875,101,47,0.30183
3627420,0.08000,92.6250,101,47,0.29182
3627430,0.08500,91.4375,101,47,0.28694
3627440,0.08000,90.1250,101,47,0.28352
3627450,0.06500,88.8125,101,47,0.28059
3627460,0.04000,86.1875,101,47,0.27228
3627470,0.01000,84.8750,101,47,0.26789
3627480,-0.01500,83.5625,101,47,0.26325
3627490,-0.03500,82.2500,101,47,0.25861
3627500,-0.05000,79.5625,101,47,0.24933
3627510,-0.05500,78.1875,101,47,0.24493
3627520,-0.05500,76.6250,101,47,0.24151
3627530,-0.05000,75.0000,101,47,0.23956
3627540,-0.04500,71.0625,101,47,0.24371
3627550,-0.04500,69.0625,101,47,0.24957
3627560,-0.04500,67.2500,101,47,0.25861
3627570,-0.04500,65.6875,101,47,0.27106
3627580,-0.04000,63.3750,101,47,0.30720
3627590,-0.04500,62.5625,101,47,0.33040
3627600,-0.05000,61.8750,101,47,0.35629
3627610,-0.05500,61.3125,101,47,0.38388
3627620,-0.05000,60.3750,101,47,0.44176
3627630,-0.04500,60.0000,101,47,0.47057
3627640,-0.04500,59.6875,101,47,0.49524
3627650,-0.04500,59.3750,101,47,0.51697
3627660,-0.05000,58.7500,101,47,0.56288
3627670,-0.05500,58.3750,101,47,0.58437
3627680,-0.05000,58.0625,101,47,0.60415
3627690,-0.04000,57.6875,101,47,0.62222
3627700,-0.02500,56.8750,101,47,0.65177
3627710,-0.00500,56.5000,101,47,0.66349
3627720,0.03000,56.1250,101,47,0.67326
3627730,0.05000,55.8125,101,47,0.68107
3627740,0.03000,55.0625,101,47,0.68913
3627750,-0.01000,54.6875,101,47,0.69206
3627760,-0.06000,54.3750,101,47,0.69402
3627770,-0.08500,53.9375,101,47,0.69475
3627780,-0.10500,53.1875,101,47,0.69280
3627790,-0.12000,52.8125,101,47,0.68962
3627800,-0.12000,52.4375,101,47,0.68523
3627810,-0.11500,52.1250,101,47,0.67961
3627820,-0.11500,51.4375,101,47,0.66520
3627830,-0.11500,51.1250,101,47,0.65714
3627840,-0.10500,50.8125,101,47,0.64860
3627850,-0.10500,50.5625,101,47,0.63907
3627860,-0.12000,50.1250,101,47,0.61832
3627870,-0.03500,50.0000,101,47,0.60806
3627880,0.33000,49.8750,101,47,0.59780
3627890,0.89000,49.6875,101,47,0.58779
3627900,0.98500,49.3750,101,47,0.56777
3627910,0.37000,49.1875,101,47,0.55800
3627920,-0.22500,48.9375,101,47,0.54847
3627930,-0.44500,48.6875,101,47,0.53871
3627940,-0.39500,48.0625,101,47,0.52234
3627950,-0.27000,47.7500,101,47,0.51380
3627960,-0.21000,47.3750,101,47,0.50525
3627970,-0.20000,47.0625,101,47,0.49646
3627980,-0.19000,46.4375,101,47,0.47912
3627990,-0.17500,46.1250,101,47,0.47082
3628000,-0.16000,45.8125,101,47,0.46276
3628010,-0.15500,45.5000,101,47,0.45446
3628020,-0.14000,44.8750,101,47,0.43858
3628030,-0.12500,44.6250,101,47,0.43199
3628040,-0.11000,44.4375,101,47,0.42613
3628050,-0.10000,44.4375,101,47,0.41978
3628060,-0.09000,46.4375,101,47,0.40586
3628070,-0.08500,49.1875,101,47,0.39878
3628080,-0.08500,53.2500,101,47,0.39194
3628090,-0.06500,58.2500,101,47,0.38510
3628100,-0.04500,69.0625,101,47,0.37167
3628110,-0.03000,74.2500,101,47,0.36508
3628120,-0.01500,79.1250,101,47,0.35873
3628130,0.00000,83.4375,101,47,0.35238
3628140,0.02000,90.2500,101,47,0.34335
3628150,0.03500,92.6875,101,47,0.33846
3628160,0.04000,94.4375,101,47,0.33333
3628170,0.04000,95.6250,101,47,0.32796
3628180,0.04500,96.5000,101,47,0.31795
3628190,0.05000,96.3750,101,47,0.31306
3628200,0.05500,96.0000,101,47,0.30818
3628210,0.06000,95.3125,101,47,0.30354
3628220,0.06500,93.3750,101,47,0.29426
3628230,0.07500,92.2500,101,47,0.29084
3628240,0.08000,91.0000,101,47,0.28816
3628250,0.07000,89.6875,101,47,0.28425
3628260,0.04000,87.0000,101,47,0.27521
3628270,0.01000,85.6250,101,47,0.27057
3628280,-0.02500,84.3750,101,47,0.26569
3628290,-0.04500,83.0625,101,47,0.26105
3628300,-0.06000,80.5625,101,47,0.25226
3628310,-0.06500,79.2500,101,47,0.24835
3628320,-0.05500,77.8750,101,47,0.24518
3628330,-0.05500,76.3750,101,47,0.24298
3628340,-0.05000,72.8125,101,47,0.24591
3628350,-0.05000,70.7500,101,47,0.25055
3628360,-0.04500,68.8125,101,47,0.25861
3628370,-0.04500,67.0625,101,47,0.27033
3628380,-0.03500,64.3750,101,47,0.30549
3628390,-0.04000,63.3750,101,47,0.32845
3628400,-0.04500,62.5625,101,47,0.35409
3628410,-0.05500,61.9375,101,47,0.38193
3628420,-0.06500,60.8125,101,47,0.44786
3628430,-0.07000,60.3750,101,47,0.48474
3628440,-0.06500,60.0000,101,47,0.51453
3628450,-0.07000,59.5625,101,47,0.54383
3628460,-0.07000,58.7500,101,47,0.59902
3628470,-0.07000,58.3750,101,47,0.62418
3628480,-0.06500,58.0000,101,47,0.64713
3628490,-0.05500,57.2500,101,47,0.66789
3628500,-0.04500,56.8125,101,47,0.70281
3628510,-0.01500,56.4375,101,47,0.71697
3628520,0.02000,56.0625,101,47,0.72894
3628530,0.04500,55.6875,101,47,0.73871
3628540,0.04000,54.8750,101,47,0.74896
3628550,0.00500,54.5000,101,47,0.75287
3628560,-0.03500,54.1250,101,47,0.75580
3628570,-0.06500,53.8125,101,47,0.75775
3628580,-0.09500,53.0625,101,47,0.75751
3628590,-0.11500,52.7500,101,47,0.75531
3628600,-0.11500,52.4375,101,47,0.75189
3628610,-0.11500,52.1250,101,47,0.74701
3628620,-0.11500,51.5000,101,47,0.73284
3628630,-0.11500,51.2500,101,47,0.72454
3628640,-0.11500,50.9375,101,47,0.71551
3628650,-0.10500,50.7500,101,47,0.70549
3628660,-0.11000,50.3125,101,47,0.68327
3628670,-0.08000,50.1250,101,47,0.67155
3628680,0.18000,50.0000,101,47,0.66007
3628690,0.74000,49.8750,101,47,0.64860
3628700,1.07000,49.5625,101,47,0.62564
3628710,0.63500,49.3750,101,47,0.61441
3628720,-0.05500,49.1250,101,47,0.60342
3628730,-0.40500,48.8750,101,47,0.59243
3628740,-0.43500,48.2500,101,47,0.57363
3628750,-0.31500,47.8750,101,47,0.56435
3628760,-0.23000,47.5000,101,47,0.55482
3628770,-0.20500,47.1875,101,47,0.54530
3628780,-0.19000,46.5625,101,47,0.52674
3628790,-0.17500,46.2500,101,47,0.51746
3628800,-0.16000,45.9375,101,47,0.50842
3628810,-0.15500,45.6250,101,47,0.49963
3628820,-0.15000,45.0000,101,47,0.48205
3628830,-0.14500,44.7500,101,47,0.47473
3628840,-0.12500,44.5625,101,47,0.46813
3628850,-0.11500,44.5000,101,47,0.46056
3628860,-0.10500,45.8750,101,47,0.44420
3628870,-0.10500,48.1875,101,47,0.43614
3628880,-0.09500,51.8125,101,47,0.42833
3628890,-0.07500,56.5000,101,47,0.42076
3628900,-0.05500,67.2500,101,47,0.40635
3628910,-0.03500,72.5000,101,47,0.39927
3628920,-0.01500,77.5000,101,47,0.39219
3628930,0.00000,82.0625,101,47,0.38535
3628940,0.01500,89.4375,101,47,0.37534
3628950,0.03000,92.1250,101,47,0.36996
3628960,0.04500,94.1875,101,47,0.36435
3628970,0.05000,95.6250,101,47,0.35849
3628980,0.06000,97.0625,101,47,0.34676
3628990,0.06000,97.1875,101,47,0.34115
3629000,0.06500,96.9375,101,47,0.33553
3629010,0.07000,96.4375,101,47,0.32991
3629020,0.07500,94.8125,101,47,0.31868
3629030,0.08000,93.7500,101,47,0.31477
3629040,0.09000,92.6250,101,47,0.31160
3629050,0.08000,90.1250,101,47,0.30769
3629060,0.06000,88.7500,101,47,0.29841
3629070,0.03000,87.4375,101,47,0.29353
3629080,0.00000,86.1250,101,47,0.28864
3629090,-0.01500,84.8125,101,47,0.28376
3629100,-0.03500,82.3125,101,47,0.27350
3629110,-0.04500,81.0000,101,47,0.26862
3629120,-0.05000,79.6875,101,47,0.26422
3629130,-0.04500,78.3125,101,47,0.26105
3629140,-0.03500,75.0000,101,47,0.26252
3629150,-0.02666,72.7813,101,47,0.26663
3629160,-0.02000,71.0000,101,47,0.27399
3629170,-0.01500,69.0000,101,47,0.28523
3629180,-0.01500,65.6875,101,47,0.32039
3629190,-0.02000,64.5000,101,47,0.34383
3629200,-0.02500,63.4375,101,47,0.37045
3629210,-0.03000,62.6250,101,47,0.39951
3629220,-0.03500,61.4375,101,47,0.46178
3629230,-0.03500,60.9375,101,47,0.48962
3629240,-0.03500,60.5000,101,47,0.51502
3629250,-0.04000,60.0625,101,47,0.54261
3629260,-0.04000,59.2500,101,47,0.59805
3629270,-0.04500,58.8750,101,47,0.62369
3629280,-0.04500,58.5000,101,47,0.64762
3629290,-0.04000,58.0625,101,47,0.66984
3629300,-0.03000,57.3125,101,47,0.70769
3629310,-0.01500,56.9375,101,47,0.72332
3629320,0.01500,56.5625,101,47,0.73651
3629330,0.05500,55.8125,101,47,0.75507
3629340,0.06000,55.5000,101,47,0.75971
3629350,0.02500,55.1250,101,47,0.76435
3629360,-0.02000,54.7500,101,47,0.76801
3629370,-0.06000,54.4375,101,47,0.77045
3629380,-0.08500,53.6875,101,47,0.77167
3629390,-0.11000,53.3750,101,47,0.77021
3629400,-0.11500,53.0625,101,47,0.76777
3629410,-0.11500,52.8125,101,47,0.76386
3629420,-0.11500,52.1250,101,47,0.75116
3629430,-0.11500,51.8125,101,47,0.74310
3629440,-0.11500,51.5000,101,47,0.73431
3629450,-0.11000,51.2500,101,47,0.72454
3629460,-0.10500,50.7500,101,47,0.70281
3629470,-0.10500,50.5625,101,47,0.69133
3629480,0.07000,50.3750,101,47,0.67961
3629490,0.58500,50.1875,101,47,0.66764
3629500,1.10000,49.8750,101,47,0.64396
3629510,0.87000,49.6875,101,47,0.63248
3629520,0.12500,49.5000,101,47,0.62100
3629530,-0.36500,49.2500,101,47,0.61074
3629540,-0.46500,48.6875,101,47,0.59096
3629550,-0.35000,48.3750,101,47,0.58071
3629560,-0.24000,48.0000,101,47,0.57021
3629570,-0.21000,47.6875,101,47,0.55971
3629580,-0.20000,47.0000,101,47,0.53993
3629590,-0.19000,46.6875,101,47,0.53016
3629600,-0.17000,46.4375,101,47,0.52088
3629610,-0.15500,46.1250,101,47,0.51184
3629620,-0.15000,45.5625,101,47,0.49402
3629630,-0.14500,45.3125,101,47,0.48645
3629640,-0.13500,45.0625,101,47,0.47961
3629650,-0.12000,45.1250,101,47,0.47179
3629660,-0.10500,45.9375,101,47,0.45568
3629670,-0.10500,47.8750,101,47,0.44737
3629680,-0.09000,51.2500,101,47,0.43932
3629690,-0.07500,55.8750,101,47,0.43150
3629700,-0.05500,66.8750,101,47,0.41661
3629710,-0.04000,72.3750,101,47,0.40928
3629720,-0.02500,77.5625,101,47,0.40220
3629730,0.00000,82.3750,101,47,0.39658
3629740,0.01500,90.1250,101,47,0.38632
3629750,0.03000,93.0000,101,47,0.38046
3629760,0.04000,95.2500,101,47,0.37436
3629770,0.05000,96.8125,101,47,0.36850
3629780,0.05000,98.3750,101,47,0.35726
3629790,0.05000,98.5000,101,47,0.35165
3629800,0.05000,98.2500,101,47,0.34579
3629810,0.05000,97.8125,101,47,0.34017
3629820,0.05500,96.3125,101,47,0.32918
3629830,0.06000,95.3125,101,47,0.32527
3629840,0.06000,94.2500,101,47,0.32234
3629850,0.05500,93.0625,101,47,0.31819
3629860,0.04500,90.6250,101,47,0.30891
3629870,0.02000,89.3125,101,47,0.30403
3629880,-0.01000,88.0625,101,47,0.29890
3629890,-0.03500,86.8125,101,47,0.29402
3629900,-0.05500,84.3125,101,47,0.28376
3629910,-0.06500,83.0625,101,47,0.27888
3629920,-0.07500,81.8125,101,47,0.27473
3629930,-0.08000,80.5000,101,47,0.27253
3629940,-0.07000,77.5000,101,47,0.27253
3629950,-0.06500,75.6875,101,47,0.27546
3629960,-0.05500,73.7500,101,47,0.28181
3629970,-0.05500,71.7500,101,47,0.29231
3629980,-0.05500,68.1875,101,47,0.32552
3629990,-0.05500,66.7500,101,47,0.34823
3630000,-0.05500,65.5625,101,47,0.37436
3630010,-0.06500,64.5625,101,47,0.40317
3630020,-0.07500,63.1250,101,47,0.46569
3630030,-0.07500,62.5625,101,47,0.49402
3630040,-0.07500,62.0625,101,47,0.52039
3630050,-0.08500,61.5625,101,47,0.54921
3630060,-0.08500,60.8125,101,47,0.60733
3630070,-0.09500,60.4375,101,47,0.63443
3630080,-0.09500,60.0625,101,47,0.65934
3630090,-0.09000,59.6875,101,47,0.68205
3630100,-0.07500,58.8125,101,47,0.72137
3630110,-0.06500,58.3750,101,47,0.73748
3630120,-0.04000,58.0000,101,47,0.75140
3630130,-0.00500,57.6250,101,47,0.76093
3630140,0.03000,56.8750,101,47,0.77460
3630150,0.03000,56.5000,101,47,0.78071
