RelativeTimeMilliseconds,ECG,ART,ART (Sys),ART (Dia),PPG
4565540,-0.22000,48.0000,105,48,0.49206
4565550,-0.21000,47.6875,105,48,0.48425
4565560,-0.20000,47.3750,105,48,0.47643
4565570,-0.20000,47.1250,105,48,0.46862
4565580,-0.20000,46.6875,105,48,0.45324
4565590,-0.19000,46.7500,105,48,0.44567
4565600,-0.17500,47.3750,105,48,0.43810
4565610,-0.17000,49.1875,105,48,0.43053
4565620,-0.16500,57.4375,105,48,0.41709
4565630,-0.15500,63.3125,105,48,0.41172
4565640,-0.14000,69.4375,105,48,0.40586
4565650,-0.12500,75.4375,105,48,0.39951
4565660,-0.10500,86.4375,105,48,0.38681
4565670,-0.08500,91.1875,105,48,0.38046
4565680,-0.06500,95.3125,105,48,0.37411
4565690,-0.04500,98.8125,105,48,0.36801
4565700,-0.02500,103.5000,105,48,0.35629
4565710,-0.00500,104.8750,105,48,0.35067
4565720,0.00500,105.6250,105,48,0.34530
4565730,0.01000,106.0000,105,48,0.34115
4565740,0.01000,105.5625,105,48,0.33333
4565750,0.01000,104.9375,105,48,0.32869
4565760,0.02000,104.0625,105,48,0.32405
4565770,0.03000,103.0625,105,48,0.31941
4565780,0.05000,100.5625,105,48,0.31013
4565790,0.05500,99.1875,105,48,0.30574
4565800,0.06000,97.7500,105,48,0.30134
4565810,0.05000,96.2500,105,48,0.29670
4565820,0.03000,93.2500,105,48,0.28889
4565830,0.00000,91.7500,105,48,0.28620
4565840,-0.02000,90.1875,105,48,0.28278
4565850,-0.03500,88.6875,105,48,0.27888
4565860,-0.04000,85.5000,105,48,0.27277
4565870,-0.04500,83.7500,105,48,0.27179
4565880,-0.04500,81.8125,105,48,0.27326
4565890,-0.04500,79.6875,105,48,0.27814
4565900,-0.04000,75.2500,105,48,0.30012
4565910,-0.04000,73.1875,105,48,0.31795
4565920,-0.04000,71.3750,105,48,0.33993
4565930,-0.04500,69.9375,105,48,0.36239
4565940,-0.04500,67.6875,105,48,0.41416
4565950,-0.05000,66.8750,105,48,0.44493
4565960,-0.05500,66.1875,105,48,0.47717
4565970,-0.05500,65.6875,105,48,0.50965
4565980,-0.06000,64.8750,105,48,0.57314
4565990,-0.06500,64.5000,105,48,0.60317
4566000,-0.06500,64.1250,105,48,0.63126
4566010,-0.06500,63.8125,105,48,0.65739
4566020,-0.06500,63.0625,105,48,0.69939
4566030,-0.07500,62.6875,105,48,0.71404
4566040,-0.07500,62.2500,105,48,0.72894
4566050,-0.07500,61.8750,105,48,0.74261
4566060,-0.06500,61.0625,105,48,0.76484
4566070,-0.05500,60.6875,105,48,0.77289
4566080,-0.04500,60.3125,105,48,0.77900
4566090,-0.03000,59.8750,105,48,0.78339
4566100,-0.02000,59.0625,105,48,0.78730
4566110,-0.03500,58.6875,105,48,0.78706
4566120,-0.05500,58.2500,105,48,0.78535
4566130,-0.07500,57.8125,105,48,0.78168
4566140,-0.09000,57.0000,105,48,0.77094
4566150,-0.10500,56.5625,105,48,0.76435
4566160,-0.12000,56.1875,105,48,0.75678
4566170,-0.13000,55.8125,105,48,0.74823
4566180,-0.13500,55.0000,105,48,0.72845
4566190,-0.13500,54.6875,105,48,0.71722
4566200,-0.13000,54.3125,105,48,0.70549
4566210,-0.13000,54.0000,105,48,0.69353
4566220,-0.12500,53.3750,105,48,0.67033
4566230,-0.12500,53.1875,105,48,0.65983
4566240,-0.13000,53.0000,105,48,0.64884
4566250,0.04500,52.7500,105,48,0.63785
4566260,0.56000,52.3750,105,48,0.61636
4566270,1.12500,52.1250,105,48,0.60562
4566280,1.02000,51.9375,105,48,0.59512
4566290,0.24500,51.6875,105,48,0.58510
4566300,-0.33000,51.1875,105,48,0.56532
4566310,-0.44000,50.9375,105,48,0.55580
4566320,-0.33000,50.6250,105,48,0.54652
4566330,-0.24500,50.3125,105,48,0.53846
4566340,-0.23000,49.6875,105,48,0.52283
4566350,-0.22000,49.3750,105,48,0.51429
4566360,-0.21000,49.0625,105,48,0.49890
4566370,-0.20000,48.7500,105,48,0.48034
4566380,-0.19500,48.1875,105,48,0.45665
4566390,-0.19000,47.9375,105,48,0.44737
4566400,-0.19000,47.6875,105,48,0.43883
4566410,-0.19000,47.5625,105,48,0.43077
4566420,-0.17500,48.8125,105,48,0.41685
4566430,-0.17000,51.1250,105,48,0.41123
4566440,-0.16000,55.0000,105,48,0.40488
4566450,-0.15500,60.3125,105,48,0.39805
4566460,-0.14500,72.5000,105,48,0.38437
4566470,-0.13000,78.4375,105,48,0.37753
4566480,-0.11000,84.0625,105,48,0.37094
4566490,-0.09500,89.1875,105,48,0.36459
4566500,-0.07000,97.5625,105,48,0.35189
4566510,-0.05500,100.6250,105,48,0.34603
4566520,-0.03000,103.0000,105,48,0.34017
4566530,-0.01250,105.0313,105,48,0.33378
4566540,0.00000,106.3125,105,48,0.32772
4566550,0.01000,106.4375,105,48,0.32283
4566560,0.01500,106.1875,105,48,0.31795
4566570,0.02000,105.6875,105,48,0.31306
4566580,0.02500,103.8750,105,48,0.30330
4566590,0.04000,102.6875,105,48,0.29841
4566600,0.05000,101.3750,105,48,0.29353
4566610,0.06000,100.0000,105,48,0.28889
4566620,0.07000,97.0000,105,48,0.28132
4566630,0.06000,95.5000,105,48,0.27863
4566640,0.04000,93.9375,105,48,0.27497
4566650,0.02000,92.4375,105,48,0.27082
4566660,0.00000,89.5000,105,48,0.26227
4566670,-0.01500,88.0000,105,48,0.25836
4566680,-0.02000,86.5000,105,48,0.25519
4566690,-0.02500,84.8125,105,48,0.25299
4566700,-0.02500,81.0625,105,48,0.25519
4566710,-0.02500,78.8750,105,48,0.26105
4566720,-0.02500,76.6875,105,48,0.27106
4566730,-0.02000,74.5000,105,48,0.28327
4566740,-0.01000,70.9375,105,48,0.31868
4566750,-0.01000,69.6250,105,48,0.34310
4566760,-0.01000,68.4375,105,48,0.37094
4566770,-0.01000,67.5000,105,48,0.40098
4566780,-0.01500,66.0625,105,48,0.46422
4566790,-0.01500,65.5000,105,48,0.49621
4566800,-0.02500,65.0625,105,48,0.52723
4566810,-0.02500,64.6875,105,48,0.55727
4566820,-0.02500,64.0000,105,48,0.60781
4566830,-0.03000,63.6250,105,48,0.62686
4566840,-0.03000,63.1875,105,48,0.64664
4566850,-0.03500,62.8125,105,48,0.66569
4566860,-0.03500,62.0000,105,48,0.69890
4566870,-0.03500,61.5625,105,48,0.71233
4566880,-0.02500,61.1250,105,48,0.72357
4566890,-0.01500,60.6875,105,48,0.73260
4566900,0.00000,59.7500,105,48,0.74457
4566910,0.02000,59.3125,105,48,0.74774
4566920,0.03000,58.8125,105,48,0.74921
4566930,0.02000,58.3750,105,48,0.74823
4566940,0.00000,57.5000,105,48,0.74335
4566950,-0.02000,57.0625,105,48,0.73993
4566960,-0.03500,56.6250,105,48,0.73529
4566970,-0.05500,56.2500,105,48,0.72967
4566980,-0.07500,55.5000,105,48,0.71477
4566990,-0.08500,55.1250,105,48,0.70574
4567000,-0.08500,54.7500,105,48,0.69573
4567010,-0.07500,54.0625,105,48,0.67350
4567020,-0.07000,53.7500,105,48,0.66252
4567030,-0.06500,53.4375,105,48,0.65177
4567040,-0.06000,53.2500,105,48,0.64029
4567050,-0.06000,53.0625,105,48,0.62882
4567060,-0.07000,52.6875,105,48,0.60586
4567070,0.07500,52.5000,105,48,0.59463
4567080,0.53000,52.2500,105,48,0.58388
4567090,1.07000,52.0625,105,48,0.57338
4567100,1.00000,51.5000,105,48,0.55263
4567110,0.29000,51.2500,105,48,0.54237
4567120,-0.26000,50.9375,105,48,0.53333
4567130,-0.41000,50.5625,105,48,0.52527
4567140,-0.32000,49.8750,105,48,0.50769
4567150,-0.22000,49.5000,105,48,0.49866
4567160,-0.19000,49.1250,105,48,0.48962
4567170,-0.18500,48.8125,105,48,0.48083
4567180,-0.17000,48.2500,105,48,0.46422
4567190,-0.16000,47.9375,105,48,0.45592
4567200,-0.15500,47.6250,105,48,0.44762
4567210,-0.15500,47.3125,105,48,0.43956
4567220,-0.15000,46.8125,105,48,0.42466
4567230,-0.13500,46.6875,105,48,0.41856
4567240,-0.12000,47.0000,105,48,0.41148
4567250,-0.10500,48.1875,105,48,0.40415
4567260,-0.09500,54.6875,105,48,0.38901
4567270,-0.08500,59.9375,105,48,0.38144
4567280,-0.07500,65.8125,105,48,0.37411
4567290,-0.06500,71.6875,105,48,0.36703
4567300,-0.04500,82.7500,105,48,0.35360
4567310,-0.02500,87.5625,105,48,0.34701
4567320,-0.01000,91.8125,105,48,0.34212
4567330,0.01000,95.4375,105,48,0.33797
4567340,0.02500,100.5625,105,48,0.32747
4567350,0.04000,102.0625,105,48,0.32210
4567360,0.05000,103.0000,105,48,0.31673
4567370,0.06000,103.4375,105,48,0.31136
4567380,0.07000,103.0000,105,48,0.30061
4567390,0.08000,102.2500,105,48,0.29548
4567400,0.09000,101.3750,105,48,0.29035
4567410,0.10000,100.2500,105,48,0.28547
4567420,0.11000,97.6250,105,48,0.27717
4567430,0.11000,96.1250,105,48,0.27448
4567440,0.11500,94.5625,105,48,0.27082
4567450,0.10000,93.0000,105,48,0.26691
4567460,0.08000,89.9375,105,48,0.25836
4567470,0.05000,88.3750,105,48,0.25397
4567480,0.03000,86.9375,105,48,0.24957
4567490,0.01000,85.4375,105,48,0.24518
4567500,0.00000,82.3125,105,48,0.23761
4567510,0.00000,80.5000,105,48,0.23541
4567520,0.00000,78.5625,105,48,0.23565
4567530,-0.00500,76.4375,105,48,0.23858
4567540,-0.00500,72.2500,105,48,0.25226
4567550,-0.00500,70.9271,105,48,0.25612
4567560,0.00000,70.5000,105,48,0.26195
4567570,0.00500,69.0000,105,48,0.28156
4567580,0.00500,66.7500,105,48,0.32674
4567590,0.01000,66.0000,105,48,0.35360
4567600,0.00500,65.3125,105,48,0.38242
4567610,0.00000,64.7500,105,48,0.41270
4567620,-0.00500,63.7500,105,48,0.47326
4567630,-0.00500,63.3750,105,48,0.49866
4567640,-0.01000,63.0000,105,48,0.52137
4567650,-0.01500,62.6875,105,48,0.54554
4567660,-0.02000,62.0000,105,48,0.59145
4567670,-0.02500,61.6250,105,48,0.61221
4567680,-0.02500,61.1875,105,48,0.63077
4567690,-0.01500,60.8125,105,48,0.64713
4567700,-0.00500,60.0000,105,48,0.67326
4567710,0.00500,59.5625,105,48,0.68303
4567720,0.02000,59.1250,105,48,0.69060
4567730,0.03000,58.7500,105,48,0.69524
4567740,0.01500,57.8750,105,48,0.69963
4567750,-0.01000,57.4375,105,48,0.70061
4567760,-0.03500,57.0625,105,48,0.70037
4567770,-0.05500,56.2500,105,48,0.69646
4567780,-0.07000,55.8750,105,48,0.69280
4567790,-0.08500,55.5000,105,48,0.68767
4567800,-0.08500,55.1250,105,48,0.68132
4567810,-0.08000,54.7500,105,48,0.67399
4567820,-0.08000,54.0000,105,48,0.65641
4567830,-0.08000,53.6875,105,48,0.64713
4567840,-0.07500,53.3750,105,48,0.63785
4567850,-0.07000,53.1250,105,48,0.62784
4567860,-0.07000,52.6875,105,48,0.60659
4567870,-0.08500,52.5625,105,48,0.59585
4567880,0.00000,52.3750,105,48,0.58535
4567890,0.36000,52.1875,105,48,0.57485
4567900,0.93000,51.6875,105,48,0.55507
4567910,1.04000,51.4375,105,48,0.54554
4567920,0.44500,51.1250,105,48,0.53626
4567930,-0.15000,50.8125,105,48,0.52796
4567940,-0.39000,50.1875,105,48,0.51184
4567950,-0.35500,49.8750,105,48,0.50354
4567960,-0.25000,49.5625,105,48,0.49524
4567970,-0.20000,49.1875,105,48,0.48694
4567980,-0.18500,48.5000,105,48,0.47057
4567990,-0.17000,48.1875,105,48,0.46252
4568000,-0.16500,47.9375,105,48,0.45470
4568010,-0.16000,47.6250,105,48,0.44713
4568020,-0.15500,47.0000,105,48,0.43223
4568030,-0.15000,46.6875,105,48,0.42589
4568040,-0.13500,46.4375,105,48,0.42027
4568050,-0.12000,46.2500,105,48,0.41392
4568060,-0.11000,47.1250,105,48,0.40024
4568070,-0.10000,49.0000,105,48,0.39341
4568080,-0.09500,52.3125,105,48,0.38657
4568090,-0.08000,56.9375,105,48,0.37973
4568100,-0.07000,68.0000,105,48,0.36654
4568110,-0.05500,73.5625,105,48,0.35995
4568120,-0.04000,78.8125,105,48,0.35336
4568130,-0.02500,83.6875,105,48,0.34823
4568140,-0.00500,91.9375,105,48,0.33871
4568150,0.01000,95.0625,105,48,0.33358
4568160,0.02500,97.5625,105,48,0.32845
4568170,0.04000,99.4375,105,48,0.32308
4568180,0.05500,101.2500,105,48,0.31258
4568190,0.06500,101.4375,105,48,0.30745
4568200,0.07000,101.1250,105,48,0.30256
4568210,0.08000,99.6875,105,48,0.29768
4568220,0.08500,98.6250,105,48,0.28840
4568230,0.09500,97.3750,105,48,0.28547
4568240,0.10500,96.0625,105,48,0.28303
4568250,0.10500,94.5625,105,48,0.27937
4568260,0.09000,91.5625,105,48,0.27082
4568270,0.06500,89.9375,105,48,0.26618
4568280,0.03500,88.3750,105,48,0.26178
4568290,0.01000,86.7500,105,48,0.25714
4568300,-0.00500,83.5625,105,48,0.24811
4568310,-0.01500,81.8750,105,48,0.24420
4568320,-0.02000,80.1875,105,48,0.24078
4568330,-0.02000,78.3750,105,48,0.23907
4568340,-0.02500,74.3750,105,48,0.24005
4568350,-0.02000,72.2500,105,48,0.24347
4568360,-0.01500,70.3125,105,48,0.25006
4568370,-0.01000,68.6250,105,48,0.26056
4568380,-0.00500,66.1250,105,48,0.29402
4568390,-0.00500,65.1875,105,48,0.31648
4568400,-0.00500,64.4375,105,48,0.34188
4568410,-0.01500,63.8750,105,48,0.36972
4568420,-0.01500,62.9375,105,48,0.43443
4568430,-0.02500,62.5625,105,48,0.46178
4568440,-0.02500,62.2500,105,48,0.48571
4568450,-0.03500,61.8750,105,48,0.51087
4568460,-0.04000,61.1875,105,48,0.55995
4568470,-0.04500,60.8125,105,48,0.58242
4568480,-0.04500,60.4375,105,48,0.60293
4568490,-0.04000,60.0000,105,48,0.62125
4568500,-0.03500,59.2500,105,48,0.65177
4568510,-0.02500,58.8125,105,48,0.66374
4568520,-0.00500,58.4375,105,48,0.67375
4568530,0.01000,58.0000,105,48,0.68034
4568540,0.01000,57.1875,105,48,0.68864
4568550,0.00000,56.8125,105,48,0.69158
4568560,-0.02500,56.4375,105,48,0.69328
4568570,-0.05500,56.0625,105,48,0.69377
4568580,-0.07667,55.5000,105,48,0.69145
4568590,-0.09500,54.9375,105,48,0.68742
4568600,-0.11500,54.5625,105,48,0.68278
4568610,-0.11500,54.1875,105,48,0.67692
4568620,-0.11500,53.4375,105,48,0.66154
4568630,-0.11500,53.0625,105,48,0.65324
4568640,-0.11000,52.7500,105,48,0.64469
4568650,-0.10000,52.5000,105,48,0.63516
4568660,-0.09500,52.0625,105,48,0.61441
4568670,-0.09500,51.8750,105,48,0.60366
4568680,-0.10500,51.6875,105,48,0.59292
4568690,0.03000,51.5000,105,48,0.58242
4568700,0.48500,51.1875,105,48,0.56190
4568710,1.02000,50.9375,105,48,0.55214
4568720,0.93000,50.6875,105,48,0.54261
4568730,0.27500,50.4375,105,48,0.53431
4568740,-0.24500,49.8750,105,48,0.51844
4568750,-0.42500,49.5000,105,48,0.51013
4568760,-0.35500,49.1875,105,48,0.50183
4568770,-0.25500,48.8125,105,48,0.49353
4568780,-0.22000,48.1875,105,48,0.47717
4568790,-0.20500,47.8750,105,48,0.46911
4568800,-0.20000,47.5625,105,48,0.46129
4568810,-0.19000,47.2500,105,48,0.45348
4568820,-0.19000,46.6875,105,48,0.43956
4568830,-0.19000,46.3750,105,48,0.43370
4568840,-0.19000,46.0625,105,48,0.42735
4568850,-0.18500,45.8750,105,48,0.42076
4568860,-0.17000,45.9375,105,48,0.40708
4568870,-0.16000,46.7500,105,48,0.40024
4568880,-0.15000,48.7500,105,48,0.39365
4568890,-0.13500,52.1250,105,48,0.38730
4568900,-0.11500,62.3125,105,48,0.37509
4568910,-0.09500,68.0000,105,48,0.36899
4568920,-0.07500,73.5625,105,48,0.36288
4568930,-0.05000,78.8750,105,48,0.35824
4568940,-0.03000,88.1875,105,48,0.34921
4568950,-0.01000,92.0000,105,48,0.34408
4568960,0.00000,95.1875,105,48,0.33871
4568970,0.01500,97.7500,105,48,0.33358
4568980,0.02500,100.9375,105,48,0.32357
4568990,0.03500,101.6250,105,48,0.31893
4569000,0.04000,101.8750,104,48,0.31429
4569010,0.04500,101.6250,104,48,0.30989
4569020,0.05000,100.3125,104,48,0.30232
4569030,0.06500,99.3125,104,48,0.29988
4569040,0.08000,98.1875,104,48,0.29646
4569050,0.09000,96.8750,104,48,0.29255
4569060,0.08500,94.0625,104,48,0.28425
4569070,0.07000,92.5625,104,48,0.28010
4569080,0.04500,91.1250,104,48,0.27595
4569090,0.02000,89.6250,104,48,0.27204
4569100,-0.00500,86.6250,104,48,0.26398
4569110,-0.01500,85.1250,104,48,0.26007
4569120,-0.03000,83.6250,104,48,0.25641
4569130,-0.04000,82.0000,104,48,0.25421
4569140,-0.04500,78.2500,104,48,0.25275
4569150,-0.04500,76.1250,104,48,0.25372
4569160,-0.04500,73.9375,104,48,0.25714
4569170,-0.04000,71.8750,104,48,0.26374
4569180,-0.03500,68.3750,104,48,0.28889
4569190,-0.03500,67.0000,104,48,0.30769
4569200,-0.03500,65.8750,104,48,0.33016
4569210,-0.03500,65.0000,104,48,0.35531
4569220,-0.04000,63.6250,104,48,0.40781
4569230,-0.04500,63.1250,104,48,0.43199
4569240,-0.04500,62.6875,104,48,0.45885
4569250,-0.05000,62.3125,104,48,0.48669
4569260,-0.05500,61.6875,104,48,0.54090
4569270,-0.05000,61.3750,104,48,0.56581
4569280,-0.05500,61.0625,104,48,0.58901
4569290,-0.05500,60.7500,104,48,0.61050
4569300,-0.05500,60.1250,104,48,0.64689
4569310,-0.05000,59.7500,104,48,0.66178
4569320,-0.04500,59.3750,104,48,0.67448
4569330,-0.03000,58.9375,104,48,0.68327
4569340,-0.01500,58.1875,104,48,0.69573
4569350,-0.00500,57.8125,104,48,0.70085
4569360,-0.00500,57.3750,104,48,0.70476
4569370,-0.01500,57.0000,104,48,0.70745
4569380,-0.04500,56.1875,104,48,0.70842
4569390,-0.07000,55.8125,104,48,0.70696
4569400,-0.09000,55.4375,104,48,0.70452
4569410,-0.11500,55.0000,104,48,0.70061
4569420,-0.12500,54.2500,104,48,0.68938
4569430,-0.12500,53.8750,104,48,0.68254
4569440,-0.11500,53.5000,104,48,0.67497
4569450,-0.11500,53.1875,104,48,0.66667
4569460,-0.11500,52.5625,104,48,0.64835
4569470,-0.11000,52.2500,104,48,0.63883
4569480,-0.10500,52.0000,104,48,0.62906
4569490,-0.11000,51.8125,104,48,0.61905
4569500,-0.09500,51.5000,104,48,0.59902
4569510,0.14000,51.2500,104,48,0.58877
4569520,0.70000,51.0625,104,48,0.57875
4569530,1.10000,50.8125,104,48,0.56996
4569540,0.75500,50.1875,104,48,0.55311
4569550,0.06000,49.8750,104,48,0.54432
4569560,-0.34500,49.5625,104,48,0.53529
4569570,-0.42000,49.2500,104,48,0.52625
4569580,-0.32000,48.6250,104,48,0.50867
4569590,-0.24000,48.3750,104,48,0.49988
4569600,-0.22000,48.0625,104,48,0.49133
4569610,-0.21000,47.7500,104,48,0.48303
4569620,-0.20000,47.0625,104,48,0.46838
4569630,-0.19000,46.7500,104,48,0.46203
4569640,-0.18500,46.4375,104,48,0.45495
4569650,-0.18000,46.1875,104,48,0.44762
4569660,-0.17500,45.6875,104,48,0.43297
4569670,-0.16500,45.5625,104,48,0.42564
4569680,-0.15500,45.8125,104,48,0.41832
4569690,-0.14000,46.6875,104,48,0.41099
4569700,-0.13500,52.3125,104,48,0.39658
4569710,-0.12000,57.1250,104,48,0.38974
4569720,-0.10500,62.6875,104,48,0.38315
4569730,-0.09500,68.3750,104,48,0.37802
4569740,-0.07500,79.1875,104,48,0.36825
4569750,-0.06000,84.0625,104,48,0.36264
4569760,-0.04500,88.4375,104,48,0.35702
4569770,-0.02500,92.3125,104,48,0.35140
4569780,-0.00500,98.0000,104,48,0.34017
4569790,0.01000,99.8750,104,48,0.33480
4569800,0.03000,101.1250,104,48,0.32991
4569810,0.04000,101.8750,104,48,0.32503
4569820,0.04500,102.0625,104,48,0.31673
4569830,0.05000,101.6250,104,48,0.31380
4569840,0.05500,101.0000,104,48,0.31013
4569850,0.07000,100.0625,104,48,0.30598
4569860,0.08000,97.6875,104,48,0.29744
4569870,0.09000,96.3750,104,48,0.29304
4569880,0.08500,95.0000,104,48,0.28864
4569890,0.07000,93.5625,104,48,0.28425
4569900,0.04000,90.6875,104,48,0.27595
4569910,0.01000,89.1875,104,48,0.27179
4569920,-0.00500,87.7500,104,48,0.26764
4569930,-0.02000,86.3125,104,48,0.26496
4569940,-0.02500,83.2500,104,48,0.26056
4569950,-0.02500,81.6250,104,48,0.25812
4569960,-0.02500,79.8125,104,48,0.25690
4569970,-0.02500,77.8125,104,48,0.25763
4569980,-0.02500,73.5000,104,48,0.26789
4569990,-0.03000,71.5000,104,48,0.27888
4570000,-0.02500,69.6875,105,48,0.29402
4570010,-0.02500,68.1875,105,48,0.31331
4570020,-0.02000,65.9375,105,48,0.35873
4570030,-0.02500,65.1250,105,48,0.38144
4570040,-0.02500,64.3750,105,48,0.40781
4570050,-0.03000,63.2500,105,48,0.43639
4570060,-0.03500,62.8125,105,48,0.49499
4570070,-0.04500,62.3750,105,48,0.52332
4570080,-0.04500,62.0000,105,48,0.55043
4570090,-0.05000,61.6250,105,48,0.57582
4570100,-0.05000,60.9375,105,48,0.62076
4570110,-0.04500,60.5625,105,48,0.64005
4570120,-0.04500,60.2500,105,48,0.65714
4570130,-0.03500,59.8750,105,48,0.67009
4570140,-0.02500,59.1875,105,48,0.68962
4570150,-0.00500,58.8125,105,48,0.69866
4570160,0.00500,58.4375,105,48,0.70598
4570170,0.00500,58.0625,105,48,0.71184
4570180,-0.01500,57.3125,105,48,0.71868
4570190,-0.03500,56.9375,105,48,0.71990
4570200,-0.05500,56.6250,105,48,0.71990
4570210,-0.07500,56.3125,105,48,0.71868
4570220,-0.09500,55.5625,105,48,0.71209
4570230,-0.10000,55.1875,105,48,0.70672
4570240,-0.10000,54.8125,105,48,0.70061
4570250,-0.10000,54.4375,105,48,0.69328
4570260,-0.09500,53.7500,105,48,0.67595
4570270,-0.09500,53.3750,105,48,0.66642
4570280,-0.09500,53.0625,105,48,0.65641
4570290,-0.08500,52.7500,105,48,0.64615
4570300,-0.09500,52.2500,105,48,0.62491
4570310,-0.07500,52.0000,105,48,0.61416
4570320,0.20000,51.7500,105,48,0.60366
4570330,0.77500,51.1875,105,48,0.59438
4570340,1.09500,50.8750,105,48,0.57631
4570350,0.71000,50.5625,105,48,0.56703
4570360,0.03000,50.3125,105,48,0.55775
4570370,-0.35000,50.0000,105,48,0.54872
4570380,-0.39500,49.3750,105,48,0.53138
4570390,-0.29000,49.0625,105,48,0.52308
4570400,-0.22000,48.7500,105,48,0.51502
4570410,-0.20000,48.4375,105,48,0.50696
4570420,-0.19000,47.8750,105,48,0.49206
4570430,-0.18500,47.5625,105,48,0.48571
4570440,-0.18000,47.3125,105,48,0.47888
4570450,-0.17500,47.0000,105,48,0.47204
4570460,-0.17000,46.4375,105,48,0.46105
4570470,-0.16000,46.1875,105,48,0.45836
4570480,-0.15000,46.0000,105,48,0.45348
4570490,-0.14000,46.1250,105,48,0.44737
4570500,-0.13000,48.6875,105,48,0.43419
4570510,-0.12000,52.0000,105,48,0.42784
4570520,-0.10500,56.6875,105,48,0.42149
4570530,-0.09000,62.1875,105,48,0.41636
4570540,-0.07000,73.5000,105,48,0.40684
4570550,-0.05500,78.8750,105,48,0.40147
4570560,-0.04000,83.8750,105,48,0.39585
4570570,-0.02000,88.4375,105,48,0.39023
4570580,-0.00500,95.6875,105,48,0.37924
4570590,0.00500,98.3125,105,48,0.37387
4570600,0.01500,100.2500,105,48,0.36874
4570610,0.02500,101.6250,105,48,0.36361
4570620,0.03000,102.6875,105,48,0.35458
4570630,0.03250,102.6771,105,48,0.35006
4570640,0.03500,102.0625,105,48,0.34701
4570650,0.04000,101.3125,105,48,0.34237
4570660,0.05000,99.2500,105,48,0.33236
4570670,0.06000,98.0000,105,48,0.32698
4570680,0.07000,96.6875,105,48,0.32137
4570690,0.07000,93.8125,105,48,0.31575
4570700,0.05000,92.3750,105,48,0.30476
4570710,0.03000,90.9375,105,48,0.29915
4570720,0.00000,89.5000,105,48,0.29524
4570730,-0.01500,88.0625,105,48,0.29206
4570740,-0.03500,85.1875,105,48,0.28278
4570750,-0.04000,83.6875,105,48,0.27814
4570760,-0.04000,82.0625,105,48,0.27424
4570770,-0.04000,80.3125,105,48,0.27179
4570780,-0.04000,76.2500,105,48,0.27424
4570790,-0.03500,74.0625,105,48,0.28059
4570800,-0.03500,72.0625,105,48,0.29109
4570810,-0.03500,70.2500,105,48,0.30574
4570820,-0.03500,67.5000,105,48,0.34457
4570830,-0.03500,66.5000,105,48,0.36581
4570840,-0.03500,65.6250,105,48,0.39145
4570850,-0.03500,64.1875,105,48,0.42002
4570860,-0.04000,63.6250,105,48,0.48059
4570870,-0.04500,63.1250,105,48,0.51087
4570880,-0.05500,62.6875,105,48,0.54042
4570890,-0.05500,62.2500,105,48,0.56850
4570900,-0.05500,61.5000,105,48,0.61978
4570910,-0.06500,61.0625,105,48,0.64225
4570920,-0.06500,60.6875,105,48,0.65983
4570930,-0.06500,60.3125,105,48,0.67399
4570940,-0.06000,59.5625,105,48,0.70208
4570950,-0.04500,59.1875,105,48,0.71404
4570960,-0.02500,58.8125,105,48,0.72405
4570970,-0.01500,58.4375,105,48,0.73236
4570980,-0.01500,57.7500,105,48,0.74335
4570990,-0.03500,57.3750,105,48,0.74628
4571000,-0.05500,57.0000,105,48,0.74750
4571010,-0.07000,56.6250,105,48,0.74725
4571020,-0.09000,55.8750,105,48,0.74237
4571030,-0.11500,55.5000,105,48,0.73773
4571040,-0.13000,55.1875,105,48,0.73236
4571050,-0.13500,54.8125,105,48,0.72601
4571060,-0.13000,54.0625,105,48,0.71062
4571070,-0.12500,53.7500,105,48,0.70159
4571080,-0.12500,53.4375,105,48,0.69158
4571090,-0.12000,53.1250,105,48,0.68107
4571100,-0.11500,52.6250,105,48,0.65885
4571110,-0.12500,52.3750,105,48,0.64737
4571120,-0.11000,52.1875,105,48,0.63687
4571130,0.12000,52.0000,105,48,0.62686
4571140,0.68500,51.6250,105,48,0.60586
4571150,1.14500,51.4375,105,48,0.59536
4571160,0.81000,51.1250,105,48,0.58510
4571170,0.06500,50.8750,105,48,0.57509
4571180,-0.36500,50.1875,105,48,0.55580
4571190,-0.42500,49.8750,105,48,0.54652
4571200,-0.31500,49.5625,105,48,0.53724
4571210,-0.23500,49.2500,105,48,0.52821
4571220,-0.22000,48.6250,105,48,0.51184
4571230,-0.21000,48.3125,105,48,0.50501
4571240,-0.20500,48.0000,105,48,0.49768
4571250,-0.20000,47.6875,105,48,0.49011
4571260,-0.20000,47.1250,105,48,0.47497
4571270,-0.19500,46.8750,105,48,0.46740
4571280,-0.18000,46.6250,105,48,0.46007
4571290,-0.17000,46.4375,105,48,0.45299
4571300,-0.16000,46.9375,105,48,0.43883
4571310,-0.14500,48.4375,105,48,0.43175
4571320,-0.13500,51.3750,105,48,0.42589
4571330,-0.12000,55.8125,105,48,0.42076
4571340,-0.10500,67.2500,105,48,0.40830
4571350,-0.08500,73.1250,105,48,0.40195
4571360,-0.07000,78.8125,105,48,0.39536
4571370,-0.05000,84.0625,105,48,0.38901
4571380,-0.03000,93.0000,105,48,0.37631
4571390,-0.01500,96.5625,105,48,0.37021
4571400,-0.00500,99.3750,105,48,0.36435
4571410,0.01000,101.5625,105,48,0.35873
4571420,0.01500,103.9375,105,48,0.34921
4571430,0.02000,104.3750,105,48,0.34579
4571440,0.02500,104.3750,105,48,0.34164
4571450,0.03000,104.0625,105,48,0.33700
4571460,0.03500,102.7500,105,48,0.32723
4571470,0.04500,101.7500,105,48,0.32234
4571480,0.05500,100.6250,105,48,0.31770
4571490,0.06500,99.3750,105,48,0.31331
4571500,0.07000,96.5625,105,48,0.30427
4571510,0.05500,95.0625,105,48,0.29963
4571520,0.03000,93.5625,105,48,0.29646
4571530,0.00500,92.0625,105,48,0.29377
4571540,-0.01000,89.1250,105,48,0.28596
4571550,-0.02500,87.6875,105,48,0.28181
4571560,-0.03500,86.2500,105,48,0.27766
4571570,-0.04500,84.7500,105,48,0.27424
4571580,-0.04500,81.3750,105,48,0.27179
4571590,-0.04500,79.3750,105,48,0.27424
4571600,-0.04500,77.2500,105,48,0.28010
4571610,-0.04500,75.1250,105,48,0.29035
4571620,-0.04500,71.3125,105,48,0.32186
4571630,-0.03500,69.8125,105,48,0.34066
4571640,-0.03500,68.5625,105,48,0.36435
4571650,-0.04000,67.5625,105,48,0.39194
4571660,-0.05000,65.9375,105,48,0.45348
4571670,-0.05500,65.3750,105,48,0.48571
4571680,-0.06500,64.8750,105,48,0.51795
4571690,-0.06500,64.3750,105,48,0.54945
4571700,-0.06500,63.5000,105,48,0.60781
4571710,-0.07000,63.0625,105,48,0.63419
4571720,-0.07500,62.6875,105,48,0.65495
4571730,-0.07500,62.2500,105,48,0.67228
4571740,-0.07500,61.4375,105,48,0.70696
4571750,-0.07500,61.0625,105,48,0.72234
4571760,-0.07500,60.6875,105,48,0.73578
4571770,-0.06000,60.3125,105,48,0.74750
4571780,-0.04000,59.5000,105,48,0.76484
4571790,-0.01500,59.0625,105,48,0.77070
4571800,-0.01000,58.6875,105,48,0.77460
4571810,-0.01500,58.3125,105,48,0.77705
4571820,-0.03500,57.5625,105,48,0.77631
4571830,-0.05000,57.1875,105,48,0.77338
4571840,-0.06500,56.8125,105,48,0.76996
4571850,-0.08500,56.3750,105,48,0.76532
4571860,-0.10500,55.6250,105,48,0.75287
4571870,-0.11500,55.1875,105,48,0.74481
4571880,-0.12500,54.8125,105,48,0.73578
4571890,-0.12500,54.5000,105,48,0.72601
4571900,-0.12500,53.8125,105,48,0.70427
4571910,-0.11500,53.5000,105,48,0.69280
4571920,-0.11500,53.2500,105,48,0.68181
4571930,-0.10500,53.0625,105,48,0.67106
4571940,-0.11500,52.6875,105,48,0.64860
4571950,0.03000,52.5000,105,48,0.63736
4571960,0.52500,52.3125,105,48,0.62637
4571970,1.12000,52.1250,105,48,0.61538
4571980,1.01500,51.6875,105,48,0.59389
4571990,0.26000,51.3750,105,48,0.58339
4572000,-0.31500,51.1250,104,48,0.57338
4572010,-0.45500,50.8750,104,48,0.56361
4572020,-0.35000,50.2500,104,48,0.54603
4572030,-0.25000,49.8750,104,48,0.53846
4572040,-0.22500,49.5625,104,48,0.53065
4572050,-0.21500,49.2500,104,48,0.52234
4572060,-0.20000,48.6250,104,48,0.50574
4572070,-0.19000,48.3125,104,48,0.49744
4572080,-0.19000,48.0000,104,48,0.48913
4572090,-0.19000,47.7500,104,48,0.48107
4572100,-0.18500,47.1875,104,48,0.46545
4572110,-0.17000,47.0625,104,48,0.45788
4572120,-0.16000,47.1875,104,48,0.45128
4572130,-0.15500,47.8125,104,48,0.44542
4572140,-0.14500,52.8750,104,48,0.43175
4572150,-0.13500,57.6875,104,48,0.42466
4572160,-0.12500,63.3750,104,48,0.41758
4572170,-0.11000,69.4375,104,48,0.41050
4572180,-0.09000,81.1875,104,48,0.39683
4572190,-0.07000,86.4375,104,48,0.39048
4572200,-0.04500,91.1875,104,48,0.38413
4572210,-0.02500,95.3125,104,48,0.37802
4572220,-0.01000,101.3750,104,48,0.36728
4572230,0.00500,103.3125,104,48,0.36313
4572240,0.02000,104.6250,104,48,0.35849
4572250,0.02000,105.3125,104,48,0.35336
4572260,0.03000,105.3750,104,48,0.34261
4572270,0.03000,104.9375,104,48,0.33724
4572280,0.03500,104.3125,104,48,0.33187
4572290,0.04500,103.4375,104,48,0.32674
4572300,0.06000,101.1875,104,48,0.31697
4572310,0.07000,99.8750,104,48,0.31233
4572320,0.07000,98.5000,104,48,0.30891
4572330,0.06500,97.0625,104,48,0.30623
4572340,0.05000,94.2500,104,48,0.29866
4572350,0.02500,92.8125,104,48,0.29451
4572360,0.00000,91.3750,104,48,0.29011
4572370,-0.01500,89.9375,104,48,0.28571
4572380,-0.03500,87.0625,104,48,0.27790
4572390,-0.04000,85.5000,104,48,0.27473
4572400,-0.04500,83.8125,104,48,0.27302
4572410,-0.05000,81.9375,104,48,0.27375
4572420,-0.05000,77.6875,104,48,0.28449
4572430,-0.04500,75.5000,104,48,0.29426
4572440,-0.04500,73.5000,104,48,0.30842
4572450,-0.04500,71.6875,104,48,0.32723
4572460,-0.04500,68.9375,104,48,0.37656
4572470,-0.04500,67.8750,104,48,0.40537
4572480,-0.05000,67.0625,104,48,0.43639
4572490,-0.05500,66.3750,104,48,0.46838
4572500,-0.05500,65.2500,104,48,0.53260
4572510,-0.06500,64.8125,104,48,0.55727
4572520,-0.06500,64.3750,104,48,0.57338
4572530,-0.06500,64.0000,104,48,0.59072
4572540,-0.06500,63.2500,104,48,0.63346
4572550,-0.06500,62.8750,104,48,0.65421
4572560,-0.06500,62.4375,104,48,0.67350
4572570,-0.05500,62.0625,104,48,0.69084
4572580,-0.04000,61.1875,104,48,0.71868
4572590,-0.02500,60.8125,104,48,0.72918
4572600,-0.00500,60.3750,104,48,0.73773
4572610,0.00000,59.9375,104,48,0.74432
4572620,-0.00500,59.0625,104,48,0.74921
4572630,-0.03000,58.6250,104,48,0.75018
4572640,-0.05000,58.1875,104,48,0.75018
4572650,-0.07000,57.7500,104,48,0.74921
4572660,-0.09500,56.8750,104,48,0.74335
4572670,-0.11000,56.5000,104,48,0.73846
4572680,-0.11500,56.1563,104,48,0.73407
4572690,-0.11500,55.6875,104,48,0.72552
4572700,-0.11500,54.9375,104,48,0.70818
4572710,-0.11500,54.5625,104,48,0.69817
4572720,-0.11000,54.1875,104,48,0.68791
4572730,-0.10500,53.9375,104,48,0.67766
4572740,-0.10000,53.3750,104,48,0.65568
4572750,-0.11000,53.1875,104,48,0.64420
4572760,0.02000,53.0000,104,48,0.63272
4572770,0.49500,52.8125,104,48,0.62125
4572780,1.09500,52.3125,104,48,0.59902
4572790,1.02000,52.0625,104,48,0.58803
4572800,0.28500,51.8125,104,48,0.57753
4572810,-0.28500,51.5625,104,48,0.56703
4572820,-0.43500,50.9375,104,48,0.54921
4572830,-0.32500,50.6250,104,48,0.54042
4572840,-0.22000,50.2500,104,48,0.53138
4572850,-0.20000,49.8750,104,48,0.52234
4572860,-0.20000,49.1875,104,48,0.50476
4572870,-0.19000,48.8125,104,48,0.49573
4572880,-0.18000,48.5000,104,48,0.48694
4572890,-0.17000,48.1875,104,48,0.47814
4572900,-0.16000,47.5000,104,48,0.46129
4572910,-0.16000,47.2500,104,48,0.45324
4572920,-0.15000,47.0000,104,48,0.44615
4572930,-0.13500,46.9375,104,48,0.43980
4572940,-0.12000,48.7500,104,48,0.42515
4572950,-0.11000,51.5000,104,48,0.41758
4572960,-0.09500,55.8125,104,48,0.41001
4572970,-0.09000,61.2500,104,48,0.40244
4572980,-0.07500,73.1250,104,48,0.38755
4572990,-0.05500,78.8125,104,48,0.38022
4573000,-0.04000,84.1250,104,48,0.37314
4573010,-0.02500,88.8750,104,48,0.36606
4573020,-0.00500,96.4375,104,48,0.35556
4573030,0.01500,99.1875,104,48,0.34994
4573040,0.03000,101.2500,104,48,0.34383
4573050,0.05000,102.6875,104,48,0.33773
4573060,0.06000,103.7500,104,48,0.32601
4573070,0.06500,103.5625,104,48,0.32039
4573080,0.07500,103.1250,104,48,0.31477
4573090,0.08000,102.3750,104,48,0.30940
4573100,0.09500,100.3125,104,48,0.29866
4573110,0.10500,99.0625,104,48,0.29328
4573120,0.11500,97.6875,104,48,0.28938
4573130,0.11000,96.2500,104,48,0.28620
4573140,0.10000,93.1875,104,48,0.27741
4573150,0.08000,91.6875,104,48,0.27253
4573160,0.06000,90.1250,104,48,0.26764
4573170,0.03000,88.6250,104,48,0.26276
4573180,0.01000,85.6250,104,48,0.25324
4573190,-0.00500,84.0625,104,48,0.24884
4573200,-0.00500,82.4375,104,48,0.24518
4573210,-0.01000,78.6875,104,48,0.24274
4573220,-0.01500,76.5625,104,48,0.24493
4573230,-0.01500,74.3125,104,48,0.24957
4573240,-0.01500,72.0625,104,48,0.25739
4573250,-0.01500,70.1250,104,48,0.26935
4573260,-0.01500,67.0000,104,48,0.30574
4573270,-0.02000,65.8125,104,48,0.32991
4573280,-0.02500,64.8750,104,48,0.35678
4573290,-0.03500,63.5000,104,48,0.38559
4573300,-0.04000,63.0000,104,48,0.44591
4573310,-0.04500,62.5625,104,48,0.47595
4573320,-0.04500,62.1875,104,48,0.50159
4573330,-0.04500,61.8750,104,48,0.52430
4573340,-0.04500,61.2500,104,48,0.57265
4573350,-0.05500,61.0000,104,48,0.59536
4573360,-0.05500,60.6875,104,48,0.61636
4573370,-0.05500,60.3125,104,48,0.63516
4573380,-0.05000,59.6250,104,48,0.66593
4573390,-0.03500,59.3125,104,48,0.67814
4573400,-0.01500,58.9375,104,48,0.68840
4573410,0.00000,58.5625,104,48,0.69646
4573420,0.01000,57.8125,104,48,0.70403
4573430,0.00000,57.4375,104,48,0.70647
4573440,-0.02500,57.0000,104,48,0.70769
4573450,-0.04500,56.6250,104,48,0.70794
4573460,-0.06500,55.8125,104,48,0.70476
4573470,-0.09000,55.4375,104,48,0.70134
4573480,-0.10500,55.0000,104,48,0.69670
4573490,-0.10500,54.6250,104,48,0.69084
4573500,-0.09500,53.8750,104,48,0.67570
4573510,-0.09500,53.5000,104,48,0.66642
4573520,-0.09500,53.1250,104,48,0.65714
4573530,-0.09000,52.7500,104,48,0.64762
4573540,-0.08500,52.1875,104,48,0.62613
4573550,-0.08500,52.0000,104,48,0.61465
4573560,-0.09500,51.8125,104,48,0.60293
4573570,0.05500,51.6250,104,48,0.59145
4573580,0.52500,51.2500,104,48,0.56899
4573590,1.03500,51.0000,104,48,0.55824
4573600,0.91000,50.7500,104,48,0.54774
4573610,0.21000,50.4375,104,48,0.53773
4573620,-0.30000,49.8750,104,48,0.52063
4573630,-0.44500,49.5000,104,48,0.51209
4573640,-0.35500,49.1250,104,48,0.50354
4573650,-0.24000,48.8125,104,48,0.49499
4573660,-0.20000,48.0625,104,48,0.47839
4573670,-0.19000,47.7500,104,48,0.47033
4573680,-0.18000,47.4375,104,48,0.46227
4573690,-0.17000,47.1875,104,48,0.45446
4573700,-0.16000,46.7292,104,48,0.44237
4573710,-0.16000,46.2500,104,48,0.43077
4573720,-0.15500,45.9375,104,48,0.42442
4573730,-0.14500,45.6250,104,48,0.41856
4573740,-0.12500,45.7500,104,48,0.40488
4573750,-0.11500,46.7500,104,48,0.39780
4573760,-0.10500,48.8750,104,48,0.39072
4573770,-0.10000,52.5000,104,48,0.38339
4573780,-0.08500,63.0000,104,48,0.36899
4573790,-0.07000,68.7500,104,48,0.36190
4573800,-0.04500,74.3125,104,48,0.35507
4573810,-0.03000,79.5000,104,48,0.34847
4573820,-0.01500,88.3750,104,48,0.33895
4573830,0.00000,91.9375,104,48,0.33382
4573840,0.01500,94.8750,104,48,0.32821
4573850,0.03000,97.1250,104,48,0.32283
4573860,0.04000,99.6875,104,48,0.31209
4573870,0.05000,100.1250,104,48,0.30696
4573880,0.07000,100.1250,104,48,0.30159
4573890,0.08000,99.6875,104,48,0.29621
4573900,0.09500,97.9375,104,48,0.28596
4573910,0.10000,96.8125,104,48,0.28107
4573920,0.11000,95.4375,104,48,0.27741
4573930,0.11500,94.0625,104,48,0.27473
4573940,0.11000,91.0000,104,48,0.26642
4573950,0.09500,89.4375,104,48,0.26178
4573960,0.07000,87.8750,104,48,0.25714
4573970,0.04000,86.3125,104,48,0.25250
4573980,0.01500,83.3750,104,48,0.24322
4573990,-0.00500,81.8750,104,48,0.23834
4574000,-0.02000,80.2500,104,47,0.23370
4574010,-0.03500,78.5625,104,47,0.22955
4574020,-0.03500,74.6875,104,47,0.22686
4574030,-0.03000,72.5625,104,47,0.22735
4574040,-0.02500,70.5625,104,47,0.23004
4574050,-0.01500,68.6875,104,47,0.23590
4574060,-0.00500,65.8750,104,47,0.25910
4574070,0.00000,64.8125,104,47,0.27717
4574080,0.00000,64.0000,104,47,0.29915
4574090,-0.00500,63.3125,104,47,0.32430
4574100,-0.01500,62.3125,104,47,0.38046
4574110,-0.03000,61.9375,104,47,0.41026
4574120,-0.04500,61.5625,104,47,0.43639
4574130,-0.05500,61.3125,104,47,0.46007
4574140,-0.05500,60.6875,104,47,0.51160
4574150,-0.05500,60.3750,104,47,0.53626
4574160,-0.05500,60.0625,104,47,0.55946
4574170,-0.04500,59.6875,104,47,0.58071
4574180,-0.04000,58.9375,104,47,0.61661
4574190,-0.03000,58.5625,104,47,0.63126
4574200,-0.01500,58.1875,104,47,0.64371
4574210,0.00000,57.8125,104,47,0.65397
4574220,0.01500,57.0000,104,47,0.66545
4574230,0.01500,56.5625,104,47,0.66960
4574240,0.00000,56.1875,104,47,0.67277
4574250,-0.03000,55.8125,104,47,0.67473
4574260,-0.05000,55.0625,104,47,0.67424
4574270,-0.07000,54.6875,104,47,0.67204
4574280,-0.09500,54.3125,104,47,0.66838
4574290,-0.10500,53.9375,104,47,0.66325
4574300,-0.10500,53.1875,104,47,0.64957
4574310,-0.10500,52.8750,104,47,0.64176
4574320,-0.10500,52.5000,104,47,0.63370
4574330,-0.10500,52.1875,104,47,0.62466
4574340,-0.09500,51.6875,104,47,0.60513
4574350,-0.08500,51.5000,104,47,0.59512
4574360,-0.09500,51.3125,104,47,0.58486
4574370,-0.08500,51.1875,104,47,0.57460
4574380,0.26500,50.8750,104,47,0.55458
4574390,0.72500,50.6875,104,47,0.54505
4574400,1.09500,50.4375,104,47,0.53553
4574410,0.71000,50.1875,104,47,0.52625
4574420,0.02000,49.5625,104,47,0.51038
4574430,-0.36500,49.2500,104,47,0.50208
4574440,-0.42500,48.9375,104,47,0.49377
4574450,-0.31500,48.6250,104,47,0.48547
4574460,-0.23000,48.0000,104,47,0.46960
4574470,-0.20500,47.6875,104,47,0.46203
4574480,-0.19500,47.3125,104,47,0.45470
4574490,-0.18500,47.0000,104,47,0.44737
4574500,-0.17000,46.4375,104,47,0.43297
4574510,-0.16000,46.1250,104,47,0.42686
4574520,-0.15500,45.8125,104,47,0.42149
4574530,-0.14000,45.5625,104,47,0.41538
4574540,-0.12500,45.3125,104,47,0.40195
4574550,-0.11500,45.6875,104,47,0.39512
4574560,-0.10500,46.9375,104,47,0.39267
4574570,-0.10500,49.5000,104,47,0.39267
4574580,-0.10000,58.6250,104,47,0.38486
4574590,-0.09500,64.2500,104,47,0.37973
4574600,-0.08500,69.8750,104,47,0.37411
4574610,-0.07000,75.3750,104,47,0.36874
4574620,-0.05000,85.1875,104,47,0.36068
4574630,-0.03000,89.3125,104,47,0.35653
4574640,-0.01500,92.8750,104,47,0.35189
4574650,-0.00500,95.6875,104,47,0.34725
4574660,0.01000,99.4375,104,47,0.33797
4574670,0.01500,100.3750,104,47,0.33333
4574680,0.02500,100.8125,104,47,0.32869
4574690,0.03000,100.7500,104,47,0.32405
4574700,0.04000,99.7500,104,47,0.31526
4574710,0.04000,98.8750,104,47,0.31209
4574720,0.05000,97.8125,104,47,0.30965
4574730,0.06333,95.9167,104,47,0.30431
4574740,0.07000,93.8750,104,47,0.29841
4574750,0.06000,92.3750,104,47,0.29426
4574760,0.04500,90.8750,104,47,0.29035
4574770,0.02000,89.3750,104,47,0.28645
4574780,-0.00500,86.3750,104,47,0.27863
4574790,-0.02000,84.9375,104,47,0.27448
4574800,-0.03000,83.4375,104,47,0.27033
4574810,-0.04000,81.8750,104,47,0.26667
4574820,-0.04500,78.5000,104,47,0.26349
4574830,-0.04500,76.5625,104,47,0.26300
4574840,-0.04500,74.4375,104,47,0.26398
4574850,-0.05000,70.2500,104,47,0.26740
4574860,-0.05000,68.3750,104,47,0.28474
4574870,-0.05500,66.8750,104,47,0.29915
4574880,-0.05500,65.6250,104,47,0.31746
4574890,-0.05000,63.8750,104,47,0.36386
4574900,-0.04500,63.2500,104,47,0.39072
4574910,-0.05000,62.6875,104,47,0.41538
4574920,-0.05500,62.1875,104,47,0.43883
4574930,-0.06500,61.7500,104,47,0.46496
4574940,-0.06500,61.0625,104,47,0.51893
4574950,-0.07000,60.6875,104,47,0.54505
4574960,-0.07000,60.3125,104,47,0.56972
4574970,-0.07500,59.9375,104,47,0.59267
4574980,-0.07000,59.2500,104,47,0.63223
4574990,-0.06500,58.8750,104,47,0.64884
4575000,-0.04500,58.5000,103,47,0.66325
4575010,-0.03500,58.1250,103,47,0.67546
4575020,-0.01500,57.3750,103,47,0.68987
4575030,-0.00500,57.0000,103,47,0.69548
4575040,-0.01500,56.6250,103,47,0.69988
4575050,-0.03500,56.2500,103,47,0.70330
4575060,-0.06000,55.4375,103,47,0.70574
4575070,-0.07500,55.0625,103,47,0.70501
4575080,-0.09500,54.6875,103,47,0.70305
4575090,-0.11500,54.3125,103,47,0.70012
4575100,-0.12500,53.6250,103,47,0.69035
4575110,-0.12500,53.2500,103,47,0.68400
4575120,-0.12000,52.9375,103,47,0.67692
4575130,-0.11500,52.6250,103,47,0.66886
4575140,-0.11000,52.0000,103,47,0.65055
4575150,-0.10500,51.7500,103,47,0.64054
4575160,-0.10000,51.5625,103,47,0.63004
4575170,-0.10500,51.3750,103,47,0.61954
4575180,-0.07500,51.0625,103,47,0.59829
4575190,0.21000,50.8125,103,47,0.58828
4575200,0.79500,50.6250,103,47,0.57827
4575210,1.08500,50.3125,103,47,0.56850
4575220,0.65000,49.7500,103,47,0.55189
4575230,-0.03000,49.5000,103,47,0.54359
4575240,-0.39500,49.1250,103,47,0.53504
4575250,-0.41500,48.8125,103,47,0.52650
4575260,-0.30500,48.1250,103,47,0.50965
4575270,-0.23000,47.8125,103,47,0.50159
4575280,-0.21500,47.5000,103,47,0.49377
4575290,-0.20500,47.1875,103,47,0.48620
4575300,-0.19000,46.5625,103,47,0.47155
4575310,-0.18000,46.3125,103,47,0.46520
4575320,-0.17000,46.0000,103,47,0.45910
4575330,-0.17000,45.4375,103,47,0.44542
4575340,-0.17000,45.1875,103,47,0.43834
4575350,-0.16000,45.1875,103,47,0.43150
4575360,-0.14500,45.5000,103,47,0.42466
4575370,-0.14000,46.7500,103,47,0.41807
4575380,-0.13000,53.3125,103,47,0.40537
4575390,-0.11500,58.5000,103,47,0.39927
4575400,-0.10000,64.1250,103,47,0.39316
4575410,-0.08000,69.8125,103,47,0.38706
4575420,-0.06500,80.5000,103,47,0.37802
4575430,-0.04500,85.2500,103,47,0.37314
4575440,-0.02500,89.5000,103,47,0.36801
4575450,0.00000,96.0625,103,47,0.35751
4575460,0.01500,98.3750,103,47,0.35214
4575470,0.03000,100.0000,103,47,0.34676
4575480,0.04000,101.0625,103,47,0.34139
4575490,0.04000,101.6250,103,47,0.33626
4575500,0.04000,101.4375,103,47,0.32674
4575510,0.04000,100.8750,103,47,0.32332
4575520,0.05000,100.0625,103,47,0.32039
4575530,0.05500,99.0000,103,47,0.31673
4575540,0.06000,96.5000,103,47,0.30891
4575550,0.06500,95.0625,103,47,0.30476
4575560,0.05500,93.5625,103,47,0.30061
4575570,0.03000,90.6875,103,47,0.29646
4575580,0.01000,89.1875,103,47,0.28767
4575590,-0.01500,87.7500,103,47,0.28327
4575600,-0.03500,86.2500,103,47,0.27888
4575610,-0.04500,84.8125,103,47,0.27473
4575620,-0.05000,81.7500,103,47,0.26984
4575630,-0.05000,80.0625,103,47,0.26764
4575640,-0.05000,78.2500,103,47,0.26642
4575650,-0.04500,76.1875,103,47,0.26716
4575660,-0.04000,71.9375,103,47,0.27766
4575670,-0.03500,70.0000,103,47,0.28816
4575680,-0.03000,68.3125,103,47,0.30281
4575690,-0.03000,66.9375,103,47,0.32112
4575700,-0.03000,64.8750,103,47,0.36801
4575710,-0.03000,64.1250,103,47,0.39170
4575720,-0.03500,63.4375,103,47,0.41490
4575730,-0.03500,62.8125,103,47,0.44151
4575740,-0.03500,61.8750,103,47,0.49792
4575750,-0.03833,61.3750,103,47,0.53020
4575760,-0.04500,61.0625,103,47,0.55189
4575770,-0.05500,60.6875,103,47,0.57656
4575780,-0.05500,59.9375,103,47,0.62051
4575790,-0.05500,59.5625,103,47,0.63932
4575800,-0.04500,59.1875,103,47,0.65641
4575810,-0.03500,58.8125,103,47,0.67131
4575820,-0.01500,58.0625,103,47,0.69035
4575830,0.00000,57.6875,103,47,0.69841
4575840,0.00500,57.3125,103,47,0.70549
4575850,-0.01000,56.9375,103,47,0.71111
4575860,-0.03500,56.1875,103,47,0.71844
4575870,-0.05000,55.8125,103,47,0.71990
4575880,-0.07000,55.4375,103,47,0.71990
4575890,-0.09500,55.1250,103,47,0.71868
4575900,-0.10500,54.3750,103,47,0.71233
4575910,-0.10000,54.0000,103,47,0.70720
4575920,-0.09500,53.6250,103,47,0.70110
4575930,-0.09500,53.3125,103,47,0.69402
4575940,-0.08500,52.6875,103,47,0.67741
4575950,-0.08000,52.3750,103,47,0.66813
4575960,-0.07500,52.1875,103,47,0.65836
4575970,-0.08500,52.0000,103,47,0.64835
4575980,-0.07500,51.5625,103,47,0.62759
4575990,0.18000,51.3750,103,47,0.61709
4576000,0.73500,51.1250,104,47,0.60659
4576010,1.11500,50.8750,104,47,0.59634
4576020,0.78000,50.2500,104,47,0.57827
4576030,0.07500,49.9375,104,47,0.56923
4576040,-0.34000,49.5625,104,47,0.55995
4576050,-0.40000,49.2500,104,47,0.55067
4576060,-0.29500,48.5625,104,47,0.53236
4576070,-0.21500,48.1875,104,47,0.52381
4576080,-0.19500,47.8750,104,47,0.51526
4576090,-0.19000,47.5625,104,47,0.50696
4576100,-0.17500,46.8750,104,47,0.49035
4576110,-0.16500,46.5625,104,47,0.48352
4576120,-0.15500,46.2500,104,47,0.47717
4576130,-0.15500,46.0000,104,47,0.47033
4576140,-0.15500,45.4375,104,47,0.45617
4576150,-0.14500,45.3750,104,47,0.44908
4576160,-0.14000,45.6875,104,47,0.44200
4576170,-0.13500,46.7500,104,47,0.43492
4576180,-0.12000,53.0000,104,47,0.42076
4576190,-0.10500,58.0000,104,47,0.41392
4576200,-0.09000,63.6250,104,47,0.40708
4576210,-0.07500,69.3125,104,47,0.40171
4576220,-0.05500,80.1250,104,47,0.39145
4576230,-0.04000,85.0000,104,47,0.38584
4576240,-0.02000,89.3125,104,47,0.38022
4576250,-0.00500,93.0625,104,47,0.37436
4576260,0.01000,98.6250,104,47,0.36337
4576270,0.01500,100.3750,104,47,0.35800
4576280,0.02000,101.5625,104,47,0.35287
4576290,0.03000,102.3750,104,47,0.34799
4576300,0.04000,102.2500,104,47,0.33822
4576310,0.04000,101.8125,104,47,0.33455
4576320,0.05000,101.1250,104,47,0.33114
4576330,0.06000,100.2500,104,47,0.32674
4576340,0.07000,97.9375,104,47,0.31746
4576350,0.07500,96.6250,104,47,0.31306
4576360,0.07000,95.1250,104,47,0.30842
4576370,0.05500,93.5625,104,47,0.30379
4576380,0.03000,90.4375,104,47,0.29499
4576390,0.01000,88.9375,104,47,0.29060
4576400,-0.00500,87.4375,104,47,0.28596
4576410,-0.01500,85.9375,104,47,0.28278
4576420,-0.02000,82.9375,104,47,0.27717
4576430,-0.02500,81.3125,104,47,0.27424
4576440,-0.02500,79.5625,104,47,0.27228
4576450,-0.02500,77.6250,104,47,0.27228
4576460,-0.02000,73.3125,104,47,0.28034
4576470,-0.02000,71.3125,104,47,0.28962
4576480,-0.01500,69.5000,104,47,0.30305
4576490,-0.01500,68.0000,104,47,0.32063
4576500,-0.01500,65.7500,104,47,0.36606
4576510,-0.01500,64.8750,104,47,0.38901
4576520,-0.02000,64.1250,104,47,0.41197
4576530,-0.02500,63.5000,104,47,0.43834
4576540,-0.03500,62.4375,104,47,0.49426
4576550,-0.04000,62.0000,104,47,0.52186
4576560,-0.04500,61.5625,104,47,0.54847
4576570,-0.04500,61.1250,104,47,0.57363
4576580,-0.04500,60.3125,104,47,0.61832
4576590,-0.04000,59.9375,104,47,0.63761
4576600,-0.03500,59.5625,104,47,0.65495
4576610,-0.02000,59.1875,104,47,0.67424
4576620,-0.00500,58.5000,104,47,0.70916
4576630,0.00000,58.1250,104,47,0.72137
4576640,0.00500,57.7500,104,47,0.73114
4576650,0.00000,57.3750,104,47,0.73871
4576660,-0.02500,56.6250,104,47,0.74799
4576670,-0.04500,56.2500,104,47,0.74994
4576680,-0.06000,55.8750,104,47,0.75018
4576690,-0.08000,55.5000,104,47,0.74896
4576700,-0.10000,54.6875,104,47,0.74237
4576710,-0.10500,54.3750,104,47,0.73724
4576720,-0.10500,54.0000,104,47,0.73114
4576730,-0.11000,53.6875,104,47,0.72405
4576740,-0.11000,53.0000,104,47,0.70696
4576750,-0.10500,52.7500,104,47,0.69695
4576760,-0.10000,52.5000,104,47,0.68620
4576770,-0.09500,52.3125,104,47,0.67497
4576780,-0.10417,52.0729,104,47,0.65779
4576790,0.05000,51.8125,104,47,0.64054
4576800,0.54500,51.5625,104,47,0.62906
4576810,1.10500,51.3125,104,47,0.61880
4576820,0.97000,50.6875,104,47,0.59902
4576830,0.26500,50.3750,104,47,0.58877
4576840,-0.27000,50.0000,104,47,0.57851
4576850,-0.43500,49.6875,104,47,0.56825
4576860,-0.35000,48.9375,104,47,0.54823
4576870,-0.24000,48.6250,104,47,0.53846
4576880,-0.21000,48.2500,104,47,0.52894
4576890,-0.20000,47.9375,104,47,0.51966
4576900,-0.18500,47.3125,104,47,0.50134
4576910,-0.17000,47.0000,104,47,0.49353
4576920,-0.17000,46.6875,104,47,0.48645
4576930,-0.16500,46.0625,104,47,0.47888
4576940,-0.16000,45.8125,104,47,0.46300
4576950,-0.15500,45.6875,104,47,0.45470
4576960,-0.13500,46.0000,104,47,0.44664
4576970,-0.12500,47.0625,104,47,0.43883
4576980,-0.11500,53.2500,104,47,0.42344
4576990,-0.10500,58.3125,104,47,0.41612
4577000,-0.09500,64.0000,104,47,0.40904
4577010,-0.08000,69.8125,104,47,0.40317
4577020,-0.06500,80.8750,104,47,0.39194
4577030,-0.04500,85.8750,104,47,0.38559
4577040,-0.02500,90.2500,104,47,0.37900
4577050,-0.00500,94.0000,104,47,0.37241
4577060,0.01000,99.5625,104,47,0.35995
4577070,0.03000,101.3750,104,47,0.35409
4577080,0.04500,102.5625,104,47,0.34799
4577090,0.05500,103.1875,104,47,0.34212
4577100,0.06000,103.2500,104,47,0.33065
4577110,0.06500,102.7500,104,47,0.32650
4577120,0.07000,102.0625,104,47,0.32308
4577130,0.07000,101.1250,104,47,0.31893
4577140,0.07000,98.8125,104,47,0.30940
4577150,0.07500,97.5000,104,47,0.30452
4577160,0.07500,96.1250,104,47,0.29939
4577170,0.06500,94.6875,104,47,0.29426
4577180,0.05000,91.7500,104,47,0.28449
4577190,0.03000,90.2500,104,47,0.27985
4577200,0.00000,88.7500,104,47,0.27497
4577210,-0.01500,87.3125,104,47,0.27155
4577220,-0.02500,84.2500,104,47,0.26593
4577230,-0.03000,82.6250,104,47,0.26300
4577240,-0.03000,80.8750,104,47,0.26105
4577250,-0.02500,78.9375,104,47,0.26105
4577260,-0.02000,74.5625,104,47,0.27033
4577270,-0.02000,72.3750,104,47,0.28059
4577280,-0.02000,70.4375,104,47,0.29548
4577290,-0.02000,68.8125,104,47,0.31477
4577300,-0.02500,66.3125,104,47,0.36508
4577310,-0.02500,65.4375,104,47,0.39072
4577320,-0.03000,64.7500,104,47,0.41612
4577330,-0.03000,64.1250,104,47,0.44518
4577340,-0.04000,63.1875,104,47,0.50696
4577350,-0.04500,62.7500,104,47,0.53748
4577360,-0.05000,62.3750,104,47,0.56679
4577370,-0.05500,62.0000,104,47,0.59438
4577380,-0.05500,61.3125,104,47,0.64371
4577390,-0.05000,61.0000,104,47,0.66520
4577400,-0.04500,60.6250,104,47,0.68449
4577410,-0.03500,60.2500,104,47,0.69915
4577420,-0.02000,59.5000,104,47,0.72210
4577430,0.00000,59.1250,104,47,0.73236
4577440,0.01000,58.6875,104,47,0.74139
4577450,0.02000,58.3125,104,47,0.74847
4577460,0.00000,57.5000,104,47,0.75751
4577470,-0.02500,57.1250,104,47,0.75971
4577480,-0.04500,56.7500,104,47,0.76020
4577490,-0.06500,56.3125,104,47,0.75946
4577500,-0.09000,55.5000,104,47,0.75360
4577510,-0.10500,55.1250,104,47,0.74872
4577520,-0.10500,54.6875,104,47,0.74237
4577530,-0.10500,54.3125,104,47,0.73504
4577540,-0.10500,53.6250,104,47,0.71770
4577550,-0.10000,53.3125,104,47,0.70769
4577560,-0.08500,53.0000,104,47,0.69695
4577570,-0.07000,52.5000,104,47,0.67424
4577580,-0.07500,52.2500,104,47,0.66252
4577590,-0.07500,52.0625,104,47,0.65055
4577600,0.16500,51.8750,104,47,0.63858
4577610,0.74000,51.4375,104,47,0.62784
4577620,1.18500,51.2500,104,47,0.60733
4577630,0.87500,51.0000,104,47,0.59683
4577640,0.09000,50.7500,104,47,0.58632
4577650,-0.39500,50.5000,104,47,0.57582
4577660,-0.45000,49.8125,104,47,0.55604
4577670,-0.32500,49.5000,104,47,0.54652
4577680,-0.24000,49.1250,104,47,0.53724
4577690,-0.22500,48.8125,104,47,0.52796
4577700,-0.22000,48.1250,104,47,0.51013
4577710,-0.20500,47.8125,104,47,0.50256
4577720,-0.19000,47.5625,104,47,0.49573
4577730,-0.18000,47.2500,104,47,0.48816
4577740,-0.18000,46.6250,104,47,0.47277
4577750,-0.18000,46.4375,104,47,0.46471
4577760,-0.17000,46.3750,104,47,0.45690
4577770,-0.15500,46.7500,104,47,0.44908
4577780,-0.14500,50.5625,104,47,0.43370
4577790,-0.14500,54.6875,104,47,0.42637
4577800,-0.13083,59.0208,104,47,0.42059
4577810,-0.11000,65.9375,104,47,0.41343
4577820,-0.09000,77.8125,104,47,0.40195
4577830,-0.06500,83.3125,104,47,0.39536
4577840,-0.04500,88.3125,104,47,0.38877
4577850,-0.02500,92.6875,104,47,0.38242
4577860,-0.00500,99.5000,104,47,0.36972
4577870,0.01000,101.7500,104,47,0.36337
4577880,0.02500,103.3750,104,47,0.35702
4577890,0.03500,104.3750,104,47,0.35116
4577900,0.04000,105.0000,104,47,0.33944
4577910,0.04000,104.7500,104,47,0.33504
4577920,0.04000,104.2500,104,47,0.33138
4577930,0.04000,103.5625,104,47,0.32698
4577940,0.04500,101.6875,104,47,0.31722
4577950,0.05500,100.5000,104,47,0.31233
4577960,0.06000,99.2500,104,47,0.30745
4577970,0.06500,97.8125,104,47,0.30281
4577980,0.05000,94.8750,104,47,0.29353
4577990,0.03000,93.3750,104,47,0.28889
4578000,0.01000,91.8750,103,47,0.28425
4578010,-0.01000,90.3750,103,47,0.28107
4578020,-0.03000,87.5000,103,47,0.27521
4578030,-0.03500,86.0000,103,47,0.27155
4578040,-0.04000,84.4375,103,47,0.26838
4578050,-0.04000,82.7500,103,47,0.26642
4578060,-0.03500,78.6875,103,47,0.26984
4578070,-0.03500,76.5000,103,47,0.27692
4578080,-0.03500,74.4375,103,47,0.28840
4578090,-0.04500,72.5625,103,47,0.30452
4578100,-0.04500,69.6250,103,47,0.34676
4578110,-0.04500,68.4375,103,47,0.36972
4578120,-0.04500,67.5000,103,47,0.39731
4578130,-0.04500,66.6875,103,47,0.42784
4578140,-0.05500,65.4375,103,47,0.49280
4578150,-0.06500,64.9375,103,47,0.52503
4578160,-0.06500,64.4375,103,47,0.55653
4578170,-0.06500,64.0625,103,47,0.58657
4578180,-0.07000,63.1875,103,47,0.64151
4578190,-0.07000,62.8125,103,47,0.66569
4578200,-0.07000,62.3750,103,47,0.68767
4578210,-0.06500,61.9375,103,47,0.70427
4578220,-0.05500,61.0625,103,47,0.73138
4578230,-0.04500,60.6250,103,47,0.74383
4578240,-0.02500,60.2500,103,47,0.75482
4578250,-0.01500,59.8750,103,47,0.76386
4578260,-0.01500,59.0625,103,47,0.77631
4578270,-0.02500,58.6250,103,47,0.77998
4578280,-0.05000,58.2500,103,47,0.78217
4578290,-0.06500,57.8125,103,47,0.78291
4578300,-0.08500,57.0625,103,47,0.77949
4578310,-0.10500,56.6250,103,47,0.77534
4578320,-0.11500,56.2500,103,47,0.77045
4578330,-0.12000,55.8750,103,47,0.76459
4578340,-0.12000,55.1250,103,47,0.74969
4578350,-0.11500,54.8125,103,47,0.74042
4578360,-0.11500,54.5000,103,47,0.73016
4578370,-0.10500,54.1875,103,47,0.71917
4578380,-0.10000,53.6250,103,47,0.69597
4578390,-0.11500,53.3750,103,47,0.68400
4578400,-0.09000,53.1250,103,47,0.67228
4578410,0.19500,52.9375,103,47,0.66129
4578420,0.83000,52.5000,103,47,0.64029
4578430,1.21500,52.2500,103,47,0.62906
4578440,0.72500,52.0000,103,47,0.61783
4578450,-0.08500,51.7500,103,47,0.60684
4578460,-0.48000,51.1875,103,47,0.58584
4578470,-0.47500,50.8750,103,47,0.57534
4578480,-0.33500,50.5625,103,47,0.56484
4578490,-0.26000,50.2500,103,47,0.55482
4578500,-0.25000,49.4375,103,47,0.53602
4578510,-0.24500,49.0625,103,47,0.52796
4578520,-0.23000,48.7500,103,47,0.51917
4578530,-0.21500,48.3750,103,47,0.51013
4578540,-0.20500,47.7500,103,47,0.49255
4578550,-0.20000,47.4375,103,47,0.48425
4578560,-0.19500,47.1250,103,47,0.47595
4578570,-0.18000,47.0625,103,47,0.46740
4578580,-0.17000,48.5000,103,47,0.45104
4578590,-0.16000,50.9375,103,47,0.44322
4578600,-0.16000,55.0000,103,47,0.43541
4578610,-0.15500,60.3125,103,47,0.42882
4578620,-0.14000,72.4375,103,47,0.41587
4578630,-0.12000,78.3750,103,47,0.40879
4578640,-0.10000,83.8750,103,47,0.40171
4578650,-0.08000,88.8750,103,47,0.39438
4578660,-0.05500,97.0625,103,47,0.37167
4578670,-0.03000,100.0625,103,47,0.36239
4578680,-0.00500,102.3125,103,47,0.35482
4578690,0.01000,103.8750,103,47,0.34823
4578700,0.01500,105.3125,103,47,0.33724
4578710,0.02500,105.3750,103,47,0.33333
4578720,0.03000,105.0625,103,47,0.32869
4578730,0.04000,104.5000,103,47,0.32357
4578740,0.04500,102.8125,103,47,0.31331
4578750,0.05500,101.6250,103,47,0.30818
4578760,0.06000,100.3750,103,47,0.30305
4578770,0.07000,99.0000,103,47,0.29792
4578780,0.07000,96.1250,103,47,0.28767
4578790,0.06000,94.6250,103,47,0.28278
4578800,0.03500,93.2500,103,47,0.27814
4578810,0.01000,90.4375,103,47,0.27473
4578820,-0.00500,88.6625,103,47,0.27009
4578830,-0.01917,87.4313,103,47,0.26508
4578840,-0.03000,86.2500,103,47,0.26056
4578850,-0.03500,84.6250,103,47,0.25739
4578860,-0.03500,80.8750,103,47,0.25568
4578870,-0.04000,78.6875,103,47,0.25836
4578880,-0.04000,76.4375,103,47,0.26447
4578890,-0.04000,72.3125,103,47,0.27473
4578900,-0.03500,70.6875,103,47,0.30549
4578910,-0.03500,69.2500,103,47,0.32381
4578920,-0.03500,68.0000,103,47,0.34676
4578930,-0.04000,67.0000,103,47,0.37338
4578940,-0.04000,65.5000,103,47,0.43272
4578950,-0.04500,64.9375,103,47,0.46349
4578960,-0.04500,64.5000,103,47,0.49426
4578970,-0.04500,64.0625,103,47,0.52405
4578980,-0.05000,63.3125,103,47,0.57973
4578990,-0.05500,62.9375,103,47,0.60488
4579000,-0.05500,62.5625,103,47,0.62808
4579010,-0.05500,62.1875,103,47,0.64615
4579020,-0.04500,61.3750,103,47,0.67570
4579030,-0.03000,60.9375,103,47,0.68962
4579040,-0.01500,60.5000,103,47,0.70183
4579050,0.00000,60.1250,103,47,0.71209
4579060,0.01000,59.2500,103,47,0.72698
4579070,0.01000,58.8125,103,47,0.73162
4579080,-0.01000,58.3750,103,47,0.73455
4579090,-0.03500,57.8750,103,47,0.73578
4579100,-0.06000,57.0000,103,47,0.73382
4579110,-0.08000,56.5625,103,47,0.73065
4579120,-0.10000,56.1875,103,47,0.72698
4579130,-0.11000,55.7500,103,47,0.72259
4579140,-0.11000,54.9375,103,47,0.71013
4579150,-0.11000,54.6250,103,47,0.70208
4579160,-0.10500,54.2500,103,47,0.69304
4579170,-0.10000,53.9375,103,47,0.68303
4579180,-0.09000,53.3125,103,47,0.66154
4579190,-0.08000,53.1250,103,47,0.65006
4579200,-0.09500,52.8750,103,47,0.63858
4579210,-0.02500,52.6875,103,47,0.62784
4579220,0.34500,52.3125,103,47,0.60659
4579230,0.94500,52.0625,103,47,0.59585
4579240,1.05500,51.8125,103,47,0.58510
4579250,0.44500,51.5000,103,47,0.57485
4579260,-0.20000,50.9375,103,47,0.55458
4579270,-0.45000,50.6250,103,47,0.54481
4579280,-0.39500,50.3125,103,47,0.53504
4579290,-0.27000,49.9375,103,47,0.52552
4579300,-0.22000,49.1875,103,47,0.50818
4579310,-0.21000,48.8125,103,47,0.50085
4579320,-0.19000,48.4375,103,47,0.49304
4579330,-0.17000,48.0625,103,47,0.48474
4579340,-0.16000,47.4375,103,47,0.46813
4579350,-0.15000,47.1875,103,47,0.45983
4579360,-0.15000,46.8750,103,47,0.45177
4579370,-0.14500,46.6250,103,47,0.44371
4579380,-0.13500,46.7500,103,47,0.42808
4579390,-0.12500,47.7500,103,47,0.42027
4579400,-0.12000,50.0000,103,47,0.41270
4579410,-0.11500,53.6875,103,47,0.40659
4579420,-0.11500,64.4375,103,47,0.39487
4579430,-0.10500,70.3125,103,47,0.38828
4579440,-0.08500,76.0000,103,47,0.38144
4579450,-0.06500,81.3125,103,47,0.37485
4579460,-0.05000,90.5000,103,47,0.36142
4579470,-0.03000,94.2500,103,47,0.35482
4579480,-0.01000,97.2500,103,47,0.34847
4579490,0.00500,99.6250,103,47,0.34237
4579500,0.02000,102.3125,103,47,0.33187
4579510,0.03500,102.8125,103,47,0.32796
4579520,0.04500,102.8750,103,47,0.32308
4579530,0.05500,102.5000,103,47,0.31770
4579540,0.06500,101.0000,103,47,0.30745
4579550,0.08000,99.9375,103,47,0.30232
4579560,0.08500,98.6250,103,47,0.29719
4579570,0.09000,97.3125,103,47,0.29206
4579580,0.09500,94.3750,103,47,0.28254
4579590,0.08500,92.8125,103,47,0.27790
4579600,0.06000,91.3125,103,47,0.27326
4579610,0.03500,89.8125,103,47,0.27009
4579620,0.00500,86.8125,103,47,0.26398
4579630,-0.01500,85.3125,103,47,0.25958
4579640,-0.02500,83.7500,103,47,0.25495
4579650,-0.02500,82.1250,103,47,0.25055
4579660,-0.03000,78.3750,103,47,0.24396
4579670,-0.03500,76.3125,103,47,0.24322
4579680,-0.03500,74.1250,103,47,0.24518
4579690,-0.03500,72.0625,103,47,0.25055
4579700,-0.03500,68.6250,103,47,0.27179
4579710,-0.02500,67.3750,103,47,0.28620
4579720,-0.02500,66.3125,103,47,0.30525
4579730,-0.02500,65.4375,103,47,0.32821
4579740,-0.02500,64.1250,103,47,0.38217
4579750,-0.03500,63.6875,103,47,0.41123
4579760,-0.04000,63.2500,103,47,0.44078
4579770,-0.04500,62.4375,103,47,0.47009
4579780,-0.04500,62.0625,103,47,0.52552
4579790,-0.05000,61.6875,103,47,0.55092
4579800,-0.05500,61.3125,103,47,0.57167
4579810,-0.05000,60.9375,103,47,0.58901
4579820,-0.04500,60.1875,103,47,0.62418
4579830,-0.03000,59.8125,103,47,0.63980
4579840,-0.01500,59.3750,103,47,0.65348
4579850,-0.00083,58.7813,103,47,0.66948
4579860,0.01000,58.1875,103,47,0.68303
4579870,0.01500,57.7500,103,47,0.68938
4579880,0.00000,57.3125,103,47,0.69377
4579890,-0.01500,56.9375,103,47,0.69646
4579900,-0.03500,56.1250,103,47,0.69670
4579910,-0.04500,55.7500,103,47,0.69426
4579920,-0.06500,55.3750,103,47,0.69133
4579930,-0.07500,55.0000,103,47,0.68718
4579940,-0.07000,54.3125,103,47,0.67595
4579950,-0.06500,53.9375,103,47,0.66886
4579960,-0.07000,53.6250,103,47,0.66081
4579970,-0.06500,53.3125,103,47,0.65201
4579980,-0.06500,52.7500,103,47,0.63248
4579990,-0.06000,52.5000,103,47,0.62222
4580000,-0.07000,52.3125,103,47,0.61245
4580010,-0.06000,52.1250,103,47,0.60317
4580020,0.18500,51.7500,103,47,0.58315
4580030,0.74000,51.5000,103,47,0.57314
4580040,1.08500,51.2500,103,47,0.56337
4580050,0.71500,51.0000,103,47,0.55385
4580060,0.02000,50.3750,103,47,0.53529
4580070,-0.37500,50.0625,103,47,0.52625
4580080,-0.42500,49.6875,103,47,0.51722
4580090,-0.31500,49.3750,103,47,0.50818
4580100,-0.23000,48.7500,103,47,0.49206
4580110,-0.20000,48.3750,103,47,0.48523
4580120,-0.18500,48.0625,103,47,0.47790
4580130,-0.18000,47.8125,103,47,0.47057
4580140,-0.16500,47.1875,103,47,0.45543
4580150,-0.15500,46.8750,103,47,0.44811
4580160,-0.14500,46.5625,103,47,0.44054
4580170,-0.13000,46.3125,103,47,0.43321
4580180,-0.11500,46.1250,103,47,0.41856
4580190,-0.10500,46.6250,103,47,0.41123
4580200,-0.10000,48.1875,103,47,0.40488
4580210,-0.10000,51.0625,103,47,0.39951
4580220,-0.10500,60.6875,103,47,0.38632
4580230,-0.09500,66.3750,103,47,0.37949
4580240,-0.09000,72.0000,103,47,0.37265
4580250,-0.07500,77.3750,103,47,0.36581
4580260,-0.05000,87.0000,103,47,0.35287
4580270,-0.02500,90.9375,103,47,0.34652
4580280,-0.00500,94.3125,103,47,0.34042
4580290,0.01000,97.0625,103,47,0.33455
4580300,0.01500,100.4375,103,47,0.32454
4580310,0.02500,101.2500,103,47,0.32088
4580320,0.03000,101.5000,103,47,0.31648
4580330,0.03000,101.4375,103,47,0.31160
4580340,0.04000,100.2500,103,47,0.30159
4580350,0.05000,99.2500,103,47,0.29670
4580360,0.06500,98.1875,103,47,0.29182
4580370,0.08000,96.9375,103,47,0.28694
4580380,0.08500,94.0625,103,47,0.27766
4580390,0.08000,92.5625,103,47,0.27277
4580400,0.05500,91.0000,103,47,0.26935
4580410,0.03000,89.5000,103,47,0.26642
4580420,0.00500,86.5625,103,47,0.25861
4580430,-0.01500,85.0625,103,47,0.25421
4580440,-0.03500,83.5625,103,47,0.24982
4580450,-0.03500,82.0000,103,47,0.24567
4580460,-0.03500,78.4375,103,47,0.23907
4580470,-0.03000,76.3750,103,47,0.23761
4580480,-0.03000,74.2500,103,47,0.23858
4580490,-0.03000,72.1250,103,47,0.24225
4580500,-0.02500,68.5625,103,47,0.25934
4580510,-0.02500,67.1875,103,47,0.27204
4580520,-0.02500,66.1250,103,47,0.28913
4580530,-0.03000,65.1875,103,47,0.31013
4580540,-0.03500,63.8125,103,47,0.36142
4580550,-0.04000,63.3125,103,47,0.38999
4580560,-0.04500,62.8750,103,47,0.41905
4580570,-0.04500,62.4375,103,47,0.44835
4580580,-0.05000,61.7500,103,47,0.50501
4580590,-0.05500,61.4375,103,47,0.53162
4580600,-0.05500,61.1250,103,47,0.55311
4580610,-0.05500,60.8125,103,47,0.57143
4580620,-0.05000,60.1250,103,47,0.60855
4580630,-0.03500,59.7500,103,47,0.62540
4580640,-0.02500,59.3750,103,47,0.64054
4580650,-0.01000,58.9375,103,47,0.65348
4580660,0.00500,58.1250,103,47,0.67350
4580670,0.01500,57.6875,103,47,0.68059
4580680,0.00000,57.3125,103,47,0.68571
4580690,-0.02500,56.9375,103,47,0.68938
4580700,-0.05000,56.0625,103,47,0.69426
4580710,-0.07000,55.6875,103,47,0.69744
4580720,-0.09500,55.2500,103,47,0.69768
4580730,-0.11000,54.8750,103,47,0.69573
4580740,-0.11500,54.1250,103,47,0.68694
4580750,-0.11000,53.8125,103,47,0.68034
4580760,-0.11000,53.4375,103,47,0.67277
4580770,-0.10500,52.8125,103,47,0.65495
4580780,-0.10500,52.5625,103,47,0.64518
4580790,-0.09500,52.3750,103,47,0.63516
4580800,-0.10000,52.1875,103,47,0.62540
4580810,-0.11500,52.0000,103,47,0.61612
4580820,0.02000,51.6250,103,47,0.59609
4580830,0.46000,51.3750,103,47,0.58608
4580840,1.00000,51.1250,103,47,0.57631
4580850,0.95500,50.8750,103,47,0.56654
4580860,0.27500,50.2500,103,47,0.54774
4580870,-0.27500,49.8854,103,47,0.53716
4580880,-0.44500,49.6250,103,47,0.52991
4580890,-0.37500,49.3125,103,47,0.52112
4580900,-0.26500,48.6250,103,47,0.50525
4580910,-0.22000,48.3125,103,47,0.49841
4580920,-0.21000,48.0000,103,47,0.49109
4580930,-0.20000,47.6875,103,47,0.48352
4580940,-0.18500,47.0625,103,47,0.46838
4580950,-0.18000,46.7500,103,47,0.46081
4580960,-0.17500,46.4375,103,47,0.45324
4580970,-0.17000,46.1250,103,47,0.44567
4580980,-0.16500,45.7500,103,47,0.43101
4580990,-0.15500,46.0000,103,47,0.42393
4581000,-0.14000,47.0000,103,47,0.41832
4581010,-0.12500,49.2500,103,47,0.41319
4581020,-0.05000,62.1875,103,47,0.51722
4581030,-0.05000,62.1875,103,47,0.51722
4581040,-0.05000,62.1875,103,47,0.51722
4581050,-0.05000,62.1875,103,47,0.51722
4581060,-0.05000,62.1875,103,47,0.51722
4581070,-0.05000,62.1875,103,47,0.51722
4581080,-0.05000,62.1875,103,47,0.51722
4581090,-0.05500,59.8750,103,47,0.64542
4581100,-0.05500,59.8750,103,47,0.64542
4581110,-0.05500,59.8750,103,47,0.64542
4581120,-0.05500,59.8750,103,47,0.64542
4581130,-0.05500,59.8750,103,47,0.64542
4581140,-0.05500,59.8750,103,47,0.64542
4581150,-0.05500,59.8750,103,47,0.64542
4581160,-0.05500,59.8750,103,47,0.64542
4581170,-0.05500,59.8750,103,47,0.64542
4581180,-0.05500,59.8750,103,47,0.64542
4581190,-0.05500,59.8750,103,47,0.64542
4581200,-0.05500,59.8750,103,47,0.64542
4581210,-0.05500,59.8750,103,47,0.64542
4581220,-0.05500,59.8750,103,47,0.64542
4581230,-0.05500,59.8750,103,47,0.64542
4581240,-0.05500,59.8750,103,47,0.64542
4581250,-0.05500,59.8750,103,47,0.64542
4581260,-0.05500,59.8750,103,47,0.64542
4581270,-0.04500,59.5000,103,47,0.66203
4581280,-0.04500,59.5000,103,47,0.66203
4581290,-0.04500,59.5000,103,47,0.66203
4581300,-0.04500,59.5000,103,47,0.66203
4581310,-0.04500,59.5000,103,47,0.66203
4581320,-0.04500,59.5000,103,47,0.66203
4581330,-0.04500,59.5000,103,47,0.66203
4581340,-0.04500,59.5000,103,47,0.66203
4581350,-0.04500,59.5000,103,47,0.66203
4581360,-0.04500,59.5000,103,47,0.66203
4581370,-0.04500,59.5000,103,47,0.66203
4581380,-0.04500,59.5000,103,47,0.66203
4581390,-0.04500,59.5000,103,47,0.66203
4581400,-0.04500,59.5000,103,47,0.66203
4581410,-0.04500,59.5000,103,47,0.66203
4581420,-0.04500,59.5000,103,47,0.66203
4581430,-0.04500,59.5000,103,47,0.66203
4581440,-0.04500,59.5000,103,47,0.66203
4581450,-0.03000,59.1250,103,47,0.67668
4581460,-0.00500,58.3125,103,47,0.69963
4581470,0.00500,57.9375,103,47,0.70794
4581480,0.00500,57.5625,103,47,0.71453
4581490,-0.01500,57.1875,103,47,0.71941
4581500,-0.04500,56.4375,103,47,0.72332
4581510,-0.06500,56.0625,103,47,0.72234
4581520,-0.08500,55.6875,103,47,0.72088
4581530,-0.11000,55.3125,103,47,0.71868
4581540,-0.12500,54.5625,103,47,0.71062
4581550,-0.12500,54.1250,103,47,0.70476
4581560,-0.11500,53.8125,103,47,0.69768
4581570,-0.11500,53.4375,103,47,0.68962
4581580,-0.11500,52.8750,103,47,0.67131
4581590,-0.11000,52.5625,103,47,0.66129
4581600,-0.10500,52.3750,103,47,0.65177
4581610,-0.10500,52.1875,103,47,0.64225
4581620,-0.10500,51.8750,103,47,0.62173
4581630,0.10500,51.6875,103,47,0.61099
4581640,0.63500,51.4375,103,47,0.60049
4581650,1.07000,51.1875,103,47,0.58999
4581660,0.82000,50.5625,103,47,0.56996
4581670,0.11000,50.2500,103,47,0.56044
4581680,-0.34500,49.9375,103,47,0.55092
4581690,-0.43000,49.5625,103,47,0.54164
4581700,-0.33000,48.8750,103,47,0.52576
4581710,-0.24000,48.5000,103,47,0.51770
4581720,-0.20500,48.2500,103,47,0.50965
4581730,-0.18000,47.9375,103,47,0.50134
4581740,-0.15500,47.3125,103,47,0.48547
4581750,-0.13500,47.0000,103,47,0.47766
4581760,-0.11500,46.7500,103,47,0.46984
4581770,-0.12000,46.4375,103,47,0.46227
4581780,-0.11500,46.0625,103,47,0.44786
4581790,-0.09500,46.1250,103,47,0.44103
4581800,-0.06500,46.6250,103,47,0.43516
4581810,-0.05500,48.1250,103,47,0.42979
4581820,-0.05500,55.5625,103,47,0.41709
4581830,-0.07500,60.9375,103,47,0.41026
4581840,-0.08500,66.7500,103,47,0.40342
4581850,-0.08000,72.4375,103,47,0.39683
4581860,-0.06000,83.0625,103,47,0.38388
4581870,-0.04500,87.6875,103,47,0.37778
4581880,-0.02000,91.8125,103,47,0.37192
4581890,0.00000,95.3125,103,47,0.36630
4581900,0.02333,98.9896,103,47,0.35995
4581910,0.04500,101.8125,103,47,0.35385
4581920,0.06000,102.7500,103,47,0.34896
4581930,0.07000,103.1875,103,47,0.34383
4581940,0.07000,102.9375,103,47,0.33309
4581950,0.06500,102.3125,103,47,0.32772
4581960,0.06000,101.5000,103,47,0.32234
4581970,0.06000,100.5000,103,47,0.31722
4581980,0.06000,98.0000,103,47,0.30745
4581990,0.06000,96.6250,103,47,0.30281
4582000,0.05500,95.1875,103,47,0.29963
4582010,0.04000,93.7500,103,47,0.29719
4582020,0.01500,90.8750,103,47,0.28962
4582030,-0.00500,89.4375,103,47,0.28547
4582040,-0.02500,88.0625,103,47,0.28132
4582050,-0.03500,86.6875,103,47,0.27717
4582060,-0.04500,83.6250,103,47,0.26935
4582070,-0.04500,81.9375,103,47,0.26642
4582080,-0.04500,80.0000,103,47,0.26496
4582090,-0.04000,77.9375,103,47,0.26569
4582100,-0.04500,73.5000,103,47,0.27546
4582110,-0.05000,71.5625,103,47,0.28498
4582120,-0.05000,69.8125,103,47,0.29841
4582130,-0.05500,68.4375,103,47,0.31600
4582140,-0.05500,66.2500,103,47,0.36264
4582150,-0.06500,65.4375,103,47,0.39048
4582160,-0.07500,64.7500,103,47,0.42002
4582170,-0.08000,64.1250,103,47,0.45055
4582180,-0.08500,63.0625,103,47,0.51111
4582190,-0.08000,62.6875,103,47,0.53993
4582200,-0.07500,62.2500,103,47,0.56386
4582210,-0.07500,61.8750,103,47,0.58437
4582220,-0.07000,61.0625,103,47,0.62711
4582230,-0.06500,60.6875,103,47,0.64664
4582240,-0.06000,60.3125,103,47,0.66447
4582250,-0.05500,59.9375,103,47,0.68034
4582260,-0.03500,59.1875,103,47,0.70623
4582270,-0.02500,58.8125,103,47,0.71624
4582280,-0.01500,58.4375,103,47,0.72430
4582290,-0.02500,58.0625,103,47,0.73065
4582300,-0.05000,57.3125,103,47,0.73553
4582310,-0.07500,56.8750,103,47,0.73651
4582320,-0.09500,56.5000,103,47,0.73675
4582330,-0.11500,56.1250,103,47,0.73578
4582340,-0.13500,55.3750,103,47,0.72967
4582350,-0.14500,55.0000,103,47,0.72479
4582360,-0.13500,54.6250,103,47,0.71893
4582370,-0.12500,54.2500,103,47,0.71160
4582380,-0.11500,53.6250,103,47,0.69377
4582390,-0.11000,53.3750,103,47,0.68352
4582400,-0.10500,53.1250,103,47,0.67350
4582410,-0.10500,52.9375,103,47,0.66374
4582420,-0.12500,52.6250,103,47,0.64225
4582430,-0.01500,52.3750,103,47,0.63150
4582440,0.37500,52.1250,103,47,0.62076
4582450,0.95000,51.8750,103,47,0.61026
4582460,1.02500,51.2500,103,47,0.58926
4582470,0.38500,50.9375,103,47,0.57924
4582480,-0.22500,50.6250,103,47,0.56923
4582490,-0.44000,50.3125,103,47,0.55946
4582500,-0.38500,49.6250,103,47,0.54261
4582510,-0.28000,49.3125,103,47,0.53407
4582520,-0.23000,49.0000,103,47,0.52527
4582530,-0.22000,48.6875,103,47,0.51673
4582540,-0.20500,48.0625,103,47,0.50012
4582550,-0.19500,47.6875,103,47,0.49206
4582560,-0.18000,47.3750,103,47,0.48400
4582570,-0.17500,47.0000,103,47,0.47619
4582580,-0.16500,46.5000,103,47,0.46105
4582590,-0.15500,46.4375,103,47,0.45372
4582600,-0.14000,46.6875,103,47,0.44737
4582610,-0.13500,47.7500,103,47,0.44176
4582620,-0.13000,53.8125,103,47,0.42833
4582630,-0.12500,58.8125,103,47,0.42149
4582640,-0.11500,64.4375,103,47,0.41441
4582650,-0.10500,70.2500,103,47,0.40733
4582660,-0.09000,81.1875,103,47,0.39390
4582670,-0.07500,86.0625,103,47,0.38730
4582680,-0.05000,90.5000,103,47,0.38095
4582690,-0.03000,94.3125,103,47,0.37485
4582700,-0.01500,99.9375,103,47,0.36606
4582710,0.00500,101.7500,103,47,0.36093
4582720,0.02000,103.0000,103,47,0.35556
4582730,0.02500,103.7500,103,47,0.35018
4582740,0.02500,103.8125,103,47,0.33919
4582750,0.03000,103.3125,103,47,0.33260
4582760,0.03500,102.6250,103,47,0.32527
4582770,0.04500,101.6875,103,47,0.31893
4582780,0.05500,99.3750,103,47,0.30745
4582790,0.06500,98.0000,103,47,0.30232
4582800,0.07000,96.6250,103,47,0.29841
4582810,0.05500,95.1875,103,47,0.29548
4582820,0.03500,92.2500,103,47,0.28718
4582830,0.00500,90.7500,103,47,0.28278
4582840,-0.01500,89.3125,103,47,0.27814
4582850,-0.02500,87.8750,103,47,0.27350
4582860,-0.03000,85.0000,103,47,0.26471
4582870,-0.03500,83.4375,103,47,0.26105
4582880,-0.03500,81.7500,103,47,0.25885
4582890,-0.04500,79.8125,103,47,0.25836
4582900,-0.04500,75.4375,103,47,0.26569
4582910,-0.04500,73.2500,103,47,0.27399
4582920,-0.04000,71.5625,103,47,0.28234
4582930,-0.03500,69.8125,103,47,0.30281
4582940,-0.03000,67.4375,103,47,0.34750
4582950,-0.03000,66.4375,103,47,0.37436
4582960,-0.03500,65.6250,103,47,0.40342
4582970,-0.04000,64.9375,103,47,0.43394
4582980,-0.04500,63.8125,103,47,0.49621
4582990,-0.05500,63.3750,103,47,0.52650
4583000,-0.06500,62.9375,103,47,0.55189
4583010,-0.07000,62.5000,103,47,0.57411
4583020,-0.06500,61.6875,103,47,0.62100
4583030,-0.07000,61.3125,103,47,0.64298
4583040,-0.06500,60.9375,103,47,0.66325
4583050,-0.06500,60.5000,103,47,0.68132
4583060,-0.05500,59.6875,103,47,0.71087
4583070,-0.03500,59.3125,103,47,0.72234
4583080,-0.01500,58.9375,103,47,0.73162
4583090,-0.01500,58.5625,103,47,0.73895
4583100,-0.02500,57.8125,103,47,0.74530
4583110,-0.05000,57.4375,103,47,0.74701
4583120,-0.06500,57.0625,103,47,0.74774
4583130,-0.08500,56.6875,103,47,0.74725
4583140,-0.11500,55.9375,103,47,0.74261
4583150,-0.13500,55.5625,103,47,0.73846
4583160,-0.14000,55.1875,103,47,0.73309
4583170,-0.14000,54.4375,103,47,0.72625
4583180,-0.13500,54.0625,103,47,0.70965
4583190,-0.13500,53.7500,103,47,0.69988
4583200,-0.13500,53.4375,103,47,0.69011
4583210,-0.12000,53.1250,103,47,0.68034
4583220,-0.11000,52.7500,103,47,0.65861
4583230,-0.11500,52.5000,103,47,0.64713
4583240,0.02000,52.3125,103,47,0.63565
4583250,0.50000,52.0625,103,47,0.62418
4583260,1.08500,51.6250,103,47,0.60195
4583270,1.00000,51.3750,103,47,0.59121
4583280,0.27000,51.0625,103,47,0.58046
4583290,-0.30500,50.7500,103,47,0.56996
4583300,-0.47000,50.0625,103,47,0.55238
4583310,-0.37500,49.6875,103,47,0.54310
4583320,-0.26500,49.3125,103,47,0.53382
4583330,-0.23500,49.0000,103,47,0.52479
4583340,-0.22500,48.3750,103,47,0.50696
4583350,-0.21000,48.0625,103,47,0.49841
4583360,-0.19000,47.7500,103,47,0.48987
4583370,-0.18500,47.5000,103,47,0.48156
4583380,-0.18000,46.9375,103,47,0.46545
4583390,-0.17000,46.6875,103,47,0.45861
4583400,-0.16000,46.6250,103,47,0.45226
4583410,-0.14500,46.8750,103,47,0.44542
4583420,-0.13500,50.1875,103,47,0.43028
4583430,-0.13500,54.0000,103,47,0.42271
4583440,-0.12500,59.0625,103,47,0.41538
4583450,-0.11000,64.8125,103,47,0.40830
4583460,-0.09500,76.5625,103,47,0.39463
4583470,-0.08000,82.1250,103,47,0.38803
4583480,-0.06000,87.1250,103,47,0.38144
4583490,-0.04000,91.6250,103,47,0.37509
4583500,-0.01500,98.5625,103,47,0.36557
4583510,0.00000,101.0000,103,47,0.36044
4583520,0.02000,102.6875,103,47,0.35507
4583530,0.02500,103.8125,103,47,0.34969
4583540,0.03000,104.5625,103,47,0.33822
4583550,0.03000,104.4375,103,47,0.33260
4583560,0.03500,103.9375,103,47,0.32723
4583570,0.04000,102.3125,103,47,0.32186
4583580,0.05000,101.2500,103,47,0.31160
4583590,0.06000,100.0000,103,47,0.30794
4583600,0.07000,98.6250,103,47,0.30501
4583610,0.07000,97.2500,103,47,0.30110
4583620,0.06000,94.2500,103,47,0.29255
4583630,0.04000,92.7500,103,47,0.28816
4583640,0.02000,91.3125,103,47,0.28376
4583650,-0.00500,89.8750,103,47,0.27937
4583660,-0.02500,87.0000,103,47,0.27057
4583670,-0.04000,85.5625,103,47,0.26642
4583680,-0.04500,84.0000,103,47,0.26276
4583690,-0.05000,82.3125,103,47,0.26056
4583700,-0.05000,78.3750,103,47,0.26300
4583710,-0.05000,76.1875,103,47,0.26789
4583720,-0.05000,74.1250,103,47,0.27643
4583730,-0.04500,72.2500,103,47,0.28889
4583740,-0.04500,69.3750,103,47,0.32674
4583750,-0.04000,68.2500,103,47,0.35165
4583760,-0.04000,67.3125,103,47,0.37949
4583770,-0.04500,66.5000,103,47,0.40952
4583780,-0.05500,65.2500,103,47,0.47253
4583790,-0.06500,64.7500,103,47,0.50012
4583800,-0.07000,64.3125,103,47,0.52503
4583810,-0.07500,63.8750,103,47,0.55189
4583820,-0.07500,63.0625,103,47,0.60488
4583830,-0.07500,62.6250,103,47,0.62930
4583840,-0.07500,62.1875,103,47,0.65177
4583850,-0.07000,61.8125,103,47,0.67228
4583860,-0.06000,61.0000,103,47,0.70623
4583870,-0.05000,60.6250,103,47,0.71990
4583880,-0.03500,60.2500,103,47,0.73114
4583890,-0.02500,59.8750,103,47,0.74042
4583900,-0.02000,59.0625,103,47,0.74921
4583910,-0.03500,58.6875,103,47,0.75214
4583920,-0.05500,58.2500,103,47,0.75409
4583930,-0.07500,57.8125,103,47,0.75507
4583940,-0.09500,57.2687,103,47,0.75392
4583950,-0.11833,56.7000,103,47,0.75096
4583960,-0.13500,56.1875,103,47,0.74652
4583970,-0.13500,55.8125,103,47,0.74090
4583980,-0.13500,55.0625,103,47,0.72601
4583990,-0.13500,54.7500,103,47,0.71746
4584000,-0.13500,54.4375,103,47,0.70842
4584010,-0.12500,54.1250,103,47,0.69841
4584020,-0.11500,53.6250,103,47,0.67668
4584030,-0.12500,53.4375,103,47,0.66520
4584040,-0.13000,53.2500,103,47,0.65372
4584050,0.08000,53.0625,103,47,0.64249
4584060,0.65500,52.6250,103,47,0.62002
4584070,1.16500,52.4375,103,47,0.60904
4584080,0.89000,52.1875,103,47,0.59829
4584090,0.08000,52.0000,103,47,0.58803
4584100,-0.41500,51.4375,103,47,0.57021
4584110,-0.47000,51.1250,103,47,0.56117
4584120,-0.34000,50.7500,103,47,0.55189
4584130,-0.25500,50.3750,103,47,0.54286
4584140,-0.24000,49.6875,103,47,0.52479
4584150,-0.22500,49.3750,103,47,0.51600
4584160,-0.21000,49.0625,103,47,0.50745
4584170,-0.19000,48.5000,103,47,0.49890
4584180,-0.18000,48.1875,103,47,0.48303
4584190,-0.17500,47.8750,103,47,0.47619
4584200,-0.17000,47.6250,103,47,0.46984
4584210,-0.16500,47.5000,103,47,0.46276
4584220,-0.15500,48.8750,103,47,0.44835
4584230,-0.15000,51.2500,103,47,0.44078
4584240,-0.14000,55.1875,103,47,0.43321
4584250,-0.12500,60.3750,103,47,0.42564
4584260,-0.11500,72.3750,103,47,0.41074
4584270,-0.10000,78.2500,103,47,0.40342
4584280,-0.09000,83.8125,103,47,0.39658
4584290,-0.07500,88.8125,103,47,0.38974
4584300,-0.05500,97.0000,103,47,0.37973
4584310,-0.03500,100.0000,103,47,0.37411
4584320,-0.01500,102.3125,103,47,0.36825
4584330,0.00000,103.8750,103,47,0.36264
4584340,0.01000,105.2500,103,47,0.35140
4584350,0.01000,105.3125,103,47,0.34603
4584360,0.02000,104.9375,103,47,0.34090
4584370,0.02000,104.3750,103,47,0.33578
4584380,0.03500,102.5625,103,47,0.32527
4584390,0.05000,101.4375,103,47,0.32112
4584400,0.06000,100.2500,103,47,0.31770
4584410,0.07000,98.9375,103,47,0.31306
4584420,0.07500,96.1875,103,47,0.30330
4584430,0.06000,94.7500,103,47,0.29841
4584440,0.04000,93.3125,103,47,0.29353
4584450,0.01500,91.8750,103,47,0.28889
4584460,-0.00500,89.0000,103,47,0.27985
4584470,-0.02500,87.5000,103,47,0.27546
4584480,-0.03500,85.9375,103,47,0.27131
4584490,-0.04000,84.2500,103,47,0.26789
4584500,-0.03500,80.3125,103,47,0.26667
4584510,-0.03500,78.1250,103,47,0.26862
4584520,-0.03500,75.8750,103,47,0.27326
4584530,-0.04000,73.7500,103,47,0.28181
4584540,-0.03500,70.2500,103,47,0.31160
4584550,-0.03500,68.8750,103,47,0.33284
4584560,-0.03000,67.7500,103,47,0.35800
4584570,-0.03000,66.8750,103,47,0.38632
4584580,-0.03000,65.5625,103,47,0.44835
4584590,-0.03500,65.0000,103,47,0.47643
4584600,-0.04000,64.5625,103,47,0.50232
4584610,-0.04500,64.1250,103,47,0.53065
4584620,-0.04500,63.4375,103,47,0.58706
4584630,-0.04500,63.0625,103,47,0.61343
4584640,-0.04000,62.7500,103,47,0.63785
4584650,-0.04000,62.3750,103,47,0.66007
4584660,-0.03500,61.5625,103,47,0.69768
4584670,-0.03000,61.1875,103,47,0.71258
4584680,-0.01500,60.7500,103,47,0.72527
4584690,0.00000,60.3125,103,47,0.73578
4584700,0.02000,59.3750,103,47,0.74652
4584710,0.02000,58.9375,103,47,0.75067
4584720,0.01000,58.5625,103,47,0.75409
4584730,-0.01500,58.1250,103,47,0.75629
4584740,-0.03500,57.2500,103,47,0.75653
4584750,-0.05500,56.8125,103,47,0.75482
4584760,-0.07000,56.4375,103,47,0.75165
4584770,-0.08500,56.0000,103,47,0.74725
4584780,-0.08500,55.2500,103,47,0.73407
4584790,-0.09000,54.8750,103,47,0.72576
4584800,-0.08500,54.5000,103,47,0.71502
4584810,-0.08500,54.1250,103,47,0.70232
4584820,-0.08500,53.5000,103,47,0.67814
4584830,-0.07500,53.2500,103,47,0.66642
4584840,-0.07500,53.0625,103,47,0.65470
4584850,-0.05000,52.8125,103,47,0.64298
4584860,0.21500,52.4375,103,47,0.61954
4584870,0.82000,52.1875,103,47,0.60806
4584880,1.18000,51.9375,103,47,0.59683
4584890,0.69500,51.6875,103,47,0.58584
4584900,-0.05500,51.1875,103,47,0.56703
4584910,-0.40500,50.8750,103,47,0.55751
4584920,-0.39500,50.5625,103,47,0.54774
4584930,-0.26000,50.1875,103,47,0.53797
4584940,-0.19000,49.4375,103,47,0.51917
4584950,-0.19000,49.0625,103,47,0.51013
4584960,-0.18000,48.7500,103,47,0.50134
4584970,-0.16000,48.2500,103,47,0.48791
4584980,-0.14000,47.7500,103,47,0.47497
4584990,-0.13000,47.4375,103,47,0.46764
4585000,-0.12500,47.1250,103,47,0.46081
4585010,-0.11500,46.8750,103,47,0.45324
4585020,-0.10000,46.9375,103,47,0.43736
4585030,-0.08500,47.7500,103,47,0.42930
4585040,-0.07500,49.7500,103,47,0.42149
4585050,-0.06500,53.2500,103,47,0.41368
4585060,-0.05500,63.8750,103,47,0.39829
4585070,-0.05000,69.8750,103,47,0.39096
4585080,-0.04000,75.6250,103,47,0.38364
4585090,-0.03000,81.1250,103,47,0.37656
4585100,-0.02000,90.5000,103,47,0.36581
4585110,-0.00500,94.3125,103,47,0.35995
4585120,0.01000,97.3750,103,47,0.35385
4585130,0.03000,99.7500,103,47,0.34750
4585140,0.05000,102.4375,103,47,0.33504
4585150,0.06500,102.9375,103,47,0.32894
4585160,0.07500,102.9375,103,47,0.32308
4585170,0.08000,102.6250,103,47,0.31746
4585180,0.09000,101.1250,103,47,0.30672
4585190,0.09000,100.0625,103,47,0.30281
4585200,0.10000,98.8750,103,47,0.29963
4585210,0.11000,97.5625,103,47,0.29524
4585220,0.12000,94.6875,103,47,0.28596
4585230,0.11000,93.1250,103,47,0.28107
4585240,0.10000,91.6250,103,47,0.27643
4585250,0.07500,90.1250,103,47,0.27155
4585260,0.05000,87.1250,103,47,0.26178
4585270,0.03000,85.6250,103,47,0.25714
4585280,0.02500,84.1250,103,47,0.25250
4585290,0.02000,82.5000,103,47,0.24933
4585300,0.01500,78.7500,103,47,0.24518
4585310,0.02000,76.6875,103,47,0.24420
4585320,0.02500,74.5000,103,47,0.24493
4585330,0.02500,72.4375,103,47,0.24860
4585340,0.02000,68.8750,103,47,0.26716
4585350,0.02000,67.5625,103,47,0.28278
4585360,0.02500,66.4375,103,47,0.30281
4585370,0.01000,65.5625,103,47,0.32674
4585380,0.00500,64.2500,103,47,0.38315
4585390,-0.00500,63.8125,103,47,0.41001
4585400,-0.01500,63.3750,103,47,0.43541
4585410,-0.02500,63.0000,103,47,0.46374
4585420,-0.03000,62.3750,103,47,0.52112
4585430,-0.03500,62.0000,103,47,0.54823
4585440,-0.02500,61.6875,103,47,0.57387
4585450,-0.02500,61.3125,103,47,0.59731
4585460,-0.02000,60.5625,103,47,0.63834
4585470,-0.01500,60.1875,103,47,0.65543
4585480,-0.01000,60.0417,103,47,0.66264
4585490,0.00000,59.7500,103,47,0.67033
4585500,0.03500,58.9375,103,47,0.68889
4585510,0.09000,58.5625,103,47,0.69646
4585520,0.09500,58.1250,103,47,0.70281
4585530,0.04500,57.7500,103,47,0.70769
4585540,0.00000,56.9375,103,47,0.71282
4585550,-0.01500,56.5000,103,47,0.71306
4585560,-0.04500,56.1250,103,47,0.71184
4585570,-0.07500,55.6875,103,47,0.70940
4585580,-0.09500,54.8750,103,47,0.70061
4585590,-0.10500,54.5000,103,47,0.69426
4585600,-0.12500,54.1250,103,47,0.68694
4585610,-0.13500,53.4375,103,47,0.67888
4585620,-0.13500,53.1875,103,47,0.66056
4585630,-0.13500,52.8750,103,47,0.65031
4585640,-0.13500,52.6875,103,47,0.63956
4585650,-0.17000,52.5000,103,47,0.62833
4585660,-0.09500,52.1875,103,47,0.60586
4585670,0.27000,52.0000,103,47,0.59487
4585680,0.78500,51.8125,103,47,0.58413
4585690,0.74500,51.5625,103,47,0.57363
4585700,0.04000,51.1250,103,47,0.55531
4585710,-0.53000,50.8125,103,47,0.54603
4585720,-0.66500,50.5000,103,47,0.53675
4585730,-0.53000,50.1250,103,47,0.52772
4585740,-0.39500,49.4375,103,47,0.51013
4585750,-0.39500,49.0625,103,47,0.50134
4585760,-0.45000,48.7500,103,47,0.49280
4585770,-0.41000,48.3750,103,47,0.48474
4585780,-0.29000,47.6875,103,47,0.46862
4585790,-0.19000,47.3750,103,47,0.46081
4585800,-0.11500,47.0625,103,47,0.45397
4585810,-0.06000,46.4375,103,47,0.44786
4585820,-0.03000,46.1875,103,47,0.43370
4585830,-0.00500,46.1250,103,47,0.42637
4585840,0.00000,46.3750,103,47,0.41905
4585850,0.01000,47.4375,103,47,0.41148
4585860,0.01000,53.5625,103,47,0.39707
4585870,0.01500,58.6250,103,47,0.38999
4585880,0.02000,64.1875,103,47,0.38315
4585890,0.03000,69.8750,103,47,0.37656
4585900,0.04000,80.3125,103,47,0.36654
4585910,0.06000,84.8125,103,47,0.36068
4585920,0.07500,88.8125,103,47,0.35458
4585930,0.09000,92.1250,103,47,0.34847
4585940,0.09500,96.8125,103,47,0.33651
4585950,0.11000,98.1875,103,47,0.33065
4585960,0.12000,98.9375,103,47,0.32503
4585970,0.13000,99.0000,103,47,0.31966
4585980,0.14000,98.5000,103,47,0.30940
4585990,0.14500,97.6875,103,47,0.30427
4586000,0.16417,96.8542,103,47,0.30151
4586010,0.18500,95.3750,103,47,0.29768
4586020,0.19500,92.6250,103,47,0.28938
4586030,0.19500,91.1250,103,47,0.28498
4586040,0.17000,89.6250,103,47,0.28034
4586050,0.12500,88.0625,103,47,0.27570
4586060,0.08000,85.0000,103,47,0.26642
4586070,0.05000,83.5000,103,47,0.26154
4586080,0.00500,81.9375,103,47,0.25665
4586090,-0.04500,80.3750,103,47,0.25177
4586100,-0.09000,76.8750,103,47,0.24615
4586110,-0.12500,74.9375,103,47,0.24322
4586120,-0.11500,72.8750,103,47,0.24054
4586130,-0.07500,70.7500,103,47,0.23907
4586140,-0.01500,67.0625,103,47,0.24420
4586150,0.04500,65.6875,103,47,0.25201
4586160,0.08000,64.5625,103,47,0.26398
4586170,0.09000,63.6875,103,47,0.28034
4586180,0.08000,62.4375,103,47,0.32454
4586190,0.06500,62.0000,103,47,0.35092
4586200,0.05500,61.5625,103,47,0.37582
4586210,0.04000,61.2500,103,47,0.40000
4586220,0.02500,60.6250,103,47,0.45568
4586230,0.01000,60.3125,103,47,0.48400
4586240,-0.00500,60.0625,103,47,0.51136
4586250,-0.02000,59.7500,103,47,0.53700
4586260,-0.03000,59.1250,103,47,0.58291
4586270,-0.02500,58.7500,103,47,0.60269
4586280,-0.00500,58.3750,103,47,0.62002
4586290,0.01000,58.0000,103,47,0.63541
4586300,0.03000,57.3125,103,47,0.65495
4586310,0.03000,56.9375,103,47,0.66300
4586320,0.00000,56.5625,103,47,0.67009
4586330,-0.04500,56.1250,103,47,0.67546
4586340,-0.08500,55.2500,103,47,0.68107
4586350,-0.11500,54.8750,103,47,0.68132
4586360,-0.12000,54.5000,103,47,0.68010
4586370,-0.12000,54.1250,103,47,0.67766
4586380,-0.11000,53.4375,103,47,0.66862
4586390,-0.09000,53.1250,103,47,0.66227
4586400,-0.07500,52.7500,103,47,0.65519
4586410,-0.07000,52.4375,103,47,0.64737
4586420,-0.06500,51.8125,103,47,0.62930
4586430,-0.06500,51.5625,103,47,0.61905
4586440,-0.06000,51.3125,103,47,0.60806
4586450,-0.06500,51.1250,103,47,0.59707
4586460,-0.03500,50.8750,103,47,0.57509
4586470,0.25500,50.6875,103,47,0.56459
4586480,0.87000,50.5000,103,47,0.55433
4586490,1.19000,50.3125,103,47,0.54432
4586500,0.75000,49.8125,103,47,0.52747
4586510,0.14500,49.5625,103,47,0.51893
4586520,-0.14500,49.2500,103,47,0.51038
4586530,-0.17000,48.9375,103,47,0.50183
4586540,-0.09500,48.2500,103,47,0.48523
4586550,-0.08000,47.9375,103,47,0.47717
4586560,-0.12500,47.6250,103,47,0.46911
4586570,-0.17000,47.0000,103,47,0.46129
4586580,-0.20000,46.6875,103,47,0.44591
4586590,-0.21000,46.3750,103,47,0.43858
4586600,-0.22500,46.1250,103,47,0.43248
4586610,-0.23500,45.8750,103,47,0.42686
4586620,-0.22000,45.3750,103,47,0.41416
4586630,-0.16500,45.3125,103,47,0.40757
4586640,-0.10500,45.5625,103,47,0.40098
4586650,-0.04500,46.3750,103,47,0.39438
4586660,-0.00500,51.4375,103,47,0.38120
4586670,0.01000,55.9375,103,47,0.37460
4586680,0.00000,61.3125,103,47,0.36825
4586690,-0.01500,66.8125,103,47,0.36190
4586700,-0.02500,77.2500,103,47,0.35238
4586710,-0.03500,81.9375,103,47,0.34701
4586720,-0.04500,86.1250,103,47,0.34139
4586730,-0.05500,89.6875,103,47,0.33578
4586740,-0.05500,95.0000,103,47,0.32479
4586750,-0.05000,96.7500,103,47,0.31966
4586760,-0.04000,97.9375,103,47,0.31477
4586770,-0.03000,98.5625,103,47,0.31013
4586780,-0.02500,98.5000,103,47,0.30110
4586790,-0.03000,97.9375,103,47,0.29670
4586800,-0.03500,97.1875,103,47,0.29353
4586810,-0.03500,96.1250,103,47,0.29109
4586820,-0.02500,93.6250,103,47,0.28352
4586830,-0.02500,92.2500,103,47,0.27912
4586840,-0.03500,90.7500,103,47,0.27473
4586850,-0.04000,89.2500,103,47,0.27033
4586860,-0.04500,86.1875,103,47,0.27033
4586870,-0.03500,84.6875,103,47,0.26886
4586880,-0.00500,83.1875,103,47,0.26593
4586890,0.03500,81.6250,103,47,0.26252
4586900,0.06500,78.3750,103,47,0.25836
4586910,0.08000,76.6250,103,47,0.25592
4586920,0.07500,74.6875,103,47,0.25348
4586930,0.06500,72.7500,103,47,0.25226
4586940,0.05000,68.9375,103,47,0.25641
4586950,0.03500,67.3750,103,47,0.26349
4586960,0.01500,66.0625,103,47,0.27497
4586970,-0.00500,65.0000,103,47,0.29084
4586980,-0.02500,63.3750,103,47,0.33529
4586990,-0.05500,62.8125,103,47,0.36288
4587000,-0.08500,62.3125,103,47,0.38901
4587010,-0.12500,61.8125,103,47,0.41490
4587020,-0.15750,61.2188,103,47,0.46007
4587030,-0.18000,60.6875,103,47,0.50672
4587040,-0.19000,60.3750,103,47,0.53700
4587050,-0.19500,60.0000,103,47,0.56606
4587060,-0.20000,59.3125,103,47,0.61807
4587070,-0.18000,58.9375,103,47,0.64054
4587080,-0.14500,58.5625,103,47,0.66081
4587090,-0.06500,58.2500,103,47,0.67863
4587100,0.01000,57.5000,103,47,0.70159
4587110,0.08500,57.1250,103,47,0.71136
4587120,0.12500,56.7500,103,47,0.71990
4587130,0.13000,56.3125,103,47,0.72698
4587140,0.07000,55.5625,103,47,0.73578
4587150,0.01500,55.1875,103,47,0.73748
4587160,0.00000,54.8125,103,47,0.73773
4587170,-0.02500,54.5000,103,47,0.73651
4587180,-0.07000,53.8125,103,47,0.72967
4587190,-0.10500,53.4375,103,47,0.72430
4587200,-0.13500,53.1250,103,47,0.71795
4587210,-0.15500,52.8125,103,47,0.71038
4587220,-0.17000,52.1250,103,47,0.69280
4587230,-0.17000,51.8750,103,47,0.68278
4587240,-0.16000,51.6250,103,47,0.67228
4587250,-0.14500,51.3750,103,47,0.66154
4587260,-0.14500,51.0625,103,47,0.63932
4587270,-0.11500,50.8750,103,47,0.62808
4587280,0.18500,50.6875,103,47,0.61685
4587290,0.77500,50.5000,103,47,0.60586
4587300,1.04000,50.0000,103,47,0.58706
4587310,0.59000,49.6875,103,47,0.57778
4587320,-0.07500,49.4375,103,47,0.56850
4587330,-0.42500,49.1250,103,47,0.55897
4587340,-0.44500,48.5000,103,47,0.53993
4587350,-0.33500,48.1875,103,47,0.53065
4587360,-0.26000,47.8125,103,47,0.52161
4587370,-0.23500,47.5000,103,47,0.51258
4587380,-0.22500,46.9375,103,47,0.49573
4587390,-0.21000,46.6250,103,47,0.48840
4587400,-0.19500,46.3750,103,47,0.48181
4587410,-0.19000,46.0625,103,47,0.47448
4587420,-0.18500,45.5000,103,47,0.45958
4587430,-0.17000,45.2500,103,47,0.45226
4587440,-0.16000,45.1250,103,47,0.44518
4587450,-0.15000,45.1875,103,47,0.43810
4587460,-0.15000,47.4375,103,47,0.42393
4587470,-0.14500,50.5000,103,47,0.41709
4587480,-0.14000,54.9375,103,47,0.41026
4587490,-0.12500,60.1875,103,47,0.40342
4587500,-0.11000,71.1250,103,47,0.39316
4587510,-0.08500,76.3125,103,47,0.38755
4587520,-0.05500,81.1875,103,47,0.38169
4587530,-0.03500,85.6250,103,47,0.37558
4587540,-0.01500,92.7500,103,47,0.36361
4587550,0.00500,95.3750,103,47,0.35800
4587560,0.02000,97.3750,103,47,0.35263
4587570,0.03000,98.7500,103,47,0.34725
4587580,0.03000,99.8750,103,47,0.33651
4587590,0.04000,99.8125,103,47,0.33236
4587600,0.04000,99.3750,103,47,0.32894
4587610,0.04500,98.7500,103,47,0.32479
4587620,0.06000,96.7500,103,47,0.31575
4587630,0.07000,95.5625,103,47,0.31136
4587640,0.08000,94.1875,103,47,0.30672
4587650,0.08000,92.6875,103,47,0.30256
4587660,0.06000,89.5625,103,47,0.29402
4587670,0.04000,88.0625,103,47,0.28987
4587680,0.01000,86.5000,103,47,0.28571
4587690,-0.00500,85.0625,103,47,0.28156
4587700,-0.01500,82.1250,103,47,0.27643
4587710,-0.01500,80.6875,103,47,0.27302
4587720,-0.01500,79.0625,103,47,0.26911
4587730,-0.01500,77.3750,103,47,0.26569
4587740,-0.01500,73.5000,103,47,0.26325
4587750,-0.01500,71.5000,103,47,0.26593
4587760,-0.01500,69.6875,103,47,0.27228
4587770,-0.01500,68.0625,103,47,0.28278
4587780,-0.01500,65.6875,103,47,0.31722
4587790,-0.01500,64.8125,103,47,0.33773
4587800,-0.02000,64.0625,103,47,0.35971
4587810,-0.02500,63.3750,103,47,0.38632
4587820,-0.02500,62.3125,103,47,0.44737
4587830,-0.03500,61.8125,103,47,0.47937
4587840,-0.04000,61.4375,103,47,0.51111
4587850,-0.03500,61.0000,103,47,0.54188
4587860,-0.03500,60.1875,103,47,0.59902
4587870,-0.03500,59.7500,103,47,0.62466
4587880,-0.03000,59.3750,103,47,0.64835
4587890,-0.02000,58.9375,103,47,0.66960
4587900,-0.01500,58.1250,103,47,0.69890
4587910,0.00000,57.7500,103,47,0.71184
4587920,0.00500,57.3125,103,47,0.72381
4587930,0.00000,56.9375,103,47,0.73407
4587940,-0.02500,56.1875,103,47,0.74896
4587950,-0.04500,55.8125,103,47,0.75360
4587960,-0.06500,55.4375,103,47,0.75653
4587970,-0.08500,55.0000,103,47,0.75800
4587980,-0.10500,54.2500,103,47,0.75604
4587990,-0.11500,53.8750,103,47,0.75263
4588000,-0.11500,53.5000,103,47,0.74799
4588010,-0.11500,53.1875,103,47,0.74237
4588020,-0.11000,52.6250,103,47,0.72796
4588030,-0.10500,52.3125,103,47,0.71917
4588040,-0.10500,52.1250,103,47,0.70940
4588050,-0.10000,51.9375,103,47,0.69890
4588060,-0.11000,51.6250,103,47,0.67717
4588070,-0.04000,51.5000,103,47,0.66593
4588080,0.33000,51.3125,103,47,0.65470
4588090,0.92500,51.1250,103,47,0.64347
4588100,1.02000,50.6875,103,47,0.62344
4588110,0.43500,50.3750,103,47,0.61319
4588120,-0.17000,50.1250,103,47,0.60269
4588130,-0.42500,49.8125,103,47,0.59219
4588140,-0.36500,49.1875,103,47,0.57192
4588150,-0.27500,48.8750,103,47,0.56215
4588160,-0.23000,48.5625,103,47,0.55263
4588170,-0.21000,48.2500,103,47,0.54335
4588180,-0.19500,47.6250,103,47,0.52601
4588190,-0.18000,47.3125,103,47,0.51844
4588200,-0.16500,47.0000,103,47,0.51160
4588210,-0.16000,46.6875,103,47,0.50403
4588220,-0.15500,46.0625,103,47,0.48864
4588230,-0.14500,45.7500,103,47,0.48107
4588240,-0.13500,45.6250,103,47,0.47326
4588250,-0.13500,45.8750,103,47,0.46545
4588260,-0.13000,48.8750,103,47,0.45055
4588270,-0.12500,52.3750,103,47,0.44322
4588280,-0.11500,57.1875,103,47,0.43590
4588290,-0.09500,62.5625,103,47,0.42857
4588300,-0.08000,73.5625,103,47,0.41758
4588310,-0.06000,78.6875,103,47,0.41172
4588320,-0.04500,83.3750,103,47,0.40537
4588330,-0.02500,87.6250,103,47,0.39902
4588340,-0.00500,94.4375,103,47,0.38632
4588350,0.01500,96.8125,103,47,0.38022
4588360,0.02500,98.5625,103,47,0.37411
4588370,0.03500,99.6875,103,47,0.36825
4588380,0.04000,100.5000,103,47,0.35678
4588390,0.04500,100.2500,103,47,0.35238
4588400,0.05000,99.6875,103,47,0.34896
4588410,0.06000,98.9375,103,47,0.34457
4588420,0.07000,96.7500,103,47,0.33480
4588430,0.08000,95.5000,103,47,0.32943
4588440,0.09000,94.1250,103,47,0.32430
4588450,0.08000,92.7500,103,47,0.31917
4588460,0.06000,89.8750,103,47,0.30867
4588470,0.03000,88.4375,103,47,0.30354
4588480,0.00000,86.9375,103,47,0.29841
4588490,-0.01500,85.5000,103,47,0.29353
4588500,-0.02500,82.5625,103,47,0.28742
4588510,-0.02500,81.0625,103,47,0.28400
4588520,-0.02500,79.4375,103,47,0.28034
4588530,-0.03000,77.6250,103,47,0.27741
4588540,-0.03000,73.5625,103,47,0.27643
4588550,-0.03000,71.5000,103,47,0.27985
4588560,-0.03000,69.6875,103,47,0.28718
4588570,-0.02500,68.0625,103,47,0.29866
4588580,-0.02500,65.6875,103,47,0.33529
4588590,-0.02500,64.7500,103,47,0.35629
4588600,-0.03500,64.0000,103,47,0.37851
4588610,-0.04500,63.3125,103,47,0.40537
4588620,-0.04500,62.2500,103,47,0.46642
4588630,-0.05500,61.7500,103,47,0.49792
4588640,-0.06000,61.3750,103,47,0.52894
4588650,-0.06000,60.9375,103,47,0.55922
4588660,-0.06000,60.1875,103,47,0.61490
4588670,-0.06000,59.8125,103,47,0.63980
4588680,-0.05500,59.4375,103,47,0.66252
4588690,-0.04000,58.6875,103,47,0.69817
4588700,-0.02500,58.3750,103,47,0.71013
4588710,-0.01000,58.0000,103,47,0.72210
4588720,-0.00500,57.6250,103,47,0.73309
4588730,-0.00500,57.2500,103,47,0.74237
4588740,-0.02500,56.5000,103,47,0.75580
4588750,-0.06000,56.1250,103,47,0.75995
4588760,-0.08000,55.8125,103,47,0.76239
4588770,-0.10000,55.4375,103,47,0.76337
4588780,-0.12500,54.6875,103,47,0.76093
4588790,-0.13500,54.3125,103,47,0.75726
4588800,-0.13500,54.0000,103,47,0.75238
4588810,-0.13500,53.6250,103,47,0.74676
4588820,-0.13500,53.0000,103,47,0.73187
4588830,-0.12500,52.6875,103,47,0.72308
4588840,-0.12500,52.4375,103,47,0.71331
4588850,-0.11500,52.1875,103,47,0.70281
4588860,-0.12500,51.8125,103,47,0.67985
4588870,-0.10000,51.6250,103,47,0.66813
4588880,0.19000,51.4375,103,47,0.65617
4588890,0.78500,51.2500,103,47,0.64518
4588900,1.10000,50.7500,103,47,0.62125
4588910,0.66500,50.4375,103,47,0.60659
4588920,-0.05000,50.1875,103,47,0.59414
4588930,-0.42000,49.8750,103,47,0.58291
4588940,-0.43500,49.2500,103,47,0.56215
4588950,-0.31500,48.8750,103,47,0.55238
4588960,-0.24000,48.5625,103,47,0.54310
4588970,-0.22500,48.2500,103,47,0.53382
4588980,-0.21000,47.6250,103,47,0.51600
4588990,-0.19000,47.3125,103,47,0.50842
4589000,-0.18000,47.0000,103,47,0.50134
4589010,-0.17500,46.6875,103,47,0.49377
4589020,-0.18000,46.1250,103,47,0.47814
4589030,-0.17500,45.8750,103,47,0.47033
4589040,-0.16500,45.7500,103,47,0.46276
4589050,-0.15500,45.8750,103,47,0.45519
4589060,-0.14000,48.3125,103,47,0.44054
4589070,-0.12833,51.6875,103,47,0.43187
4589080,-0.11500,56.0625,103,47,0.42613
4589090,-0.09500,61.5000,103,47,0.42027
4589100,-0.08000,72.8750,103,47,0.40904
4589110,-0.06500,78.2500,103,47,0.40269
4589120,-0.04500,83.1875,103,47,0.39609
4589130,-0.03000,87.6250,103,47,0.38950
4589140,-0.01000,94.7500,103,47,0.37729
4589150,0.01000,97.3125,103,47,0.37143
4589160,0.02000,99.2500,103,47,0.36606
4589170,0.03000,100.5625,103,47,0.36068
4589180,0.03000,101.5625,103,47,0.34994
4589190,0.03000,101.3750,103,47,0.34579
4589200,0.03500,100.9375,103,47,0.34237
4589210,0.04500,99.3750,103,47,0.33358
4589220,0.05500,98.3125,103,47,0.32869
4589230,0.06500,97.0625,103,47,0.32381
4589240,0.07500,95.7500,103,47,0.31893
4589250,0.07000,94.3750,103,47,0.31429
4589260,0.05000,91.4375,103,47,0.30525
4589270,0.03000,89.9375,103,47,0.30061
4589280,0.00000,88.4375,103,47,0.29597
4589290,-0.02000,87.0000,103,47,0.29280
4589300,-0.03500,84.1250,103,47,0.28645
4589310,-0.04000,82.6250,103,47,0.28230
4589320,-0.04000,81.0625,103,47,0.27814
4589330,-0.04500,79.3750,103,47,0.27448
4589340,-0.04500,75.5000,103,47,0.27204
4589350,-0.04500,73.5000,103,47,0.27473
4589360,-0.04500,71.5625,103,47,0.28083
4589370,-0.03500,69.8750,103,47,0.29109
4589380,-0.03500,67.1875,103,47,0.32479
4589390,-0.04000,66.1875,103,47,0.34481
4589400,-0.05000,65.3125,103,47,0.36630
4589410,-0.05500,64.5625,103,47,0.39219
4589420,-0.06000,63.4375,103,47,0.45177
4589430,-0.07000,62.9375,103,47,0.48303
4589440,-0.08000,62.5000,103,47,0.51429
4589450,-0.08000,62.0625,103,47,0.54481
4589460,-0.08500,61.3125,103,47,0.60122
4589470,-0.08000,60.9375,103,47,0.62662
4589480,-0.08000,60.5625,103,47,0.64982
4589490,-0.07500,60.1875,103,47,0.66813
4589500,-0.07000,59.5000,103,47,0.69792
4589510,-0.05500,59.1250,103,47,0.71209
4589520,-0.03500,58.7500,103,47,0.72454
4589530,-0.02000,58.3750,103,47,0.73504
4589540,-0.01500,57.5625,103,47,0.75018
4589550,-0.02500,57.1875,103,47,0.75507
4589560,-0.05500,56.8125,103,47,0.75824
4589570,-0.07500,56.4375,103,47,0.75971
4589580,-0.09500,55.6250,103,47,0.75824
4589590,-0.11500,55.2500,103,47,0.75531
4589600,-0.13500,54.8750,103,47,0.75092
4589610,-0.13500,54.5000,103,47,0.74579
4589620,-0.13500,53.8125,103,47,0.73260
4589630,-0.13500,53.5000,103,47,0.72430
4589640,-0.12500,53.1875,103,47,0.71502
4589650,-0.12000,52.8750,103,47,0.70501
4589660,-0.11500,52.3750,103,47,0.68327
4589670,-0.11500,52.1250,103,47,0.67228
4589680,-0.11000,51.9375,103,47,0.66105
4589690,0.10000,51.8125,103,47,0.65055
4589700,0.66000,51.4375,103,47,0.63004
4589710,1.13500,51.2500,103,47,0.61954
4589720,0.81000,51.0000,103,47,0.60904
4589730,0.03500,50.8125,103,47,0.59853
4589740,-0.42000,50.2500,103,47,0.57875
4589750,-0.48000,49.9375,103,47,0.56923
4589760,-0.35500,49.5625,103,47,0.55971
4589770,-0.26500,49.2500,103,47,0.55043
4589780,-0.25000,48.6875,103,47,0.53236
4589790,-0.24000,48.3125,103,47,0.52430
4589800,-0.22000,48.0000,103,47,0.51697
4589810,-0.20500,47.6875,103,47,0.50916
4589820,-0.19500,47.0625,103,47,0.49328
4589830,-0.19000,46.8125,103,47,0.48547
4589840,-0.18500,46.5625,103,47,0.47766
4589850,-0.17500,46.3750,103,47,0.46984
4589860,-0.16000,46.7500,103,47,0.45470
4589870,-0.15500,48.0625,103,47,0.44737
4589880,-0.14500,50.7500,103,47,0.44005
4589890,-0.13500,54.9375,103,47,0.43394
4589900,-0.12000,66.1250,103,47,0.42198
4589910,-0.10500,72.0000,103,47,0.41538
4589920,-0.09000,77.6250,103,47,0.40879
4589930,-0.07000,82.8750,103,47,0.40220
4589940,-0.05000,91.8750,103,47,0.38926
4589950,-0.03000,95.4375,103,47,0.38291
4589960,-0.01500,98.3125,103,47,0.37656
4589970,0.00000,100.4375,103,47,0.37045
4589980,0.01500,102.9375,103,47,0.35897
4589990,0.02000,103.3750,103,47,0.35458
4590000,0.02000,103.4375,102,47,0.35116
4590010,0.02500,102.5000,102,47,0.34212
4590020,0.03000,101.6250,102,47,0.33724
4590030,0.03500,100.5625,102,47,0.33260
4590040,0.05000,99.3750,102,47,0.32796
4590050,0.06000,98.0625,102,47,0.32332
4590060,0.06500,95.2500,102,47,0.31429
4590070,0.05000,93.7500,102,47,0.30965
4590080,0.02500,92.2500,102,47,0.30525
4590090,-0.00500,90.8125,102,47,0.30208
4590100,-0.02500,88.0625,102,47,0.29646
4590110,-0.04500,86.6250,102,47,0.29255
4590120,-0.05500,85.2500,102,47,0.28864
4590130,-0.05500,83.8125,102,47,0.28474
4590140,-0.05500,80.5000,102,47,0.27839
4590150,-0.05500,78.5000,102,47,0.27741
4590160,-0.05000,76.3750,102,47,0.27863
4590170,-0.04500,74.2500,102,47,0.28327
4590180,-0.04500,70.3750,102,47,0.30549
4590190,-0.04500,68.8125,102,47,0.32088
4590200,-0.04500,67.5625,102,47,0.33895
4590210,-0.04500,66.5625,102,47,0.36239
4590220,-0.05000,65.0625,102,47,0.41978
4590230,-0.05500,64.5625,102,47,0.45153
4590240,-0.06000,64.1250,102,47,0.48400
4590250,-0.07000,63.6875,102,47,0.51673
4590260,-0.08000,63.0625,102,47,0.57924
4590270,-0.08000,62.7500,102,47,0.60781
4590280,-0.07500,62.4375,102,47,0.63419
4590290,-0.07500,61.7500,102,47,0.67253
4590300,-0.07000,61.3750,102,47,0.69060
4590310,-0.06500,61.0000,102,47,0.70794
4590320,-0.05000,60.5625,102,47,0.72381
4590330,-0.03500,60.1875,102,47,0.73773
4590340,-0.01500,59.3750,102,47,0.75946
4590350,0.00000,59.0000,102,47,0.76728
4590360,-0.00500,58.6250,102,47,0.77314
4590370,-0.02500,58.2500,102,47,0.77729
4590380,-0.04500,57.3750,102,47,0.78071
4590390,-0.07000,57.0000,102,47,0.77924
4590400,-0.09000,56.6250,102,47,0.77631
4590410,-0.11500,56.2500,102,47,0.77265
4590420,-0.12000,55.5000,102,47,0.76288
4590430,-0.12500,55.1250,102,47,0.75604
4590440,-0.11500,54.7500,102,47,0.74823
4590450,-0.11500,54.4375,102,47,0.73919
4590460,-0.11000,53.7500,102,47,0.71844
4590470,-0.10500,53.4375,102,47,0.70696
4590480,-0.10500,53.1875,102,47,0.69524
4590490,-0.12500,52.9375,102,47,0.68425
4590500,0.03000,52.5625,102,47,0.66252
4590510,0.54500,52.3750,102,47,0.65128
4590520,1.12500,52.1250,102,47,0.64005
4590530,0.97500,51.9375,102,47,0.62906
4590540,0.19500,51.4375,102,47,0.60781
4590550,-0.36500,51.1875,102,47,0.59756
4590560,-0.48000,50.9375,102,47,0.58755
4590570,-0.35000,50.3125,102,47,0.57778
4590580,-0.25000,50.0000,102,47,0.55873
4590590,-0.23000,49.6250,102,47,0.55043
4590600,-0.22500,49.3125,102,47,0.54261
4590610,-0.21000,48.9375,102,47,0.53407
4590620,-0.18500,48.3750,102,47,0.51722
4590630,-0.16500,48.0625,102,47,0.50891
4590640,-0.15500,47.7500,102,47,0.50061
4590650,-0.15000,47.4375,102,47,0.49255
4590660,-0.14500,47.1250,102,47,0.47643
4590670,-0.13500,47.3125,102,47,0.46862
4590680,-0.12500,48.3125,102,47,0.46081
4590690,-0.12500,50.5625,102,47,0.45421
4590700,-0.11500,59.3750,102,47,0.44151
4590710,-0.10500,65.1875,102,47,0.43443
4590720,-0.09000,71.1250,102,47,0.42711
4590730,-0.08000,76.9375,102,47,0.41978
4590740,-0.06500,87.3750,102,47,0.40537
4590750,-0.05500,91.6875,102,47,0.39829
4590760,-0.03500,95.4375,102,47,0.39170
4590770,-0.01500,98.4375,102,47,0.38510
4590780,0.01000,102.1875,102,47,0.37387
4590790,0.03000,103.1250,102,47,0.36972
4590800,0.03500,103.5000,102,47,0.36459
4590810,0.03500,103.4375,102,47,0.35922
4590820,0.04000,102.4375,102,47,0.34774
4590830,0.04500,101.5625,102,47,0.34212
4590840,0.05000,100.5000,102,47,0.33651
4590850,0.07000,99.3125,102,47,0.33114
4590860,0.08500,96.6875,102,47,0.32063
4590870,0.09000,95.3125,102,47,0.31575
4590880,0.08000,93.9375,102,47,0.31087
4590890,0.06000,92.5000,102,47,0.30720
4590900,0.03000,89.6250,102,47,0.30085
4590910,0.00500,88.1875,102,47,0.29646
4590920,-0.01500,86.7500,102,47,0.29182
4590930,-0.02500,85.3125,102,47,0.28694
4590940,-0.03000,82.1250,102,47,0.27814
4590950,-0.03500,80.2500,102,47,0.26984
4590960,-0.03500,78.2500,102,47,0.26081
4590970,-0.03500,76.1250,102,47,0.25788
4590980,-0.03000,72.0000,102,47,0.26593
4590990,-0.03000,70.2500,102,47,0.27546
4591000,-0.02500,68.8125,102,47,0.28938
4591010,-0.02500,67.5625,102,47,0.30769
4591020,-0.03000,65.6875,102,47,0.35604
4591030,-0.04000,65.0000,102,47,0.38462
4591040,-0.06000,64.4375,102,47,0.41490
4591050,-0.07500,64.0000,102,47,0.44567
4591060,-0.08500,63.1875,102,47,0.50696
4591070,-0.10000,62.8750,102,47,0.53626
4591080,-0.10500,62.5000,102,47,0.56410
4591090,-0.10500,62.1250,102,47,0.58706
4591100,-0.10500,61.3125,102,47,0.62662
4591110,-0.10000,60.9375,102,47,0.64615
4591120,-0.09000,60.6042,102,47,0.66211
4591130,-0.07500,60.1250,102,47,0.68010
4591140,-0.05500,59.3125,102,47,0.70574
4591150,-0.04000,58.8750,102,47,0.71526
4591160,-0.03000,58.4375,102,47,0.72283
4591170,-0.04000,58.0000,102,47,0.72821
4591180,-0.06500,57.1250,102,47,0.73284
4591190,-0.08500,56.6875,102,47,0.73187
4591200,-0.10500,56.2500,102,47,0.73065
4591210,-0.13500,55.8750,102,47,0.72869
4591220,-0.16000,55.0625,102,47,0.72186
4591230,-0.16500,54.6875,102,47,0.71697
4591240,-0.15500,54.3125,102,47,0.71062
4591250,-0.14500,53.8750,102,47,0.70330
4591260,-0.13500,53.1875,102,47,0.68523
4591270,-0.12500,52.8125,102,47,0.67497
4591280,-0.10500,52.5625,102,47,0.66398
4591290,-0.10000,52.0625,102,47,0.65348
4591300,-0.10500,51.8750,102,47,0.63223
4591310,0.06000,51.6250,102,47,0.62125
4591320,0.54500,51.4375,102,47,0.61026
4591330,1.05500,51.2500,102,47,0.59951
4591340,0.90000,50.8125,102,47,0.57827
4591350,0.17500,50.5625,102,47,0.56801
4591360,-0.32000,50.3125,102,47,0.55800
4591370,-0.41000,50.0625,102,47,0.54823
4591380,-0.29000,49.4375,102,47,0.53040
4591390,-0.18000,49.0625,102,47,0.52259
4591400,-0.14500,48.6875,102,47,0.51453
4591410,-0.13500,48.3125,102,47,0.50623
4591420,-0.11500,47.6875,102,47,0.48962
4591430,-0.10000,47.3750,102,47,0.48132
4591440,-0.09000,47.0625,102,47,0.47302
4591450,-0.09500,46.4375,102,47,0.46496
4591460,-0.09500,46.1875,102,47,0.44908
4591470,-0.08500,46.0000,102,47,0.44151
4591480,-0.07500,45.9375,102,47,0.43394
4591490,-0.06500,46.3750,102,47,0.42759
4591500,-0.05500,50.5625,102,47,0.41514
4591510,-0.04500,54.8750,102,47,0.40855
4591520,-0.03000,60.2500,102,47,0.40171
4591530,-0.02000,66.0000,102,47,0.39512
4591540,-0.00500,77.0625,102,47,0.38144
4591550,0.01000,82.0000,102,47,0.37460
4591560,0.02500,86.4375,102,47,0.36777
4591570,0.04000,90.3750,102,47,0.36093
4591580,0.05500,96.1875,102,47,0.34872
4591590,0.07000,98.0625,102,47,0.34432
4591600,0.08500,99.3125,102,47,0.33895
4591610,0.09500,99.9375,102,47,0.33333
4591620,0.10500,99.8750,102,47,0.32186
4591630,0.11000,99.3125,102,47,0.31624
4591640,0.12500,98.4375,102,47,0.31087
4591650,0.14000,97.3125,102,47,0.30574
4591660,0.15000,94.8125,102,47,0.29597
4591670,0.15500,93.3750,102,47,0.29133
4591680,0.15500,91.8750,102,47,0.28669
4591690,0.14000,90.3125,102,47,0.28303
4591700,0.11500,87.1250,102,47,0.27619
4591710,0.08500,85.6250,102,47,0.27155
4591720,0.06000,84.1250,102,47,0.26667
4591730,0.04500,82.5625,102,47,0.26178
4591740,0.03500,79.3750,102,47,0.25226
4591750,0.03000,77.6875,102,47,0.24786
4591760,0.02500,75.8125,102,47,0.24396
4591770,0.02000,73.8125,102,47,0.24127
4591780,0.02500,69.9375,102,47,0.24225
4591790,0.03000,68.2500,102,47,0.24664
4591800,0.03000,66.8750,102,47,0.25421
4591810,0.02500,65.6875,102,47,0.26569
4591820,0.02000,64.0000,102,47,0.30037
4591830,0.01500,63.3750,102,47,0.32332
4591840,0.01000,62.8125,102,47,0.34945
4591850,0.00000,62.3750,102,47,0.37778
4591860,-0.00500,61.6250,102,47,0.43712
4591870,-0.01000,61.3125,102,47,0.46667
4591880,-0.01500,61.0000,102,47,0.49524
4591890,-0.01500,60.3750,102,47,0.51941
4591900,-0.01500,60.0625,102,47,0.56215
4591910,-0.01500,59.6875,102,47,0.58339
4591920,-0.00500,59.3125,102,47,0.60293
4591930,0.00500,59.0000,102,47,0.62076
4591940,0.02000,58.1875,102,47,0.65006
4591950,0.03500,57.8125,102,47,0.66129
4591960,0.04000,57.4375,102,47,0.67057
4591970,0.04000,57.0625,102,47,0.67790
4591980,0.03000,56.2500,102,47,0.68596
4591990,0.00000,55.8750,102,47,0.68694
4592000,-0.02000,55.5000,102,47,0.68718
4592010,-0.04000,55.1250,102,47,0.68645
4592020,-0.06000,54.3750,102,47,0.68181
4592030,-0.07000,54.0000,102,47,0.67766
4592040,-0.07000,53.6250,102,47,0.67204
4592050,-0.07000,53.2500,102,47,0.66545
4592060,-0.07500,52.5625,102,47,0.64933
4592070,-0.07500,52.2500,102,47,0.64005
4592080,-0.06500,52.0000,102,47,0.63028
4592090,-0.05500,51.7500,102,47,0.62076
4592100,-0.07000,51.3750,102,47,0.60147
4592110,-0.06000,51.1875,102,47,0.59121
4592120,0.17500,51.0625,102,47,0.58071
4592130,0.72500,50.8750,102,47,0.57045
4592140,1.08000,50.5104,102,47,0.55564
4592150,0.66500,50.1250,102,47,0.54115
4592160,-0.02500,49.8750,102,47,0.53187
4592170,-0.38500,49.5625,102,47,0.52283
4592180,-0.42500,48.8750,102,47,0.50647
4592190,-0.31000,48.5625,102,47,0.49915
4592200,-0.22000,48.1875,102,47,0.49133
4592210,-0.19500,47.8125,102,47,0.48327
4592220,-0.18000,47.1875,102,47,0.46764
4592230,-0.16500,46.8750,102,47,0.46007
4592240,-0.15500,46.5625,102,47,0.45275
4592250,-0.15500,46.2500,102,47,0.44518
4592260,-0.15500,45.6875,102,47,0.43053
4592270,-0.15000,45.4375,102,47,0.42344
4592280,-0.14500,45.1875,102,47,0.41636
4592290,-0.13500,45.1875,102,47,0.41026
4592300,-0.12500,47.1250,102,47,0.39878
4592310,-0.11500,49.9375,102,47,0.39219
4592320,-0.11000,54.1875,102,47,0.38535
4592330,-0.09500,59.3750,102,47,0.37875
4592340,-0.08500,70.3750,102,47,0.36557
4592350,-0.06500,75.5000,102,47,0.35922
4592360,-0.05000,80.3125,102,47,0.35263
4592370,-0.03500,84.6875,102,47,0.34652
4592380,-0.01500,91.7500,102,47,0.33626
4592390,0.00000,94.3125,102,47,0.33260
4592400,0.01500,96.1875,102,47,0.32796
4592410,0.03000,97.4375,102,47,0.32308
4592420,0.04500,98.2500,102,47,0.31306
4592430,0.05000,98.0000,102,47,0.30794
4592440,0.06000,97.3750,102,47,0.30305
4592450,0.07000,96.5000,102,47,0.29841
4592460,0.08000,94.1250,102,47,0.28913
4592470,0.09000,92.7500,102,47,0.28474
4592480,0.09500,91.3125,102,47,0.28034
4592490,0.08500,89.8125,102,47,0.27717
4592500,0.06500,86.7500,102,47,0.27106
4592510,0.03500,85.1875,102,47,0.26716
4592520,0.01000,83.7500,102,47,0.26300
4592530,-0.00500,82.2500,102,47,0.25885
4592540,-0.01500,79.1875,102,47,0.25031
4592550,-0.02000,77.5625,102,47,0.24615
4592560,-0.02500,75.8750,102,47,0.24225
4592570,-0.02500,74.0000,102,47,0.23883
4592580,-0.02500,70.0000,102,47,0.23663
4592590,-0.03000,68.1250,102,47,0.23858
4592600,-0.02500,66.5000,102,47,0.24274
4592610,-0.02500,65.1875,102,47,0.25031
4592620,-0.01500,63.3125,102,47,0.27668
4592630,-0.01500,62.6250,102,47,0.29597
4592640,-0.02000,62.0000,102,47,0.31868
4592650,-0.02500,61.5000,102,47,0.34408
4592660,-0.03500,60.6875,102,47,0.40073
4592670,-0.04000,60.3750,102,47,0.43004
4592680,-0.04500,60.0625,102,47,0.45543
4592690,-0.04500,59.8125,102,47,0.47839
4592700,-0.05000,59.1875,102,47,0.52747
4592710,-0.05500,58.8125,102,47,0.55067
4592720,-0.05500,58.4375,102,47,0.57216
4592730,-0.04500,58.1250,102,47,0.59170
4592740,-0.03500,57.4375,102,47,0.62418
4592750,-0.02000,57.0625,102,47,0.63687
4592760,-0.00500,56.6875,102,47,0.64713
4592770,0.00500,56.3125,102,47,0.65543
4592780,0.00500,55.5625,102,47,0.66520
4592790,-0.01500,55.1875,102,47,0.66667
4592800,-0.03500,54.8750,102,47,0.66764
4592810,-0.05500,54.5000,102,47,0.66764
4592820,-0.07500,53.8125,102,47,0.66422
4592830,-0.09500,53.5000,102,47,0.66081
4592840,-0.10000,53.1875,102,47,0.65592
4592850,-0.09500,52.8750,102,47,0.64982
4592860,-0.09500,52.2500,102,47,0.63394
4592870,-0.09000,51.9375,102,47,0.62466
4592880,-0.08500,51.6250,102,47,0.61538
4592890,-0.08000,51.3750,102,47,0.60586
4592900,-0.07500,51.0000,102,47,0.58510
4592910,-0.08500,50.8750,102,47,0.57436
4592920,-0.06000,50.7500,102,47,0.56386
4592930,0.24500,50.5625,102,47,0.55336
4592940,0.83500,50.1250,102,47,0.53260
4592950,1.08000,49.8750,102,47,0.52283
4592960,0.59000,49.6250,102,47,0.51306
4592970,-0.07500,49.3125,102,47,0.50354
4592980,-0.42000,48.6875,102,47,0.48669
4592990,-0.41000,48.3750,102,47,0.47961
4593000,-0.29500,48.0000,102,47,0.47546
4593010,-0.22000,47.6875,102,47,0.47302
4593020,-0.21000,47.0625,102,47,0.46154
4593030,-0.20000,46.7500,102,47,0.45446
4593040,-0.19000,46.5000,102,47,0.44737
4593050,-0.18000,46.1875,102,47,0.44029
4593060,-0.17500,45.5625,102,47,0.42613
4593070,-0.17000,45.3125,102,47,0.41905
4593080,-0.17000,45.0625,102,47,0.41343
4593090,-0.16000,44.8750,102,47,0.40830
4593100,-0.15000,45.5625,102,47,0.39609
4593110,-0.14500,47.1250,102,47,0.38974
4593120,-0.13500,50.1250,102,47,0.38339
4593130,-0.12000,54.4375,102,47,0.37705
4593140,-0.10500,65.0625,102,47,0.36484
4593150,-0.08500,70.4375,102,47,0.35873
4593160,-0.06500,75.6250,102,47,0.35287
4593170,-0.04667,82.4792,102,47,0.34501
4593180,-0.03000,88.6875,102,47,0.33797
4593190,-0.01500,91.9375,102,47,0.33455
4593200,0.00000,94.6250,102,47,0.33065
4593210,0.00500,96.5625,102,47,0.32625
4593220,0.02000,98.7500,102,47,0.31746
4593230,0.03000,99.0625,102,47,0.31331
4593240,0.04000,99.0000,102,47,0.30916
4593250,0.04500,98.5625,102,47,0.30549
4593260,0.06000,96.9375,102,47,0.29841
4593270,0.07000,95.8125,102,47,0.29524
4593280,0.08500,94.5625,102,47,0.29328
4593290,0.09000,93.1875,102,47,0.29206
4593300,0.08500,90.3125,102,47,0.28742
4593310,0.06000,88.8125,102,47,0.28498
4593320,0.04000,87.3125,102,47,0.28230
4593330,0.01000,85.8750,102,47,0.27937
4593340,-0.01000,82.8750,102,47,0.27326
4593350,-0.02500,81.3750,102,47,0.26984
4593360,-0.02500,79.8125,102,47,0.26642
4593370,-0.03500,78.1250,102,47,0.26325
4593380,-0.03500,74.3750,102,47,0.25983
4593390,-0.04000,72.3125,102,47,0.26081
4593400,-0.04500,70.1875,102,47,0.26325
4593410,-0.04500,68.2500,102,47,0.26838
4593420,-0.04000,65.2500,102,47,0.28889
4593430,-0.03500,64.1875,102,47,0.30525
4593440,-0.03500,63.3750,102,47,0.32576
4593450,-0.04000,62.6250,102,47,0.34994
4593460,-0.04500,61.5625,102,47,0.40586
4593470,-0.05000,61.1875,102,47,0.43639
4593480,-0.05500,60.8125,102,47,0.46325
4593490,-0.06000,60.5000,102,47,0.48840
4593500,-0.06500,59.8750,102,47,0.54335
4593510,-0.06500,59.5625,102,47,0.56996
4593520,-0.06500,59.1875,102,47,0.59512
4593530,-0.06500,58.8750,102,47,0.61856
4593540,-0.06500,58.2500,102,47,0.65910
4593550,-0.05500,57.9375,102,47,0.67619
4593560,-0.03500,57.6250,102,47,0.69133
4593570,-0.02000,57.3125,102,47,0.70403
4593580,-0.00500,56.6875,102,47,0.72137
4593590,-0.00500,56.3125,102,47,0.72576
4593600,-0.02000,55.9375,102,47,0.72991
4593610,-0.05000,55.6250,102,47,0.73284
4593620,-0.06500,54.8750,102,47,0.73480
4593630,-0.08500,54.5000,102,47,0.73382
4593640,-0.11000,54.1250,102,47,0.73138
4593650,-0.12500,53.7500,102,47,0.72747
4593660,-0.12500,53.0625,102,47,0.71600
4593670,-0.12000,52.7500,102,47,0.70842
4593680,-0.11500,52.4375,102,47,0.70037
4593690,-0.11500,52.1250,102,47,0.69182
4593700,-0.11500,51.5625,102,47,0.67228
4593710,-0.11000,51.3750,102,47,0.66178
4593720,-0.11500,51.1875,102,47,0.65079
4593730,-0.11500,51.0000,102,47,0.64005
4593740,0.07000,50.6250,102,47,0.61856
4593750,0.58500,50.4375,102,47,0.60806
4593760,1.06500,50.1875,102,47,0.59805
4593770,0.84000,49.8750,102,47,0.58828
4593780,0.14000,49.3125,102,47,0.56996
4593790,-0.32500,49.0000,102,47,0.56190
4593800,-0.44500,48.6875,102,47,0.55336
4593810,-0.35000,48.3750,102,47,0.54481
4593820,-0.25000,47.7500,102,47,0.52796
4593830,-0.22500,47.5000,102,47,0.51990
4593840,-0.21000,47.1875,102,47,0.51209
4593850,-0.19500,46.9375,102,47,0.50452
4593860,-0.18000,46.3750,102,47,0.48962
4593870,-0.17000,46.0625,102,47,0.48254
4593880,-0.17000,45.7500,102,47,0.47668
4593890,-0.17000,45.5000,102,47,0.47106
4593900,-0.15500,45.1250,102,47,0.45836
4593910,-0.14500,45.4375,102,47,0.45177
4593920,-0.13500,46.4375,102,47,0.44518
4593930,-0.13000,48.6875,102,47,0.43858
4593940,-0.11500,57.1250,102,47,0.42540
4593950,-0.10000,62.5625,102,47,0.41880
4593960,-0.08500,68.1250,102,47,0.41270
4593970,-0.06500,73.4375,102,47,0.40684
4593980,-0.04500,83.1875,102,47,0.39609
4593990,-0.02500,87.3750,102,47,0.39194
4594000,-0.01000,91.0000,102,47,0.38706
4594010,0.00000,94.0625,102,47,0.38193
4594020,0.01500,98.3125,102,47,0.37167
4594030,0.03000,99.5000,102,47,0.36654
4594040,0.04000,100.1875,102,47,0.36142
4594050,0.05000,100.3125,102,47,0.35653
4594060,0.05500,99.8750,102,47,0.34676
4594070,0.06000,99.1875,102,47,0.34188
4594080,0.07500,98.2500,102,47,0.33822
4594090,0.09000,97.1875,102,47,0.33529
4594100,0.09500,94.7500,102,47,0.32772
4594110,0.09000,93.3125,102,47,0.32405
4594120,0.08500,91.9375,102,47,0.32015
4594130,0.06000,90.4375,102,47,0.31624
4594140,0.04000,87.5625,102,47,0.30794
4594150,0.01500,86.1250,102,47,0.30379
4594160,0.00000,84.6875,102,47,0.29939
4594170,-0.00500,83.3125,102,47,0.29524
4594180,-0.01000,80.2500,102,47,0.28816
4594190,-0.01333,78.2396,102,47,0.28551
4594200,-0.01500,76.5625,102,47,0.28523
4594210,-0.01500,74.5000,102,47,0.28523
4594220,-0.01500,70.4375,102,47,0.29280
4594230,-0.01000,68.7500,102,47,0.30183
4594240,-0.01000,67.3125,102,47,0.31502
4594250,-0.00500,66.1875,102,47,0.33211
4594260,0.00000,64.3750,102,47,0.37753
4594270,0.00000,63.6875,102,47,0.40464
4594280,-0.00500,63.1250,102,47,0.43004
4594290,-0.01500,62.6250,102,47,0.45421
4594300,-0.02000,61.7500,102,47,0.51062
4594310,-0.02500,61.3125,102,47,0.53919
4594320,-0.03000,60.9375,102,47,0.58022
4594330,-0.03000,60.5625,102,47,0.60611
4594340,-0.02500,59.8125,102,47,0.66203
4594350,-0.02500,59.4375,102,47,0.68059
4594360,-0.01500,59.1250,102,47,0.69670
4594370,-0.01500,58.7500,102,47,0.70842
4594380,0.00000,58.0625,102,47,0.72601
4594390,0.01000,57.7500,102,47,0.73382
4594400,0.02000,57.3750,102,47,0.74017
4594410,0.00500,57.0625,102,47,0.74505
4594420,-0.02000,56.3750,102,47,0.75043
4594430,-0.04500,56.0000,102,47,0.75092
4594440,-0.06000,55.6250,102,47,0.74994
4594450,-0.08000,55.3125,102,47,0.74750
4594460,-0.09500,54.5625,102,47,0.73846
4594470,-0.10000,54.2500,102,47,0.73236
4594480,-0.09500,53.9375,102,47,0.72527
4594490,-0.09000,53.6250,102,47,0.71722
4594500,-0.09000,53.0000,102,47,0.69866
4594510,-0.09000,52.7500,102,47,0.68864
4594520,-0.09000,52.5000,102,47,0.67814
4594530,-0.09000,52.3125,102,47,0.66740
4594540,-0.10500,52.0625,102,47,0.64542
4594550,-0.01000,51.9375,102,47,0.63443
4594560,0.38000,51.7500,102,47,0.62344
4594570,0.97000,51.5000,102,47,0.61368
4594580,1.03500,50.8750,102,47,0.59487
4594590,0.42500,50.5625,102,47,0.58535
4594600,-0.18000,50.2500,102,47,0.57582
4594610,-0.43000,50.0000,102,47,0.56630
4594620,-0.39000,49.3125,102,47,0.54774
4594630,-0.28000,48.9375,102,47,0.53871
4594640,-0.23500,48.6250,102,47,0.52967
4594650,-0.22000,48.2500,102,47,0.52063
4594660,-0.21000,47.6250,102,47,0.50330
4594670,-0.19500,47.3125,102,47,0.49597
4594680,-0.19000,47.0000,102,47,0.48938
4594690,-0.19000,46.6875,102,47,0.48254
4594700,-0.18500,46.1250,102,47,0.46813
4594710,-0.17500,46.0000,102,47,0.46105
4594720,-0.17000,46.1250,102,47,0.45397
4594730,-0.15500,46.8125,102,47,0.44689
4594740,-0.14500,51.7500,102,47,0.43321
4594750,-0.13500,56.1875,102,47,0.42637
4594760,-0.12000,61.5000,102,47,0.41954
4594770,-0.10000,67.0625,102,47,0.41368
4594780,-0.08500,77.6875,102,47,0.40293
4594790,-0.06500,82.6250,102,47,0.39707
4594800,-0.04500,87.0625,102,47,0.39096
4594810,-0.03000,91.0000,102,47,0.38510
4594820,-0.01500,97.0000,102,47,0.37314
4594830,0.00000,99.0625,102,47,0.36728
4594840,0.01000,100.5000,102,47,0.36142
4594850,0.02000,101.3750,102,47,0.35580
4594860,0.02000,101.7500,102,47,0.34457
4594870,0.02500,101.4375,102,47,0.34017
4594880,0.03000,100.8125,102,47,0.33651
4594890,0.04000,100.0000,102,47,0.33187
4594900,0.06000,97.8125,102,47,0.32186
4594910,0.07000,96.5000,102,47,0.31673
4594920,0.08000,95.1250,102,47,0.31184
4594930,0.07000,93.6875,102,47,0.30672
4594940,0.05000,90.8125,102,47,0.29695
4594950,0.03000,89.4375,102,47,0.29206
4594960,0.00500,88.0000,102,47,0.28718
4594970,-0.01000,86.6250,102,47,0.28400
4594980,-0.02000,83.8125,102,47,0.27814
4594990,-0.02500,82.3125,102,47,0.27497
4595000,-0.02500,80.6875,102,47,0.27253
4595010,-0.01500,78.8750,102,47,0.27155
4595020,-0.01500,74.6875,102,47,0.27668
4595030,-0.01500,72.5625,102,47,0.28449
4595040,-0.01500,70.6250,102,47,0.29451
4595050,-0.01500,69.0000,102,47,0.30769
4595060,-0.01500,66.5625,102,47,0.34896
4595070,-0.01500,65.6875,102,47,0.37167
4595080,-0.01500,64.9375,102,47,0.39487
4595090,-0.01500,64.2500,102,47,0.42222
4595100,-0.01500,63.1875,102,47,0.48156
4595110,-0.02000,62.6875,102,47,0.52576
4595120,-0.02500,62.3125,102,47,0.55409
4595130,-0.03000,61.9375,102,47,0.58095
4595140,-0.03500,61.1875,102,47,0.63956
4595150,-0.03500,60.8125,102,47,0.65910
4595160,-0.03500,60.4375,102,47,0.67399
4595170,-0.02500,60.0625,102,47,0.68571
4595180,-0.02000,59.3125,102,47,0.70916
4595190,-0.00500,58.9375,102,47,0.71868
4595200,0.01000,58.5625,102,47,0.72991
4595210,0.01500,58.1875,102,47,0.73553
4595220,0.00667,57.6354,102,47,0.74033
4595230,-0.01000,57.0625,102,47,0.74286
4595240,-0.03000,56.6250,102,47,0.74164
4595250,-0.05000,56.2500,102,47,0.73919
4595260,-0.07500,55.5000,102,47,0.72991
4595270,-0.09500,55.1250,102,47,0.72357
4595280,-0.10500,54.7500,102,47,0.71648
4595290,-0.10000,54.3750,102,47,0.70842
4595300,-0.10000,53.6875,102,47,0.69011
4595310,-0.10000,53.3750,102,47,0.67985
4595320,-0.10500,53.1250,102,47,0.66911
4595330,-0.10500,52.8125,102,47,0.65812
4595340,-0.10000,52.4375,102,47,0.63590
4595350,-0.11000,52.2500,102,47,0.62589
4595360,-0.01500,52.0625,102,47,0.61636
4595370,0.38000,51.8125,102,47,0.60659
4595380,0.97000,51.3125,102,47,0.58657
4595390,1.03500,51.0000,102,47,0.57680
4595400,0.38500,50.6875,102,47,0.56703
4595410,-0.22000,50.3750,102,47,0.55727
4595420,-0.43500,49.6875,102,47,0.53529
4595430,-0.38500,49.3125,102,47,0.52796
4595440,-0.28000,49.0000,102,47,0.52015
4595450,-0.23000,48.6875,102,47,0.51209
4595460,-0.22500,48.0625,102,47,0.49841
4595470,-0.21000,47.7500,102,47,0.49109
4595480,-0.20500,47.4375,102,47,0.48327
4595490,-0.20000,47.1875,102,47,0.47546
4595500,-0.20000,46.6250,102,47,0.45983
4595510,-0.19500,46.3125,102,47,0.45226
4595520,-0.19000,46.1250,102,47,0.44469
4595530,-0.17500,46.1875,102,47,0.43736
4595540,-0.16500,48.2500,102,47,0.42271
4595550,-0.15500,51.1250,102,47,0.41661
4595560,-0.14500,55.3750,102,47,0.41123
4595570,-0.13500,60.5625,102,47,0.40513
4595580,-0.12000,71.6875,102,47,0.39194
4595590,-0.10000,77.0000,102,47,0.38510
4595600,-0.08500,82.0000,102,47,0.37851
4595610,-0.06500,86.5625,102,47,0.36874
4595620,-0.05000,94.0000,102,47,0.35604
4595630,-0.03500,96.7500,102,47,0.34676
4595640,-0.02000,98.8750,102,47,0.34090
4595650,-0.01000,100.3750,102,47,0.33626
4595660,-0.00500,101.7500,102,47,0.32772
4595670,0.00000,101.8125,102,47,0.32259
