RelativeTimeMilliseconds,ECG,ART,ART (Sys),ART (Dia),PPG
4216960,-0.00500,147.6875,162,76,0.26105
4216970,-0.00500,147.6875,162,76,0.26105
4216980,-0.00500,147.6875,162,76,0.26105
4216990,-0.00500,147.6875,162,76,0.26105
4217000,-0.00500,147.6875,162,76,0.26105
4217010,-0.00500,147.6875,162,76,0.26105
4217020,-0.00500,147.6875,162,76,0.26105
4217030,-0.01500,119.4375,162,76,0.30794
4217040,-0.01500,119.4375,162,76,0.30794
4217050,-0.01500,119.4375,162,76,0.30794
4217060,-0.01500,119.4375,162,76,0.30794
4217070,-0.01500,119.4375,162,76,0.30794
4217080,-0.01500,119.4375,162,76,0.30794
4217090,-0.01500,119.4375,162,76,0.30794
4217100,-0.01500,119.4375,162,76,0.30794
4217110,-0.01500,119.4375,162,76,0.30794
4217120,-0.01500,119.4375,162,76,0.30794
4217130,-0.01500,119.4375,162,76,0.30794
4217140,-0.01500,119.4375,162,76,0.30794
4217150,-0.01500,119.4375,162,76,0.30794
4217160,-0.01500,119.4375,162,76,0.30794
4217170,-0.01500,119.4375,162,76,0.30794
4217180,-0.01500,119.4375,162,76,0.30794
4217190,-0.01500,119.4375,162,76,0.30794
4217200,-0.01500,119.4375,162,76,0.30794
4217210,-0.01500,119.4375,162,76,0.30794
4217220,-0.01500,119.4375,162,76,0.30794
4217230,-0.01500,119.4375,162,76,0.30794
4217240,-0.01500,119.4375,162,76,0.30794
4217250,-0.01500,119.4375,162,76,0.30794
4217260,-0.01500,119.4375,162,76,0.30794
4217270,-0.01500,119.4375,162,76,0.30794
4217280,-0.01500,119.4375,162,76,0.30794
4217290,-0.01500,119.4375,162,76,0.30794
4217300,-0.01500,119.4375,162,76,0.30794
4217310,-0.01500,119.4375,162,76,0.30794
4217320,-0.01500,119.4375,162,76,0.30794
4217330,-0.01500,119.4375,162,76,0.30794
4217340,-0.00500,110.5000,162,76,0.37924
4217350,0.00500,107.3125,162,76,0.42149
4217360,0.01500,104.8750,162,76,0.46447
4217370,0.01500,103.1250,162,76,0.50525
4217380,0.01500,101.1250,162,76,0.57363
4217390,0.03000,100.5625,162,76,0.60024
4217400,0.06000,100.1250,162,76,0.61978
4217410,0.08000,99.6875,162,76,0.63468
4217420,0.10500,98.7500,162,76,0.66178
4217430,0.14000,98.1250,162,76,0.67350
4217440,0.15500,97.5000,162,76,0.68376
4217450,0.12000,96.7500,162,76,0.69304
4217460,0.07000,95.1875,162,76,0.70818
4217470,0.00500,94.3750,162,76,0.71453
4217480,-0.04500,93.5625,162,76,0.72015
4217490,-0.08000,92.7500,162,76,0.72479
4217500,-0.10000,91.0625,162,76,0.72845
4217510,-0.11000,90.2500,162,76,0.72943
4217520,-0.11500,89.4375,162,76,0.72991
4217530,-0.11500,88.6875,162,76,0.72894
4217540,-0.11000,87.3125,162,76,0.72161
4217550,-0.10500,86.6250,162,76,0.71477
4217560,-0.10000,86.0625,162,76,0.70549
4217570,-0.11000,85.4375,162,76,0.69451
4217580,-0.06000,84.3125,162,76,0.66789
4217590,0.26500,83.7500,162,76,0.65324
4217600,0.87500,83.1875,162,76,0.63956
4217610,1.08500,82.5625,162,76,0.62686
4217620,0.53500,81.2500,162,76,0.60024
4217630,-0.16500,80.5625,162,76,0.58730
4217640,-0.45000,79.8750,162,76,0.57509
4217650,-0.38500,79.1875,162,76,0.56361
4217660,-0.26000,77.9375,162,76,0.54237
4217670,-0.21500,77.3750,162,76,0.53260
4217680,-0.20500,76.8125,162,76,0.52308
4217690,-0.19000,76.3125,162,76,0.51380
4217700,-0.18000,75.3125,162,76,0.49841
4217710,-0.18000,74.8125,162,76,0.49035
4217720,-0.17500,74.4375,162,76,0.48205
4217730,-0.17000,74.0625,162,76,0.47375
4217740,-0.16000,74.5000,162,76,0.45714
4217750,-0.15500,76.2500,162,76,0.44860
4217760,-0.14500,80.2500,162,76,0.44005
4217770,-0.13500,87.0000,162,76,0.43150
4217780,-0.12000,107.0625,162,76,0.41465
4217790,-0.10500,118.4375,162,76,0.40635
4217800,-0.08500,129.4375,162,76,0.39927
4217810,-0.06500,139.4375,162,76,0.39341
4217820,-0.04500,154.3125,162,76,0.37973
4217830,-0.02000,159.0000,162,76,0.37265
4217840,0.00500,161.9375,162,76,0.36557
4217850,0.02000,163.4375,162,76,0.35849
4217860,0.03500,163.7500,162,76,0.34505
4217870,0.03500,163.1250,162,76,0.33846
4217880,0.03000,162.1875,162,76,0.33211
4217890,0.02000,161.0625,162,76,0.32601
4217900,0.01000,158.6875,162,76,0.31795
4217910,0.00000,157.4375,162,76,0.31331
4217920,0.00000,156.2500,162,76,0.30842
4217930,0.00000,155.1250,162,76,0.30354
4217940,0.00500,153.0000,162,76,0.29377
4217950,0.00500,151.9375,162,76,0.28913
4217960,-0.00500,150.8125,162,76,0.28449
4217970,-0.03000,149.6250,162,76,0.27961
4217980,-0.05500,146.6250,162,76,0.26984
4217990,-0.07500,144.6250,162,76,0.26545
4218000,-0.08500,142.0625,161,75,0.26349
4218010,-0.08500,138.8750,161,75,0.26398
4218020,-0.08500,130.1875,161,75,0.27619
4218030,-0.07500,124.9375,161,75,0.29206
4218040,-0.05500,119.5000,161,75,0.31624
4218050,-0.05000,114.5625,161,75,0.34847
4218060,-0.04000,106.9375,161,75,0.42906
4218070,-0.03000,104.5000,161,75,0.47179
4218080,-0.02000,102.8125,161,75,0.51258
4218090,-0.00500,101.6875,161,75,0.54945
4218100,0.01000,100.6250,161,75,0.60000
4218110,0.03500,100.3750,161,75,0.62051
4218120,0.05500,100.1250,161,75,0.63834
4218130,0.07500,99.8750,161,75,0.65372
4218140,0.10500,98.9375,161,75,0.67863
4218150,0.11000,98.2500,161,75,0.68864
4218160,0.08000,97.5625,161,75,0.69719
4218170,0.02000,96.6875,161,75,0.70476
4218180,-0.04500,94.8750,161,75,0.71746
4218190,-0.10000,93.9375,161,75,0.72259
4218200,-0.13500,93.0000,161,75,0.72552
4218210,-0.15000,92.0000,161,75,0.73187
4218220,-0.15000,90.2500,161,75,0.74554
4218230,-0.15500,89.3750,161,75,0.74774
4218240,-0.15500,88.6250,161,75,0.74750
4218250,-0.15500,87.8750,161,75,0.74481
4218260,-0.14500,86.5625,161,75,0.73162
4218270,-0.14000,86.0000,161,75,0.72137
4218280,-0.14500,85.3750,161,75,0.70916
4218290,-0.03500,84.8125,161,75,0.69548
4218300,0.37500,83.7500,161,75,0.66862
4218310,0.96000,83.1875,161,75,0.65372
4218320,0.99000,82.6250,161,75,0.63858
4218330,0.28500,82.0000,161,75,0.62369
4218340,-0.32500,80.6875,161,75,0.59585
4218350,-0.47000,80.0000,161,75,0.58315
4218360,-0.35500,79.3750,161,75,0.57143
4218370,-0.24500,78.6875,161,75,0.56020
4218380,-0.21000,77.3125,161,75,0.53968
4218390,-0.20500,76.6875,161,75,0.52991
4218400,-0.19000,76.1250,161,75,0.52161
4218410,-0.18500,75.5625,161,75,0.51380
4218420,-0.17500,74.4375,161,75,0.49670
4218430,-0.17000,74.0000,161,75,0.48791
4218440,-0.17000,73.7500,161,75,0.47912
4218450,-0.16000,73.9375,161,75,0.47033
4218460,-0.15000,77.8125,161,75,0.45250
4218470,-0.14000,83.2500,161,75,0.44371
4218480,-0.12500,91.3125,161,75,0.43516
4218490,-0.10500,101.5000,161,75,0.42662
4218500,-0.08500,124.1250,161,75,0.41343
4218510,-0.06500,134.6875,161,75,0.40610
4218520,-0.04500,143.8750,161,75,0.39853
4218530,-0.02500,151.2500,161,75,0.39072
4218540,-0.00500,160.3125,161,75,0.37509
4218550,0.02000,162.3750,161,75,0.36752
4218560,0.05000,163.1250,161,75,0.36044
4218570,0.06000,163.1250,161,75,0.35336
4218580,0.07000,161.6875,161,75,0.33993
4218590,0.06000,160.6250,161,75,0.33333
4218600,0.05500,159.4375,161,75,0.32845
4218610,0.05000,158.1875,161,75,0.32430
4218620,0.04500,155.6875,161,75,0.31380
4218630,0.04000,154.5000,161,75,0.30842
4218640,0.04000,153.3750,161,75,0.30305
4218650,0.04000,152.3125,161,75,0.29768
4218660,0.03000,150.1250,161,75,0.28718
4218670,0.02000,148.8750,161,75,0.28205
4218680,-0.00500,147.4375,161,75,0.27668
4218690,-0.03000,145.7500,161,75,0.27155
4218700,-0.05000,141.2500,161,75,0.26545
4218710,-0.06500,138.1250,161,75,0.26325
4218720,-0.07000,134.1875,161,75,0.26349
4218730,-0.06500,129.5625,161,75,0.26838
4218740,-0.06500,118.8750,161,75,0.30012
4218750,-0.05500,113.7500,161,75,0.32869
4218760,-0.03500,109.4375,161,75,0.36459
4218770,-0.02500,106.0000,161,75,0.40562
4218780,-0.01500,101.8125,161,75,0.49109
4218790,-0.01000,100.6875,161,75,0.53016
4218800,0.00500,100.0000,161,75,0.56093
4218810,0.03000,99.5625,161,75,0.58510
4218820,0.06000,99.1250,161,75,0.62759
4218830,0.08000,98.8750,161,75,0.64420
4218840,0.10500,98.5000,161,75,0.65836
4218850,0.12000,98.0000,161,75,0.67057
4218860,0.11500,96.8125,161,75,0.69011
4218870,0.06500,96.0000,161,75,0.69817
4218880,0.00000,95.1875,161,75,0.70525
4218890,-0.06000,94.3125,161,75,0.71136
4218900,-0.10000,92.5625,161,75,0.71795
4218910,-0.12000,91.6875,161,75,0.72088
4218920,-0.13000,90.8125,161,75,0.72332
4218930,-0.13500,89.9375,161,75,0.72527
4218940,-0.13500,88.3125,161,75,0.72503
4218950,-0.13500,87.6250,161,75,0.72234
4218960,-0.13500,86.9375,161,75,0.71770
4218970,-0.12500,86.3125,161,75,0.71062
4218980,-0.13000,85.1250,161,75,0.68962
4218990,-0.10500,84.5625,161,75,0.67619
4219000,0.14000,83.9375,161,75,0.66300
4219010,0.70000,83.3750,161,75,0.64957
4219020,1.03000,82.0000,161,75,0.61978
4219030,0.61000,81.3125,161,75,0.60513
4219040,-0.06500,80.6250,161,75,0.59096
4219050,-0.40500,79.8750,161,75,0.57753
4219060,-0.41000,78.5625,161,75,0.55311
4219070,-0.31500,77.9375,161,75,0.54188
4219080,-0.24500,77.3125,161,75,0.53138
4219090,-0.22500,76.7500,161,75,0.52137
4219100,-0.20000,75.6875,161,75,0.50476
4219110,-0.19000,75.1250,161,75,0.49621
4219120,-0.18500,74.6250,161,75,0.48767
4219130,-0.18000,74.1250,161,75,0.47863
4219140,-0.16500,73.5000,161,75,0.46056
4219150,-0.15500,73.6875,161,75,0.45153
4219160,-0.14000,74.6250,161,75,0.44249
4219170,-0.13500,77.0000,161,75,0.43370
4219180,-0.11500,88.6875,161,75,0.41636
4219190,-0.10500,97.9375,161,75,0.40757
4219200,-0.09500,108.3125,161,75,0.40049
4219210,-0.07500,119.0625,161,75,0.39438
4219220,-0.05500,138.3125,161,75,0.37998
4219230,-0.03500,145.8125,161,75,0.37265
4219240,-0.01416,151.3438,161,75,0.36654
4219250,0.00500,155.6250,161,75,0.35800
4219260,0.02000,159.3750,161,75,0.34335
4219270,0.03500,159.5625,161,75,0.33626
4219280,0.04000,159.1250,161,75,0.32943
4219290,0.04000,156.9375,161,75,0.32283
4219300,0.04000,155.4375,161,75,0.31355
4219310,0.03000,153.8750,161,75,0.30842
4219320,0.03000,152.3125,161,75,0.30281
4219330,0.02500,150.6875,161,75,0.29719
4219340,0.03000,147.6875,161,75,0.28596
4219350,0.03000,146.3125,161,75,0.28059
4219360,0.03000,145.0000,161,75,0.27521
4219370,0.01500,143.6875,161,75,0.26984
4219380,-0.00500,140.8125,161,75,0.25983
4219390,-0.03000,139.0000,161,75,0.25617
4219400,-0.04500,136.8125,161,75,0.25348
4219410,-0.04500,133.9375,161,75,0.24982
4219420,-0.03500,126.0000,161,75,0.24567
4219430,-0.02500,121.0625,161,75,0.24884
4219440,-0.01000,116.0625,161,75,0.25788
4219450,0.00000,111.5000,161,75,0.27448
4219460,0.01000,104.7500,161,75,0.33187
4219470,0.02000,102.5625,161,75,0.37021
4219480,0.02000,101.0000,161,75,0.41172
4219490,0.01500,99.9375,161,75,0.45324
4219500,0.02000,98.6875,161,75,0.51697
4219510,0.02500,98.2500,161,75,0.54505
4219520,0.04000,97.8750,161,75,0.56972
4219530,0.06000,97.4375,161,75,0.59048
4219540,0.09000,96.3750,161,75,0.62149
4219550,0.10000,95.7500,161,75,0.63297
4219560,0.10500,95.0625,161,75,0.64249
4219570,0.08000,94.2500,161,75,0.65055
4219580,0.01500,92.6250,161,75,0.66349
4219590,-0.07000,91.8125,161,75,0.66740
4219600,-0.14500,90.8750,161,75,0.67009
4219610,-0.20000,90.0000,161,75,0.67277
4219620,-0.23000,88.2500,161,75,0.67668
4219630,-0.25500,87.3750,161,75,0.67741
4219640,-0.28000,86.5625,161,75,0.67668
4219650,-0.31500,85.8125,161,75,0.67448
4219660,-0.32500,84.3750,161,75,0.66398
4219670,-0.32000,83.7500,161,75,0.65543
4219680,-0.32000,83.1875,161,75,0.64493
4219690,-0.34500,81.9375,161,75,0.63272
4219700,-0.30000,81.3125,161,75,0.60904
4219710,0.02500,80.6875,161,75,0.59609
4219720,0.62500,80.0000,161,75,0.58291
4219730,0.81500,79.3125,161,75,0.56972
4219740,0.29000,77.8750,161,75,0.54505
4219750,-0.31500,77.1250,161,75,0.53382
4219760,-0.57000,76.4375,161,75,0.52332
4219770,-0.53500,75.7500,161,75,0.51355
4219780,-0.42000,74.5000,161,75,0.49499
4219790,-0.35000,73.9375,161,75,0.48742
4219800,-0.31500,73.3750,161,75,0.48034
4219810,-0.28500,72.8750,161,75,0.47253
4219820,-0.25000,71.8750,161,75,0.45617
4219830,-0.22000,71.3750,161,75,0.44762
4219840,-0.20000,70.9375,161,75,0.43932
4219850,-0.17500,70.6250,161,75,0.43101
4219860,-0.15500,70.9375,161,75,0.41465
4219870,-0.13500,72.1875,161,75,0.40659
4219880,-0.10500,75.1875,161,75,0.39853
4219890,-0.09000,80.5625,161,75,0.39072
4219900,-0.07500,98.0625,161,75,0.37875
4219910,-0.06000,108.6875,161,75,0.37241
4219920,-0.03500,119.3125,161,75,0.36557
4219930,-0.01500,129.3750,161,75,0.35849
4219940,0.01000,145.3125,161,75,0.34457
4219950,0.02500,150.6875,161,75,0.33773
4219960,0.04000,154.3750,161,75,0.33114
4219970,0.06000,156.5000,161,75,0.32454
4219980,0.07000,157.3750,161,75,0.31184
4219990,0.07000,156.6250,161,75,0.30696
4220000,0.06500,155.5000,161,75,0.30305
4220010,0.06000,154.1250,161,75,0.29817
4220020,0.05000,150.8750,161,75,0.28767
4220030,0.04500,149.1875,161,75,0.28254
4220040,0.05000,147.5625,161,75,0.27741
4220050,0.05000,145.9375,161,75,0.27253
4220060,0.06000,143.0000,161,75,0.26276
4220070,0.06000,141.6250,161,75,0.25812
4220080,0.04000,140.2500,161,75,0.25372
4220090,0.02000,138.8125,161,75,0.24933
4220100,0.00000,135.3125,161,75,0.24420
4220110,-0.01000,132.9375,161,75,0.24078
4220120,-0.00500,129.8750,161,75,0.23736
4220130,0.00500,126.1250,161,75,0.23468
4220140,0.02000,116.7500,161,75,0.23834
4220150,0.03500,112.0000,161,75,0.24835
4220160,0.05000,107.8125,161,75,0.26593
4220170,0.07000,104.4375,161,75,0.29182
4220180,0.08000,100.0000,161,75,0.36410
4220190,0.08000,98.6875,161,75,0.40073
4220200,0.07500,97.7500,161,75,0.43541
4220210,0.07500,97.1250,161,75,0.47253
4220220,0.08500,96.1250,161,75,0.53919
4220230,0.10000,95.6875,161,75,0.56557
4220240,0.13000,95.1875,161,75,0.58730
4220250,0.16500,94.6250,161,75,0.60464
4220260,0.19000,93.6250,161,75,0.62458
4220270,0.19500,92.5625,161,75,0.64127
4220280,0.18000,91.8125,161,75,0.64884
4220290,0.13500,91.0000,161,75,0.65495
4220300,0.06500,89.3750,161,75,0.66129
4220310,0.00000,88.5625,161,75,0.66374
4220320,-0.04500,87.7500,161,75,0.66618
4220330,-0.06500,87.0000,161,75,0.66813
4220340,-0.07500,85.5000,161,75,0.66960
4220350,-0.08500,84.8125,161,75,0.66862
4220360,-0.10000,84.1250,161,75,0.66593
4220370,-0.10000,83.5000,161,75,0.66129
4220380,-0.09500,82.4375,161,75,0.64615
4220390,-0.09500,81.9375,161,75,0.63687
4220400,-0.11000,81.4375,161,75,0.62686
4220410,-0.06500,80.9375,161,75,0.61514
4220420,0.26500,79.8125,161,75,0.58950
4220430,0.87500,79.2500,161,75,0.57656
4220440,1.10500,78.6250,161,75,0.56435
4220450,0.57500,78.0625,161,75,0.55263
4220460,-0.11000,76.8125,161,75,0.53162
4220470,-0.42000,76.1875,161,75,0.52210
4220480,-0.40500,75.5625,161,75,0.51331
4220490,-0.27500,75.0000,161,75,0.50476
4220500,-0.19000,73.8125,161,75,0.49109
4220510,-0.16000,73.2500,161,75,0.48400
4220520,-0.14500,72.7500,161,75,0.47668
4220530,-0.13500,72.1875,161,75,0.46911
4220540,-0.11500,71.1250,161,75,0.45397
4220550,-0.10500,70.6875,161,75,0.44640
4220560,-0.09500,70.4375,161,75,0.43883
4220570,-0.08500,70.4375,161,75,0.43150
4220580,-0.07500,73.0625,161,75,0.41685
4220590,-0.07000,77.2500,161,75,0.41074
4220600,-0.06000,84.0625,161,75,0.40562
4220610,-0.05000,93.1875,161,75,0.39951
4220620,-0.03500,114.5625,161,75,0.38706
4220630,-0.02000,125.1250,161,75,0.38071
4220640,-0.00500,134.6875,161,75,0.37460
4220650,0.01500,142.7500,161,75,0.36850
4220660,0.04000,153.6250,161,75,0.35678
4220670,0.06000,156.4375,161,75,0.35092
4220680,0.07000,157.9375,161,75,0.34530
4220690,0.08000,158.3750,161,75,0.33968
4220700,0.08000,157.3125,161,75,0.33187
4220710,0.08000,156.3125,161,75,0.32747
4220720,0.08000,155.0625,161,75,0.32283
4220730,0.07500,153.6875,161,75,0.31795
4220740,0.07000,150.8750,161,75,0.30867
4220750,0.07500,149.5000,161,75,0.30427
4220760,0.07500,148.1250,161,75,0.29988
4220770,0.08000,146.7500,161,75,0.29573
4220780,0.07000,144.2500,161,75,0.28742
4220790,0.05500,142.9375,161,75,0.28474
4220800,0.03000,141.5625,161,75,0.28278
4220810,0.01500,140.0000,161,75,0.27985
4220820,0.00000,135.8125,161,75,0.27253
4220830,0.00000,132.8125,161,75,0.26935
4220840,0.02000,129.1250,161,75,0.26789
4220850,0.03000,124.6250,161,75,0.26960
4220860,0.04500,114.5000,161,75,0.28962
4220870,0.06000,109.8125,161,75,0.31111
4220880,0.07500,105.8750,161,75,0.34042
4220890,0.08500,102.8750,161,75,0.37656
4220900,0.09000,99.2500,161,75,0.44591
4220910,0.09000,98.2500,161,75,0.48376
4220920,0.09000,97.5625,161,75,0.52088
4220930,0.10000,96.7500,161,75,0.55458
4220940,0.12000,96.3750,161,75,0.60757
4220950,0.14000,95.9375,161,75,0.62686
4220960,0.16500,95.4375,161,75,0.64249
4220970,0.19500,94.8750,161,75,0.65543
4220980,0.20000,93.5625,161,75,0.67497
4220990,0.19000,92.7500,161,75,0.68107
4221000,0.15000,92.0000,161,75,0.68547
4221010,0.10500,91.1875,161,75,0.69035
4221020,0.04000,89.5625,161,75,0.69890
4221030,0.00000,88.7500,161,75,0.70232
4221040,-0.00500,87.9375,161,75,0.70525
4221050,-0.00500,86.3750,161,75,0.70720
4221060,-0.02500,85.6250,161,75,0.70745
4221070,-0.03500,84.9375,161,75,0.70501
4221080,-0.03000,84.2500,161,75,0.70085
4221090,-0.01500,83.6875,161,75,0.69451
4221100,-0.00500,82.6875,161,75,0.67741
4221110,-0.00500,82.1875,161,75,0.66642
4221120,0.02500,81.6250,161,75,0.65397
4221130,0.30500,81.1250,161,75,0.64054
4221140,0.89000,80.0625,161,75,0.61294
4221150,1.19500,79.4375,161,75,0.59976
4221160,0.71500,78.8750,161,75,0.58706
4221170,0.02500,78.1875,161,75,0.57534
4221180,-0.30000,76.9375,161,75,0.55360
4221190,-0.30000,76.3125,161,75,0.54481
4221200,-0.17500,75.7500,161,75,0.53700
4221210,-0.10000,75.1875,161,75,0.52869
4221220,-0.08500,74.1250,161,75,0.51209
4221230,-0.07000,73.6250,161,75,0.50379
4221240,-0.06500,73.1875,161,75,0.49573
4221250,-0.06500,72.6875,161,75,0.48767
4221260,-0.06000,72.0000,161,75,0.47155
4221270,-0.05500,71.9375,161,75,0.46374
4221280,-0.05500,72.2500,161,75,0.45592
4221290,-0.05416,75.8229,161,75,0.44628
4221300,-0.05000,81.9375,161,75,0.43687
4221310,-0.04000,89.8750,161,75,0.42979
4221320,-0.03500,99.6875,161,75,0.42247
4221330,-0.04000,110.5625,161,75,0.41538
4221340,-0.03500,131.8125,161,75,0.40147
4221350,-0.02500,140.8125,161,75,0.39463
4221360,-0.00500,148.2500,161,75,0.38803
4221370,0.01000,153.8750,161,75,0.38144
4221380,0.03500,160.1250,161,75,0.36899
4221390,0.05000,161.3125,161,75,0.36410
4221400,0.05500,161.6250,161,75,0.35995
4221410,0.04000,161.3125,161,75,0.35507
4221420,0.02500,159.6250,161,75,0.34457
4221430,0.02000,158.5625,161,75,0.33919
4221440,0.01500,157.3125,161,75,0.33407
4221450,0.00500,156.1250,161,75,0.32918
4221460,-0.00500,153.7500,161,75,0.31990
4221470,-0.00500,152.6250,161,75,0.31551
4221480,-0.01500,151.5625,161,75,0.31111
4221490,-0.02500,150.5625,161,75,0.30818
4221500,-0.05000,148.5625,161,75,0.30281
4221510,-0.07500,147.3125,161,75,0.29915
4221520,-0.10500,145.8750,161,75,0.29524
4221530,-0.12000,144.1875,161,75,0.29109
4221540,-0.13500,139.2500,161,75,0.28449
4221550,-0.14000,135.6875,161,75,0.28425
4221560,-0.13000,131.3750,161,75,0.28864
4221570,-0.12000,126.3750,161,75,0.29939
4221580,-0.10500,115.6250,161,75,0.34432
4221590,-0.09500,111.0000,161,75,0.37289
4221600,-0.08500,107.3125,161,75,0.40464
4221610,-0.07500,104.6250,161,75,0.44322
4221620,-0.07500,101.4375,161,75,0.52503
4221630,-0.06000,100.5625,161,75,0.56239
4221640,-0.04000,100.0000,161,75,0.59536
4221650,-0.01500,99.5625,161,75,0.62320
4221660,0.01500,99.0000,161,75,0.66520
4221670,0.04500,98.6250,161,75,0.68083
4221680,0.05000,98.1875,161,75,0.69402
4221690,0.04000,97.6250,161,75,0.70354
4221700,0.01000,96.3125,161,75,0.71819
4221710,-0.05500,95.5625,161,75,0.72576
4221720,-0.13500,94.8125,161,75,0.73284
4221730,-0.18500,93.2500,161,75,0.73919
4221740,-0.21500,92.4375,161,75,0.74994
4221750,-0.23000,91.6875,161,75,0.75409
4221760,-0.24000,90.9375,161,75,0.75726
4221770,-0.24500,90.2500,161,75,0.75897
4221780,-0.25500,89.0000,161,75,0.75775
4221790,-0.26000,88.4375,161,75,0.75409
4221800,-0.27000,87.8750,161,75,0.74823
4221810,-0.28500,87.3125,161,75,0.74042
4221820,-0.25500,86.0625,161,75,0.71893
4221830,0.00000,85.3125,161,75,0.70549
4221840,0.56500,84.5625,161,75,0.69109
4221850,0.89500,83.7500,161,75,0.67619
4221860,0.47000,82.0625,161,75,0.64640
4221870,-0.19500,81.2500,161,75,0.63223
4221880,-0.52500,80.5000,161,75,0.61880
4221890,-0.53500,79.7500,161,75,0.60733
4221900,-0.41500,78.5000,161,75,0.58681
4221910,-0.33000,78.0000,161,75,0.57680
4221920,-0.29000,77.5000,161,75,0.56703
4221930,-0.23500,77.0000,161,75,0.55751
4221940,-0.17000,76.0000,161,75,0.53944
4221950,-0.09500,75.5000,161,75,0.53065
4221960,0.07000,75.0000,161,75,0.52210
4221970,0.30500,74.6875,161,75,0.51331
4221980,0.49000,75.1250,161,75,0.49646
4221990,0.59000,76.8750,161,75,0.48913
4222000,0.71000,80.5625,161,75,0.48254
4222010,0.88500,86.7500,161,75,0.47497
4222020,1.14500,105.0625,161,75,0.45934
4222030,1.44000,115.6250,161,75,0.45177
4222040,1.62500,125.9375,161,75,0.44420
4222050,1.59000,135.4375,161,75,0.43687
4222060,1.32500,149.8750,161,75,0.42271
4222070,0.97500,154.5625,161,75,0.41587
4222080,0.65000,157.6875,161,75,0.40904
4222090,0.44500,159.5000,161,75,0.40342
4222100,0.40500,160.3125,161,75,0.39267
4222110,0.42500,159.8750,161,75,0.38657
4222120,0.42000,159.0625,161,75,0.38046
4222130,0.35500,158.1250,161,75,0.37436
4222140,0.26500,155.8125,161,75,0.36239
4222150,0.21500,154.5625,161,75,0.35678
4222160,0.20000,153.3125,161,75,0.35140
4222170,0.08000,152.1250,161,75,0.34603
4222180,-0.07000,149.8750,161,75,0.33529
4222190,-0.19500,148.7500,161,75,0.33162
4222200,-0.47500,147.5625,161,75,0.32845
4222210,-0.59500,146.3125,161,75,0.32454
4222220,-0.38500,143.3125,161,75,0.31551
4222230,-0.21000,141.2500,161,75,0.31111
4222240,-0.13500,138.6250,161,75,0.30720
4222250,-0.22000,135.3125,161,75,0.30476
4222260,-0.23000,126.2500,161,75,0.31160
4222270,-0.14000,120.9375,161,75,0.32430
4222280,-0.09500,115.8125,161,75,0.34481
4222290,-0.08500,111.2500,161,75,0.36850
4222300,-0.08000,104.6250,161,75,0.42735
4222310,-0.06500,101.8333,161,75,0.46642
4222320,-0.05000,100.8750,161,75,0.49792
4222330,-0.01500,99.7500,161,75,0.53407
4222340,0.07500,98.4375,161,75,0.59487
4222350,0.15000,98.0000,161,75,0.61856
4222360,0.11000,97.5000,161,75,0.63810
4222370,-0.00500,97.0625,161,75,0.65446
4222380,-0.13000,96.0000,161,75,0.67937
4222390,-0.24500,95.3750,161,75,0.68742
4222400,-0.39500,94.6875,161,75,0.69353
4222410,-0.56000,94.0000,161,75,0.69988
4222420,-0.71000,92.5625,161,75,0.71087
4222430,-0.84500,91.8125,161,75,0.71551
4222440,-0.92500,91.0625,161,75,0.71941
4222450,-0.95500,90.2500,161,75,0.72283
4222460,-0.96500,88.6875,161,75,0.72674
4222470,-0.96500,87.9375,161,75,0.72674
4222480,-0.97500,87.2500,161,75,0.72503
4222490,-0.95500,86.5625,161,75,0.72137
4222500,-0.91500,85.3125,161,75,0.70842
4222510,-0.86500,84.6875,161,75,0.69890
4222520,-0.79000,84.1250,161,75,0.68767
4222530,-0.51000,83.5000,161,75,0.67473
4222540,0.10000,82.1875,161,75,0.64567
4222550,0.55500,81.4375,161,75,0.63053
4222560,0.22000,80.7500,161,75,0.61538
4222570,-0.43500,80.0000,161,75,0.60098
4222580,-0.75000,78.6875,161,75,0.57387
4222590,-0.73500,78.0625,161,75,0.56264
4222600,-0.59000,77.4375,161,75,0.55263
4222610,-0.50000,76.8125,161,75,0.54237
4222620,-0.47000,75.6250,161,75,0.52210
4222630,-0.44000,75.0625,161,75,0.51233
4222640,-0.41000,74.5000,161,75,0.50281
4222650,-0.38500,74.0000,161,75,0.49328
4222660,-0.37000,73.0625,161,75,0.47521
4222670,-0.35000,72.8750,161,75,0.46642
4222680,-0.33000,73.0000,161,75,0.45763
4222690,-0.30500,74.0625,161,75,0.45031
4222700,-0.29000,81.8125,161,75,0.43590
4222710,-0.27000,89.4375,161,75,0.42784
4222720,-0.25500,99.1875,161,75,0.41978
4222730,-0.23000,110.0625,161,75,0.41148
4222740,-0.19500,131.6250,161,75,0.39560
4222750,-0.15500,140.8125,161,75,0.38779
4222760,-0.11500,148.4375,161,75,0.38022
4222770,-0.06500,154.2500,161,75,0.37289
4222780,0.00000,160.6875,161,75,0.35873
4222790,0.06000,161.8750,161,75,0.35336
4222800,0.09500,162.1250,161,75,0.34872
4222810,0.10500,161.6875,161,75,0.34335
4222820,0.10000,159.8125,161,75,0.33138
4222830,0.10000,158.6250,161,75,0.32552
4222840,0.08000,157.3750,161,75,0.31966
4222850,0.05500,156.1250,161,75,0.31380
4222860,0.03000,153.6250,161,75,0.30256
4222870,0.00000,152.4375,161,75,0.29719
4222880,-0.03500,151.3125,161,75,0.29206
4222890,-0.07500,150.1250,161,75,0.28864
4222900,-0.13000,147.7500,161,75,0.28230
4222910,-0.19000,146.4375,161,75,0.27814
4222920,-0.26500,144.9375,161,75,0.27350
4222930,-0.33500,143.1250,161,75,0.26886
4222940,-0.40500,137.9375,161,75,0.26129
4222950,-0.46000,134.2500,161,75,0.26032
4222960,-0.51000,129.8750,161,75,0.26374
4222970,-0.53000,124.8750,161,75,0.27326
4222980,-0.54000,114.6875,161,75,0.31111
4222990,-0.53000,110.4375,161,75,0.33651
4223000,-0.46000,107.0000,161,75,0.37045
4223010,-0.34500,104.4375,161,75,0.40952
4223020,-0.27000,101.2500,161,75,0.49011
4223030,-0.22000,100.3750,161,75,0.52674
4223040,-0.17000,99.7500,161,75,0.55873
4223050,-0.12500,99.2500,161,75,0.58559
4223060,-0.07500,98.5000,161,75,0.62613
4223070,-0.00500,98.0000,161,75,0.64127
4223080,0.04000,97.5000,161,75,0.65397
4223090,0.06500,96.9375,161,75,0.66276
4223100,0.07000,95.5000,161,75,0.67643
4223110,0.04000,94.7500,161,75,0.68303
4223120,-0.01500,93.8750,161,75,0.68913
4223130,-0.05500,93.0000,161,75,0.69475
4223140,-0.07500,91.3125,161,75,0.70330
4223150,-0.08000,90.5000,161,75,0.70647
4223160,-0.08000,89.6875,161,75,0.70867
4223170,-0.07500,88.8750,161,75,0.70965
4223180,-0.05500,87.4375,161,75,0.70696
4223190,-0.02500,86.8125,161,75,0.70281
4223200,-0.01500,86.2500,161,75,0.69695
4223210,-0.01500,85.6250,161,75,0.68913
4223220,-0.02000,84.5000,161,75,0.66813
4223230,0.13000,83.9375,161,75,0.65519
4223240,0.61000,83.3125,161,75,0.64127
4223250,1.14000,82.6875,161,75,0.62662
4223260,0.96000,81.3125,161,75,0.59805
4223270,0.23500,80.6250,161,75,0.58437
4223280,-0.33000,79.9375,161,75,0.57143
4223290,-0.38500,79.2500,161,75,0.56044
4223300,-0.28000,78.0000,161,75,0.54090
4223310,-0.20000,77.5000,161,75,0.53114
4223320,-0.18500,77.0000,161,75,0.52161
4223330,-0.17000,76.4375,161,75,0.51258
4223340,-0.16166,75.6458,161,75,0.49931
4223350,-0.16000,74.8750,161,75,0.48620
4223360,-0.16500,74.3750,161,75,0.47766
4223370,-0.16500,74.0000,161,75,0.46935
4223380,-0.17000,74.0625,161,75,0.45397
4223390,-0.16000,75.3125,161,75,0.44762
4223400,-0.14500,78.4375,161,75,0.44029
4223410,-0.13000,84.2500,161,75,0.43272
4223420,-0.11500,103.2500,161,75,0.41709
4223430,-0.10500,114.6875,161,75,0.40952
4223440,-0.09500,126.0625,161,75,0.40195
4223450,-0.06500,136.6250,161,75,0.39463
4223460,-0.04000,152.9375,161,75,0.38022
4223470,-0.01000,158.1875,161,75,0.37338
4223480,0.01000,161.6875,161,75,0.36654
4223490,0.03000,163.6875,161,75,0.36117
4223500,0.04000,164.5000,161,75,0.35140
4223510,0.04000,163.8750,161,75,0.34554
4223520,0.03000,162.9375,161,75,0.33968
4223530,0.01000,161.7500,161,75,0.33382
4223540,-0.00500,159.3125,161,75,0.32234
4223550,-0.01000,158.0625,161,75,0.31673
4223560,0.01000,156.8125,161,75,0.31111
4223570,0.02500,155.6250,161,75,0.30574
4223580,0.02000,153.3750,161,75,0.29744
4223590,0.00000,152.3125,161,75,0.29475
4223600,-0.02500,151.2500,161,75,0.29133
4223610,-0.04500,150.1250,161,75,0.28742
4223620,-0.06500,147.3750,161,75,0.27863
4223630,-0.08500,145.3750,161,75,0.27399
4223640,-0.09500,142.8750,161,75,0.26984
4223650,-0.09000,139.6875,161,75,0.26716
4223660,-0.08000,131.1250,161,75,0.27253
4223670,-0.06500,125.9375,161,75,0.28449
4223680,-0.04500,120.6250,161,75,0.30452
4223690,-0.03500,111.3750,161,75,0.35629
4223700,-0.03000,107.9375,161,75,0.39243
4223710,-0.02500,105.4375,161,75,0.43321
4223720,-0.02500,103.6250,161,75,0.47497
4223730,-0.02500,102.4375,161,75,0.51453
4223740,-0.00500,101.1250,161,75,0.58046
4223750,0.02000,100.8125,161,75,0.60562
4223760,0.04500,100.5625,161,75,0.62637
4223770,0.07500,100.3125,161,75,0.64347
4223780,0.09500,99.5000,161,75,0.66764
4223790,0.10000,98.8750,161,75,0.67546
4223800,0.08500,98.1250,161,75,0.68327
4223810,0.04000,97.3125,161,75,0.69084
4223820,-0.03500,95.5000,161,75,0.70379
4223830,-0.10500,94.5625,161,75,0.70916
4223840,-0.15500,93.5625,161,75,0.71380
4223850,-0.18000,92.6250,161,75,0.71770
4223860,-0.18500,90.6875,161,75,0.72308
4223870,-0.18500,89.7500,161,75,0.72405
4223880,-0.19000,88.9375,161,75,0.72357
4223890,-0.19000,88.1875,161,75,0.72112
4223900,-0.19000,86.8125,161,75,0.71087
4223910,-0.18000,86.2500,161,75,0.70305
4223920,-0.18500,85.6875,161,75,0.69328
4223930,-0.11500,85.1875,161,75,0.68156
4223940,0.26000,84.1250,161,75,0.65421
4223950,0.89500,83.6250,161,75,0.63956
4223960,1.05000,83.0625,161,75,0.62491
4223970,0.44000,82.5000,161,75,0.61074
4223980,-0.22500,81.1875,161,75,0.58535
4223990,-0.46000,80.5000,161,75,0.57485
4224000,-0.37000,79.8750,160,74,0.56410
4224010,-0.24500,79.2500,160,74,0.55385
4224020,-0.21000,78.0000,160,74,0.53431
4224030,-0.20500,77.3750,160,74,0.52503
4224040,-0.20000,76.7500,160,74,0.51624
4224050,-0.19500,76.1250,160,74,0.50769
4224060,-0.18500,75.0000,160,74,0.49084
4224070,-0.17500,74.5000,160,74,0.48254
4224080,-0.16500,74.2500,160,74,0.47424
4224090,-0.15500,74.5000,160,74,0.46716
4224100,-0.15500,79.1250,160,74,0.45299
4224110,-0.14500,85.1875,160,74,0.44518
4224120,-0.13500,93.9375,160,74,0.43712
4224130,-0.11500,104.6875,160,74,0.42930
4224140,-0.09500,127.8125,160,74,0.41416
4224150,-0.07500,138.3750,160,74,0.40684
4224160,-0.06000,147.3750,160,74,0.39951
4224170,-0.03500,154.4375,160,74,0.39243
4224180,-0.01500,162.8125,160,74,0.37998
4224190,0.00000,164.5625,160,74,0.37509
4224200,0.01500,165.1875,160,74,0.36947
4224210,0.02500,164.9375,160,74,0.36361
4224220,0.02500,163.0625,160,74,0.35140
4224230,0.03000,161.8125,160,74,0.34530
4224240,0.03500,160.4375,160,74,0.33919
4224250,0.04000,159.0625,160,74,0.33333
4224260,0.04000,156.5000,160,74,0.32234
4224270,0.05000,155.3125,160,74,0.31697
4224280,0.05500,154.1875,160,74,0.31184
4224290,0.05000,153.1250,160,74,0.30818
4224300,0.03500,150.9375,160,74,0.30134
4224310,0.02000,149.6875,160,74,0.29695
4224320,0.00000,148.3125,160,74,0.29231
4224330,-0.01500,144.4375,160,74,0.28742
4224340,-0.02500,141.7500,160,74,0.27814
4224350,-0.03500,138.3125,160,74,0.27375
4224360,-0.03833,134.9479,160,74,0.26931
4224370,-0.04000,129.1250,160,74,0.27668
4224380,-0.04500,118.3125,160,74,0.30769
4224390,-0.03500,113.3750,160,74,0.33162
4224400,-0.03500,109.2500,160,74,0.36532
4224410,-0.03000,106.0625,160,74,0.40586
4224420,-0.02000,102.2500,160,74,0.49377
4224430,-0.01500,101.1875,160,74,0.53480
4224440,-0.01000,100.5625,160,74,0.57094
4224450,0.01000,100.1875,160,74,0.60147
4224460,0.04000,99.7500,160,74,0.64664
4224470,0.08000,99.4375,160,74,0.66300
4224480,0.11500,99.0625,160,74,0.67619
4224490,0.13500,98.5625,160,74,0.68547
4224500,0.14000,97.2500,160,74,0.69939
4224510,0.12500,96.5000,160,74,0.70623
4224520,0.08000,95.6250,160,74,0.71233
4224530,0.02000,94.7500,160,74,0.71795
4224540,-0.03000,92.8750,160,74,0.72698
4224550,-0.05500,91.9375,160,74,0.73016
4224560,-0.07000,91.0000,160,74,0.73236
4224570,-0.08500,90.0625,160,74,0.73358
4224580,-0.10000,88.3750,160,74,0.73162
4224590,-0.10500,87.6250,160,74,0.72796
4224600,-0.10500,86.9375,160,74,0.72283
4224610,-0.11000,86.3125,160,74,0.71600
4224620,-0.11500,85.1875,160,74,0.69573
4224630,-0.12500,84.6250,160,74,0.68254
4224640,-0.04500,84.0625,160,74,0.66789
4224650,0.33000,83.4375,160,74,0.65250
4224660,0.91000,82.1250,160,74,0.62125
4224670,0.95000,81.4375,160,74,0.60611
4224680,0.31500,80.7500,160,74,0.59170
4224690,-0.26500,80.0000,160,74,0.57949
4224700,-0.44500,78.6250,160,74,0.55775
4224710,-0.35500,77.9375,160,74,0.54725
4224720,-0.24000,77.3125,160,74,0.53700
4224730,-0.20500,76.6875,160,74,0.52723
4224740,-0.19000,75.6250,160,74,0.50842
4224750,-0.17000,75.0625,160,74,0.49939
4224760,-0.16000,74.5625,160,74,0.49035
4224770,-0.15500,74.1250,160,74,0.48156
4224780,-0.15000,73.5625,160,74,0.46496
4224790,-0.14500,73.6250,160,74,0.45812
4224800,-0.13500,74.3750,160,74,0.45031
4224810,-0.11500,76.5000,160,74,0.44200
4224820,-0.10000,87.7500,160,74,0.42466
4224830,-0.08500,97.0000,160,74,0.41587
4224840,-0.06000,107.6250,160,74,0.40733
4224850,-0.04000,118.7500,160,74,0.39902
4224860,-0.02000,139.0000,160,74,0.38291
4224870,-0.00500,147.0000,160,74,0.37485
4224880,0.01500,153.1875,160,74,0.36850
4224890,0.03500,157.5000,160,74,0.36313
4224900,0.05000,161.4375,160,74,0.34994
4224910,0.06000,161.7500,160,74,0.34310
4224920,0.07000,161.3125,160,74,0.33602
4224930,0.07000,160.3750,160,74,0.32918
4224940,0.06500,157.7500,160,74,0.31575
4224950,0.06500,156.1875,160,74,0.30916
4224960,0.06500,154.6875,160,74,0.30281
4224970,0.07000,153.1875,160,74,0.29670
4224980,0.08000,150.3750,160,74,0.28718
4224990,0.08000,149.1250,160,74,0.28400
4225000,0.07000,147.8750,160,74,0.28010
4225010,0.05500,146.6250,160,74,0.27546
4225020,0.03000,143.9375,160,74,0.26593
4225030,0.00500,142.3125,160,74,0.26081
4225040,-0.01500,140.2500,160,74,0.25568
4225050,-0.02500,137.6875,160,74,0.25079
4225060,-0.02500,130.1250,160,74,0.24469
4225070,-0.02000,125.1875,160,74,0.24640
4225080,-0.01000,119.8125,160,74,0.25250
4225090,-0.00500,114.5000,160,74,0.26398
4225100,0.01000,106.0625,160,74,0.31184
4225110,0.02000,103.1875,160,74,0.34750
4225120,0.03500,101.1250,160,74,0.38828
4225130,0.04000,99.7500,160,74,0.43126
4225140,0.03500,98.2500,160,74,0.51209
4225150,0.03500,97.8750,160,74,0.54554
4225160,0.05000,97.5625,160,74,0.57338
4225170,0.07000,97.3125,160,74,0.59585
4225180,0.10500,96.6875,160,74,0.62613
4225190,0.14000,96.1875,160,74,0.63516
4225200,0.15500,95.6250,160,74,0.64371
4225210,0.15000,95.0000,160,74,0.65153
4225220,0.12500,93.5625,160,74,0.66398
4225230,0.06500,92.7500,160,74,0.66886
4225240,-0.00500,92.0000,160,74,0.67302
4225250,-0.06500,91.1875,160,74,0.67619
4225260,-0.09500,89.5625,160,74,0.68083
4225270,-0.11500,88.7500,160,74,0.68181
4225280,-0.11500,88.0000,160,74,0.68107
4225290,-0.12500,87.2500,160,74,0.67888
4225300,-0.12500,85.8125,160,74,0.67082
4225310,-0.11500,85.1875,160,74,0.66398
4225320,-0.11000,84.6250,160,74,0.65470
4225330,-0.10500,84.1250,160,74,0.64347
4225340,-0.10500,83.0000,160,74,0.61685
4225350,0.05000,82.3750,160,74,0.60220
4225360,0.51500,81.7500,160,74,0.58730
4225370,1.00500,81.1250,160,74,0.57265
4225380,0.87500,80.1354,160,74,0.55389
4225390,0.19500,79.1250,160,74,0.53651
4225400,-0.28000,78.4375,160,74,0.52601
4225410,-0.40500,77.7500,160,74,0.51575
4225420,-0.31500,76.6250,160,74,0.49695
4225430,-0.21500,76.0625,160,74,0.48840
4225440,-0.18000,75.5000,160,74,0.48010
4225450,-0.16500,75.0000,160,74,0.47179
4225460,-0.14000,74.0000,160,74,0.45592
4225470,-0.13000,73.5000,160,74,0.44786
4225480,-0.12500,73.0000,160,74,0.44103
4225490,-0.12500,72.6875,160,74,0.43492
4225500,-0.11500,72.8750,160,74,0.42051
4225510,-0.10500,74.0625,160,74,0.41294
4225520,-0.09500,77.0000,160,74,0.40537
4225530,-0.08500,82.3125,160,74,0.39780
4225540,-0.08000,99.8125,160,74,0.38315
4225550,-0.06500,110.4375,160,74,0.37582
4225560,-0.04500,121.1250,160,74,0.36874
4225570,-0.03000,131.1250,160,74,0.36166
4225580,-0.01000,147.1250,160,74,0.34945
4225590,0.00500,152.5000,160,74,0.34505
4225600,0.03000,156.1875,160,74,0.33968
4225610,0.04500,159.1875,160,74,0.33382
4225620,0.05500,159.1250,160,74,0.32210
4225630,0.06000,158.4375,160,74,0.31648
4225640,0.06000,157.3125,160,74,0.31087
4225650,0.05000,155.9375,160,74,0.30549
4225660,0.05000,152.6875,160,74,0.29524
4225670,0.05000,151.0000,160,74,0.29035
4225680,0.04500,149.3125,160,74,0.28694
4225690,0.04500,147.6250,160,74,0.28425
4225700,0.04000,144.5000,160,74,0.27643
4225710,0.03000,143.0625,160,74,0.27204
4225720,0.02000,141.5625,160,74,0.26789
4225730,0.02000,140.0000,160,74,0.26374
4225740,0.00500,136.0625,160,74,0.25519
4225750,-0.02500,133.4375,160,74,0.25079
4225760,-0.03500,130.1250,160,74,0.24664
4225770,-0.02500,126.0625,160,74,0.24396
4225780,-0.01500,116.3750,160,74,0.24713
4225790,-0.01000,111.6250,160,74,0.25519
4225800,0.00000,107.5000,160,74,0.27009
4225810,0.00500,102.0000,160,74,0.32405
4225820,0.00500,100.5000,160,74,0.36142
4225830,0.01000,99.4375,160,74,0.40293
4225840,0.01000,98.8125,160,74,0.44518
4225850,0.01000,98.3750,160,74,0.48547
4225860,0.01000,97.8125,160,74,0.55287
4225870,0.02000,97.5000,160,74,0.57827
4225880,0.03500,97.0625,160,74,0.59658
4225890,0.06500,96.5625,160,74,0.61001
4225900,0.10500,95.2500,160,74,0.63223
4225910,0.12500,94.4375,160,74,0.64103
4225920,0.13000,93.6250,160,74,0.64811
4225930,0.11000,92.8125,160,74,0.65397
4225940,0.05500,91.0000,160,74,0.66276
4225950,-0.02500,90.1250,160,74,0.66593
4225960,-0.09500,89.1875,160,74,0.66838
4225970,-0.13000,88.3125,160,74,0.66984
4225980,-0.14500,86.7500,160,74,0.66984
4225990,-0.15500,86.0000,160,74,0.66764
4226000,-0.15500,85.2500,160,74,0.66447
4226010,-0.15000,84.5625,160,74,0.65958
4226020,-0.14500,83.4375,160,74,0.64371
4226030,-0.14000,83.0000,160,74,0.63272
4226040,-0.13500,82.5000,160,74,0.62002
4226050,-0.14000,82.0625,160,74,0.60635
4226060,-0.05000,81.0625,160,74,0.57802
4226070,0.34000,80.5625,160,74,0.56459
4226080,0.91000,80.0000,160,74,0.55311
4226090,0.93000,79.4375,160,74,0.54286
4226100,0.32000,78.2500,160,74,0.52210
4226110,-0.23000,77.6250,160,74,0.51258
4226120,-0.44000,77.0625,160,74,0.50354
4226130,-0.38500,76.5000,160,74,0.49475
4226140,-0.27000,75.3750,160,74,0.47839
4226150,-0.22000,74.9375,160,74,0.47033
4226160,-0.20500,74.4375,160,74,0.46276
4226170,-0.19000,73.9375,160,74,0.45519
4226180,-0.18000,73.0000,160,74,0.44151
4226190,-0.17500,72.5625,160,74,0.43590
4226200,-0.17000,72.1875,160,74,0.42930
4226210,-0.16000,72.0000,160,74,0.42222
4226220,-0.14500,73.5000,160,74,0.40757
4226230,-0.13000,76.4375,160,74,0.40024
4226240,-0.12000,81.8750,160,74,0.39316
4226250,-0.10500,89.8750,160,74,0.38632
4226260,-0.08500,110.4375,160,74,0.37289
4226270,-0.07000,121.3125,160,74,0.36630
4226280,-0.05500,131.4375,160,74,0.36117
4226290,-0.03000,140.3750,160,74,0.35678
4226300,-0.01500,153.3125,160,74,0.34579
4226310,0.00000,157.1250,160,74,0.33993
4226320,0.02000,159.4375,160,74,0.33431
4226330,0.03000,160.5000,160,74,0.32869
4226340,0.04000,160.0000,160,74,0.31795
4226350,0.03500,158.9375,160,74,0.31282
4226360,0.03500,157.5625,160,74,0.30794
4226370,0.03000,156.0625,160,74,0.30305
4226380,0.03000,152.8750,160,74,0.29524
4226390,0.03000,151.3125,160,74,0.29255
4226400,0.03500,149.8125,160,74,0.29109
4226410,0.03917,147.7500,160,74,0.28828
4226420,0.04000,145.7500,160,74,0.28474
4226430,0.03500,144.4375,160,74,0.28107
4226440,0.02000,143.0625,160,74,0.27717
4226450,-0.01000,141.5000,160,74,0.27350
4226460,-0.03500,137.3125,160,74,0.26569
4226470,-0.04000,134.3750,160,74,0.26203
4226480,-0.03500,130.7500,160,74,0.26056
4226490,-0.03000,126.3125,160,74,0.26129
4226500,-0.01500,116.3125,160,74,0.27253
4226510,-0.00500,111.6875,160,74,0.28791
4226520,0.01000,107.8750,160,74,0.31160
4226530,0.03000,104.8750,160,74,0.34359
4226540,0.04000,101.1875,160,74,0.42540
4226550,0.04000,100.1250,160,74,0.46960
4226560,0.04000,99.3750,160,74,0.51160
4226570,0.03000,98.8125,160,74,0.54945
4226580,0.04000,98.0000,160,74,0.60147
4226590,0.05500,97.5625,160,74,0.62222
4226600,0.07000,97.0625,160,74,0.64005
4226610,0.09500,96.5625,160,74,0.65470
4226620,0.12000,95.2500,160,74,0.67692
4226630,0.12500,94.5625,160,74,0.68547
4226640,0.12000,93.7500,160,74,0.69255
4226650,0.09000,92.9375,160,74,0.69841
4226660,0.03000,91.1875,160,74,0.70720
4226670,-0.04000,90.3750,160,74,0.71038
4226680,-0.09500,89.5000,160,74,0.71184
4226690,-0.12500,88.6875,160,74,0.71209
4226700,-0.14000,87.0625,160,74,0.71136
4226710,-0.14500,86.3125,160,74,0.70940
4226720,-0.14500,85.6875,160,74,0.70549
4226730,-0.14500,85.0625,160,74,0.69963
4226740,-0.14000,84.0000,160,74,0.68132
4226750,-0.13000,83.5000,160,74,0.66911
4226760,-0.12500,83.0625,160,74,0.65568
4226770,-0.11500,82.6250,160,74,0.64151
4226780,0.09500,81.5625,160,74,0.61636
4226790,0.62000,81.0625,160,74,0.60342
4226800,1.05000,80.4375,160,74,0.59048
4226810,0.74000,79.8125,160,74,0.57802
4226820,0.05000,78.5625,160,74,0.55531
4226830,-0.35000,77.8750,160,74,0.54505
4226840,-0.43000,77.2500,160,74,0.53529
4226850,-0.33000,76.6250,160,74,0.52601
4226860,-0.24500,75.5000,160,74,0.50867
4226870,-0.22000,74.9375,160,74,0.50037
4226880,-0.20500,74.4375,160,74,0.49304
4226890,-0.19500,73.8750,160,74,0.48645
4226900,-0.19000,72.8750,160,74,0.47155
4226910,-0.19000,72.4375,160,74,0.46374
4226920,-0.18000,72.1875,160,74,0.45592
4226930,-0.17000,72.2500,160,74,0.44811
4226940,-0.16000,75.2500,160,74,0.43272
4226950,-0.15500,79.5625,160,74,0.42540
4226960,-0.14500,86.4375,160,74,0.41807
4226970,-0.13000,95.4375,160,74,0.41074
4226980,-0.11500,116.7500,160,74,0.39976
4226990,-0.09000,127.3125,160,74,0.39365
4227000,-0.06500,136.8750,160,74,0.38730
4227010,-0.04000,145.0000,160,74,0.38071
4227020,-0.02000,155.9375,160,74,0.36825
4227030,-0.00500,158.8750,160,74,0.36215
4227040,0.01000,160.4375,160,74,0.35629
4227050,0.02000,160.8750,160,74,0.35043
4227060,0.02500,159.7500,160,74,0.33919
4227070,0.02000,158.5625,160,74,0.33382
4227080,0.02000,157.1875,160,74,0.32991
4227090,0.01500,155.7500,160,74,0.32674
4227100,0.01000,152.6250,160,74,0.31819
4227110,0.01000,151.0625,160,74,0.31355
4227120,0.02500,149.6250,160,74,0.30891
4227130,0.03000,148.2500,160,74,0.30427
4227140,0.02500,145.6250,160,74,0.29548
4227150,0.01000,144.3125,160,74,0.29133
4227160,-0.01500,142.9375,160,74,0.28718
4227170,-0.03500,141.3750,160,74,0.28327
4227180,-0.04500,137.1250,160,74,0.27839
4227190,-0.04500,134.1250,160,74,0.27570
4227200,-0.04000,130.3125,160,74,0.27399
4227210,-0.03000,125.6875,160,74,0.27473
4227220,-0.02000,115.1250,160,74,0.29182
4227230,-0.01000,110.2500,160,74,0.31184
4227240,0.00000,106.3125,160,74,0.34042
4227250,0.01000,103.3750,160,74,0.37656
4227260,0.01500,99.9375,160,74,0.46252
4227270,0.01000,99.0000,160,74,0.50598
4227280,0.00500,98.4375,160,74,0.54212
4227290,0.00000,98.0000,160,74,0.57192
4227300,0.01500,97.3750,160,74,0.62540
4227310,0.04500,97.0000,160,74,0.64640
4227320,0.08000,96.6250,160,74,0.66349
4227330,0.11000,96.0625,160,74,0.67741
4227340,0.12500,94.7500,160,74,0.69841
4227350,0.12000,94.0000,160,74,0.70623
4227360,0.11000,93.1875,160,74,0.71306
4227370,0.06000,92.4375,160,74,0.71868
4227380,-0.01500,90.8125,160,74,0.72430
4227390,-0.08000,90.0000,160,74,0.72698
4227400,-0.12000,89.1875,160,74,0.72943
4227410,-0.14500,88.3750,160,74,0.73114
4227420,-0.15500,86.8750,160,74,0.73114
4227430,-0.15500,86.0313,160,74,0.72886
4227440,-0.15500,85.5000,160,74,0.72430
4227450,-0.15000,84.9375,160,74,0.71746
4227460,-0.14500,83.8125,160,74,0.69695
4227470,-0.14000,83.2500,160,74,0.68352
4227480,-0.15000,82.7500,160,74,0.67033
4227490,-0.07500,81.7500,160,74,0.65690
4227500,0.26500,81.1875,160,74,0.62735
4227510,0.85000,80.5625,160,74,0.61270
4227520,1.02000,79.9375,160,74,0.59878
4227530,0.44500,79.3125,160,74,0.58584
4227540,-0.18000,78.0000,160,74,0.56288
4227550,-0.43500,77.3750,160,74,0.55263
4227560,-0.40500,76.7500,160,74,0.54286
4227570,-0.29500,76.1875,160,74,0.53358
4227580,-0.24000,75.0625,160,74,0.51868
4227590,-0.22000,74.5625,160,74,0.51087
4227600,-0.20500,74.0625,160,74,0.50305
4227610,-0.19500,73.5625,160,74,0.49524
4227620,-0.19000,72.6250,160,74,0.47912
4227630,-0.19000,72.3750,160,74,0.47106
4227640,-0.18000,72.3125,160,74,0.46300
4227650,-0.17000,72.8125,160,74,0.45495
4227660,-0.16000,77.5000,160,74,0.43907
4227670,-0.14500,83.1875,160,74,0.43150
4227680,-0.13000,91.3750,160,74,0.42515
4227690,-0.11500,112.0625,160,74,0.41954
4227700,-0.09000,122.7500,160,74,0.40610
4227710,-0.07000,132.7500,160,74,0.39927
4227720,-0.05000,141.4375,160,74,0.39243
4227730,-0.03000,148.5000,160,74,0.38559
4227740,-0.00500,157.5625,160,74,0.37265
4227750,0.01000,159.7500,160,74,0.36654
4227760,0.02000,160.7500,160,74,0.36044
4227770,0.03000,160.8750,160,74,0.35458
4227780,0.03000,159.5000,160,74,0.34603
4227790,0.03500,158.3750,160,74,0.34139
4227800,0.03000,157.0625,160,74,0.33626
4227810,0.03000,155.6875,160,74,0.33114
4227820,0.03000,153.0000,160,74,0.32112
4227830,0.03000,151.6875,160,74,0.31624
4227840,0.03000,150.5000,160,74,0.31160
4227850,0.03500,149.3125,160,74,0.30720
4227860,0.02500,146.9375,160,74,0.29841
4227870,0.00000,145.6875,160,74,0.29402
4227880,-0.03500,144.2500,160,74,0.29109
4227890,-0.05000,142.5625,160,74,0.28889
4227900,-0.06500,137.8125,160,74,0.28181
4227910,-0.06500,134.4375,160,74,0.27888
4227920,-0.06000,130.3125,160,74,0.27790
4227930,-0.04500,125.5625,160,74,0.28083
4227940,-0.03000,115.5625,160,74,0.30574
4227950,-0.01500,111.2500,160,74,0.33065
4227960,-0.00500,107.7500,160,74,0.36386
4227970,0.00000,105.1250,160,74,0.40366
4227980,0.00500,101.7500,160,74,0.47839
4227990,0.00000,100.7500,160,74,0.51819
4228000,0.00000,100.0625,161,74,0.55678
4228010,0.00500,99.4375,161,74,0.59145
4228020,0.02500,98.3750,161,74,0.64493
4228030,0.05000,97.8125,161,74,0.66471
4228040,0.08000,97.2500,161,74,0.68059
4228050,0.11000,96.6250,161,74,0.69377
4228060,0.12000,95.1875,161,74,0.71453
4228070,0.11500,94.3750,161,74,0.72259
4228080,0.09000,93.6250,161,74,0.72796
4228090,0.02500,92.8125,161,74,0.73187
4228100,-0.04000,91.1250,161,74,0.73993
4228110,-0.09500,90.2500,161,74,0.74335
4228120,-0.13000,89.4375,161,74,0.74603
4228130,-0.14500,88.5625,161,74,0.74774
4228140,-0.15500,87.0000,161,74,0.74725
4228150,-0.15500,86.3125,161,74,0.74457
4228160,-0.16000,85.6250,161,74,0.73968
4228170,-0.16000,85.0000,161,74,0.73236
4228180,-0.16000,83.9375,161,74,0.71355
4228190,-0.16500,83.4375,161,74,0.70134
4228200,-0.17000,82.9375,161,74,0.68767
4228210,-0.01500,82.3750,161,74,0.67326
4228220,0.46000,81.2500,161,74,0.64322
4228230,0.94000,80.6250,161,74,0.62882
4228240,0.75500,79.9375,161,74,0.61514
4228250,0.03500,79.1875,161,74,0.60220
4228260,-0.45000,77.8750,161,74,0.57851
4228270,-0.57000,77.1875,161,74,0.56777
4228280,-0.49500,76.5625,161,74,0.55873
4228290,-0.42000,75.8750,161,74,0.55043
4228300,-0.40500,74.5625,161,74,0.53260
4228310,-0.40500,73.9375,161,74,0.52357
4228320,-0.38500,73.2500,161,74,0.51453
4228330,-0.36500,72.6250,161,74,0.50549
4228340,-0.34500,71.5625,161,74,0.48791
4228350,-0.33500,71.2500,161,74,0.47912
4228360,-0.31500,71.2500,161,74,0.47033
4228370,-0.29000,72.0000,161,74,0.46178
4228380,-0.25500,78.5000,161,74,0.44835
4228390,-0.23000,85.5000,161,74,0.44103
4228400,-0.21000,94.7500,161,74,0.43346
4228410,-0.18500,105.3750,161,74,0.42589
4228420,-0.16000,126.8125,161,74,0.41074
4228430,-0.13000,136.1250,161,74,0.40342
4228440,-0.09000,143.9375,161,74,0.39609
4228450,-0.05000,150.0625,161,74,0.38755
4228460,-0.00666,155.5625,161,74,0.37546
4228470,0.03000,159.2500,161,74,0.36459
4228480,0.05000,159.9375,161,74,0.35971
4228490,0.07000,159.9375,161,74,0.35409
4228500,0.07500,158.5000,161,74,0.34188
4228510,0.08000,157.3125,161,74,0.33578
4228520,0.08000,156.0625,161,74,0.32991
4228530,0.08000,154.6875,161,74,0.32405
4228540,0.08500,152.0000,161,74,0.31258
4228550,0.09000,150.6875,161,74,0.30696
4228560,0.10000,149.4375,161,74,0.30159
4228570,0.09000,148.2500,161,74,0.29646
4228580,0.08000,145.8750,161,74,0.29035
4228590,0.05000,144.5000,161,74,0.28645
4228600,0.02500,142.9375,161,74,0.28205
4228610,0.01000,141.1250,161,74,0.27717
4228620,0.00000,136.1250,161,74,0.26740
4228630,0.00500,132.6250,161,74,0.26422
4228640,0.01000,128.3750,161,74,0.26374
4228650,0.02500,123.5000,161,74,0.26813
4228660,0.04000,113.1875,161,74,0.29841
4228670,0.06000,108.6875,161,74,0.32186
4228680,0.07000,105.0625,161,74,0.35043
4228690,0.08000,102.3750,161,74,0.38779
4228700,0.08000,99.0625,161,74,0.47497
4228710,0.08000,98.1250,161,74,0.51819
4228720,0.08000,97.4375,161,74,0.55775
4228730,0.08500,96.9375,161,74,0.59194
4228740,0.10500,96.0625,161,74,0.64371
4228750,0.12500,95.5625,161,74,0.66252
4228760,0.15500,95.0625,161,74,0.67790
4228770,0.17500,94.4375,161,74,0.69035
4228780,0.18500,93.0625,161,74,0.70574
4228790,0.16500,92.3750,161,74,0.71258
4228800,0.11000,91.6250,161,74,0.71893
4228810,0.03000,90.8750,161,74,0.72454
4228820,-0.03500,89.2500,161,74,0.73407
4228830,-0.07000,88.4375,161,74,0.73773
4228840,-0.09000,87.6250,161,74,0.74042
4228850,-0.10000,86.8125,161,74,0.74212
4228860,-0.10500,85.3750,161,74,0.74090
4228870,-0.11000,84.6875,161,74,0.73748
4228880,-0.11500,84.0625,161,74,0.73211
4228890,-0.10500,83.5000,161,74,0.72479
4228900,-0.09500,82.4375,161,74,0.70354
4228910,-0.10500,81.9375,161,74,0.69011
4228920,-0.05500,81.4375,161,74,0.67521
4228930,0.42000,80.5000,161,74,0.64396
4228940,0.95000,80.0625,161,74,0.62833
4228950,1.13500,79.5000,161,74,0.61319
4228960,0.53000,78.9375,161,74,0.59878
4228970,-0.04917,78.3229,161,74,0.58539
4228980,-0.43000,77.6875,161,74,0.57338
4228990,-0.44000,77.0625,161,74,0.56313
4229000,-0.31000,76.5000,161,74,0.55263
4229010,-0.22000,75.9375,161,74,0.54237
4229020,-0.20000,74.8750,161,74,0.52259
4229030,-0.18500,74.3750,161,74,0.51306
4229040,-0.17500,73.8125,161,74,0.50379
4229050,-0.16500,73.3125,161,74,0.49475
4229060,-0.15500,72.3750,161,74,0.47692
4229070,-0.14500,72.1250,161,74,0.46813
4229080,-0.13500,72.0625,161,74,0.46056
4229090,-0.12500,72.5625,161,74,0.45372
4229100,-0.11500,78.0000,161,74,0.43785
4229110,-0.11000,84.4375,161,74,0.42955
4229120,-0.10500,93.3125,161,74,0.42125
4229130,-0.09500,103.9375,161,74,0.41294
4229140,-0.07500,125.8125,161,74,0.39707
4229150,-0.05500,135.3750,161,74,0.38950
4229160,-0.03500,143.4375,161,74,0.38217
4229170,-0.01000,149.8125,161,74,0.37509
4229180,0.02000,157.8750,161,74,0.36264
4229190,0.05000,159.9375,161,74,0.35800
4229200,0.06500,161.0000,161,74,0.35214
4229210,0.07000,161.2500,161,74,0.34603
4229220,0.07000,160.3125,161,74,0.33358
4229230,0.07000,159.3750,161,74,0.32747
4229240,0.06000,158.3125,161,74,0.32137
4229250,0.06000,157.1875,161,74,0.31551
4229260,0.05500,154.9375,161,74,0.30403
4229270,0.06000,153.8125,161,74,0.29866
4229280,0.06500,152.7500,161,74,0.29475
4229290,0.06500,151.6250,161,74,0.29182
4229300,0.05000,149.4375,161,74,0.28352
4229310,0.02500,148.3125,161,74,0.27888
4229320,0.00000,147.0000,161,74,0.27424
4229330,-0.01500,145.4375,161,74,0.26960
4229340,-0.02000,141.0625,161,74,0.26056
4229350,-0.01500,138.0000,161,74,0.25739
4229360,0.00000,134.2500,161,74,0.25665
4229370,0.01000,129.6875,161,74,0.26056
4229380,0.02000,119.2500,161,74,0.28645
4229390,0.03500,114.1875,161,74,0.30818
4229400,0.05000,109.8125,161,74,0.33968
4229410,0.05500,106.4375,161,74,0.37949
4229420,0.05000,102.2500,161,74,0.47131
4229430,0.05000,101.1250,161,74,0.51697
4229440,0.05000,100.4375,161,74,0.55873
4229450,0.07000,99.9375,161,74,0.59512
4229460,0.09000,99.2500,161,74,0.65079
4229470,0.11500,98.8125,161,74,0.67131
4229480,0.14000,98.2500,161,74,0.68571
4229490,0.15500,97.6250,161,74,0.69670
4229500,0.15000,96.1875,161,74,0.71770
4229510,0.12000,95.3750,161,74,0.72723
4229520,0.06000,94.5000,161,74,0.73578
4229530,-0.00500,93.6250,161,74,0.74359
4229540,-0.05500,91.9375,161,74,0.75629
4229550,-0.08500,91.0625,161,74,0.76142
4229560,-0.10500,90.1875,161,74,0.76581
4229570,-0.10500,89.3750,161,74,0.76899
4229580,-0.11000,87.7500,161,74,0.77045
4229590,-0.10500,87.0625,161,74,0.76825
4229600,-0.10500,86.3750,161,74,0.76484
4229610,-0.10000,85.7500,161,74,0.75971
4229620,-0.11000,84.6875,161,74,0.74261
4229630,-0.11500,84.1875,161,74,0.73065
4229640,0.10500,83.6875,161,74,0.71673
4229650,0.66500,83.1875,161,74,0.70159
4229660,1.15000,82.0625,161,74,0.66935
4229670,0.86500,81.5000,161,74,0.65324
4229680,0.05000,80.8750,161,74,0.63907
4229690,-0.44500,80.2500,161,74,0.62637
4229700,-0.48500,78.8750,161,74,0.60049
4229710,-0.35000,78.2500,161,74,0.58828
4229720,-0.25000,77.6250,161,74,0.57680
4229730,-0.23000,77.0625,161,74,0.56581
4229740,-0.21000,75.9375,161,74,0.54530
4229750,-0.19000,75.4375,161,74,0.53553
4229760,-0.18000,74.8750,161,74,0.52601
4229770,-0.17500,74.3750,161,74,0.51648
4229780,-0.18000,73.5625,161,74,0.49915
4229790,-0.18000,73.5000,161,74,0.49158
4229800,-0.17000,74.1250,161,74,0.48327
4229810,-0.16000,76.1250,161,74,0.47473
4229820,-0.15500,87.5625,161,74,0.45739
4229830,-0.14500,97.1875,161,74,0.44884
4229840,-0.13500,108.2500,161,74,0.44029
4229850,-0.11500,119.8125,161,74,0.43199
4229860,-0.08500,140.5625,161,74,0.41563
4229870,-0.06000,148.6250,161,74,0.40781
4229880,-0.03500,154.8125,161,74,0.40147
4229890,-0.00500,159.3125,161,74,0.39585
4229900,0.01000,163.8125,161,74,0.38266
4229910,0.02500,164.5000,161,74,0.37582
4229920,0.03500,164.5000,161,74,0.36899
4229930,0.04000,164.0625,161,74,0.36215
4229940,0.03500,162.5000,161,74,0.34921
4229950,0.02500,161.5000,161,74,0.34286
4229960,0.01500,160.5625,161,74,0.33700
4229970,0.00500,158.6250,161,74,0.32552
4229980,0.00500,157.6875,161,74,0.32137
4229990,0.00500,156.7500,161,74,0.31819
4230000,0.00500,155.8125,161,74,0.31380
4230010,-0.01000,154.8125,161,74,0.30916
4230020,-0.03500,152.4375,161,74,0.29963
4230030,-0.06500,151.0000,161,74,0.29475
4230040,-0.10500,149.3750,161,74,0.28962
4230050,-0.12000,147.3125,161,74,0.28425
4230060,-0.12000,141.6875,161,74,0.27668
4230070,-0.10500,137.8750,161,74,0.27741
4230080,-0.09000,133.3125,161,74,0.28205
4230090,-0.07500,128.0625,161,74,0.29231
4230100,-0.06500,117.3750,161,74,0.33895
4230110,-0.05500,112.8125,161,74,0.37582
4230120,-0.05500,109.1250,161,74,0.41954
4230130,-0.05000,106.3750,161,74,0.46691
4230140,-0.05000,102.9375,161,74,0.55995
4230150,-0.05000,102.0000,161,74,0.60024
4230160,-0.03500,101.3125,161,74,0.63492
4230170,-0.01000,100.8750,161,74,0.66374
4230180,0.00500,100.0000,161,74,0.70452
4230190,0.02000,99.5625,161,74,0.71746
4230200,0.05000,99.0625,161,74,0.73016
4230210,0.06000,98.4375,161,74,0.74212
4230220,0.04000,97.0000,161,74,0.76313
4230230,-0.00500,96.2500,161,74,0.77216
4230240,-0.06500,95.4375,161,74,0.78046
4230250,-0.12500,94.6250,161,74,0.78779
4230260,-0.16000,92.9375,161,74,0.80000
4230270,-0.18000,92.0625,161,74,0.80464
4230280,-0.19000,91.1875,161,74,0.80684
4230290,-0.19000,90.3750,161,74,0.80733
4230300,-0.18500,88.8125,161,74,0.80659
4230310,-0.18000,88.1250,161,74,0.80391
4230320,-0.17000,87.4375,161,74,0.79878
4230330,-0.15500,86.8750,161,74,0.79121
4230340,-0.16000,85.6875,161,74,0.76874
4230350,-0.07500,85.1875,161,74,0.75433
4230360,0.32000,84.6250,161,74,0.73846
4230370,0.96000,84.0625,161,74,0.72186
4230380,1.07000,82.9375,161,74,0.69133
4230390,0.40000,82.3125,161,74,0.67595
4230400,-0.28500,81.6875,161,74,0.66081
4230410,-0.51000,81.0000,161,74,0.64640
4230420,-0.41000,79.6250,161,74,0.61954
4230430,-0.28000,78.8750,161,74,0.60733
4230440,-0.24500,78.1875,161,74,0.59560
4230450,-0.23000,77.5000,161,74,0.58437
4230460,-0.20500,76.2500,161,74,0.56313
4230470,-0.18000,75.6875,161,74,0.55263
4230480,-0.17000,75.1250,161,74,0.54359
4230490,-0.17000,74.5625,161,74,0.53529
4230500,-0.17000,73.9375,161,74,0.50916
4230510,-0.16083,74.1042,161,74,0.48909
4230520,-0.14500,75.6250,161,74,0.47375
4230530,-0.12500,79.0625,161,74,0.46178
4230540,-0.11000,93.9375,161,74,0.44176
4230550,-0.09500,104.6250,161,74,0.43272
4230560,-0.07000,116.1875,161,74,0.42393
4230570,-0.04500,127.5000,161,74,0.41563
4230580,-0.02000,146.3125,161,74,0.40244
4230590,0.01000,153.1250,161,74,0.39536
4230600,0.03500,158.1250,161,74,0.38803
4230610,0.06500,161.4375,161,74,0.38071
4230620,0.08500,164.3750,161,74,0.36630
4230630,0.09500,164.5625,161,74,0.35922
4230640,0.09500,164.1875,161,74,0.35238
4230650,0.09000,163.5000,161,74,0.34554
4230660,0.08000,161.5625,161,74,0.33260
4230670,0.07500,160.5625,161,74,0.32625
4230680,0.07000,159.5000,161,74,0.32161
4230690,0.07000,158.5000,161,74,0.31770
4230700,0.07000,156.5625,161,74,0.30769
4230710,0.06000,155.6250,161,74,0.30256
4230720,0.04500,154.6250,161,74,0.29744
4230730,0.02000,153.5625,161,74,0.29255
4230740,-0.00500,151.1250,161,74,0.28278
4230750,-0.02500,149.6250,161,74,0.27790
4230760,-0.05000,147.7500,161,74,0.27277
4230770,-0.06500,145.4375,161,74,0.26813
4230780,-0.07500,138.8125,161,74,0.26496
4230790,-0.07000,134.3125,161,74,0.26691
4230800,-0.06500,129.0625,161,74,0.27375
4230810,-0.06000,123.5000,161,74,0.28767
4230820,-0.05500,113.1875,161,74,0.33919
4230830,-0.04500,109.2500,161,74,0.37558
4230840,-0.03000,106.2500,161,74,0.41612
4230850,-0.02500,104.1250,161,74,0.45763
4230860,-0.02000,101.9375,161,74,0.53431
4230870,0.00000,101.4375,161,74,0.56606
4230880,0.03000,101.1250,161,74,0.58974
4230890,0.06000,100.9375,161,74,0.60781
4230900,0.08000,100.3750,161,74,0.63980
4230910,0.11500,100.0000,161,74,0.65299
4230920,0.11000,99.4375,161,74,0.66471
4230930,0.08000,98.8125,161,74,0.67497
4230940,0.02000,97.3125,161,74,0.69280
4230950,-0.03500,96.5000,161,74,0.70037
4230960,-0.08500,95.6875,161,74,0.70720
4230970,-0.11500,94.8125,161,74,0.71306
4230980,-0.13500,93.2500,161,74,0.71893
4230990,-0.14000,92.5000,161,74,0.72161
4231000,-0.15000,91.8125,161,74,0.72405
4231010,-0.15000,91.1250,161,74,0.72552
4231020,-0.14500,89.8125,161,74,0.72381
4231030,-0.14000,89.3125,161,74,0.71966
4231040,-0.13500,88.7500,161,74,0.71331
4231050,-0.13500,88.1875,161,74,0.70452
4231060,-0.05500,86.8750,161,74,0.68059
4231070,0.29500,86.1875,161,74,0.66642
4231080,0.88000,85.5000,161,74,0.65275
4231090,1.01000,84.7500,161,74,0.63907
4231100,0.40000,83.2500,161,74,0.61001
4231110,-0.22000,82.5000,161,74,0.59585
4231120,-0.45000,81.7500,161,74,0.58217
4231130,-0.39500,81.0000,161,74,0.56947
4231140,-0.27500,79.6875,161,74,0.54628
4231150,-0.21500,79.0625,161,74,0.53553
4231160,-0.20000,78.5000,161,74,0.52527
4231170,-0.19000,77.9375,161,74,0.51551
4231180,-0.18000,76.8750,161,74,0.49939
4231190,-0.17000,76.4375,161,74,0.49109
4231200,-0.17000,76.0000,161,74,0.48254
4231210,-0.15500,75.7500,161,74,0.47375
4231220,-0.14500,76.1875,161,74,0.45568
4231230,-0.13500,77.8125,161,74,0.44664
4231240,-0.12500,81.2500,161,74,0.43736
4231250,-0.11500,87.2500,161,74,0.42833
4231260,-0.11000,105.9375,161,74,0.41074
4231270,-0.09500,116.8750,161,74,0.40220
4231280,-0.07500,127.5000,161,74,0.39512
4231290,-0.05500,137.1250,161,74,0.38877
4231300,-0.03500,151.6250,161,74,0.37436
4231310,-0.01000,156.1875,161,74,0.36703
4231320,0.01000,159.1250,161,74,0.35971
4231330,0.03000,160.7500,161,74,0.35238
4231340,0.04000,161.3125,161,74,0.33822
4231350,0.05500,160.9375,161,74,0.33138
4231360,0.06000,160.2500,161,74,0.32479
4231370,0.05000,159.4375,161,74,0.31819
4231380,0.05000,157.3750,161,74,0.30916
4231390,0.05500,156.3125,161,74,0.30403
4231400,0.05500,155.1250,161,74,0.29841
4231410,0.06000,154.0000,161,74,0.29280
4231420,0.05500,151.6875,161,74,0.28156
4231430,0.04000,150.5000,161,74,0.27643
4231440,0.01500,149.2500,161,74,0.27131
4231450,-0.01500,147.9375,161,74,0.26642
4231460,-0.04000,144.5000,161,74,0.25665
4231470,-0.05500,142.1875,161,74,0.25177
4231480,-0.05500,139.3125,161,74,0.24860
4231490,-0.05000,135.6250,161,74,0.24664
4231500,-0.04000,126.1250,161,74,0.24664
4231510,-0.02500,120.8125,161,74,0.25299
4231520,-0.01000,115.8125,161,74,0.26593
4231530,0.01000,111.5625,161,74,0.28669
4231540,0.01500,105.8125,161,74,0.34921
4231550,0.03000,104.1250,161,74,0.38755
4231560,0.03000,103.0000,161,74,0.42662
4231570,0.03000,102.1250,161,74,0.46422
4231580,0.05000,101.0000,161,74,0.51990
4231590,0.08000,100.5000,161,74,0.54335
4231600,0.09500,99.9375,161,74,0.56410
4231610,0.11500,99.3125,161,74,0.58144
4231620,0.14000,97.8750,161,74,0.60806
4231630,0.13000,97.0625,161,74,0.61856
4231640,0.09000,96.2500,161,74,0.62759
4231650,0.03000,95.4375,161,74,0.63541
4231660,-0.03000,93.7500,161,74,0.64835
4231670,-0.07500,92.8750,161,74,0.65372
4231680,-0.10000,92.0625,161,74,0.65690
4231690,-0.11000,91.1875,161,74,0.65885
4231700,-0.11500,89.6250,161,74,0.66325
4231710,-0.12500,88.9375,161,74,0.66422
4231720,-0.13000,88.2500,161,74,0.66398
4231730,-0.12500,87.5625,161,74,0.66203
4231740,-0.12500,86.4375,161,74,0.65226
4231750,-0.11500,85.9375,161,74,0.64396
4231760,-0.11500,85.4375,161,74,0.63370
4231770,0.03000,84.9375,161,74,0.62198
4231780,0.48500,83.7500,161,74,0.59805
4231790,1.00000,83.1250,161,74,0.58510
4231800,0.86500,82.4375,161,74,0.57167
4231810,0.19500,81.7500,161,74,0.55849
4231820,-0.30000,80.3750,161,74,0.53333
4231830,-0.44500,79.6875,161,74,0.52186
4231840,-0.36000,79.0625,161,74,0.51111
4231850,-0.25500,78.4375,161,74,0.50110
4231860,-0.22000,77.3125,161,74,0.48278
4231870,-0.20500,76.7500,161,74,0.47424
4231880,-0.18000,76.2500,161,74,0.46691
4231890,-0.16500,75.1250,161,74,0.46007
4231900,-0.16000,74.6250,161,74,0.44493
4231910,-0.15500,74.1875,161,74,0.43687
4231920,-0.15000,73.9375,161,74,0.42882
4231930,-0.14000,74.0625,161,74,0.42076
4231940,-0.13000,77.4375,161,74,0.40464
4231950,-0.12500,82.2500,161,74,0.39658
4231960,-0.11500,89.6875,161,74,0.38877
4231970,-0.09500,99.1875,161,74,0.38095
4231980,-0.08500,120.5625,161,74,0.36923
4231990,-0.06500,130.6250,161,74,0.36288
4232000,-0.04500,139.4375,161,74,0.35629
4232010,-0.03000,146.5000,161,74,0.34969
4232020,-0.01500,155.1875,161,74,0.33651
4232030,0.00000,157.3750,161,74,0.33016
4232040,0.00500,158.5625,161,74,0.32405
4232050,0.00000,159.0000,161,74,0.31795
4232060,0.00000,158.5000,161,74,0.30623
4232070,-0.00500,157.8125,161,74,0.30183
4232080,-0.00500,156.9375,161,74,0.29817
4232090,-0.01000,155.9375,161,74,0.29353
4232100,-0.01500,153.7500,161,74,0.28352
4232110,-0.02500,152.5625,161,74,0.27839
4232120,-0.02500,151.3750,161,74,0.27350
4232130,-0.03500,150.1250,161,74,0.26911
4232140,-0.06500,147.5625,161,74,0.26032
4232150,-0.10500,146.1250,161,74,0.25617
4232160,-0.14500,144.5625,161,74,0.25177
4232170,-0.17000,142.7500,161,74,0.24762
4232180,-0.20000,137.6250,161,74,0.24274
4232190,-0.20500,134.0625,161,74,0.23980
4232200,-0.20000,129.7500,161,74,0.23736
4232210,-0.18000,124.6875,161,74,0.23736
4232220,-0.17000,114.2500,161,74,0.25177
4232230,-0.16000,109.8750,161,74,0.26911
4232240,-0.15000,106.4375,161,74,0.29426
4232250,-0.14500,103.8750,161,74,0.32601
4232260,-0.15000,100.7500,161,74,0.40220
4232270,-0.16000,99.8125,161,74,0.43663
4232280,-0.17000,99.1250,161,74,0.46667
4232290,-0.14500,98.5000,161,74,0.49670
4232300,-0.10000,97.3125,161,74,0.54750
4232310,-0.05500,96.6250,161,74,0.56679
4232320,-0.01000,95.9375,161,74,0.58266
4232330,0.04000,94.3125,161,74,0.59585
4232340,0.06500,93.5000,161,74,0.61563
4232350,0.04500,92.6875,161,74,0.62344
4232360,-0.00500,91.8750,161,74,0.63004
4232370,-0.04500,90.2500,161,74,0.63565
4232380,-0.07500,89.4375,161,74,0.64176
4232390,-0.08500,88.6250,161,74,0.64444
4232400,-0.09000,87.8750,161,74,0.64689
4232410,-0.08500,87.1250,161,74,0.64860
4232420,-0.08500,85.6250,161,74,0.64884
4232430,-0.07500,84.9375,161,74,0.64664
4232440,-0.06500,84.3125,161,74,0.64274
4232450,-0.05500,83.6875,161,74,0.63687
4232460,-0.04500,82.6250,161,74,0.61856
4232470,-0.05000,82.1250,161,74,0.60806
4232480,0.07000,81.6250,161,74,0.59707
4232490,0.48500,81.0625,161,74,0.58437
4232500,1.04500,79.9375,161,74,0.55702
4232510,1.05500,79.3125,161,74,0.54359
4232520,0.37000,78.6250,161,74,0.53065
4232530,-0.21000,77.9375,161,74,0.51844
4232540,-0.38500,76.6250,161,74,0.49621
4232550,-0.31500,76.0000,161,74,0.49084
4232560,-0.21667,75.4583,161,74,0.48799
4232570,-0.13500,74.7500,161,74,0.48278
4232580,-0.11500,73.6250,161,74,0.47033
4232590,-0.08500,73.1250,161,74,0.46276
4232600,-0.06500,72.5625,161,74,0.45470
4232610,-0.05500,72.0625,161,74,0.44640
4232620,-0.04500,71.1875,161,74,0.43004
4232630,-0.04000,71.0000,161,74,0.42198
4232640,-0.03000,71.1875,161,74,0.41392
4232650,-0.02000,72.2500,161,74,0.40610
4232660,-0.01500,80.0000,161,74,0.39072
4232670,-0.00500,87.5625,161,74,0.38462
4232680,0.00000,97.1875,161,74,0.37924
4232690,0.02000,107.8750,161,74,0.37289
4232700,0.04000,128.7500,161,74,0.35946
4232710,0.06000,137.5000,161,74,0.35287
4232720,0.08000,144.5000,161,74,0.34628
4232730,0.10000,149.7500,161,74,0.33993
4232740,0.11500,155.7500,161,74,0.32747
4232750,0.13000,157.1250,161,74,0.32161
4232760,0.13500,157.7500,161,74,0.31575
4232770,0.14000,157.8750,161,74,0.30989
4232780,0.14000,157.1250,161,74,0.30232
4232790,0.13500,156.5000,161,74,0.29817
4232800,0.12000,155.6250,161,74,0.29353
4232810,0.12000,154.6875,161,74,0.28864
4232820,0.12000,152.6250,161,74,0.27912
4232830,0.12000,151.5625,161,74,0.27448
4232840,0.11500,150.4375,161,74,0.26984
4232850,0.10000,149.3125,161,74,0.26545
4232860,0.07000,146.8750,161,74,0.25714
4232870,0.05000,145.3750,161,74,0.25446
4232880,0.03500,143.6250,161,74,0.25250
4232890,0.03000,141.5000,161,74,0.24933
4232900,0.03000,135.6875,161,74,0.24249
4232910,0.04000,131.7500,161,74,0.23980
4232920,0.05000,127.1250,161,74,0.23956
4232930,0.07000,122.0000,161,74,0.24347
4232940,0.09500,112.2500,161,74,0.27082
4232950,0.13000,108.3750,161,74,0.29597
4232960,0.15500,105.3750,161,74,0.32869
4232970,0.17500,103.1875,161,74,0.36679
4232980,0.17500,100.3125,161,74,0.43614
4232990,0.17500,99.4375,161,74,0.47228
4233000,0.18000,98.6875,160,74,0.50672
4233010,0.19500,98.0000,160,74,0.53748
4233020,0.21500,96.6875,160,74,0.58486
4233030,0.25000,96.0000,160,74,0.60220
4233040,0.28500,95.2500,160,74,0.61636
4233050,0.29000,94.5625,160,74,0.62808
4233060,0.27000,93.1875,160,74,0.64615
4233070,0.24000,92.5625,160,74,0.65177
4233080,0.22000,91.9375,160,74,0.65592
4233090,0.20500,90.6875,160,74,0.66056
4233100,0.18000,90.0625,160,74,0.66886
4233110,0.15500,89.4375,160,74,0.67204
4233120,0.12500,88.8125,160,74,0.67448
4233130,0.11000,88.2500,160,74,0.67595
4233140,0.08000,87.0000,160,74,0.67497
4233150,0.07000,86.4375,160,74,0.67204
4233160,0.07000,85.9375,160,74,0.66716
4233170,0.07000,85.4375,160,74,0.66032
4233180,0.04500,84.3125,160,74,0.64298
4233190,0.15500,83.7500,160,74,0.63175
4233200,0.60000,83.1250,160,74,0.61929
4233210,1.15500,82.4375,160,74,0.60611
4233220,1.06000,81.2500,160,74,0.57949
4233230,0.39000,80.6875,160,74,0.56654
4233240,-0.13500,80.1875,160,74,0.55433
4233250,-0.30500,79.6875,160,74,0.54286
4233260,-0.26000,78.8125,160,74,0.52186
4233270,-0.17000,78.3750,160,74,0.51331
4233280,-0.13500,78.0000,160,74,0.50574
4233290,-0.12000,77.6250,160,74,0.49768
4233300,-0.11000,76.8125,160,74,0.48181
4233310,-0.10000,76.4375,160,74,0.47399
4233320,-0.10500,76.0000,160,74,0.46642
4233330,-0.11500,75.6875,160,74,0.45861
4233340,-0.13500,75.6250,160,74,0.44371
4233350,-0.13500,76.4375,160,74,0.43639
4233360,-0.13500,78.5625,160,74,0.42930
4233370,-0.12500,82.7500,160,74,0.42247
4233380,-0.12000,98.5625,160,74,0.41148
4233390,-0.11000,109.0000,160,74,0.40562
4233400,-0.10000,119.7500,160,74,0.39951
4233410,-0.09000,129.9375,160,74,0.39316
4233420,-0.07500,146.6875,160,74,0.38071
4233430,-0.05500,152.6250,160,74,0.37460
4233440,-0.05500,157.0000,160,74,0.36874
4233450,-0.05500,159.9375,160,74,0.36288
4233460,-0.07000,162.8750,160,74,0.35189
4233470,-0.06500,163.3125,160,74,0.34774
4233480,-0.01500,163.3750,160,74,0.34432
4233490,0.02000,163.0625,160,74,0.34017
4233500,0.01500,161.9375,160,74,0.33089
4233510,0.01000,161.1250,160,74,0.32601
4233520,0.00500,160.3125,160,74,0.32137
4233530,0.01500,159.5000,160,74,0.31673
4233540,0.03000,157.6875,160,74,0.30818
4233550,0.02000,156.6250,160,74,0.30427
4233560,-0.00500,155.5000,160,74,0.30061
4233570,-0.03000,154.1875,160,74,0.29719
4233580,-0.05833,151.8438,160,74,0.29385
4233590,-0.08500,149.1250,160,74,0.29060
4233600,-0.10500,146.6875,160,74,0.28742
4233610,-0.10500,140.0625,160,74,0.28449
4233620,-0.09000,135.6875,160,74,0.28254
4233630,-0.08500,130.7500,160,74,0.28694
4233640,-0.07500,125.5625,160,74,0.29768
4233650,-0.05500,120.6875,160,74,0.31600
4233660,-0.03000,113.3125,160,74,0.37631
4233670,-0.02000,110.8750,160,74,0.41026
4233680,-0.01500,109.1250,160,74,0.44444
4233690,-0.01500,107.8750,160,74,0.48352
4233700,-0.00500,106.3125,160,74,0.55946
4233710,0.01000,105.7500,160,74,0.59170
4233720,0.04000,105.2500,160,74,0.61880
4233730,0.05500,104.6875,160,74,0.64151
4233740,0.08000,103.4375,160,74,0.67619
4233750,0.10000,102.7500,160,74,0.68962
4233760,0.08000,102.0000,160,74,0.70134
4233770,0.02000,101.1875,160,74,0.71184
4233780,-0.04500,99.5625,160,74,0.72454
4233790,-0.10500,98.7500,160,74,0.73065
4233800,-0.13500,97.8750,160,74,0.73675
4233810,-0.15000,97.0625,160,74,0.74237
4233820,-0.15500,95.3750,160,74,0.75165
4233830,-0.15500,94.6250,160,74,0.75482
4233840,-0.15500,93.9375,160,74,0.75678
4233850,-0.16000,93.2500,160,74,0.75726
4233860,-0.16000,92.0625,160,74,0.75214
4233870,-0.16500,91.4375,160,74,0.74652
4233880,-0.16500,90.8125,160,74,0.73919
4233890,-0.14500,90.1875,160,74,0.72991
4233900,0.08000,88.9375,160,74,0.70672
4233910,0.61500,88.2500,160,74,0.69353
4233920,1.01500,87.5625,160,74,0.68010
4233930,0.68500,86.8750,160,74,0.66667
4233940,0.02000,85.3750,160,74,0.64127
4233950,-0.35500,84.6875,160,74,0.62979
4233960,-0.44500,84.0000,160,74,0.61905
4233970,-0.34500,83.3750,160,74,0.60952
4233980,-0.25500,82.2500,160,74,0.59243
4233990,-0.22500,81.6875,160,74,0.58413
4234000,-0.21000,81.1250,161,74,0.57607
4234010,-0.20000,80.5625,161,74,0.56850
4234020,-0.19000,79.5000,161,74,0.55360
4234030,-0.18500,79.0000,161,74,0.54603
4234040,-0.18000,78.6875,161,74,0.53871
4234050,-0.18500,78.6250,161,74,0.53114
4234060,-0.17500,81.1250,161,74,0.51600
4234070,-0.15500,85.0625,161,74,0.50940
4234080,-0.14500,91.5000,161,74,0.50330
4234090,-0.12500,100.0625,161,74,0.49670
4234100,-0.10500,119.9375,161,74,0.48303
4234110,-0.09500,129.6250,161,74,0.47619
4234120,-0.07500,138.2500,161,74,0.46935
4234130,-0.05500,145.5000,161,74,0.46276
4234140,-0.04000,155.3125,161,74,0.45006
4234150,-0.02500,158.1875,161,74,0.44396
4234160,-0.00500,159.8750,161,74,0.43785
4234170,0.00000,160.7500,161,74,0.42857
4234180,0.00000,160.3125,161,74,0.42344
4234190,0.00000,159.5625,161,74,0.41807
4234200,0.00000,158.5000,161,74,0.41245
4234210,0.00500,157.3125,161,74,0.40684
4234220,0.00500,154.6875,161,74,0.39585
4234230,0.01000,153.3125,161,74,0.39048
4234240,0.01000,151.9375,161,74,0.38535
4234250,0.00500,150.5625,161,74,0.38022
4234260,-0.00500,147.8125,161,74,0.36996
4234270,-0.03500,146.2500,161,74,0.36606
4234280,-0.05500,144.5625,161,74,0.36288
4234290,-0.07500,142.5625,161,74,0.35897
4234300,-0.08500,137.2500,161,74,0.35018
4234310,-0.08500,133.6875,161,74,0.34603
4234320,-0.08500,129.4375,161,74,0.34310
4234330,-0.08500,124.6875,161,74,0.34261
4234340,-0.07000,115.2500,161,74,0.35580
4234350,-0.06000,111.3750,161,74,0.37216
4234360,-0.04500,108.3750,161,74,0.39560
4234370,-0.04500,106.1875,161,74,0.42051
4234380,-0.03500,103.3750,161,74,0.48034
4234390,-0.03000,102.5000,161,74,0.51502
4234400,-0.02500,101.8125,161,74,0.54896
4234410,-0.01000,101.1250,161,74,0.57973
4234420,0.02000,99.7500,161,74,0.62882
4234430,0.04500,99.0625,161,74,0.64713
4234440,0.07000,98.3125,161,74,0.66203
4234450,0.08000,97.5625,161,74,0.67424
4234460,0.07500,96.0625,161,74,0.69231
4234470,0.05000,95.2500,161,74,0.69768
4234480,-0.00500,94.4375,161,74,0.70134
4234490,-0.07500,93.6875,161,74,0.70549
4234500,-0.13000,91.9375,161,74,0.71282
4234510,-0.16000,91.1250,161,74,0.71551
4234520,-0.18000,90.2500,161,74,0.71770
4234530,-0.20000,89.4375,161,74,0.71868
4234540,-0.20000,87.9375,161,74,0.71746
4234550,-0.20500,87.2500,161,74,0.71477
4234560,-0.20000,86.5625,161,74,0.71013
4234570,-0.20000,86.0000,161,74,0.70403
4234580,-0.19000,84.7500,161,74,0.68669
4234590,-0.19500,84.1875,161,74,0.67546
4234600,-0.09500,83.5000,161,74,0.66203
4234610,0.40084,82.5313,161,74,0.64103
4234620,0.88000,81.5625,161,74,0.62027
4234630,0.93000,80.8750,161,74,0.60757
4234640,0.31500,80.1875,161,74,0.59536
4234650,-0.27500,79.5000,161,74,0.58388
4234660,-0.49500,78.1250,161,74,0.56264
4234670,-0.43500,77.5625,161,74,0.55360
4234680,-0.32000,77.0000,161,74,0.54554
4234690,-0.29000,76.4375,161,74,0.53700
4234700,-0.28000,75.3125,161,74,0.51990
4234710,-0.26000,74.8125,161,74,0.51136
4234720,-0.25000,74.3125,161,74,0.50305
4234730,-0.25000,73.8125,161,74,0.49499
4234740,-0.25000,73.0000,161,74,0.47961
4234750,-0.23500,72.8750,161,74,0.47204
4234760,-0.22000,73.2500,161,74,0.46447
4234770,-0.21000,74.6875,161,74,0.45812
4234780,-0.19500,84.1250,161,74,0.44567
4234790,-0.18000,92.5000,161,74,0.43858
4234800,-0.17000,102.4375,161,74,0.43126
4234810,-0.15500,113.0000,161,74,0.42393
4234820,-0.13500,132.6250,161,74,0.41001
4234830,-0.11000,140.6250,161,74,0.40342
4234840,-0.08500,147.0000,161,74,0.39707
4234850,-0.06500,151.7500,161,74,0.39096
4234860,-0.04500,157.1250,161,74,0.37900
4234870,-0.02500,158.1875,161,74,0.37460
4234880,-0.00500,158.4375,161,74,0.37070
4234890,-0.01000,157.5000,161,74,0.36581
4234900,-0.01500,156.5625,161,74,0.35556
4234910,-0.01500,155.5000,161,74,0.35043
4234920,-0.01500,154.3125,161,74,0.34530
4234930,-0.01500,153.0000,161,74,0.34017
4234940,-0.00500,150.4375,161,74,0.33016
4234950,0.00000,149.1875,161,74,0.32552
4234960,-0.00500,147.9375,161,74,0.32112
4234970,-0.02000,146.6875,161,74,0.31819
4234980,-0.04500,143.9375,161,74,0.31233
4234990,-0.07000,142.3125,161,74,0.30867
4235000,-0.08500,140.3750,161,74,0.30476
4235010,-0.10000,138.1250,161,74,0.30061
4235020,-0.10000,131.8750,161,74,0.29280
4235030,-0.09500,127.7500,161,74,0.29084
4235040,-0.08000,123.0625,161,74,0.29182
4235050,-0.06500,118.1250,161,74,0.29792
4235060,-0.05000,109.2500,161,74,0.32967
4235070,-0.03500,106.0000,161,74,0.35214
4235080,-0.02500,103.4375,161,74,0.37778
4235090,-0.02000,101.5625,161,74,0.41001
4235100,-0.02000,99.1875,161,74,0.48156
4235110,-0.01000,98.3750,161,74,0.51526
4235120,0.00500,97.7500,161,74,0.54505
4235130,0.02500,97.2500,161,74,0.57021
4235140,0.05000,96.1250,161,74,0.60781
4235150,0.08000,95.5000,161,74,0.62149
4235160,0.09500,94.8750,161,74,0.63272
4235170,0.08500,94.1875,161,74,0.64029
4235180,0.05000,92.8125,161,74,0.65153
4235190,-0.00500,92.0625,161,74,0.65641
4235200,-0.06500,91.3125,161,74,0.66081
4235210,-0.11500,90.5625,161,74,0.66447
4235220,-0.14000,88.9375,161,74,0.67009
4235230,-0.15500,88.1250,161,74,0.67179
4235240,-0.16000,87.3125,161,74,0.67277
4235250,-0.17000,86.5000,161,74,0.67277
4235260,-0.17000,85.0625,161,74,0.66911
4235270,-0.17000,84.4375,161,74,0.66496
4235280,-0.17000,83.8125,161,74,0.65934
4235290,-0.16500,83.3125,161,74,0.65226
4235300,-0.16000,82.2500,161,74,0.63272
4235310,-0.00500,81.7500,161,74,0.62100
4235320,0.44500,81.1250,161,74,0.60855
4235330,0.98500,80.5625,161,74,0.59585
4235340,0.91000,79.2500,161,74,0.57070
4235350,0.18000,78.5625,161,74,0.55849
4235360,-0.36500,77.8750,161,74,0.54701
4235370,-0.48000,77.2500,161,74,0.53724
4235380,-0.37500,76.0625,161,74,0.51917
4235390,-0.28500,75.5000,161,74,0.51013
4235400,-0.26500,74.9375,161,74,0.50134
4235410,-0.25000,73.9375,161,74,0.49280
4235420,-0.23500,73.4375,161,74,0.47619
4235430,-0.22000,72.9375,161,74,0.46813
4235440,-0.21000,72.4375,161,74,0.46032
4235450,-0.20500,72.0625,161,74,0.45275
4235460,-0.20000,71.9375,161,74,0.43785
4235470,-0.19000,72.9375,161,74,0.43199
4235480,-0.17000,75.6250,161,74,0.42662
4235490,-0.15500,80.8125,161,74,0.42051
4235500,-0.14500,98.5625,161,74,0.40757
4235510,-0.13000,109.6875,161,74,0.40098
4235520,-0.11500,120.8750,161,74,0.39438
4235530,-0.09500,131.3125,161,74,0.38779
4235540,-0.06500,147.5625,161,74,0.37485
4235550,-0.03500,152.9375,161,74,0.36874
4235560,-0.00500,156.5000,161,74,0.36288
4235570,0.01500,158.6875,161,74,0.35849
4235580,0.03000,160.0625,161,74,0.35018
4235590,0.04000,159.8750,161,74,0.34530
4235600,0.04000,159.3125,161,74,0.34017
4235610,0.03500,158.5625,161,74,0.33529
4235620,0.03000,156.6250,161,74,0.32552
4235630,0.02417,155.3542,161,74,0.31998
4235640,0.02000,154.3750,161,74,0.31624
4235650,0.02000,153.3125,161,74,0.31184
4235660,0.02500,151.0625,161,74,0.30330
4235670,0.02000,149.9375,161,74,0.30061
4235680,0.01000,148.7500,161,74,0.29866
4235690,-0.01000,147.4375,161,74,0.29597
4235700,-0.03000,144.3750,161,74,0.28938
4235710,-0.05500,142.5625,161,74,0.28571
4235720,-0.07000,140.2500,161,74,0.28181
4235730,-0.07500,137.4375,161,74,0.27839
4235740,-0.07000,129.6250,161,74,0.27643
4235750,-0.06000,124.7500,161,74,0.28083
4235760,-0.05500,119.5625,161,74,0.29158
4235770,-0.04500,114.5625,161,74,0.30623
4235780,-0.03500,106.6250,161,74,0.35458
4235790,-0.02500,103.8750,161,74,0.38950
4235800,-0.02500,101.8750,161,74,0.42808
4235810,-0.02000,100.4375,161,74,0.46740
4235820,0.00000,98.7500,161,74,0.53895
4235830,0.03000,98.3125,161,74,0.56801
4235840,0.05500,97.8750,161,74,0.59194
4235850,0.08000,97.4375,161,74,0.61148
4235860,0.10000,96.3750,161,74,0.63834
4235870,0.11000,95.7500,161,74,0.64664
4235880,0.10000,95.0000,161,74,0.65470
4235890,0.05500,94.2500,161,74,0.66203
4235900,-0.01000,92.6875,161,74,0.67473
4235910,-0.07500,91.8750,161,74,0.68010
4235920,-0.11500,91.0625,161,74,0.68474
4235930,-0.13500,90.2500,161,74,0.68864
4235940,-0.14500,88.5625,161,74,0.69426
4235950,-0.15500,87.8125,161,74,0.69573
4235960,-0.15500,87.0000,161,74,0.69621
4235970,-0.15500,86.3125,161,74,0.69499
4235980,-0.15000,84.9375,161,74,0.68816
4235990,-0.14500,84.3750,161,74,0.68278
4236000,-0.14500,83.8125,161,74,0.67570
4236010,-0.11500,83.2500,161,74,0.66667
4236020,0.16500,82.1875,161,74,0.64396
4236030,0.78500,81.6875,161,74,0.63126
4236040,1.12000,81.1250,161,74,0.61807
4236050,0.60000,80.5625,161,74,0.60464
4236060,-0.16000,79.3125,161,74,0.58046
4236070,-0.48000,78.6875,161,74,0.57021
4236080,-0.44000,78.0625,161,74,0.55971
4236090,-0.31000,77.4375,161,74,0.54969
4236100,-0.25500,76.2500,161,74,0.53065
4236110,-0.24000,75.6875,161,74,0.52186
4236120,-0.23000,75.1875,161,74,0.51331
4236130,-0.21000,74.6250,161,74,0.50525
4236140,-0.20000,73.5625,161,74,0.48938
4236150,-0.19000,73.1250,161,74,0.48181
4236160,-0.19000,72.7500,161,74,0.47424
4236170,-0.19000,72.7500,161,74,0.46764
4236180,-0.18000,75.8750,161,74,0.45519
4236190,-0.16500,80.6875,161,74,0.44811
4236200,-0.15000,88.2500,161,74,0.44103
4236210,-0.13500,98.1250,161,74,0.43394
4236220,-0.11500,120.8125,161,74,0.42002
4236230,-0.09000,131.5000,161,74,0.41343
4236240,-0.06500,140.7500,161,74,0.40684
4236250,-0.04000,148.2500,161,74,0.40049
4236260,-0.01000,157.5000,161,74,0.38950
4236270,0.02000,159.7500,161,74,0.38535
4236280,0.04000,160.8125,161,74,0.38022
4236290,0.05000,161.0625,161,74,0.37485
4236300,0.05500,160.0625,161,74,0.36410
4236310,0.05000,159.1250,161,74,0.35873
4236320,0.05000,158.0625,161,74,0.35360
4236330,0.05000,156.8750,161,74,0.34872
4236340,0.05000,154.5000,161,74,0.33919
4236350,0.05000,153.3750,161,74,0.33480
4236360,0.04500,152.2500,161,74,0.33040
4236370,0.04000,151.1250,161,74,0.32723
4236380,0.03000,148.7500,161,74,0.32186
4236390,0.01000,147.5000,161,74,0.31819
4236400,-0.01500,146.1250,161,74,0.31453
4236410,-0.04000,144.5000,161,74,0.31062
4236420,-0.05500,140.3125,161,74,0.30281
4236430,-0.06000,137.3750,161,74,0.29890
4236440,-0.05500,133.7500,161,74,0.29621
4236450,-0.05500,129.4375,161,74,0.29597
4236460,-0.04500,119.3125,161,74,0.30818
4236470,-0.04500,114.3125,161,74,0.32137
4236480,-0.03500,109.9375,161,74,0.34261
4236490,-0.03000,106.3750,161,74,0.37167
4236500,-0.02500,101.6875,161,74,0.44567
4236510,-0.02000,100.3125,161,74,0.48523
4236520,-0.00500,99.3750,161,74,0.52308
4236530,0.01000,98.6875,161,74,0.55702
4236540,0.04000,97.8750,161,74,0.61026
4236550,0.06000,97.5000,161,74,0.62979
4236560,0.09500,97.0625,161,74,0.64542
4236570,0.11000,96.5625,161,74,0.65641
4236580,0.11000,95.3125,161,74,0.67277
4236590,0.08000,94.5625,161,74,0.68034
4236600,0.02500,93.7500,161,74,0.68694
4236610,-0.04500,92.9375,161,74,0.69304
4236620,-0.10000,91.2500,161,74,0.70305
4236630,-0.13000,90.3750,161,74,0.70672
4236640,-0.14000,89.5000,161,74,0.70989
4236650,-0.14500,88.6250,161,74,0.72137
4236660,-0.14000,86.9375,161,74,0.74261
4236670,-0.13500,86.1875,161,74,0.74383
4236680,-0.13000,85.5625,161,74,0.74261
4236690,-0.13000,84.9375,161,74,0.73919
4236700,-0.13000,83.8125,161,74,0.72503
4236710,-0.13500,83.2500,161,74,0.71453
4236720,0.00000,82.6875,161,74,0.70208
4236730,0.45500,82.1250,161,74,0.68816
4236740,0.99500,80.9375,161,74,0.65763
4236750,0.88500,80.3125,161,74,0.64200
4236760,0.20500,79.6250,161,74,0.62686
4236770,-0.30000,78.9375,161,74,0.61368
4236780,-0.43500,77.6250,161,74,0.58950
4236790,-0.31500,76.9375,161,74,0.57753
4236800,-0.24000,76.3125,161,74,0.56606
4236810,-0.21500,75.6875,161,74,0.55507
4236820,-0.20000,74.5625,161,74,0.53431
4236830,-0.18000,74.0000,161,74,0.52430
4236840,-0.17000,73.4375,161,74,0.51477
4236850,-0.16500,72.9375,161,74,0.50525
4236860,-0.16000,72.1250,161,74,0.48816
4236870,-0.15500,72.0000,161,74,0.48083
4236880,-0.14000,72.5625,161,74,0.47277
4236890,-0.13000,74.2500,161,74,0.46422
4236900,-0.11500,84.5000,161,74,0.44615
4236910,-0.10500,93.4375,161,74,0.43736
4236920,-0.09500,103.9375,161,74,0.42857
4236930,-0.08500,115.0000,161,74,0.42002
4236940,-0.06000,135.0000,161,74,0.40366
4236950,-0.04000,142.8750,161,74,0.39585
4236960,-0.01500,148.8750,161,74,0.38803
4236970,0.00000,153.1250,161,74,0.38169
4236980,0.02000,157.1875,161,74,0.36947
4236990,0.02500,157.6875,161,74,0.36264
4237000,0.03000,157.5625,161,74,0.35556
4237010,0.03000,156.9375,161,74,0.34847
4237020,0.03500,154.8750,161,74,0.33504
4237030,0.04000,153.6250,161,74,0.32869
4237040,0.04000,152.3125,161,74,0.32234
4237050,0.04000,150.9375,161,74,0.31600
4237060,0.04000,148.1875,161,74,0.30549
4237070,0.03500,146.8750,161,74,0.30208
4237080,0.03000,145.6250,161,74,0.29768
4237090,0.01500,144.3125,161,74,0.29280
4237100,-0.00500,141.5000,161,74,0.28303
4237110,-0.02500,139.8125,161,74,0.27814
4237120,-0.03500,137.7500,161,74,0.27302
4237130,-0.04500,135.2500,161,74,0.26789
4237140,-0.03500,128.1250,161,74,0.25836
4237150,-0.02500,123.6250,161,74,0.25617
4237160,-0.01500,118.6875,161,74,0.25763
4237170,0.00000,113.8750,161,74,0.26325
4237180,0.01000,106.0000,161,74,0.29353
4237190,0.02000,103.2500,161,74,0.32088
4237200,0.02500,101.1875,161,74,0.35580
4237210,0.02000,99.7500,161,74,0.39609
4237220,0.02000,98.0000,161,74,0.48059
4237230,0.02000,97.4375,161,74,0.51917
4237240,0.04000,96.9375,161,74,0.55287
4237250,0.07000,96.5000,161,74,0.58120
4237260,0.09500,95.5000,161,74,0.62027
4237270,0.11500,94.8750,161,74,0.63248
4237280,0.12500,94.2500,161,74,0.64371
4237290,0.10500,92.6875,161,74,0.65348
4237300,0.06000,91.8750,161,74,0.66886
4237310,0.00000,91.0625,161,74,0.67497
4237320,-0.05500,90.2500,161,74,0.68010
4237330,-0.10000,89.4375,161,74,0.68425
4237340,-0.12000,87.8125,161,74,0.69035
4237350,-0.13500,87.0000,161,74,0.69206
4237360,-0.14500,86.1875,161,74,0.69280
4237370,-0.14500,85.5000,161,74,0.69206
4237380,-0.14500,84.2500,161,74,0.68645
4237390,-0.14000,83.6875,161,74,0.68132
4237400,-0.13500,83.1250,161,74,0.67448
4237410,-0.13000,82.6250,161,74,0.66545
4237420,-0.12500,81.5625,161,74,0.64200
4237430,0.05500,81.0000,161,74,0.62857
4237440,0.55500,80.4375,161,74,0.61441
4237450,1.01000,79.8125,161,74,0.59976
4237460,0.79000,78.5625,161,74,0.57314
4237470,0.09500,77.9375,161,74,0.56190
4237480,-0.34500,77.2500,161,74,0.55043
4237490,-0.43500,76.6250,161,74,0.53895
4237500,-0.35500,75.4375,161,74,0.51770
4237510,-0.26500,74.8750,161,74,0.50794
4237520,-0.22500,74.3125,161,74,0.49841
4237530,-0.20500,73.7500,161,74,0.48938
4237540,-0.19000,72.7500,161,74,0.47155
4237550,-0.18000,72.2500,161,74,0.46300
4237560,-0.18000,71.8125,161,74,0.45568
4237570,-0.17000,71.3750,161,74,0.44908
4237580,-0.16500,71.3125,161,74,0.43370
4237590,-0.16000,72.1875,161,74,0.42564
4237600,-0.15500,74.6250,161,74,0.41758
4237610,-0.14500,79.3750,161,74,0.40952
4237620,-0.13500,96.1875,161,74,0.39365
4237630,-0.12000,106.7500,161,74,0.38608
4237640,-0.10000,117.4375,161,74,0.37851
4237650,-0.08500,127.5625,161,74,0.37143
4237660,-0.05500,143.5000,161,74,0.35873
4237670,-0.03500,148.8750,161,74,0.35409
4237680,-0.01250,152.4896,161,74,0.34949
4237690,0.00500,154.7500,161,74,0.34237
4237700,0.01000,156.0625,161,74,0.33016
4237710,0.01500,155.6875,161,74,0.32430
4237720,0.02000,154.8750,161,74,0.31844
4237730,0.02000,153.7500,161,74,0.31282
4237740,0.01000,151.1250,161,74,0.30208
4237750,0.01000,149.7500,161,74,0.29695
4237760,0.02000,148.3125,161,74,0.29328
4237770,0.02500,146.9375,161,74,0.29035
4237780,0.03000,144.1875,161,74,0.28230
4237790,0.02500,142.8750,161,74,0.27814
4237800,0.01000,141.5000,161,74,0.27375
4237810,-0.01500,140.0625,161,74,0.26960
4237820,-0.03500,136.4375,161,74,0.26081
4237830,-0.04500,134.0000,161,74,0.25641
4237840,-0.04000,130.9375,161,74,0.25201
4237850,-0.03500,127.1250,161,74,0.24786
4237860,-0.02000,117.5625,161,74,0.24469
4237870,-0.01500,112.5625,161,74,0.24762
4237880,0.00000,108.0625,161,74,0.25495
4237890,0.01000,104.5000,161,74,0.26886
4237900,0.02000,99.8750,161,74,0.32039
4237910,0.02000,98.5625,161,74,0.35726
4237920,0.01500,97.7500,161,74,0.39853
4237930,0.00000,97.1875,161,74,0.44127
4237940,0.00000,96.4375,161,74,0.52063
4237950,0.00000,96.0625,161,74,0.55360
4237960,0.02500,95.5625,161,74,0.57827
4237970,0.06000,95.0625,161,74,0.59707
4237980,0.08000,93.8125,161,74,0.62808
4237990,0.09500,93.1250,161,74,0.63980
4238000,0.09000,92.3750,161,75,0.64957
4238010,0.06000,91.5625,161,75,0.65763
4238020,0.02000,89.9375,161,75,0.66984
4238030,-0.03500,89.1250,161,75,0.67448
4238040,-0.08500,88.3125,161,75,0.67814
4238050,-0.11500,87.5000,161,75,0.68107
4238060,-0.13000,85.8750,161,75,0.68376
4238070,-0.13500,85.0625,161,75,0.68303
4238080,-0.13500,84.4375,161,75,0.68156
4238090,-0.13500,83.8125,161,75,0.67888
4238100,-0.13500,82.6875,161,75,0.66789
4238110,-0.13000,82.1875,161,75,0.65934
4238120,-0.13000,81.7500,161,75,0.64884
4238130,-0.13000,81.3125,161,75,0.63663
4238140,-0.08500,80.3750,161,75,0.60904
4238150,0.18500,79.8125,161,75,0.59463
4238160,0.75500,79.3125,161,75,0.58193
4238170,1.07500,78.6875,161,75,0.57021
4238180,0.62000,77.4375,161,75,0.54652
4238190,-0.06000,76.8125,161,75,0.53529
4238200,-0.39500,76.1875,161,75,0.52479
4238210,-0.42500,75.5625,161,75,0.51477
4238220,-0.31500,74.4375,161,75,0.49646
4238230,-0.24000,73.8750,161,75,0.48816
4238240,-0.22000,73.3750,161,75,0.47985
4238250,-0.20000,72.8750,161,75,0.47179
4238260,-0.19000,71.9375,161,75,0.45690
4238270,-0.19000,71.5000,161,75,0.45055
4238280,-0.18500,71.0625,161,75,0.44347
4238290,-0.17500,70.8125,161,75,0.43590
4238300,-0.17000,71.5625,161,75,0.42051
4238310,-0.16000,73.6250,161,75,0.41294
4238320,-0.16000,77.7500,161,75,0.40537
4238330,-0.14500,84.5000,161,75,0.39805
4238340,-0.13500,103.8125,161,75,0.38364
4238350,-0.11500,114.5625,161,75,0.37680
4238360,-0.09500,124.9375,161,75,0.37143
4238370,-0.06500,142.0000,161,75,0.36703
4238380,-0.04500,148.0625,161,75,0.35604
4238390,-0.01500,152.4375,161,75,0.35018
4238400,0.00000,155.3125,161,75,0.34432
4238410,0.01500,156.8750,161,75,0.33871
4238420,0.02000,157.4375,161,75,0.32796
4238430,0.02000,156.9375,161,75,0.32259
4238440,0.02500,156.0625,161,75,0.31722
4238450,0.02500,154.9375,161,75,0.31209
4238460,0.02000,152.4375,161,75,0.30354
4238470,0.02000,151.1875,161,75,0.30085
4238480,0.02000,149.8125,161,75,0.29719
4238490,0.02000,148.5000,161,75,0.29304
4238500,0.01500,145.9375,161,75,0.28474
4238510,0.01000,144.6250,161,75,0.28083
4238520,-0.01000,143.3125,161,75,0.27717
4238530,-0.03000,140.3125,161,75,0.27350
4238540,-0.05500,138.3750,161,75,0.26593
4238550,-0.06500,135.9375,161,75,0.26227
4238560,-0.06500,132.8125,161,75,0.25983
4238570,-0.06500,129.0000,161,75,0.25861
4238580,-0.05000,119.5000,161,75,0.25861
4238590,-0.03500,114.5625,161,75,0.26422
4238600,-0.01500,110.1250,161,75,0.27619
4238610,-0.00500,106.4375,161,75,0.29621
4238620,0.00000,101.6875,161,75,0.36044
4238630,0.00000,100.3125,161,75,0.40195
4238640,-0.00500,99.3125,161,75,0.44615
4238650,-0.00500,98.5625,161,75,0.48987
4238660,-0.00500,97.5000,161,75,0.56313
4238670,0.01000,97.0000,161,75,0.58901
4238680,0.03500,96.4375,161,75,0.61319
4238690,0.06000,95.8750,161,75,0.63419
4238700,0.06500,94.8750,161,75,0.65816
4238710,0.06500,93.8125,161,75,0.67839
4238720,0.05000,93.0625,161,75,0.68816
4238730,0.01000,92.3750,161,75,0.69646
4238740,-0.03500,90.8125,161,75,0.70965
4238750,-0.07500,89.9375,161,75,0.71477
4238760,-0.11000,89.1250,161,75,0.71795
4238770,-0.13500,88.3125,161,75,0.71966
4238780,-0.14500,86.6875,161,75,0.72357
4238790,-0.14500,85.8750,161,75,0.72405
4238800,-0.14000,85.1875,161,75,0.72332
4238810,-0.13500,84.5625,161,75,0.72063
4238820,-0.13500,83.5000,161,75,0.70916
4238830,-0.13000,83.0000,161,75,0.70037
4238840,-0.13000,82.5625,161,75,0.68938
4238850,-0.13000,82.0625,161,75,0.67668
4238860,0.03500,81.0000,161,75,0.64982
4238870,0.50000,80.4375,161,75,0.63736
4238880,1.04000,79.7500,161,75,0.62393
4238890,0.85500,79.1250,161,75,0.61050
4238900,0.16000,77.8125,161,75,0.58462
4238910,-0.33500,77.1875,161,75,0.57265
4238920,-0.44500,76.5625,161,75,0.56166
4238930,-0.36000,75.9375,161,75,0.55116
4238940,-0.26500,74.7500,161,75,0.53187
4238950,-0.23000,74.1875,161,75,0.52259
4238960,-0.22000,73.6875,161,75,0.51477
4238970,-0.20000,73.1250,161,75,0.50745
4238980,-0.20000,72.0625,161,75,0.49182
4238990,-0.20000,71.6875,161,75,0.48376
4239000,-0.20000,71.3750,160,75,0.47570
4239010,-0.20000,71.3750,160,75,0.46764
4239020,-0.20000,73.5000,160,75,0.45201
4239030,-0.19500,77.0000,160,75,0.44420
4239040,-0.19000,83.0625,160,75,0.43639
4239050,-0.19000,91.4375,160,75,0.42882
4239060,-0.19000,112.1875,160,75,0.41514
4239070,-0.19000,122.6875,160,75,0.40977
4239080,-0.18500,132.1875,160,75,0.40342
4239090,-0.17000,140.3125,160,75,0.39707
4239100,-0.16000,151.5000,160,75,0.38388
4239110,-0.14500,154.6875,160,75,0.37753
4239120,-0.14000,156.5625,160,75,0.37118
4239130,-0.12500,157.3750,160,75,0.36508
4239140,-0.12500,156.8750,160,75,0.35336
4239150,-0.13500,156.0625,160,75,0.34750
4239160,-0.14000,154.9375,160,75,0.34310
4239170,-0.14000,153.7500,160,75,0.33968
4239180,-0.13500,151.2500,160,75,0.33040
4239190,-0.12500,150.0000,160,75,0.32527
4239200,-0.11500,148.7500,160,75,0.32015
4239210,-0.10500,147.5625,160,75,0.31526
4239220,-0.09500,145.1250,160,75,0.30574
4239230,-0.09500,143.8125,160,75,0.30134
4239240,-0.11000,142.5000,160,75,0.29695
4239250,-0.12000,140.9375,160,75,0.29280
4239260,-0.12000,136.8750,160,75,0.28571
4239270,-0.10500,134.1250,160,75,0.28376
4239280,-0.09500,130.6875,160,75,0.28083
4239290,-0.07500,126.4375,160,75,0.27863
4239300,-0.05500,116.3750,160,75,0.28230
4239310,-0.02500,111.3750,160,75,0.29206
4239320,0.00000,107.0000,160,75,0.30940
4239330,0.03000,103.5625,160,75,0.33480
4239340,0.04500,99.1250,160,75,0.40708
4239350,0.05000,97.8750,160,75,0.44957
4239360,0.05000,96.9375,160,75,0.48742
4239370,0.05000,96.3125,160,75,0.52112
4239380,0.06000,95.3125,160,75,0.58730
4239390,0.08000,94.8125,160,75,0.61465
4239400,0.10500,94.2500,160,75,0.63736
4239410,0.12000,93.6875,160,75,0.65592
4239420,0.13000,92.3750,160,75,0.68352
4239430,0.10500,91.6875,160,75,0.69377
4239440,0.07000,91.0000,160,75,0.70232
4239450,0.04000,90.3125,160,75,0.70940
4239460,0.00500,88.8125,160,75,0.71722
4239470,-0.02500,88.0625,160,75,0.72088
4239480,-0.05000,87.3125,160,75,0.72430
4239490,-0.05500,85.8125,160,75,0.72698
4239500,-0.06000,85.1250,160,75,0.72967
4239510,-0.06500,84.4375,160,75,0.72918
4239520,-0.07000,83.8125,160,75,0.72723
4239530,-0.06500,83.2500,160,75,0.72357
4239540,-0.06000,82.2500,160,75,0.70989
4239550,-0.05500,81.6875,160,75,0.69988
4239560,-0.02000,81.1250,160,75,0.68889
4239570,0.24000,80.5625,160,75,0.67717
4239580,0.82500,79.3125,160,75,0.64884
4239590,1.17000,78.6250,160,75,0.63370
4239600,0.71500,78.0000,160,75,0.61880
4239610,-0.01000,77.3125,160,75,0.60440
4239620,-0.37000,76.0625,160,75,0.57753
4239630,-0.39500,75.4375,160,75,0.56532
4239640,-0.27000,74.8750,160,75,0.55385
4239650,-0.18000,74.3125,160,75,0.54310
4239660,-0.15500,73.2500,160,75,0.52552
4239670,-0.13500,72.7500,160,75,0.51673
4239680,-0.12500,72.1875,160,75,0.50794
4239690,-0.11500,71.6250,160,75,0.49890
4239700,-0.11000,70.7500,160,75,0.48132
4239710,-0.10500,70.5000,160,75,0.47277
4239720,-0.10000,70.6875,160,75,0.46422
4239730,-0.09333,73.7083,160,75,0.45169
4239740,-0.08500,79.1875,160,75,0.43932
4239750,-0.07500,86.7500,160,75,0.43126
4239760,-0.07000,96.4375,160,75,0.42442
4239770,-0.06500,107.1875,160,75,0.41832
4239780,-0.05000,128.0625,160,75,0.40391
4239790,-0.03000,136.8125,160,75,0.39658
4239800,-0.00500,143.9375,160,75,0.38926
4239810,0.02000,149.4375,160,75,0.38217
4239820,0.04500,156.0000,160,75,0.36850
4239830,0.06500,157.4375,160,75,0.36190
4239840,0.08000,158.0625,160,75,0.35531
4239850,0.09000,158.0625,160,75,0.34896
4239860,0.09000,156.9375,160,75,0.34017
4239870,0.09000,156.0625,160,75,0.33529
4239880,0.08500,155.0000,160,75,0.32991
4239890,0.08000,153.9375,160,75,0.32430
4239900,0.07500,151.6250,160,75,0.31306
4239910,0.07000,150.5000,160,75,0.30769
4239920,0.05500,149.3750,160,75,0.30256
4239930,0.04000,148.1875,160,75,0.29744
4239940,0.01000,145.6250,160,75,0.28791
4239950,-0.01500,144.1250,160,75,0.28327
4239960,-0.04500,142.5000,160,75,0.27985
4239970,-0.07000,140.5625,160,75,0.27741
4239980,-0.07500,135.2500,160,75,0.27009
4239990,-0.06500,131.6250,160,75,0.26642
4240000,-0.04500,127.2500,160,75,0.26447
4240010,-0.02000,122.3125,160,75,0.26569
4240020,-0.00500,112.5000,160,75,0.28571
4240030,0.01500,108.4375,160,75,0.30720
4240040,0.03500,105.1875,160,75,0.33700
4240050,0.04500,102.7500,160,75,0.37387
4240060,0.04500,99.6875,160,75,0.44518
4240070,0.04000,98.7500,160,75,0.48474
4240080,0.05000,98.0625,160,75,0.52405
4240090,0.07000,97.4375,160,75,0.56020
4240100,0.09000,96.1875,160,75,0.61758
4240110,0.10000,95.5625,160,75,0.63907
4240120,0.10000,94.8750,160,75,0.65665
4240130,0.10000,94.1875,160,75,0.67131
4240140,0.07500,92.7500,160,75,0.69353
4240150,0.04500,92.0625,160,75,0.70208
4240160,0.02000,91.3750,160,75,0.70794
4240170,-0.00500,90.6875,160,75,0.71209
4240180,-0.03000,89.3125,160,75,0.72112
4240190,-0.04500,88.6250,160,75,0.72503
4240200,-0.04500,88.0000,160,75,0.72821
4240210,-0.04500,87.3125,160,75,0.73040
4240220,-0.04500,86.1250,160,75,0.73138
4240230,-0.04500,85.5625,160,75,0.72943
4240240,-0.03500,85.0625,160,75,0.72576
4240250,-0.03500,84.5000,160,75,0.71990
4240260,-0.03500,83.3750,160,75,0.70330
4240270,0.17000,82.7500,160,75,0.69231
4240280,0.70500,82.0625,160,75,0.67937
4240290,1.11500,81.4375,160,75,0.66545
4240300,0.76500,80.0625,160,75,0.63565
4240310,0.02000,79.3750,160,75,0.62076
4240320,-0.42500,78.6875,160,75,0.60635
4240330,-0.51000,78.0625,160,75,0.59267
4240340,-0.42000,76.7500,160,75,0.56752
4240350,-0.33500,76.1250,160,75,0.55604
4240360,-0.32500,75.5625,160,75,0.54628
4240370,-0.31000,75.0000,160,75,0.53748
4240380,-0.29500,73.8125,160,75,0.51893
4240390,-0.28500,73.2500,160,75,0.50965
4240400,-0.28500,72.7500,160,75,0.50037
4240410,-0.28000,72.3750,160,75,0.49158
4240420,-0.26000,72.6250,160,75,0.47424
4240430,-0.24000,74.1875,160,75,0.46569
4240440,-0.22500,77.7500,160,75,0.45739
4240450,-0.21000,84.0000,160,75,0.44908
4240460,-0.20000,103.1250,160,75,0.43590
4240470,-0.17500,114.1875,160,75,0.42882
4240480,-0.14500,124.8750,160,75,0.42149
4240490,-0.12000,134.5000,160,75,0.41416
4240500,-0.09000,148.9375,160,75,0.39951
4240510,-0.06500,153.5625,160,75,0.39243
4240520,-0.03000,156.6250,160,75,0.38535
4240530,0.00500,158.4375,160,75,0.37851
4240540,0.03000,159.5000,160,75,0.36532
4240550,0.05500,159.3125,160,75,0.35897
4240560,0.06000,158.8750,160,75,0.35409
4240570,0.06000,158.2500,160,75,0.35018
4240580,0.05000,156.8125,160,75,0.33968
4240590,0.06000,156.0000,160,75,0.33407
4240600,0.07000,155.0625,160,75,0.32869
4240610,0.09500,154.1250,160,75,0.32332
4240620,0.11000,152.0625,160,75,0.31282
4240630,0.11000,150.9375,160,75,0.30794
4240640,0.09000,149.6875,160,75,0.30330
4240650,0.07000,148.3750,160,75,0.29890
4240660,0.05000,145.1250,160,75,0.29328
4240670,0.03000,143.0625,160,75,0.28987
4240680,0.01500,140.5000,160,75,0.28596
4240690,0.01000,137.3750,160,75,0.28205
4240700,0.02500,128.9375,160,75,0.27863
4240710,0.05000,123.8750,160,75,0.28254
4240720,0.07000,118.6875,160,75,0.29255
4240730,0.08500,113.9375,160,75,0.31062
4240740,0.09000,106.6875,160,75,0.37118
4240750,0.09000,103.6146,160,75,0.41502
4240760,0.08000,102.5625,160,75,0.45128
4240770,0.06000,101.3750,160,75,0.48913
4240780,0.05000,99.8125,160,75,0.57070
4240790,0.06000,99.2500,160,75,0.60659
4240800,0.08000,98.7500,160,75,0.63761
4240810,0.09000,98.1875,160,75,0.66325
4240820,0.08500,97.0625,160,75,0.70232
4240830,0.07500,96.4375,160,75,0.71722
4240840,0.05000,95.7500,160,75,0.72991
4240850,0.00000,95.1250,160,75,0.74090
4240860,-0.04500,93.8125,160,75,0.75433
4240870,-0.08000,93.1875,160,75,0.76044
4240880,-0.10000,92.5000,160,75,0.76654
4240890,-0.12000,91.8125,160,75,0.77216
4240900,-0.14000,90.4375,160,75,0.78144
4240910,-0.15000,89.7500,160,75,0.78486
4240920,-0.15500,89.1250,160,75,0.78681
4240930,-0.16000,88.5000,160,75,0.78706
4240940,-0.16500,87.4375,160,75,0.78168
4240950,-0.16000,87.0000,160,75,0.77534
4240960,-0.16500,86.5000,160,75,0.76703
4240970,-0.10000,86.0000,160,75,0.75702
4240980,0.25500,84.9375,160,75,0.73089
4240990,0.87500,84.3750,160,75,0.71551
4241000,1.04000,83.8125,160,74,0.69939
4241010,0.45500,83.1875,160,74,0.68327
4241020,-0.21500,82.0000,160,74,0.65201
4241030,-0.47000,81.3750,160,74,0.63736
4241040,-0.41500,80.8125,160,74,0.62344
4241050,-0.30000,80.2500,160,74,0.61026
4241060,-0.25500,79.1875,160,74,0.58901
4241070,-0.25000,78.7500,160,74,0.57875
4241080,-0.23500,78.3125,160,74,0.56850
4241090,-0.22000,77.8750,160,74,0.55849
4241100,-0.21500,77.1250,160,74,0.53944
4241110,-0.22000,76.8750,160,74,0.53016
4241120,-0.22000,76.9375,160,74,0.52112
4241130,-0.21500,77.5625,160,74,0.51209
4241140,-0.21000,83.7500,160,74,0.49426
4241150,-0.21000,90.6250,160,74,0.48669
4241160,-0.20000,100.0000,160,74,0.47961
4241170,-0.19000,110.8750,160,74,0.47155
4241180,-0.17500,133.0000,160,74,0.45495
4241190,-0.16000,142.6250,160,74,0.44689
4241200,-0.14000,150.5000,160,74,0.43907
4241210,-0.11000,156.5000,160,74,0.43126
4241220,-0.08000,163.4375,160,74,0.41636
4241230,-0.05000,164.8750,160,74,0.40928
4241240,-0.03500,165.5625,160,74,0.40244
4241250,-0.02500,165.6875,160,74,0.39585
4241260,-0.01500,165.1250,160,74,0.38608
4241270,-0.01500,164.5625,160,74,0.38071
4241280,-0.02500,163.8125,160,74,0.37485
4241290,-0.02500,163.0000,160,74,0.36899
4241300,-0.03000,161.1875,160,74,0.35751
4241310,-0.03500,160.3125,160,74,0.35214
4241320,-0.03500,159.3750,160,74,0.34701
4241330,-0.04000,158.3750,160,74,0.34212
4241340,-0.05000,156.1250,160,74,0.33284
4241350,-0.07500,154.8125,160,74,0.32967
4241360,-0.10500,153.2500,160,74,0.32723
4241370,-0.12500,151.5000,160,74,0.32381
4241380,-0.14500,146.8125,160,74,0.31551
4241390,-0.15500,143.6875,160,74,0.31209
4241400,-0.15000,139.7500,160,74,0.31038
4241410,-0.14500,135.1250,160,74,0.31233
4241420,-0.13500,124.4375,160,74,0.33626
4241430,-0.12500,119.3125,160,74,0.36117
4241440,-0.10500,114.9375,160,74,0.39536
4241450,-0.09500,111.4375,160,74,0.43687
4241460,-0.08500,107.0000,160,74,0.51551
4241470,-0.08500,105.7500,160,74,0.55824
4241480,-0.07500,104.9375,160,74,0.60049
4241490,-0.07000,104.3125,160,74,0.63907
4241500,-0.06000,103.4375,160,74,0.70085
4241510,-0.04500,102.9375,160,74,0.72454
4241520,-0.03500,102.4375,160,74,0.74457
4241530,-0.03500,101.8125,160,74,0.76190
4241540,-0.04000,100.3750,160,74,0.79023
4241550,-0.06500,99.6250,160,74,0.79976
4241560,-0.09000,98.8125,160,74,0.80684
4241570,-0.10500,98.0000,160,74,0.81514
4241580,-0.12500,96.3125,160,74,0.83077
4241590,-0.14500,95.4375,160,74,0.83736
4241600,-0.16500,94.5625,160,74,0.84298
4241610,-0.17000,93.6875,160,74,0.84737
4241620,-0.16000,92.0625,160,74,0.85250
4241630,-0.15500,91.2500,160,74,0.85275
4241640,-0.15500,90.5625,160,74,0.85104
4241650,-0.15000,89.9375,160,74,0.84689
4241660,-0.15500,88.8125,160,74,0.83199
4241670,-0.13500,88.1875,160,74,0.82149
4241680,0.12000,87.6250,160,74,0.80904
4241690,0.70000,87.0000,160,74,0.79463
4241700,1.06500,85.7500,160,74,0.76239
4241710,0.68000,85.1250,160,74,0.74579
4241720,-0.03500,84.4375,160,74,0.72943
4241730,-0.41000,83.8125,160,74,0.71355
4241740,-0.40500,82.5625,160,74,0.68400
4241750,-0.29000,81.9375,160,74,0.67155
4241760,-0.23000,81.3125,160,74,0.66007
4241770,-0.23000,80.7500,160,74,0.64884
4241780,-0.22000,79.9167,160,74,0.63248
4241790,-0.21000,79.1250,160,74,0.61636
4241800,-0.21000,78.6875,160,74,0.60586
4241810,-0.21000,78.2500,160,74,0.59536
4241820,-0.21000,77.8750,160,74,0.57436
4241830,-0.20500,78.5000,160,74,0.56386
4241840,-0.21000,80.6250,160,74,0.55360
4241850,-0.20000,85.1250,160,74,0.54335
4241860,-0.18000,102.1875,160,74,0.52625
4241870,-0.16500,113.3750,160,74,0.51722
4241880,-0.15500,124.7500,160,74,0.50794
4241890,-0.13500,135.5625,160,74,0.49841
4241900,-0.11500,152.4375,160,74,0.47961
4241910,-0.09500,158.0625,160,74,0.47033
4241920,-0.06500,161.8125,160,74,0.46129
4241930,-0.04500,164.0000,160,74,0.45250
4241940,-0.02500,165.5000,160,74,0.43565
4241950,-0.00500,165.5000,160,74,0.42882
4241960,-0.00500,165.1875,160,74,0.42271
4241970,-0.00500,164.6250,160,74,0.41587
4241980,-0.00500,163.0000,160,74,0.40122
4241990,-0.01000,162.1250,160,74,0.39390
4242000,-0.01500,161.1875,159,74,0.38681
4242010,-0.01500,160.2500,159,74,0.37998
4242020,-0.01500,158.2500,159,74,0.36703
4242030,-0.01500,157.1250,159,74,0.36068
4242040,-0.02500,155.9375,159,74,0.35458
4242050,-0.04000,154.6250,159,74,0.34847
4242060,-0.06500,151.5000,159,74,0.34042
4242070,-0.09500,149.5625,159,74,0.33553
4242080,-0.11000,147.1875,159,74,0.32991
4242090,-0.11500,144.2500,159,74,0.32430
4242100,-0.12000,136.3125,159,74,0.31722
4242110,-0.11500,131.2500,159,74,0.31941
4242120,-0.10500,125.8750,159,74,0.32796
4242130,-0.09500,120.6250,159,74,0.34457
4242140,-0.07500,112.0625,159,74,0.40488
4242150,-0.06000,109.1250,159,74,0.44005
4242160,-0.04500,107.0625,159,74,0.47619
4242170,-0.03500,104.6875,159,74,0.51795
4242180,-0.03500,104.0000,159,74,0.60098
4242190,-0.03000,103.5625,159,74,0.63687
4242200,-0.02500,103.1250,159,74,0.66740
4242210,-0.00500,102.6250,159,74,0.69280
4242220,0.00500,101.5000,159,74,0.73187
4242230,0.01500,100.8125,159,74,0.74701
4242240,0.01000,100.1250,159,74,0.75995
4242250,-0.00500,99.3125,159,74,0.77143
4242260,-0.03500,97.6250,159,74,0.78559
4242270,-0.05500,96.6875,159,74,0.79243
4242280,-0.07500,95.8125,159,74,0.79902
4242290,-0.09500,94.8750,159,74,0.80513
4242300,-0.11500,93.0000,159,74,0.81538
4242310,-0.12000,92.1250,159,74,0.81905
4242320,-0.12500,91.2500,159,74,0.82125
4242330,-0.12000,90.5000,159,74,0.82198
4242340,-0.11000,89.0625,159,74,0.81783
4242350,-0.10000,88.4375,159,74,0.81221
4242360,-0.10500,87.8750,159,74,0.80440
4242370,-0.09500,87.3125,159,74,0.79487
4242380,0.11000,86.2500,159,74,0.76948
4242390,0.63000,85.7500,159,74,0.75409
4242400,1.07000,85.1875,159,74,0.73797
4242410,0.81500,84.5625,159,74,0.72137
4242420,0.09000,83.3125,159,74,0.68889
4242430,-0.33500,82.6250,159,74,0.67350
4242440,-0.35500,81.9375,159,74,0.65885
4242450,-0.24500,81.2500,159,74,0.64493
4242460,-0.18500,79.8750,159,74,0.62198
4242470,-0.18000,79.2500,159,74,0.61074
4242480,-0.18000,78.6250,159,74,0.59976
4242490,-0.18000,78.0000,159,74,0.58877
4242500,-0.17500,76.8750,159,74,0.56703
4242510,-0.16500,76.3750,159,74,0.55653
4242520,-0.16000,76.0000,159,74,0.54603
4242530,-0.15000,76.0000,159,74,0.53553
4242540,-0.14000,78.8750,159,74,0.51477
4242550,-0.14000,78.8750,159,74,0.51477
4242560,-0.10500,100.8125,159,74,0.48816
4242570,-0.10500,112.0000,159,74,0.48816
4242580,-0.09000,123.3750,159,74,0.46838
4242590,-0.07000,134.0000,159,74,0.45836
4242600,-0.04500,143.1875,159,74,0.44835
4242610,-0.01500,150.5625,159,74,0.43858
4242620,0.00000,159.5625,159,74,0.41929
4242630,0.02000,161.6250,159,74,0.40977
4242640,0.04500,162.5625,159,74,0.40073
4242650,0.06000,162.8125,159,74,0.39194
4242660,0.07000,162.2500,159,74,0.37875
4242670,0.07500,161.5000,159,74,0.37167
4242680,0.07000,160.6250,159,74,0.36410
4242690,0.07000,159.5625,159,74,0.35629
4242700,0.07000,157.4375,159,74,0.34115
4242710,0.07000,156.3125,159,74,0.33382
4242720,0.08000,155.1875,159,74,0.32674
4242730,0.07500,154.0625,159,74,0.31990
4242740,0.06500,151.6875,159,74,0.30647
4242750,0.04000,150.3750,159,74,0.30159
4242760,0.01500,148.8750,159,74,0.29768
4242770,-0.01000,147.1250,159,74,0.29255
4242780,-0.03000,142.1875,159,74,0.28083
4242790,-0.04000,138.8125,159,74,0.26960
4242800,-0.04000,135.5104,159,74,0.25718
4242810,-0.03500,129.7500,159,74,0.24982
4242820,-0.03500,119.0000,159,74,0.25372
4242830,-0.02500,114.1250,159,74,0.26593
4242840,-0.01000,110.0625,159,74,0.28620
4242850,0.00000,106.8750,159,74,0.31355
4242860,0.01000,102.8125,159,74,0.37143
4242870,0.01500,101.6250,159,74,0.40586
4242880,0.02500,100.8125,159,74,0.44078
4242890,0.03000,99.8125,159,74,0.47350
4242900,0.04000,99.4375,159,74,0.52723
4242910,0.05500,99.0000,159,74,0.54774
4242920,0.06500,98.5625,159,74,0.56459
4242930,0.06500,98.0000,159,74,0.57875
4242940,0.05000,96.6875,159,74,0.60049
4242950,0.02500,95.9375,159,74,0.60781
4242960,0.00000,95.1250,159,74,0.61343
4242970,-0.02500,94.3125,159,74,0.61929
4242980,-0.04500,92.6250,159,74,0.63004
4242990,-0.07000,91.7500,159,74,0.63468
4243000,-0.08000,90.9375,159,74,0.63858
4243010,-0.08000,90.0625,159,74,0.64151
4243020,-0.08000,88.5000,159,74,0.64444
4243030,-0.08500,87.8750,159,74,0.64396
4243040,-0.07500,87.2500,159,74,0.64200
4243050,-0.06500,86.6875,159,74,0.63834
4243060,-0.07000,85.5000,159,74,0.62589
4243070,-0.01500,84.9375,159,74,0.61709
4243080,0.29000,84.3125,159,74,0.60635
4243090,0.85500,83.6250,159,74,0.59414
4243100,1.04500,82.1875,159,74,0.56752
4243110,0.52500,81.5000,159,74,0.55360
4243120,-0.08500,80.8125,159,74,0.53993
4243130,-0.34500,80.1250,159,74,0.52650
4243140,-0.34500,78.8750,159,74,0.50183
4243150,-0.24500,78.2500,159,74,0.49182
4243160,-0.18500,77.5625,159,74,0.48278
4243170,-0.17000,76.9375,159,74,0.47350
4243180,-0.16000,75.8125,159,74,0.45495
4243190,-0.16000,75.2500,159,74,0.44591
4243200,-0.15000,74.7500,159,74,0.43687
4243210,-0.14500,74.3125,159,74,0.42784
4243220,-0.13500,74.1250,159,74,0.41026
4243230,-0.13500,74.9375,159,74,0.40147
4243240,-0.12500,77.0625,159,74,0.39292
4243250,-0.11500,81.3750,159,74,0.38559
4243260,-0.10500,97.3750,159,74,0.37167
4243270,-0.09500,107.7500,159,74,0.36386
4243280,-0.08500,118.5000,159,74,0.35604
4243290,-0.06500,128.7500,159,74,0.34823
4243300,-0.04500,145.2500,159,74,0.33260
4243310,-0.02500,150.8750,159,74,0.32503
4243320,-0.00500,154.6875,159,74,0.31770
4243330,0.00500,157.0000,159,74,0.31062
4243340,0.02000,158.1875,159,74,0.29695
4243350,0.03000,157.6250,159,74,0.29182
4243360,0.03000,156.6250,159,74,0.28742
4243370,0.02000,155.3750,159,74,0.28230
4243380,0.02000,152.3750,159,74,0.27082
4243390,0.02000,150.8125,159,74,0.26496
4243400,0.03000,149.3125,159,74,0.25934
4243410,0.03500,147.8750,159,74,0.25372
4243420,0.04000,145.0625,159,74,0.24298
4243430,0.04000,143.6250,159,74,0.23785
4243440,0.03000,142.1250,159,74,0.23297
4243450,0.00500,140.5625,159,74,0.22979
4243460,-0.01500,136.6875,159,74,0.22369
4243470,-0.03000,134.0000,159,74,0.21954
4243480,-0.03500,130.6250,159,74,0.21514
4243490,-0.02500,126.4375,159,74,0.21074
4243500,-0.01500,116.6875,159,74,0.20464
4243510,-0.00500,112.0000,159,74,0.20513
4243520,0.01000,107.9375,159,74,0.21026
4243530,0.02000,104.7500,159,74,0.22125
4243540,0.03000,100.7500,159,74,0.26422
4243550,0.03000,99.5625,159,74,0.29084
4243560,0.03000,98.8125,159,74,0.31917
4243570,0.02000,98.2500,159,74,0.35263
4243580,0.01000,97.4375,159,74,0.42027
4243590,0.01500,97.0625,159,74,0.44982
4243600,0.02000,96.5625,159,74,0.47497
4243610,0.03000,96.0625,159,74,0.49573
4243620,0.04000,94.7500,159,74,0.52601
4243630,0.04000,94.0000,159,74,0.53675
4243640,0.03000,93.3125,159,74,0.54554
4243650,-0.00500,92.5000,159,74,0.55189
4243660,-0.03000,90.8750,159,74,0.56093
4243670,-0.04500,90.0000,159,74,0.56508
4243680,-0.07000,89.1250,159,74,0.56874
4243690,-0.09000,88.3125,159,74,0.57167
4243700,-0.10000,86.6250,159,74,0.57558
4243710,-0.10000,85.8750,159,74,0.57607
4243720,-0.09000,85.1250,159,74,0.57534
4243730,-0.08500,84.4375,159,74,0.57289
4243740,-0.08500,83.3750,159,74,0.56313
4243750,-0.08500,82.8750,159,74,0.55629
4243760,-0.08500,82.4375,159,74,0.54847
4243770,-0.01500,81.8750,159,74,0.53871
4243780,0.30500,80.7500,159,74,0.51575
4243790,0.87500,80.1875,159,74,0.50379
4243800,1.04500,79.6250,159,74,0.49182
4243810,0.50000,79.0000,159,74,0.48034
4243820,-0.10000,78.1250,159,74,0.46632
4243830,-0.33500,77.2500,159,74,0.45211
4243840,-0.33500,76.6250,159,74,0.44005
4243850,-0.23000,76.0000,159,74,0.43248
4243860,-0.18000,74.8750,159,74,0.41880
4243870,-0.17000,74.3125,159,74,0.41148
4243880,-0.15500,73.8125,159,74,0.40415
4243890,-0.14500,72.8750,159,74,0.39683
4243900,-0.14500,72.5000,159,74,0.38217
4243910,-0.14500,72.2500,159,74,0.37509
4243920,-0.14000,72.1875,159,74,0.36801
4243930,-0.13500,72.6250,159,74,0.36093
4243940,-0.12500,77.8125,159,74,0.34750
4243950,-0.11500,84.0000,159,74,0.34212
4243960,-0.11000,92.5625,159,74,0.33748
4243970,-0.10000,102.6875,159,74,0.33187
4243980,-0.08500,124.0625,159,74,0.31990
4243990,-0.07500,133.6250,159,74,0.31380
4244000,-0.06500,141.7500,159,73,0.30769
4244010,-0.04500,148.0625,159,73,0.30159
4244020,-0.02500,155.7500,159,73,0.29011
4244030,-0.00500,157.4375,159,73,0.28474
4244040,0.00500,158.0625,159,73,0.27937
4244050,0.01500,157.9375,159,73,0.27546
4244060,0.02000,156.2500,159,73,0.26862
4244070,0.02000,154.9375,159,73,0.26447
4244080,0.02000,153.5000,159,73,0.26007
4244090,0.02000,152.0000,159,73,0.25568
4244100,0.02000,149.0000,159,73,0.24737
4244110,0.02000,147.6250,159,73,0.24347
4244120,0.02000,146.1875,159,73,0.23956
4244130,0.01000,144.8125,159,73,0.23590
4244140,0.00000,141.9375,159,73,0.22906
4244150,-0.02500,140.3125,159,73,0.22686
4244160,-0.04000,138.4375,159,73,0.22540
4244170,-0.04500,136.1875,159,73,0.22295
4244180,-0.04500,129.8125,159,73,0.21661
4244190,-0.04500,125.6250,159,73,0.21343
4244200,-0.03000,120.8750,159,73,0.21099
4244210,-0.01500,115.9375,159,73,0.21050
4244220,-0.00500,107.5000,159,73,0.22198
4244230,0.00000,104.4375,159,73,0.23663
4244240,0.01500,102.1875,159,73,0.25861
4244250,0.02000,100.5625,159,73,0.28303
4244260,0.02000,98.6875,159,73,0.34481
4244270,0.01000,98.1250,159,73,0.38193
4244280,0.00000,97.6875,159,73,0.41880
4244290,-0.00500,97.1875,159,73,0.45324
4244300,0.00000,96.1875,159,73,0.50891
4244310,0.02000,95.5625,159,73,0.52967
4244320,0.03000,94.8750,159,73,0.54652
4244330,0.04000,94.0625,159,73,0.56020
4244340,0.03000,92.5000,159,73,0.58022
4244350,0.00000,91.6875,159,73,0.58632
4244360,-0.03000,90.8125,159,73,0.59096
4244370,-0.05500,90.0000,159,73,0.59560
4244380,-0.07500,88.3750,159,73,0.60342
4244390,-0.10000,87.5625,159,73,0.60635
4244400,-0.10500,86.8125,159,73,0.60855
4244410,-0.10500,86.0625,159,73,0.60977
4244420,-0.11000,84.6875,159,73,0.60855
4244430,-0.10500,84.0000,159,73,0.60562
4244440,-0.10000,83.4375,159,73,0.60073
4244450,-0.09500,82.9375,159,73,0.59487
4244460,-0.09500,82.0000,159,73,0.57851
4244470,-0.07500,81.5000,159,73,0.56801
4244480,0.14500,80.8750,159,73,0.55629
4244490,0.70000,80.2500,159,73,0.54383
4244500,1.08500,79.0000,159,73,0.51893
4244510,0.71000,78.3750,159,73,0.50696
4244520,0.03000,77.8125,159,73,0.49548
4244530,-0.33500,77.1875,159,73,0.48449
4244540,-0.39000,76.0625,159,73,0.46447
4244550,-0.29500,75.5000,159,73,0.45617
4244560,-0.22000,75.0000,159,73,0.44908
4244570,-0.20500,74.5000,159,73,0.44151
4244580,-0.19000,73.5000,159,73,0.42637
4244590,-0.17500,73.0000,159,73,0.41905
4244600,-0.17000,72.5625,159,73,0.41172
4244610,-0.17000,72.1250,159,73,0.40440
4244620,-0.17000,71.8125,159,73,0.38950
4244630,-0.16500,72.3750,159,73,0.38217
4244640,-0.15500,74.1875,159,73,0.37485
4244650,-0.15000,84.5000,159,73,0.36899
4244660,-0.13500,93.3750,159,73,0.35775
4244670,-0.12000,103.7500,159,73,0.35165
4244680,-0.10500,114.6875,159,73,0.34554
4244690,-0.08500,125.2500,159,73,0.33944
4244700,-0.06500,142.8125,159,73,0.32723
4244710,-0.05000,149.1250,159,73,0.32137
4244720,-0.02500,153.6875,159,73,0.31575
4244730,-0.00500,156.6875,159,73,0.31013
4244740,0.01000,158.8750,159,73,0.29963
4244750,0.02000,158.6875,159,73,0.29597
4244760,0.02500,158.0000,159,73,0.29280
4244770,0.02500,157.0000,159,73,0.28889
4244780,0.02500,154.3750,159,73,0.28059
4244790,0.03000,153.0625,159,73,0.27643
4244800,0.02500,151.6875,159,73,0.27228
4244810,0.03000,150.3125,159,73,0.26838
4244820,0.03000,147.6250,159,73,0.26056
4244830,0.02500,146.3125,159,73,0.25665
4244840,0.02000,145.0625,159,73,0.26642
4244850,0.00000,142.8542,159,73,0.28258
4244860,-0.02500,140.3750,159,73,0.29524
4244870,-0.04500,138.3125,159,73,0.29451
4244880,-0.06000,135.6875,159,73,0.29206
4244890,-0.06500,132.4375,159,73,0.28889
4244900,-0.05000,123.9375,159,73,0.28327
4244910,-0.03500,118.8750,159,73,0.28303
4244920,-0.01500,113.9375,159,73,0.28694
4244930,-0.00500,109.5000,159,73,0.29719
4244940,0.00500,103.0000,159,73,0.33675
4244950,0.01500,100.9375,159,73,0.36361
4244960,0.01500,99.5000,159,73,0.39927
4244970,0.01000,98.4375,159,73,0.44078
4244980,0.00000,97.1250,159,73,0.52698
4244990,-0.00500,96.6250,159,73,0.56630
4245000,0.00000,96.1250,159,74,0.60073
4245010,0.01000,95.6250,159,74,0.62979
4245020,0.02000,94.4375,159,74,0.67277
4245030,0.02500,93.8125,159,74,0.68840
4245040,0.02000,93.1250,159,74,0.70085
4245050,0.00000,92.3750,159,74,0.70965
4245060,-0.02500,90.8125,159,74,0.72234
4245070,-0.05000,90.0000,159,74,0.72821
4245080,-0.07000,89.1875,159,74,0.73333
4245090,-0.09500,88.4375,159,74,0.73773
4245100,-0.11500,86.8750,159,74,0.74432
4245110,-0.12500,86.1250,159,74,0.74628
4245120,-0.12500,85.3750,159,74,0.74701
4245130,-0.12500,84.6875,159,74,0.74628
4245140,-0.13000,83.4375,159,74,0.73968
4245150,-0.12500,82.9375,159,74,0.73382
4245160,-0.12500,82.4375,159,74,0.72576
4245170,-0.12000,81.9375,159,74,0.71575
4245180,0.04000,80.8750,159,74,0.69109
4245190,0.52000,80.2500,159,74,0.67717
4245200,1.03000,79.6250,159,74,0.66252
4245210,0.86500,79.0000,159,74,0.64786
4245220,0.19000,77.7500,159,74,0.62002
4245230,-0.28500,77.0625,159,74,0.60708
4245240,-0.41500,76.4375,159,74,0.59487
4245250,-0.33500,75.8125,159,74,0.58437
4245260,-0.24000,74.6250,159,74,0.56532
4245270,-0.21000,74.1250,159,74,0.55556
4245280,-0.20000,73.6250,159,74,0.54603
4245290,-0.19500,73.1250,159,74,0.53651
4245300,-0.19000,72.1250,159,74,0.51844
4245310,-0.19000,71.6875,159,74,0.50965
4245320,-0.18000,71.4375,159,74,0.50085
4245330,-0.17000,71.4375,159,74,0.49231
4245340,-0.16000,74.2500,159,74,0.47643
4245350,-0.15500,78.5000,159,74,0.47009
4245360,-0.14500,85.5625,159,74,0.46300
4245370,-0.14000,94.9375,159,74,0.45519
4245380,-0.12500,116.7500,159,74,0.43980
4245390,-0.10500,127.3125,159,74,0.43199
4245400,-0.08000,136.6875,159,74,0.42442
4245410,-0.05500,144.4375,159,74,0.41709
4245420,-0.03000,154.6875,159,74,0.40317
4245430,-0.00500,157.4375,159,74,0.39634
4245440,0.01000,158.9375,159,74,0.38974
4245450,0.02000,159.4375,159,74,0.38462
4245460,0.02000,158.5625,159,74,0.37509
4245470,0.01500,157.5000,159,74,0.36947
4245480,0.01500,156.3125,159,74,0.36386
4245490,0.01000,155.0000,159,74,0.35824
4245500,0.01000,152.3750,159,74,0.34725
4245510,0.01000,151.1250,159,74,0.34188
4245520,0.01000,149.8750,159,74,0.33675
4245530,0.01000,148.6250,159,74,0.33187
4245540,0.01000,146.1250,159,74,0.32357
4245550,-0.01500,144.8125,159,74,0.32112
4245560,-0.03500,143.3125,159,74,0.31770
4245570,-0.06500,141.6250,159,74,0.31380
4245580,-0.08500,137.1250,159,74,0.30549
4245590,-0.10000,134.0625,159,74,0.30134
4245600,-0.09500,130.1875,159,74,0.29744
4245610,-0.08000,125.6250,159,74,0.29475
4245620,-0.06000,115.5000,159,74,0.29915
4245630,-0.04500,110.8750,159,74,0.30989
4245640,-0.03500,107.0000,159,74,0.32845
4245650,-0.01500,103.9375,159,74,0.35067
4245660,0.00000,100.0625,159,74,0.41343
4245670,0.00500,98.9375,159,74,0.45470
4245680,0.00000,98.0625,159,74,0.49817
4245690,-0.00500,97.4375,159,74,0.54042
4245700,-0.00500,96.3750,159,74,0.61319
4245710,0.00000,95.8750,159,74,0.64176
4245720,0.01000,95.2500,159,74,0.66520
4245730,0.01500,94.6250,159,74,0.68449
4245740,0.01000,93.2500,159,74,0.71111
4245750,-0.01000,92.5625,159,74,0.71917
4245760,-0.04500,91.8750,159,74,0.72723
4245770,-0.07500,91.1250,159,74,0.73455
4245780,-0.09000,89.5625,159,74,0.74701
4245790,-0.11500,88.7500,159,74,0.75189
4245800,-0.13500,87.9375,159,74,0.75604
4245810,-0.13500,87.1250,159,74,0.75922
4245820,-0.13500,85.6250,159,74,0.76215
4245830,-0.12500,84.9375,159,74,0.76142
4245840,-0.12500,84.3125,159,74,0.75897
4245850,-0.12000,83.7500,159,74,0.75482
4245860,-0.11000,82.6875,159,74,0.74090
4245870,-0.10500,82.0833,159,74,0.73004
4245880,0.01500,81.6250,159,74,0.71941
4245890,0.44000,81.0000,159,74,0.70623
4245900,0.99000,79.7500,159,74,0.67717
4245910,0.95000,79.1250,159,74,0.66203
4245920,0.31000,78.5000,159,74,0.64713
4245930,-0.22500,77.8750,159,74,0.63272
4245940,-0.40500,76.6250,159,74,0.60708
4245950,-0.33500,76.0000,159,74,0.59658
4245960,-0.23500,75.4375,159,74,0.58559
4245970,-0.19500,74.8750,159,74,0.57485
4245980,-0.18000,73.8125,159,74,0.55433
4245990,-0.17000,73.2500,159,74,0.54432
4246000,-0.16000,72.7500,160,75,0.53455
4246010,-0.15500,72.2500,160,75,0.52503
4246020,-0.15500,71.6875,160,75,0.50672
4246030,-0.15500,71.9375,160,75,0.49768
4246040,-0.14500,73.0625,160,75,0.48889
4246050,-0.14000,75.8125,160,75,0.48156
4246060,-0.13500,88.8125,160,75,0.46716
4246070,-0.12500,98.6250,160,75,0.45934
4246080,-0.11000,109.4375,160,75,0.45128
4246090,-0.09500,120.3125,160,75,0.44347
4246100,-0.07500,139.4375,160,75,0.42808
4246110,-0.04500,146.6875,160,75,0.42051
4246120,-0.02000,152.1875,160,75,0.41319
4246130,0.00000,156.0000,160,75,0.40586
4246140,0.03000,159.5000,160,75,0.39316
4246150,0.05000,159.7500,160,75,0.38852
4246160,0.06000,159.5000,160,75,0.38315
4246170,0.06500,158.7500,160,75,0.37729
4246180,0.06000,156.6250,160,75,0.36557
4246190,0.05500,155.3125,160,75,0.35971
4246200,0.05000,154.0625,160,75,0.35385
4246210,0.04500,152.8125,160,75,0.34823
4246220,0.04500,150.3750,160,75,0.33724
4246230,0.04000,149.1875,160,75,0.33211
4246240,0.03500,147.9375,160,75,0.32723
4246250,0.02000,146.6875,160,75,0.32405
4246260,0.00000,143.8125,160,75,0.31819
4246270,-0.03000,142.0000,160,75,0.31429
4246280,-0.04500,139.8750,160,75,0.31013
4246290,-0.05500,137.1875,160,75,0.30598
4246300,-0.05500,129.8750,160,75,0.29817
4246310,-0.05000,125.1250,160,75,0.29597
4246320,-0.03500,119.8750,160,75,0.29719
4246330,-0.03000,114.6875,160,75,0.30330
4246340,-0.01500,106.1875,160,75,0.33407
4246350,-0.00500,103.2500,160,75,0.35702
4246360,0.00000,101.0625,160,75,0.38926
4246370,-0.00500,99.5625,160,75,0.42833
4246380,-0.01000,97.7500,160,75,0.51502
4246390,-0.01500,97.1875,160,75,0.55678
4246400,-0.02000,96.6875,160,75,0.59438
4246410,-0.01500,96.1875,160,75,0.62686
4246420,-0.01000,95.1875,160,75,0.67619
4246430,-0.00500,94.6250,160,75,0.69402
4246440,-0.00500,94.0000,160,75,0.70867
4246450,-0.02500,93.3125,160,75,0.71893
4246460,-0.05500,91.9375,160,75,0.73407
4246470,-0.08500,91.1875,160,75,0.74139
4246480,-0.10500,90.4375,160,75,0.74799
4246490,-0.13500,89.6250,160,75,0.75385
4246500,-0.15500,87.9375,160,75,0.76313
4246510,-0.17000,87.1250,160,75,0.76630
4246520,-0.17000,86.3125,160,75,0.76850
4246530,-0.17000,85.5625,160,75,0.76923
4246540,-0.17000,84.1875,160,75,0.76532
4246550,-0.17000,83.6250,160,75,0.76068
4246560,-0.17000,83.0000,160,75,0.75458
4246570,-0.18500,82.5000,160,75,0.74628
4246580,-0.08500,81.3125,160,75,0.72381
4246590,0.32000,80.6250,160,75,0.71013
4246600,0.90000,79.9375,160,75,0.69524
4246610,0.91500,79.2500,160,75,0.67985
4246620,0.25000,77.9375,160,75,0.64884
4246630,-0.34500,77.2500,160,75,0.63419
4246640,-0.55500,76.6250,160,75,0.62149
4246650,-0.50500,75.9375,160,75,0.61026
4246660,-0.42000,74.6875,160,75,0.58706
4246670,-0.39500,74.0625,160,75,0.57582
4246680,-0.38000,73.4375,160,75,0.56508
4246690,-0.37000,72.8125,160,75,0.55482
4246700,-0.37000,71.6875,160,75,0.53504
4246710,-0.37500,71.2500,160,75,0.52576
4246720,-0.37500,70.8125,160,75,0.51648
4246730,-0.36500,70.6875,160,75,0.50745
4246740,-0.35000,72.6875,160,75,0.49109
4246750,-0.32500,76.3125,160,75,0.48425
4246760,-0.30000,82.6250,160,75,0.47668
4246770,-0.28000,91.5000,160,75,0.46886
4246780,-0.25000,113.5000,160,75,0.45226
4246790,-0.23000,124.5625,160,75,0.44396
4246800,-0.20000,134.5000,160,75,0.43590
4246810,-0.16000,142.8125,160,75,0.42808
4246820,-0.12000,154.0000,160,75,0.41319
4246830,-0.08500,157.0000,160,75,0.40586
4246840,-0.04000,158.7500,160,75,0.40024
4246850,0.00000,159.5000,160,75,0.39536
4246860,0.03000,159.1875,160,75,0.38364
4246870,0.04500,158.5000,160,75,0.37753
4246880,0.05000,157.5000,160,75,0.37143
