RelativeTimeMilliseconds,ECG,ART,ART (Sys),ART (Dia),PPG
4338960,0.03500,83.8125,139,62,0.33407
4338970,0.03000,83.2500,139,62,0.36020
4338980,0.03000,82.5000,139,62,0.42002
4338990,0.03500,82.1250,139,62,0.45128
4339000,0.05000,81.7500,139,61,0.48205
4339010,0.06000,81.2500,139,61,0.51136
4339020,0.06500,80.1875,139,61,0.56264
4339030,0.04500,79.5625,139,61,0.58437
4339040,0.01000,78.8750,139,61,0.60098
4339050,-0.02000,78.1250,139,61,0.61221
4339060,-0.04500,76.6875,139,61,0.63150
4339070,-0.06500,75.9375,139,61,0.63956
4339080,-0.08500,75.2500,139,61,0.64591
4339090,-0.09500,74.5625,139,61,0.65055
4339100,-0.10000,73.5521,139,61,0.65389
4339110,-0.10000,72.5625,139,61,0.65519
4339120,-0.09500,71.9375,139,61,0.65372
4339130,-0.09000,71.4375,139,61,0.65079
4339140,-0.08500,70.5000,139,61,0.64103
4339150,-0.09500,70.0625,139,61,0.63468
4339160,-0.02500,69.6875,139,61,0.62711
4339170,0.33000,69.3125,139,61,0.61856
4339180,1.02000,68.5000,139,61,0.59902
4339190,1.05500,68.0625,139,61,0.58828
4339200,0.44000,67.6250,139,61,0.57753
4339210,-0.19500,67.1250,139,61,0.56654
4339220,-0.44000,66.0625,139,61,0.54481
4339230,-0.39500,65.5625,139,61,0.53431
4339240,-0.26000,65.0000,139,61,0.52527
4339250,-0.18500,64.4375,139,61,0.51697
4339260,-0.16500,63.3125,139,61,0.49939
4339270,-0.15500,62.8125,139,61,0.49060
4339280,-0.14500,62.2500,139,61,0.48205
4339290,-0.13500,61.7500,139,61,0.47399
4339300,-0.13500,60.8750,139,61,0.45812
4339310,-0.11500,60.5000,139,61,0.45031
4339320,-0.10000,60.3750,139,61,0.44274
4339330,-0.07500,60.7500,139,61,0.43516
4339340,-0.06500,65.5625,139,61,0.42173
4339350,-0.05500,71.1875,139,61,0.41612
4339360,-0.05500,78.9375,139,61,0.41001
4339370,-0.04000,88.0625,139,61,0.40366
4339380,-0.02500,106.5625,139,61,0.39048
4339390,-0.00500,114.8125,139,61,0.38242
4339400,0.01500,121.8125,139,61,0.37509
4339410,0.03000,127.5000,139,61,0.36996
4339420,0.04000,134.6250,139,61,0.35897
4339430,0.06000,136.3125,139,61,0.35336
4339440,0.07000,137.0625,139,61,0.34896
4339450,0.07500,137.0000,139,61,0.34530
4339460,0.07500,135.2500,139,61,0.33553
4339470,0.07500,133.9375,139,61,0.33040
4339480,0.08000,132.4375,139,61,0.32503
4339490,0.08500,130.8125,139,61,0.31990
4339500,0.09000,127.3750,139,61,0.30965
4339510,0.09500,125.5625,139,61,0.30452
4339520,0.08500,123.8125,139,61,0.29939
4339530,0.07000,122.0625,139,61,0.29451
4339540,0.04000,118.4375,139,61,0.28791
4339550,0.01000,116.5625,139,61,0.28425
4339560,-0.01000,114.5625,139,61,0.28010
4339570,-0.01500,112.3125,139,61,0.27595
4339580,-0.01000,106.6250,139,61,0.26764
4339590,-0.00500,103.1875,139,61,0.26398
4339600,0.00000,99.5000,139,61,0.26105
4339610,0.00500,95.8125,139,61,0.25934
4339620,0.01000,89.6250,139,61,0.26178
4339630,0.01000,87.3125,139,61,0.26667
4339640,0.01500,85.5625,139,61,0.27375
4339650,0.01000,84.2500,139,61,0.28327
4339660,0.00000,82.4375,139,61,0.31355
4339670,-0.00500,81.8750,139,61,0.33431
4339680,-0.01500,81.3750,139,61,0.35824
4339690,-0.01500,81.0000,139,61,0.38462
4339700,-0.01500,80.1875,139,61,0.44176
4339710,0.00000,79.7500,139,61,0.47033
4339720,0.01000,79.1875,139,61,0.49792
4339730,0.02000,78.0625,139,61,0.52405
4339740,0.02000,77.5000,139,61,0.56239
4339750,0.00000,76.8125,139,61,0.57949
4339760,-0.03500,76.1875,139,61,0.59536
4339770,-0.06000,75.5000,139,61,0.60904
4339780,-0.09000,74.1875,139,61,0.62955
4339790,-0.10500,73.5000,139,61,0.63639
4339800,-0.11500,72.8750,139,61,0.64127
4339810,-0.11000,72.1875,139,61,0.64420
4339820,-0.11000,70.9375,139,61,0.64542
4339830,-0.10500,70.3750,139,61,0.64371
4339840,-0.09500,69.8750,139,61,0.64029
4339850,-0.08500,69.3750,139,61,0.63590
4339860,-0.08000,68.6875,139,61,0.62320
4339870,-0.08500,68.3750,139,61,0.61538
4339880,0.04500,68.0000,139,61,0.60659
4339890,0.49500,67.6875,139,61,0.59731
4339900,1.03000,66.9375,139,61,0.57753
4339910,0.94500,66.5000,139,61,0.56752
4339920,0.25500,66.0625,139,61,0.55775
4339930,-0.27000,65.5625,139,61,0.54799
4339940,-0.42500,64.5000,139,61,0.53162
4339950,-0.34500,64.0000,139,61,0.52357
4339960,-0.23000,63.5000,139,61,0.51526
4339970,-0.17500,63.0000,139,61,0.50720
4339980,-0.15500,62.0000,139,61,0.49158
4339990,-0.12500,61.5000,139,61,0.48376
4340000,-0.10500,61.0000,139,61,0.47619
4340010,-0.08500,60.0625,139,61,0.46178
4340020,-0.07000,59.6875,139,61,0.45495
4340030,-0.05000,59.3750,139,61,0.44811
4340040,-0.02500,59.4375,139,61,0.44225
4340050,-0.01500,60.1250,139,61,0.43712
4340060,-0.02000,66.4375,139,61,0.42491
4340070,-0.03000,73.0000,139,61,0.41856
4340080,-0.04000,81.3125,139,61,0.41221
4340090,-0.03500,90.5000,139,61,0.40610
4340100,-0.02500,108.3750,139,61,0.39390
4340110,-0.01000,116.1250,139,61,0.38803
4340120,0.00500,122.6250,139,61,0.38242
4340130,0.02000,127.8125,139,61,0.37705
4340140,0.03000,134.1875,139,61,0.36899
4340150,0.04000,135.6250,139,61,0.36435
4340160,0.03500,136.1875,139,61,0.35946
4340170,0.03000,136.0625,139,61,0.35433
4340180,0.02500,134.3750,139,61,0.34432
4340190,0.02500,133.1250,139,61,0.33944
4340200,0.02500,131.6875,139,61,0.33455
4340210,0.03000,130.0625,139,61,0.32967
4340220,0.03500,126.6875,139,61,0.32015
4340230,0.03000,124.9375,139,61,0.31551
4340240,0.02500,123.1875,139,61,0.31233
4340250,0.00500,121.4375,139,61,0.30989
4340260,-0.01500,117.8125,139,61,0.30256
4340270,-0.03500,115.8750,139,61,0.29841
4340280,-0.05000,113.6875,139,61,0.29402
4340290,-0.05500,111.3125,139,61,0.28938
4340300,-0.04500,105.3750,139,61,0.28034
4340310,-0.04000,101.8750,139,61,0.27668
4340320,-0.03500,98.0625,139,61,0.27350
4340330,-0.02500,94.3125,139,61,0.27179
4340340,-0.01500,88.1250,139,61,0.27448
4340350,-0.00500,85.9375,139,61,0.27888
4340360,0.00000,84.3125,139,61,0.28669
4340370,0.00000,83.0625,139,61,0.29866
4340380,-0.00417,81.5625,139,61,0.33748
4340390,-0.01000,81.0625,139,61,0.36435
4340400,-0.01500,80.6875,139,61,0.39536
4340410,-0.02000,80.2500,139,61,0.42930
4340420,-0.02000,79.4375,139,61,0.51404
4340430,-0.01000,79.0000,139,61,0.54212
4340440,0.00000,78.5000,139,61,0.56752
4340450,0.01000,77.9375,139,61,0.58999
4340460,0.01000,76.7500,139,61,0.63590
4340470,-0.01500,76.1250,139,61,0.65543
4340480,-0.05000,75.5000,139,61,0.67204
4340490,-0.06500,74.8125,139,61,0.68547
4340500,-0.08500,73.5625,139,61,0.70403
4340510,-0.10500,72.8750,139,61,0.70940
4340520,-0.12500,72.2500,139,61,0.71282
4340530,-0.13500,71.6250,139,61,0.71429
4340540,-0.14000,70.4375,139,61,0.71062
4340550,-0.15500,69.9375,139,61,0.70696
4340560,-0.17000,69.4375,139,61,0.70208
4340570,-0.19000,69.0000,139,61,0.69573
4340580,-0.19500,68.2500,139,61,0.67888
4340590,-0.17500,67.8750,139,61,0.66862
4340600,0.00000,67.5000,139,61,0.65763
4340610,0.48500,67.1250,139,61,0.64591
4340620,1.01500,66.3125,139,61,0.62198
4340630,0.85500,65.8750,139,61,0.61026
4340640,0.16500,65.3750,139,61,0.59951
4340650,-0.31500,64.8750,139,61,0.58950
4340660,-0.45000,63.8750,139,61,0.56850
4340670,-0.35500,63.4375,139,61,0.55800
4340680,-0.23500,63.0000,139,61,0.54774
4340690,-0.19500,62.5625,139,61,0.53773
4340700,-0.17500,61.6875,139,61,0.51819
4340710,-0.16000,61.2500,139,61,0.50916
4340720,-0.15000,60.8125,139,61,0.50037
4340730,-0.14500,60.3125,139,61,0.49182
4340740,-0.13000,59.5000,139,61,0.47766
4340750,-0.11500,59.3125,139,61,0.47033
4340760,-0.10000,59.5000,139,61,0.46252
4340770,-0.09000,63.4375,139,61,0.45470
4340780,-0.08000,68.5000,139,61,0.43907
4340790,-0.07500,75.8125,139,61,0.43150
4340800,-0.06000,84.5625,139,61,0.42369
4340810,-0.04500,93.7500,139,61,0.41612
4340820,-0.02500,111.1250,139,61,0.40122
4340830,-0.01000,118.4375,139,61,0.39414
4340840,0.01000,124.5000,139,61,0.38852
4340850,0.02000,129.2500,139,61,0.38388
4340860,0.03500,134.9375,139,61,0.37289
4340870,0.04500,136.1875,139,61,0.36752
4340880,0.05000,136.6250,139,61,0.36190
4340890,0.04500,136.4375,139,61,0.35629
4340900,0.04500,134.8125,139,61,0.34530
4340910,0.04000,133.6250,139,61,0.33993
4340920,0.04000,132.1875,139,61,0.33455
4340930,0.04500,130.6875,139,61,0.32943
4340940,0.05000,127.3750,139,61,0.32186
4340950,0.04500,125.6875,139,61,0.31770
4340960,0.03500,124.0000,139,61,0.31331
4340970,0.01000,122.3125,139,61,0.30867
4340980,-0.01000,118.8750,139,61,0.29939
4340990,-0.03500,117.0000,139,61,0.29524
4341000,-0.04500,114.9375,139,61,0.29133
4341010,-0.04500,112.6250,139,61,0.28767
4341020,-0.03500,106.9375,139,61,0.28059
4341030,-0.02000,103.5000,139,61,0.27790
4341040,-0.01000,99.7500,139,61,0.27692
4341050,0.00000,96.0000,139,61,0.27717
4341060,0.01000,89.6250,139,61,0.28205
4341070,0.02000,87.2500,139,61,0.28840
4341080,0.03000,85.3750,139,61,0.29866
4341090,0.02000,84.0000,139,61,0.31355
4341100,-0.01500,82.0625,139,61,0.36117
4341110,-0.09000,81.3750,139,61,0.39365
4341120,-0.13500,80.7500,139,61,0.43028
4341130,-0.12500,80.2500,139,61,0.46935
4341140,-0.08500,79.3125,139,61,0.53700
4341150,-0.03333,78.7500,139,61,0.57778
4341160,0.01500,78.3125,139,61,0.60684
4341170,0.04500,77.7500,139,61,0.63932
4341180,0.05000,76.6875,139,61,0.69402
4341190,0.02500,76.1250,139,61,0.71551
4341200,-0.00500,75.6250,139,61,0.73309
4341210,-0.05000,75.0625,139,61,0.74701
4341220,-0.09500,74.0000,139,61,0.76508
4341230,-0.12500,73.4375,139,61,0.77021
4341240,-0.14000,72.8125,139,61,0.77216
4341250,-0.14000,72.1875,139,61,0.77167
4341260,-0.13500,70.9375,139,61,0.76850
4341270,-0.13000,70.3125,139,61,0.76459
4341280,-0.11500,69.7500,139,61,0.75922
4341290,-0.10500,69.2500,139,61,0.75214
4341300,-0.10500,68.3125,139,61,0.73284
4341310,-0.10500,67.8750,139,61,0.72088
4341320,0.09500,67.4375,139,61,0.70769
4341330,0.63000,66.9375,139,61,0.69353
4341340,1.07500,66.0625,139,61,0.66593
4341350,0.77000,65.5625,139,61,0.65079
4341360,0.06000,65.1250,139,61,0.63492
4341370,-0.36000,64.6875,139,61,0.61880
4341380,-0.45000,63.8125,139,61,0.58877
4341390,-0.34500,63.3750,139,61,0.57558
4341400,-0.24000,62.8750,139,61,0.56410
4341410,-0.21000,62.4375,139,61,0.55433
4341420,-0.19000,61.5000,139,61,0.53822
4341430,-0.18500,61.0625,139,61,0.53138
4341440,-0.18000,60.5625,139,61,0.52234
4341450,-0.17500,60.1250,139,61,0.51306
4341460,-0.16500,59.3125,139,61,0.49719
4341470,-0.15000,59.1875,139,61,0.48767
4341480,-0.13500,59.6250,139,61,0.47766
4341490,-0.12500,61.1250,139,61,0.46740
4341500,-0.11500,70.2500,139,61,0.44762
4341510,-0.10000,78.0625,139,61,0.43810
4341520,-0.07500,87.0625,139,61,0.42857
4341530,-0.05500,96.3750,139,61,0.41929
4341540,-0.03000,113.5625,139,61,0.40464
4341550,-0.01500,120.6875,139,61,0.39707
4341560,0.00500,126.5000,139,61,0.38926
4341570,0.02500,131.0000,139,61,0.38169
4341580,0.04000,136.1875,139,61,0.36703
4341590,0.04000,137.1875,139,61,0.35995
4341600,0.04000,137.4375,139,61,0.35311
4341610,0.03500,137.0625,139,61,0.34652
4341620,0.03000,135.2500,139,61,0.33358
4341630,0.03000,133.9375,139,61,0.32894
4341640,0.03500,132.5000,139,61,0.32503
4341650,0.04000,131.0000,139,61,0.32015
4341660,0.05500,127.6875,139,61,0.30940
4341670,0.05500,126.0000,139,61,0.30427
4341680,0.04500,124.3125,139,61,0.29915
4341690,0.02000,120.9375,139,61,0.29402
4341700,-0.00500,119.1875,139,61,0.28449
4341710,-0.02500,117.3125,139,61,0.27985
4341720,-0.03500,115.3125,139,61,0.27546
4341730,-0.03500,113.0625,139,61,0.27131
4341740,-0.03500,107.4375,139,61,0.26691
4341750,-0.03000,103.9375,139,61,0.26496
4341760,-0.02000,100.1250,139,61,0.26349
4341770,-0.00500,96.3125,139,61,0.26325
4341780,0.00500,89.8750,139,61,0.26984
4341790,0.01000,87.4375,139,61,0.27766
4341800,0.02000,85.5625,139,61,0.28962
4341810,0.02000,84.1250,139,61,0.30623
4341820,0.01500,82.1875,139,61,0.35360
4341830,0.01000,81.4375,139,61,0.37973
4341840,0.01000,80.8125,139,61,0.40684
4341850,0.01000,80.3125,139,61,0.43932
4341860,0.01500,79.2500,139,61,0.51013
4341870,0.03000,78.7500,139,61,0.54530
4341880,0.04000,78.2500,139,61,0.57851
4341890,0.04500,77.7500,139,61,0.60928
4341900,0.03000,76.6875,139,61,0.66105
4341910,0.00000,76.0625,139,61,0.68181
4341920,-0.02500,75.5000,139,61,0.69890
4341930,-0.05000,74.8750,139,61,0.71282
4341940,-0.07000,73.6250,139,61,0.72821
4341950,-0.09500,73.0000,139,61,0.73358
4341960,-0.10500,72.4375,139,61,0.73748
4341970,-0.10500,71.2500,139,61,0.74042
4341980,-0.10500,70.6875,139,61,0.73944
4341990,-0.10500,70.1250,139,61,0.73700
4342000,-0.09500,69.6875,139,61,0.73284
4342010,-0.09500,69.2500,139,61,0.72723
4342020,-0.10000,68.5000,139,61,0.71111
4342030,-0.08500,68.1875,139,61,0.70159
4342040,0.14500,67.8125,139,61,0.69133
4342050,0.70000,67.4375,139,61,0.68010
4342060,1.10500,66.5000,139,61,0.65543
4342070,0.73500,66.0000,139,61,0.64274
4342080,0.02500,65.5000,139,61,0.63004
4342090,-0.36500,64.9375,139,61,0.61758
4342100,-0.43500,63.8125,139,61,0.59316
4342110,-0.33000,63.3125,139,61,0.58144
4342120,-0.24000,62.7500,139,61,0.56996
4342130,-0.21500,62.2500,139,61,0.55873
4342140,-0.19500,61.3125,139,61,0.54017
4342150,-0.18000,60.8125,139,61,0.53065
4342160,-0.17500,60.3750,139,61,0.52112
4342170,-0.17000,59.8750,139,61,0.51136
4342180,-0.16500,59.2500,139,61,0.49231
4342190,-0.16000,59.1875,139,61,0.48303
4342200,-0.15000,59.7500,139,61,0.47399
4342210,-0.14500,61.5000,139,61,0.46545
4342220,-0.14000,71.2500,139,61,0.44884
4342230,-0.12500,79.1875,139,61,0.44176
4342240,-0.10500,88.2500,139,61,0.43541
4342250,-0.08500,97.5000,139,61,0.42833
4342260,-0.06500,114.3750,139,61,0.41368
4342270,-0.04500,121.3125,139,61,0.40635
4342280,-0.02000,127.0000,139,61,0.39927
4342290,0.00000,131.3125,139,61,0.39243
4342300,0.02000,136.2500,139,61,0.37900
4342310,0.03000,137.2500,139,61,0.37265
4342320,0.03500,137.4375,139,61,0.36654
4342330,0.03000,137.1250,139,61,0.36068
4342340,0.03000,135.3750,139,61,0.35214
4342350,0.02500,134.0625,139,61,0.34725
4342360,0.03000,132.6875,139,61,0.34188
4342370,0.04000,131.1875,139,61,0.33626
4342380,0.05000,127.9375,139,61,0.32552
4342390,0.05000,126.2500,139,61,0.32039
4342400,0.03500,124.5625,139,61,0.31526
4342410,0.01000,122.9375,139,61,0.31038
4342420,-0.01500,119.5000,139,61,0.30061
4342430,-0.04000,117.6250,139,61,0.29719
4342440,-0.05500,115.6250,139,61,0.29451
4342450,-0.06500,113.4375,139,61,0.29084
4342460,-0.06000,107.8125,139,61,0.28205
4342470,-0.05500,104.3125,139,61,0.27839
4342480,-0.04500,100.5625,139,61,0.27643
4342490,-0.03500,96.6875,139,61,0.27595
4342500,-0.03000,90.1250,139,61,0.28205
4342510,-0.02500,87.6875,139,61,0.29035
4342520,-0.01500,85.8125,139,61,0.30305
4342530,-0.01500,84.3125,139,61,0.32088
4342540,-0.02000,82.2500,139,61,0.36264
4342550,-0.03000,81.5000,139,61,0.39096
4342560,-0.03500,80.9375,139,61,0.42393
4342570,-0.03000,79.9375,139,61,0.49719
4342580,-0.02500,79.4375,139,61,0.53455
4342590,-0.01500,78.9375,139,61,0.57070
4342600,0.00000,78.3750,139,61,0.60464
4342610,0.00000,77.8125,139,61,0.63565
4342620,-0.00500,76.6875,139,61,0.68718
4342630,-0.03500,76.1875,139,61,0.70452
4342640,-0.05500,75.5625,139,61,0.71770
4342650,-0.07500,75.0000,139,61,0.72991
4342660,-0.10000,73.8125,139,61,0.74896
4342670,-0.12500,73.1875,139,61,0.75531
4342680,-0.13500,72.5625,139,61,0.75946
4342690,-0.13500,71.9375,139,61,0.76166
4342700,-0.12500,70.8125,139,61,0.76044
4342710,-0.12500,70.3125,139,61,0.75702
4342720,-0.12500,69.8750,139,61,0.75189
4342730,-0.11500,69.4375,139,61,0.74505
4342740,-0.12000,68.6875,139,61,0.72772
4342750,-0.10500,68.3750,139,61,0.71722
4342760,0.14500,67.9375,139,61,0.70574
4342770,0.72500,67.5625,139,61,0.69328
4342780,1.11500,66.7500,139,61,0.66716
4342790,0.71000,66.3125,139,61,0.65397
4342800,-0.03500,65.8125,139,61,0.64078
4342810,-0.43500,65.3125,139,61,0.62759
4342820,-0.47500,64.2500,139,61,0.60220
4342830,-0.34500,63.6875,139,61,0.59096
4342840,-0.25000,63.1875,139,61,0.58046
4342850,-0.23000,62.6250,139,61,0.56972
4342860,-0.21500,61.6250,139,61,0.54799
4342870,-0.20000,61.1250,139,61,0.53724
4342880,-0.19500,60.6250,139,61,0.52674
4342890,-0.19000,60.1875,139,61,0.51624
4342900,-0.18000,59.5625,139,61,0.49646
4342910,-0.17500,59.5625,139,61,0.48718
4342920,-0.16000,60.3125,139,61,0.47790
4342930,-0.15500,66.5625,139,61,0.46886
4342940,-0.14500,73.0625,139,61,0.45397
4342950,-0.13500,81.4375,139,61,0.44615
4342960,-0.11500,90.8125,139,61,0.43834
4342970,-0.09500,100.3125,139,61,0.43028
4342980,-0.06500,117.2500,139,61,0.41416
4342990,-0.04000,124.0625,139,61,0.40610
4343000,-0.01000,129.5000,139,61,0.39829
4343010,0.00500,133.6250,139,61,0.39072
4343020,0.02000,138.0625,139,61,0.37631
4343030,0.02500,138.8750,139,61,0.37070
4343040,0.02500,139.0000,139,61,0.36606
4343050,0.02000,138.6250,139,61,0.36044
4343060,0.01500,136.8125,139,61,0.34872
4343070,0.01000,135.6250,139,61,0.34286
4343080,0.01500,134.3125,139,61,0.33700
4343090,0.02000,132.8750,139,61,0.33138
4343100,0.02500,129.9375,139,61,0.32015
4343110,0.03000,128.3750,139,61,0.31453
4343120,0.01500,126.7500,139,61,0.30916
4343130,-0.01000,125.1875,139,61,0.30525
4343140,-0.04000,121.7500,139,61,0.29524
4343150,-0.06500,119.8750,139,61,0.28596
4343160,-0.08000,117.8125,139,61,0.27912
4343170,-0.09000,115.5625,139,61,0.27350
4343180,-0.09000,110.0000,139,61,0.26422
4343190,-0.08500,106.5625,139,61,0.26105
4343200,-0.07583,103.2500,139,61,0.25828
4343210,-0.06500,98.6875,139,61,0.25910
4343220,-0.05500,91.5000,139,61,0.26667
4343230,-0.04500,88.8125,139,61,0.27473
4343240,-0.04000,86.6875,139,61,0.28571
4343250,-0.04000,85.1250,139,61,0.30183
4343260,-0.04500,83.1250,139,61,0.34872
4343270,-0.06000,82.5000,139,61,0.37900
4343280,-0.07000,82.0000,139,61,0.41270
4343290,-0.06500,81.5625,139,61,0.44860
4343300,-0.05500,80.7500,139,61,0.52210
4343310,-0.03500,80.3750,139,61,0.55727
4343320,-0.01500,79.9375,139,61,0.59023
4343330,-0.01000,79.4375,139,61,0.61661
4343340,-0.01500,78.3750,139,61,0.66032
4343350,-0.04000,77.8125,139,61,0.68034
4343360,-0.06500,77.1875,139,61,0.69768
4343370,-0.09500,76.5625,139,61,0.71233
4343380,-0.12500,75.2500,139,61,0.73333
4343390,-0.14500,74.5000,139,61,0.74017
4343400,-0.15500,73.8125,139,61,0.74481
4343410,-0.16000,73.1875,139,61,0.74774
4343420,-0.16000,72.0000,139,61,0.74774
4343430,-0.15500,71.3750,139,61,0.74481
4343440,-0.14500,70.8750,139,61,0.74017
4343450,-0.13500,70.3750,139,61,0.73431
4343460,-0.13500,69.5000,139,61,0.71819
4343470,-0.13500,69.0625,139,61,0.70794
4343480,0.07000,68.6875,139,61,0.69670
4343490,0.64000,68.3125,139,61,0.68132
4343500,1.14500,67.5000,139,61,0.65617
4343510,0.84500,67.1250,139,61,0.64396
4343520,0.04000,66.6875,139,61,0.63101
4343530,-0.44000,66.2500,139,61,0.61905
4343540,-0.50000,65.2500,139,61,0.59536
4343550,-0.36500,64.6875,139,61,0.58315
4343560,-0.26000,64.1875,139,61,0.57118
4343570,-0.24000,63.6875,139,61,0.55946
4343580,-0.22500,62.6875,139,61,0.53724
4343590,-0.21000,62.1875,139,61,0.52650
4343600,-0.20000,61.6875,139,61,0.51600
4343610,-0.20000,61.2500,139,61,0.50574
4343620,-0.19000,60.5000,139,61,0.48620
4343630,-0.18000,60.3750,139,61,0.47790
4343640,-0.16500,60.8750,139,61,0.47033
4343650,-0.16000,62.6875,139,61,0.46203
4343660,-0.15000,72.8750,139,61,0.44444
4343670,-0.13500,81.3750,139,61,0.43590
4343680,-0.12000,90.9375,139,61,0.42759
4343690,-0.10000,100.7500,139,61,0.41954
4343700,-0.07500,118.2500,139,61,0.40415
4343710,-0.05000,125.2500,139,61,0.39658
4343720,-0.02000,130.8750,139,61,0.38950
4343730,0.00000,135.0000,139,61,0.38364
4343740,0.02500,139.4375,139,61,0.37289
4343750,0.03500,140.2500,139,61,0.36679
4343760,0.03500,140.3125,139,61,0.36068
4343770,0.03000,139.8750,139,61,0.35433
4343780,0.02500,138.1875,139,61,0.34212
4343790,0.01500,137.0625,139,61,0.33626
4343800,0.01500,135.7500,139,61,0.33040
4343810,0.02000,134.4375,139,61,0.32479
4343820,0.02500,131.6875,139,61,0.31355
4343830,0.02500,130.1875,139,61,0.30916
4343840,0.02000,128.6250,139,61,0.30574
4343850,-0.00500,127.0000,139,61,0.30134
4343860,-0.03000,123.4375,139,61,0.29158
4343870,-0.05500,121.5000,139,61,0.28669
4343880,-0.06500,119.4375,139,61,0.28181
4343890,-0.07500,117.1875,139,61,0.27717
4343900,-0.07500,111.6250,139,61,0.26935
4343910,-0.07000,108.2500,139,61,0.26618
4343920,-0.05500,104.4375,139,61,0.26422
4343930,-0.04500,100.5000,139,61,0.26447
4343940,-0.04000,93.3750,139,61,0.27131
4343950,-0.03500,90.5625,139,61,0.27888
4343960,-0.03000,88.3750,139,61,0.29060
4343970,-0.03000,86.6875,139,61,0.30720
4343980,-0.03500,84.4375,139,61,0.36923
4343990,-0.05000,83.7500,139,61,0.39438
4344000,-0.06000,83.1875,138,61,0.42637
4344010,-0.06500,82.7500,138,61,0.46203
4344020,-0.05500,82.0000,138,61,0.53724
4344030,-0.04000,81.6250,138,61,0.56874
4344040,-0.02500,81.1250,138,61,0.59609
4344050,-0.02000,80.6250,138,61,0.62466
4344060,-0.02500,79.4375,138,61,0.67668
4344070,-0.05500,78.8125,138,61,0.69817
4344080,-0.08500,78.1875,138,61,0.71624
4344090,-0.10500,77.5625,138,61,0.73114
4344100,-0.12500,76.1875,138,61,0.75433
4344110,-0.15000,75.4375,138,61,0.75995
4344120,-0.16000,74.7500,138,61,0.76386
4344130,-0.16000,74.1250,138,61,0.76508
4344140,-0.16000,72.8750,138,61,0.76337
4344150,-0.16000,72.3125,138,61,0.76117
4344160,-0.15500,71.7500,138,61,0.75775
4344170,-0.14500,71.2500,138,61,0.75263
4344180,-0.15000,70.3125,138,61,0.73700
4344190,-0.15500,69.9375,138,61,0.72674
4344200,0.05500,69.5000,138,61,0.71526
4344210,0.64000,69.1250,138,61,0.70281
4344220,1.16500,68.5729,138,61,0.68323
4344230,0.83000,68.0000,138,61,0.66374
4344240,-0.01500,67.5625,138,61,0.65153
4344250,-0.51000,67.1875,138,61,0.63883
4344260,-0.55000,66.1875,138,61,0.60781
4344270,-0.39000,65.6875,138,61,0.59731
4344280,-0.27500,65.1250,138,61,0.58584
4344290,-0.25000,64.5625,138,61,0.57411
4344300,-0.23500,63.3750,138,61,0.55092
4344310,-0.22000,62.8125,138,61,0.53724
4344320,-0.21000,62.3125,138,61,0.52503
4344330,-0.20000,61.8125,138,61,0.51746
4344340,-0.19000,61.0625,138,61,0.49841
4344350,-0.18000,60.8750,138,61,0.48571
4344360,-0.16500,61.3125,138,61,0.47692
4344370,-0.15500,63.0000,138,61,0.47033
4344380,-0.14500,73.1250,138,61,0.45031
4344390,-0.14000,81.5625,138,61,0.44298
4344400,-0.12500,91.1875,138,61,0.43492
4344410,-0.10500,101.0000,138,61,0.42442
4344420,-0.08000,118.6875,138,61,0.40708
4344430,-0.05500,125.6875,138,61,0.39829
4344440,-0.02500,131.1875,138,61,0.38999
4344450,-0.00500,135.2500,138,61,0.38193
4344460,0.02000,139.3750,138,61,0.36703
4344470,0.03500,140.0000,138,61,0.36020
4344480,0.04000,140.0000,138,61,0.35336
4344490,0.04000,139.5000,138,61,0.34676
4344500,0.04000,137.6875,138,61,0.33382
4344510,0.04000,136.4375,138,61,0.32747
4344520,0.05000,135.1250,138,61,0.32283
4344530,0.05500,133.6875,138,61,0.32039
4344540,0.07000,130.6250,138,61,0.30989
4344550,0.08000,128.9375,138,61,0.30403
4344560,0.07500,127.2500,138,61,0.29841
4344570,0.05000,125.5625,138,61,0.29304
4344580,0.02500,122.0625,138,61,0.28352
4344590,0.00000,120.1875,138,61,0.27912
4344600,-0.01500,118.1250,138,61,0.27326
4344610,-0.02500,115.8125,138,61,0.26813
4344620,-0.02500,110.0625,138,61,0.26129
4344630,-0.02000,106.5625,138,61,0.26032
4344640,-0.01000,102.6875,138,61,0.26007
4344650,0.00000,95.1250,138,61,0.26154
4344660,0.01000,91.9375,138,61,0.27302
4344670,0.01000,89.3125,138,61,0.28498
4344680,0.01000,87.3125,138,61,0.30183
4344690,0.00000,85.7500,138,61,0.32381
4344700,-0.01000,83.8125,138,61,0.38266
4344710,-0.01500,83.1875,138,61,0.41758
4344720,-0.01500,82.6875,138,61,0.44957
4344730,-0.01500,82.2500,138,61,0.48010
4344740,-0.00500,81.4375,138,61,0.54872
4344750,0.00000,81.0000,138,61,0.58193
4344760,0.02000,80.5000,138,61,0.61245
4344770,0.03000,80.0000,138,61,0.63980
4344780,0.01500,78.7500,138,61,0.68425
4344790,-0.01500,78.1250,138,61,0.70110
4344800,-0.03500,77.4375,138,61,0.71502
4344810,-0.05500,76.6875,138,61,0.72601
4344820,-0.07000,75.3125,138,61,0.73895
4344830,-0.09000,74.6250,138,61,0.74139
4344840,-0.10000,73.9375,138,61,0.74335
4344850,-0.10000,73.3125,138,61,0.74408
4344860,-0.09500,72.0000,138,61,0.74042
4344870,-0.09500,71.4375,138,61,0.73626
4344880,-0.08500,70.9375,138,61,0.73016
4344890,-0.07500,70.4375,138,61,0.72234
4344900,-0.07500,69.6250,138,61,0.70183
4344910,-0.05000,69.2500,138,61,0.68987
4344920,0.19500,68.8750,138,61,0.67790
4344930,0.77000,68.4375,138,61,0.66593
4344940,1.12000,67.6250,138,61,0.63956
4344950,0.65000,67.1875,138,61,0.62613
4344960,-0.09500,66.6875,138,61,0.61294
4344970,-0.46500,66.1875,138,61,0.59976
4344980,-0.47000,65.0000,138,61,0.57387
4344990,-0.39666,64.3750,138,61,0.56142
4345000,-0.32000,63.8125,138,61,0.54921
4345010,-0.31500,63.2500,138,61,0.53773
4345020,-0.33000,62.1875,138,61,0.51844
4345030,-0.33500,61.6250,138,61,0.50842
4345040,-0.32500,61.1250,138,61,0.49841
4345050,-0.31500,60.6875,138,61,0.48816
4345060,-0.30000,59.9375,138,61,0.46886
4345070,-0.26000,59.8125,138,61,0.45958
4345080,-0.21000,60.2500,138,61,0.45031
4345090,-0.16000,61.9375,138,61,0.44103
4345100,-0.11500,71.7500,138,61,0.42320
4345110,-0.06500,79.9375,138,61,0.41465
4345120,-0.01500,89.2500,138,61,0.40757
4345130,0.04000,98.8125,138,61,0.40122
4345140,0.09000,115.9375,138,61,0.38657
4345150,0.13500,122.6875,138,61,0.37900
4345160,0.16500,128.0625,138,61,0.37143
4345170,0.18000,132.1250,138,61,0.36410
4345180,0.18500,136.5000,138,61,0.34847
4345190,0.18500,137.1875,138,61,0.33871
4345200,0.18500,137.1250,138,61,0.33089
4345210,0.17500,136.5000,138,61,0.32405
4345220,0.16500,134.3125,138,61,0.31477
4345230,0.15500,132.8750,138,61,0.30989
4345240,0.14500,131.3125,138,61,0.30476
4345250,0.13750,128.7813,138,61,0.29695
4345260,0.13000,126.1875,138,61,0.28913
4345270,0.12000,124.4375,138,61,0.28400
4345280,0.10000,122.6250,138,61,0.27912
4345290,0.08000,119.0000,138,61,0.27424
4345300,0.05500,117.1250,138,61,0.26447
4345310,0.03500,115.0625,138,61,0.25983
4345320,0.02000,112.8125,138,61,0.25641
4345330,0.01000,110.1250,138,61,0.25397
4345340,0.01000,103.7500,138,61,0.24811
4345350,0.01500,100.0625,138,61,0.24567
4345360,0.02000,96.3750,138,61,0.24469
4345370,0.03000,93.0000,138,61,0.24542
4345380,0.03500,87.8125,138,61,0.25543
4345390,0.04000,86.0000,138,61,0.26593
4345400,0.03500,84.6875,138,61,0.28059
4345410,0.03000,83.6875,138,61,0.29963
4345420,0.02500,82.2500,138,61,0.34164
4345430,0.01500,81.6875,138,61,0.36874
4345440,0.01000,81.1875,138,61,0.39927
4345450,0.01500,80.7500,138,61,0.43126
4345460,0.02000,79.8750,138,61,0.49524
4345470,0.03500,79.3125,138,61,0.52479
4345480,0.04000,78.7500,138,61,0.55189
4345490,0.04000,78.1875,138,61,0.57607
4345500,0.02000,76.9375,138,61,0.61490
4345510,-0.01000,76.2500,138,61,0.62979
4345520,-0.03500,75.6250,138,61,0.64005
4345530,-0.06000,74.9375,138,61,0.64737
4345540,-0.08500,73.6250,138,61,0.65885
4345550,-0.09500,73.0000,138,61,0.66203
4345560,-0.09500,72.3750,138,61,0.66374
4345570,-0.10000,71.7500,138,61,0.66398
4345580,-0.10000,70.6250,138,61,0.65934
4345590,-0.10000,70.1250,138,61,0.65446
4345600,-0.09500,69.7500,138,61,0.64786
4345610,-0.09000,69.3750,138,61,0.64005
4345620,-0.10500,68.7500,138,61,0.62247
4345630,0.01000,68.3750,138,61,0.61245
4345640,0.43000,68.0000,138,61,0.60147
4345650,0.99000,67.6250,138,61,0.59023
4345660,0.93000,66.7500,138,61,0.56679
4345670,0.27000,66.2500,138,61,0.55507
4345680,-0.27000,65.6875,138,61,0.54383
4345690,-0.45000,65.1250,138,61,0.53284
4345700,-0.37500,64.0000,138,61,0.51160
4345710,-0.25500,63.4375,138,61,0.50134
4345720,-0.20500,62.9375,138,61,0.49280
4345730,-0.18500,62.3750,138,61,0.48474
4345740,-0.17000,61.4375,138,61,0.46764
4345750,-0.16000,60.9375,138,61,0.45910
4345760,-0.15500,60.5000,138,61,0.45055
4345770,-0.15000,60.0625,138,61,0.44225
4345780,-0.13500,59.6875,138,61,0.42564
4345790,-0.11500,60.1250,138,61,0.41758
4345800,-0.10500,61.5625,138,61,0.40977
4345810,-0.10000,64.8750,138,61,0.40195
4345820,-0.09500,78.1250,138,61,0.38999
4345830,-0.08500,87.0000,138,61,0.38364
4345840,-0.06500,96.2500,138,61,0.37680
4345850,-0.04500,105.1250,138,61,0.36996
4345860,-0.03000,120.0000,138,61,0.35702
4345870,-0.01000,125.5625,138,61,0.35067
4345880,0.01000,129.7500,138,61,0.34432
4345890,0.02000,132.6875,138,61,0.33822
4345900,0.03500,135.2500,138,61,0.32625
4345910,0.04000,135.3750,138,61,0.32063
4345920,0.04000,134.8750,138,61,0.31624
4345930,0.04500,133.9375,138,61,0.31282
4345940,0.05000,131.3125,138,61,0.30354
4345950,0.05000,129.7500,138,61,0.29866
4345960,0.05500,128.1250,138,61,0.29377
4345970,0.06500,126.4375,138,61,0.28889
4345980,0.07000,122.9375,138,61,0.27937
4345990,0.06000,121.1250,138,61,0.27473
4346000,0.03000,119.3125,138,61,0.27009
4346010,0.01000,117.4375,138,61,0.26545
4346020,-0.01500,113.5000,138,61,0.25983
4346030,-0.03500,111.2500,138,61,0.25641
4346040,-0.03500,108.6875,138,61,0.25275
4346050,-0.02500,105.7500,138,61,0.24908
4346060,-0.02500,98.7500,138,61,0.24371
4346070,-0.01500,95.0625,138,61,0.24298
4346080,-0.00500,91.6875,138,61,0.24396
4346090,0.00000,88.8125,138,61,0.24737
4346100,0.00500,84.8750,138,61,0.26422
4346110,0.01000,83.5625,138,61,0.27814
4346120,0.01000,82.5625,138,61,0.29353
4346130,0.00500,81.8125,138,61,0.31136
4346140,-0.00500,80.7500,138,61,0.36044
4346150,-0.01000,80.3125,138,61,0.38950
4346160,-0.00500,79.9375,138,61,0.42002
4346170,0.00000,79.4375,138,61,0.45079
4346180,0.01000,78.4375,138,61,0.50940
4346190,0.02000,77.9375,138,61,0.53578
4346200,0.03000,77.3125,138,61,0.55971
4346210,0.03000,76.6875,138,61,0.58071
4346220,0.00000,75.4375,138,61,0.60855
4346230,-0.02500,74.8125,138,61,0.62027
4346240,-0.05000,74.1875,138,61,0.63028
4346250,-0.07500,73.5000,138,61,0.63834
4346260,-0.09500,72.2500,138,61,0.64811
4346270,-0.10500,71.5417,138,61,0.65104
4346280,-0.10500,71.0625,138,61,0.65031
4346290,-0.10500,70.5000,138,61,0.64908
4346300,-0.11000,69.5000,138,61,0.64127
4346310,-0.11000,69.0625,138,61,0.63516
4346320,-0.11000,68.6875,138,61,0.62833
4346330,-0.11500,68.3750,138,61,0.62076
4346340,-0.10500,67.7500,138,61,0.60220
4346350,0.09500,67.3750,138,61,0.59170
4346360,0.62000,67.0000,138,61,0.58071
4346370,1.05500,66.5625,138,61,0.56947
4346380,0.74500,65.6250,138,61,0.54725
4346390,0.04000,65.1250,138,61,0.53626
4346400,-0.38500,64.5625,138,61,0.52576
4346410,-0.46500,64.0625,138,61,0.51551
4346420,-0.35500,62.9375,138,61,0.49866
4346430,-0.25500,62.4375,138,61,0.49011
4346440,-0.22000,61.9375,138,61,0.48156
4346450,-0.20000,61.5000,138,61,0.47302
4346460,-0.19000,60.6250,138,61,0.45617
4346470,-0.18000,60.1875,138,61,0.44786
4346480,-0.17500,59.7500,138,61,0.43956
4346490,-0.17000,59.3750,138,61,0.43150
4346500,-0.16000,59.2500,138,61,0.41563
4346510,-0.15000,60.0625,138,61,0.40781
4346520,-0.14500,62.3750,138,61,0.40122
4346530,-0.13500,66.8750,138,61,0.39560
4346540,-0.12500,82.1250,138,61,0.38242
4346550,-0.10500,91.3125,138,61,0.37582
4346560,-0.08000,100.3750,138,61,0.36923
4346570,-0.05500,108.8125,138,61,0.36264
4346580,-0.03000,122.6250,138,61,0.35018
4346590,-0.01000,127.6250,138,61,0.34408
4346600,0.01000,131.2500,138,61,0.33822
4346610,0.02500,133.7500,138,61,0.33236
4346620,0.04000,135.7500,138,61,0.32405
4346630,0.04500,135.6875,138,61,0.31966
4346640,0.04500,135.1875,138,61,0.31477
4346650,0.04500,134.3125,138,61,0.30965
4346660,0.05000,131.8750,138,61,0.29963
4346670,0.06000,130.4375,138,61,0.29475
4346680,0.06000,128.8750,138,61,0.29011
4346690,0.06000,127.2500,138,61,0.28547
4346700,0.06000,123.7500,138,61,0.27668
4346710,0.05000,121.9375,138,61,0.27253
4346720,0.02500,120.1250,138,61,0.26984
4346730,0.00000,118.2500,138,61,0.26764
4346740,-0.02500,114.3125,138,61,0.26056
4346750,-0.03500,112.0625,138,61,0.25665
4346760,-0.04000,109.4375,138,61,0.25275
4346770,-0.03500,106.5000,138,61,0.24933
4346780,-0.02500,99.5000,138,61,0.24518
4346790,-0.01500,95.7500,138,61,0.24542
4346800,-0.00500,92.2500,138,61,0.24786
4346810,0.01000,89.2500,138,61,0.25299
4346820,0.02000,85.0000,138,61,0.27033
4346830,0.02000,83.6250,138,61,0.28425
4346840,0.01000,82.6250,138,61,0.30232
4346850,0.00500,81.8125,138,61,0.32454
4346860,-0.00500,80.6250,138,61,0.37924
4346870,-0.00500,80.1875,138,61,0.41026
4346880,-0.00500,79.7500,138,61,0.44200
4346890,0.00000,79.3125,138,61,0.47350
4346900,0.02000,78.3750,138,61,0.53260
4346910,0.04000,77.8750,138,61,0.55556
4346920,0.04000,77.3125,138,61,0.57460
4346930,0.03000,76.7500,138,61,0.59389
4346940,-0.00500,75.5000,138,61,0.62711
4346950,-0.04000,74.8125,138,61,0.64054
4346960,-0.06500,74.1875,138,61,0.65153
4346970,-0.08500,73.5625,138,61,0.66007
4346980,-0.10500,72.3125,138,61,0.67106
4346990,-0.11500,71.6875,138,61,0.67375
4347000,-0.12000,71.1250,138,61,0.67448
4347010,-0.11500,70.5000,138,61,0.67326
4347020,-0.11500,69.5000,138,61,0.66520
4347030,-0.10500,69.0000,138,61,0.65934
4347040,-0.10000,68.6250,138,61,0.65201
4347050,-0.10500,68.2500,138,61,0.64347
4347060,-0.10000,67.5625,138,61,0.62369
4347070,0.21500,67.2500,138,61,0.61294
4347080,0.67500,66.8125,138,61,0.60171
4347090,1.07500,66.4375,138,61,0.59048
4347100,0.71000,65.4375,138,61,0.56801
4347110,0.00000,64.9375,138,61,0.55800
4347120,-0.39500,64.4375,138,61,0.54872
4347130,-0.45000,63.8750,138,61,0.53871
4347140,-0.33500,62.8750,138,61,0.51844
4347150,-0.23500,62.3750,138,61,0.50842
4347160,-0.21000,61.8750,138,61,0.49890
4347170,-0.19000,61.3750,138,61,0.48962
4347180,-0.18000,60.5000,138,61,0.47179
4347190,-0.17500,60.0625,138,61,0.46349
4347200,-0.17500,59.6250,138,61,0.45543
4347210,-0.17000,59.2500,138,61,0.44737
4347220,-0.15500,59.1875,138,61,0.43394
4347230,-0.14500,60.2500,138,61,0.43541
4347240,-0.13500,62.8125,138,61,0.44103
4347250,-0.12500,67.6875,138,61,0.43956
4347260,-0.11000,83.3750,138,61,0.42833
4347270,-0.09500,92.6250,138,61,0.42100
4347280,-0.07500,101.6875,138,61,0.41343
4347290,-0.05500,110.0625,138,61,0.40562
4347300,-0.03083,120.1667,138,61,0.39455
4347310,-0.01000,128.6875,138,61,0.38437
4347320,0.00000,132.3125,138,61,0.37924
4347330,0.01000,134.6250,138,61,0.37314
4347340,0.02000,136.5000,138,61,0.36044
4347350,0.02000,136.3750,138,61,0.35409
4347360,0.02500,135.7500,138,61,0.34799
4347370,0.03000,134.8750,138,61,0.34188
4347380,0.03000,132.4375,138,61,0.33016
4347390,0.03000,131.0000,138,61,0.32430
4347400,0.03500,129.5000,138,61,0.31868
4347410,0.04000,127.8750,138,61,0.31306
4347420,0.04000,124.6250,138,61,0.30574
4347430,0.03000,122.9375,138,61,0.30159
4347440,0.00500,121.1875,138,61,0.29695
4347450,-0.01500,119.4375,138,61,0.29206
4347460,-0.03500,115.6250,138,61,0.28205
4347470,-0.04500,113.5000,138,61,0.27717
4347480,-0.05000,111.0625,138,61,0.27277
4347490,-0.05000,108.1875,138,61,0.26886
4347500,-0.03500,101.2500,138,61,0.26447
4347510,-0.02500,97.5000,138,61,0.26545
4347520,-0.02000,93.9375,138,61,0.26886
4347530,-0.01000,90.8125,138,61,0.27473
4347540,-0.01000,86.2500,138,61,0.29695
4347550,-0.01000,84.6875,138,61,0.31453
4347560,-0.01500,83.4375,138,61,0.33700
4347570,-0.01500,82.5000,138,61,0.36410
4347580,-0.02000,81.0625,138,61,0.42930
4347590,-0.02500,80.5000,138,61,0.46569
4347600,-0.02000,80.0000,138,61,0.50305
4347610,-0.00500,79.5625,138,61,0.54017
4347620,0.01000,78.5000,138,61,0.59902
4347630,0.02000,77.9375,138,61,0.62784
4347640,0.02000,77.3750,138,61,0.65568
4347650,0.01000,76.8750,138,61,0.68107
4347660,-0.02500,75.6875,138,61,0.72283
4347670,-0.05500,75.1250,138,61,0.73895
4347680,-0.08000,74.5000,138,61,0.75189
4347690,-0.09500,73.9375,138,61,0.76190
4347700,-0.11500,72.6875,138,61,0.77387
4347710,-0.12000,72.0625,138,61,0.77558
4347720,-0.12000,71.5000,138,61,0.77485
4347730,-0.12500,70.9375,138,61,0.77314
4347740,-0.12000,69.8750,138,61,0.76532
4347750,-0.11500,69.4375,138,61,0.75873
4347760,-0.11500,69.0000,138,61,0.75043
4347770,-0.11500,68.6250,138,61,0.74066
4347780,-0.08500,67.8750,138,61,0.71722
4347790,0.16500,67.4375,138,61,0.70427
4347800,0.73500,67.0000,138,61,0.69084
4347810,1.09500,66.5625,138,61,0.67741
4347820,0.68000,65.6250,138,61,0.65275
4347830,-0.03500,65.1250,138,61,0.63980
4347840,-0.41000,64.6250,138,61,0.62686
4347850,-0.45000,64.1250,138,61,0.61368
4347860,-0.33500,63.0000,138,61,0.58852
4347870,-0.24500,62.5000,138,61,0.57656
4347880,-0.22000,61.9375,138,61,0.56508
4347890,-0.20000,61.0000,138,61,0.55409
4347900,-0.19000,60.5625,138,61,0.53284
4347910,-0.18500,60.1250,138,61,0.52357
4347920,-0.18000,59.7500,138,61,0.51526
4347930,-0.17500,59.3750,138,61,0.50623
4347940,-0.17000,59.4375,138,61,0.48742
4347950,-0.16000,60.6875,138,61,0.47790
4347960,-0.15000,63.6250,138,61,0.46862
4347970,-0.14000,68.8750,138,61,0.45958
4347980,-0.12500,84.8750,138,61,0.44225
4347990,-0.10500,94.0000,138,61,0.43394
4348000,-0.08000,102.9375,138,61,0.42589
4348010,-0.06000,111.1875,138,61,0.41783
4348020,-0.04500,124.4375,138,61,0.40513
4348030,-0.02000,129.1875,138,61,0.39878
4348040,0.00000,132.6250,138,61,0.39194
4348050,0.02000,134.9375,138,61,0.38510
4348060,0.03000,136.7500,138,61,0.37167
4348070,0.03500,136.7500,138,61,0.36532
4348080,0.03500,136.2500,138,61,0.35897
4348090,0.03500,135.4375,138,61,0.35287
4348100,0.03000,133.1250,138,61,0.34090
4348110,0.03500,131.6875,138,61,0.33626
4348120,0.04000,130.2500,138,61,0.33236
4348130,0.04500,127.0625,138,61,0.32210
4348140,0.04000,125.3750,138,61,0.31673
4348150,0.03000,123.6250,138,61,0.31136
4348160,0.01000,121.8750,138,61,0.30598
4348170,-0.02000,120.1250,138,61,0.30061
4348180,-0.04500,116.3750,138,61,0.28987
4348190,-0.06500,114.2500,138,61,0.28474
4348200,-0.07000,111.8125,138,61,0.27985
4348210,-0.06500,109.0000,138,61,0.27595
4348220,-0.05500,102.0000,138,61,0.27350
4348230,-0.03500,98.1250,138,61,0.27399
4348240,-0.02500,94.4375,138,61,0.27668
4348250,-0.01000,91.1250,138,61,0.28230
4348260,-0.00500,86.2500,138,61,0.30574
4348270,-0.00500,84.6250,138,61,0.32430
4348280,-0.00500,83.3750,138,61,0.34799
4348290,-0.01000,82.3750,138,61,0.37631
4348300,-0.01500,81.0000,138,61,0.44322
4348310,-0.02000,80.4375,138,61,0.47521
4348320,-0.01417,80.0417,138,61,0.50110
4348330,0.00000,79.5000,138,61,0.53919
4348340,0.02000,78.5000,138,61,0.60781
4348350,0.03000,77.9375,138,61,0.63956
4348360,0.03000,77.4375,138,61,0.66813
4348370,0.02000,76.8750,138,61,0.69377
4348380,-0.01500,75.7500,138,61,0.73455
4348390,-0.04500,75.1250,138,61,0.74994
4348400,-0.06000,74.5625,138,61,0.76239
4348410,-0.08500,73.9375,138,61,0.77192
4348420,-0.10500,72.6875,138,61,0.77998
4348430,-0.11500,72.1250,138,61,0.78168
4348440,-0.11500,71.5625,138,61,0.78193
4348450,-0.11500,71.0000,138,61,0.78071
4348460,-0.11000,69.8750,138,61,0.77314
4348470,-0.10500,69.4375,138,61,0.76654
4348480,-0.10500,69.0000,138,61,0.75824
4348490,-0.11500,68.6250,138,61,0.74823
4348500,-0.07500,67.8750,138,61,0.72454
4348510,0.20500,67.4375,138,61,0.71233
4348520,0.80000,67.0625,138,61,0.70012
4348530,1.10500,66.6250,138,61,0.68694
4348540,0.59500,65.5625,138,61,0.65983
4348550,-0.12000,65.0625,138,61,0.64615
4348560,-0.45000,64.5000,138,61,0.63248
4348570,-0.45500,63.9375,138,61,0.61880
4348580,-0.33000,62.9375,138,61,0.59219
4348590,-0.25000,62.4375,138,61,0.57949
4348600,-0.23000,61.9375,138,61,0.56752
4348610,-0.21000,61.4375,138,61,0.55702
4348620,-0.19500,60.5000,138,61,0.53724
4348630,-0.18500,60.0625,138,61,0.52698
4348640,-0.18500,59.6875,138,61,0.51673
4348650,-0.18000,59.3750,138,61,0.50672
4348660,-0.17000,59.6875,138,61,0.48718
4348670,-0.16000,61.1875,138,61,0.47741
4348680,-0.15500,64.5000,138,61,0.46764
4348690,-0.14500,70.1875,138,61,0.45812
4348700,-0.13500,86.8750,138,61,0.43956
4348710,-0.12000,96.1875,138,61,0.43199
4348720,-0.10000,105.1250,138,61,0.42515
4348730,-0.07500,113.3125,138,61,0.41783
4348740,-0.05000,126.1875,138,61,0.40269
4348750,-0.03000,130.6250,138,61,0.39512
4348760,-0.01000,133.8750,138,61,0.38755
4348770,0.00000,135.9375,138,61,0.38022
4348780,0.00500,137.5000,138,61,0.36606
4348790,0.01000,137.3125,138,61,0.35922
4348800,0.01000,136.6250,138,61,0.35238
4348810,0.01000,135.6875,138,61,0.34725
4348820,0.01000,133.1250,138,61,0.33748
4348830,0.01000,131.7500,138,61,0.33187
4348840,0.01500,130.2500,138,61,0.32601
4348850,0.02500,128.7500,138,61,0.32015
4348860,0.02000,125.6250,138,61,0.30891
4348870,0.00500,124.0000,138,61,0.30305
4348880,-0.02000,122.3125,138,61,0.29744
4348890,-0.04500,120.6250,138,61,0.29182
4348900,-0.07000,116.8125,138,61,0.28132
4348910,-0.08500,114.6250,138,61,0.27790
4348920,-0.09500,112.1875,138,61,0.27546
4348930,-0.08500,109.3125,138,61,0.27228
4348940,-0.07500,102.3125,138,61,0.26813
4348950,-0.06000,98.5000,138,61,0.26862
4348960,-0.04500,94.7500,138,61,0.27155
4348970,-0.03500,88.7500,138,61,0.27790
4348980,-0.03000,86.6250,138,61,0.30305
4348990,-0.02500,85.0000,138,61,0.32259
4349000,-0.03000,83.7500,138,61,0.34725
4349010,-0.03500,82.8125,138,61,0.37216
4349020,-0.04500,81.4375,138,61,0.43053
4349030,-0.04500,80.9375,138,61,0.46569
4349040,-0.05000,80.5000,138,61,0.50256
4349050,-0.05000,80.0000,138,61,0.53968
4349060,-0.04000,79.0000,138,61,0.60977
4349070,-0.02500,78.5000,138,61,0.64127
4349080,-0.01500,77.9375,138,61,0.66984
4349090,-0.01500,77.4375,138,61,0.69499
4349100,-0.04000,76.3125,138,61,0.73529
4349110,-0.07500,75.7500,138,61,0.74823
4349120,-0.09500,75.1250,138,61,0.75726
4349130,-0.11500,74.5000,138,61,0.76581
4349140,-0.14500,73.1875,138,61,0.77827
4349150,-0.15500,72.5625,138,61,0.78144
4349160,-0.16000,71.9375,138,61,0.78266
4349170,-0.16000,71.3125,138,61,0.78217
4349180,-0.16000,70.1875,138,61,0.77485
4349190,-0.15000,69.6875,138,61,0.76801
4349200,-0.14500,69.2500,138,61,0.75946
4349210,-0.14000,68.8750,138,61,0.75018
4349220,-0.15000,68.1875,138,61,0.72821
4349230,-0.00500,67.8750,138,61,0.71575
4349240,0.50500,67.4375,138,61,0.70256
4349250,1.09000,67.0625,138,61,0.68889
4349260,0.94500,66.1875,138,61,0.66129
4349270,0.17500,65.7500,138,61,0.64786
4349280,-0.38500,65.2500,138,61,0.62735
4349290,-0.52500,64.7500,138,61,0.60391
4349300,-0.41000,63.6875,138,61,0.57216
4349310,-0.29000,63.1250,138,61,0.56044
4349320,-0.25500,62.6250,138,61,0.55018
4349330,-0.24000,62.1250,138,61,0.53968
4349340,-0.22500,61.5875,138,61,0.52608
4349350,-0.21333,61.0063,138,61,0.51153
4349360,-0.20500,60.3750,138,61,0.49817
4349370,-0.20000,59.6875,138,61,0.48816
4349380,-0.19000,59.7500,138,61,0.46935
4349390,-0.18000,60.5000,138,61,0.46032
4349400,-0.17000,62.6875,138,61,0.45128
4349410,-0.16000,67.0625,138,61,0.44371
4349420,-0.14500,82.5625,138,61,0.42882
4349430,-0.13000,92.1250,138,61,0.42051
4349440,-0.10500,101.6875,138,61,0.41221
4349450,-0.08500,110.6250,138,61,0.40415
4349460,-0.05500,125.0625,138,61,0.38901
4349470,-0.02500,130.2500,138,61,0.38144
4349480,-0.00500,134.0625,138,61,0.37436
4349490,0.01500,136.6250,138,61,0.36752
4349500,0.03000,138.7500,138,61,0.35385
4349510,0.03000,138.8125,138,61,0.34847
4349520,0.03000,138.3750,138,61,0.34408
4349530,0.02000,137.6250,138,61,0.33871
4349540,0.02000,135.5000,138,61,0.32723
4349550,0.01500,134.1875,138,61,0.32161
4349560,0.02000,132.8125,138,61,0.31600
4349570,0.03000,131.3125,138,61,0.31038
4349580,0.04000,128.1875,138,61,0.29939
4349590,0.03500,126.6250,138,61,0.29426
4349600,0.01000,125.0000,138,61,0.28913
4349610,-0.01500,121.5625,138,61,0.28230
4349620,-0.04000,119.6875,138,61,0.27814
4349630,-0.05500,117.6875,138,61,0.27375
4349640,-0.06500,115.4375,138,61,0.26935
4349650,-0.06500,112.8750,138,61,0.26520
4349660,-0.05500,106.4375,138,61,0.25910
4349670,-0.05000,102.6250,138,61,0.25861
4349680,-0.04000,98.8125,138,61,0.26056
4349690,-0.03500,95.1875,138,61,0.26545
4349700,-0.02500,89.3750,138,61,0.28694
4349710,-0.02000,87.3125,138,61,0.30183
4349720,-0.02000,85.7500,138,61,0.31990
4349730,-0.02500,84.6250,138,61,0.34408
4349740,-0.03500,83.0625,138,61,0.40684
4349750,-0.04500,82.5000,138,61,0.44322
4349760,-0.05000,82.0000,138,61,0.48107
4349770,-0.04000,81.5625,138,61,0.51917
4349780,-0.02500,80.6250,138,61,0.59145
4349790,-0.01500,80.1250,138,61,0.62393
4349800,0.00000,79.5625,138,61,0.65299
4349810,0.00500,79.0000,138,61,0.67546
4349820,-0.00500,77.7500,138,61,0.71087
4349830,-0.03500,77.1250,138,61,0.72674
4349840,-0.06500,76.5625,138,61,0.74017
4349850,-0.09500,75.9375,138,61,0.75116
4349860,-0.12000,74.6250,138,61,0.76557
4349870,-0.13500,73.9375,138,61,0.76948
4349880,-0.13500,73.3125,138,61,0.77143
4349890,-0.13500,72.6875,138,61,0.77143
4349900,-0.13500,71.5000,138,61,0.76557
4349910,-0.13500,71.0000,138,61,0.75995
4349920,-0.12500,70.5000,138,61,0.75287
4349930,-0.12500,70.0625,138,61,0.74432
4349940,-0.14000,69.3125,138,61,0.72357
4349950,-0.04500,68.9375,138,61,0.71136
4349960,0.38000,68.5625,138,61,0.69841
4349970,1.03000,68.1875,138,61,0.68498
4349980,1.10000,67.4375,138,61,0.65714
4349990,0.35000,67.0000,138,61,0.64322
4350000,-0.33500,66.5625,137,61,0.62955
4350010,-0.53500,66.0625,137,61,0.61709
4350020,-0.43500,65.0625,137,61,0.59389
4350030,-0.30000,64.5000,137,61,0.58193
4350040,-0.24500,63.8750,137,61,0.57021
4350050,-0.23000,63.3750,137,61,0.55873
4350060,-0.22000,62.3125,137,61,0.53651
4350070,-0.21000,61.8750,137,61,0.52576
4350080,-0.20500,61.4375,137,61,0.51526
4350090,-0.20000,61.0000,137,61,0.50501
4350100,-0.19500,60.7500,137,61,0.48523
4350110,-0.18500,61.4375,137,61,0.47692
4350120,-0.18000,63.6250,137,61,0.46935
4350130,-0.17000,68.0625,137,61,0.46129
4350140,-0.15500,83.6875,137,61,0.44444
4350150,-0.14500,93.3750,137,61,0.43590
4350160,-0.12000,103.0625,137,61,0.42735
4350170,-0.09500,112.0625,137,61,0.41880
4350180,-0.07000,126.5000,137,61,0.40244
4350190,-0.04500,131.6250,137,61,0.39463
4350200,-0.01500,135.2500,137,61,0.38681
4350210,0.00000,137.5625,137,61,0.38046
4350220,0.01500,139.3750,137,61,0.36899
4350230,0.02000,139.2500,137,61,0.36239
4350240,0.02000,138.7500,137,61,0.35580
4350250,0.02000,137.9375,137,61,0.34945
4350260,0.01000,135.6875,137,61,0.33651
4350270,0.01000,134.4375,137,61,0.33016
4350280,0.01500,133.0625,137,61,0.32405
4350290,0.02500,131.5625,137,61,0.31795
4350300,0.04000,128.3750,137,61,0.30720
4350310,0.03000,126.7500,137,61,0.30354
4350320,0.01500,125.0000,137,61,0.29915
4350330,-0.00500,123.2500,137,61,0.29451
4350340,-0.02500,119.4375,137,61,0.28474
4350350,-0.04500,117.3125,137,61,0.27985
4350360,-0.06000,114.9375,137,61,0.27497
4350370,-0.06250,110.4896,137,61,0.26903
4350380,-0.05500,105.5625,137,61,0.26447
4350390,-0.04000,101.7500,137,61,0.26374
4350400,-0.02500,98.0000,137,61,0.26545
4350410,-0.02000,94.4375,137,61,0.26960
4350420,-0.01000,88.9375,137,61,0.28767
4350430,-0.00500,87.0625,137,61,0.30354
4350440,-0.01000,85.5625,137,61,0.32454
4350450,-0.01500,84.4375,137,61,0.35067
4350460,-0.02500,82.9375,137,61,0.41636
4350470,-0.03500,82.4375,137,61,0.45348
4350480,-0.03500,82.0000,137,61,0.49182
4350490,-0.03000,81.5625,137,61,0.53040
4350500,-0.01500,80.7500,137,61,0.59853
4350510,0.00000,80.2500,137,61,0.62442
4350520,0.02000,79.6875,137,61,0.65104
4350530,0.02000,79.1250,137,61,0.67595
4350540,0.01000,77.8125,137,61,0.71746
4350550,-0.01500,77.1250,137,61,0.73382
4350560,-0.03500,76.4375,137,61,0.74725
4350570,-0.06000,75.7500,137,61,0.75775
4350580,-0.08500,74.3125,137,61,0.77118
4350590,-0.10500,73.6250,137,61,0.77460
4350600,-0.10500,72.9375,137,61,0.77582
4350610,-0.10500,72.2500,137,61,0.77436
4350620,-0.10500,71.0625,137,61,0.76654
4350630,-0.10500,70.5000,137,61,0.76068
4350640,-0.09500,70.0625,137,61,0.75311
4350650,-0.08500,69.6250,137,61,0.74408
4350660,-0.10000,68.8750,137,61,0.72234
4350670,0.01000,68.5000,137,61,0.70989
4350680,0.43000,68.1875,137,61,0.69670
4350690,1.02500,67.8125,137,61,0.68303
4350700,1.03500,67.0000,137,61,0.65665
4350710,0.31000,66.5625,137,61,0.64444
4350720,-0.31500,66.1250,137,61,0.63175
4350730,-0.48500,65.6250,137,61,0.61905
4350740,-0.38500,64.5000,137,61,0.59365
4350750,-0.24500,63.9375,137,61,0.58120
4350760,-0.19000,63.3750,137,61,0.56899
4350770,-0.18000,62.8125,137,61,0.55727
4350780,-0.16000,61.7500,137,61,0.53455
4350790,-0.14500,61.2500,137,61,0.52357
4350800,-0.13500,60.8125,137,61,0.51306
4350810,-0.12500,60.4375,137,61,0.50403
4350820,-0.11500,60.0625,137,61,0.48669
4350830,-0.10500,60.6875,137,61,0.47741
4350840,-0.09500,62.6875,137,61,0.46813
4350850,-0.08500,66.8125,137,61,0.45910
4350860,-0.08000,81.8125,137,61,0.44103
4350870,-0.07000,91.2500,137,61,0.43223
4350880,-0.05500,100.7500,137,61,0.42344
4350890,-0.03500,117.4375,137,61,0.41465
4350900,-0.01500,123.9375,137,61,0.39878
4350910,0.01000,129.0625,137,61,0.39243
4350920,0.03000,132.8125,137,61,0.38535
4350930,0.04500,135.3125,137,61,0.37827
4350940,0.06000,137.2500,137,61,0.36410
4350950,0.07000,137.1250,137,61,0.35702
4350960,0.07500,136.5625,137,61,0.35018
4350970,0.08000,135.6250,137,61,0.34335
4350980,0.08000,133.1250,137,61,0.33016
4350990,0.08000,131.6875,137,61,0.32357
4351000,0.08500,130.1250,137,61,0.31722
4351010,0.09000,128.5625,137,61,0.31233
4351020,0.09500,125.2500,137,61,0.30354
4351030,0.09000,123.5625,137,61,0.29817
4351040,0.07500,121.8125,137,61,0.29255
4351050,0.04500,119.9375,137,61,0.28694
4351060,0.02500,116.0000,137,61,0.27643
4351070,0.01000,113.8125,137,61,0.27131
4351080,0.00000,111.2500,137,61,0.26642
4351090,-0.00500,108.3125,137,61,0.26203
4351100,0.00000,101.3125,137,61,0.25665
4351110,0.00000,97.5625,137,61,0.25690
4351120,0.01000,94.0000,137,61,0.25812
4351130,0.01000,90.9375,137,61,0.26129
4351140,0.02000,86.3125,137,61,0.27814
4351150,0.02000,84.7500,137,61,0.29328
4351160,0.02000,83.6250,137,61,0.31331
4351170,0.01500,82.7500,137,61,0.33846
4351180,0.01000,81.5625,137,61,0.40147
4351190,0.00000,81.1250,137,61,0.43736
4351200,-0.00500,80.7500,137,61,0.47473
4351210,0.00000,80.3750,137,61,0.50720
4351220,0.01000,79.4375,137,61,0.56825
4351230,0.02000,78.8750,137,61,0.59878
4351240,0.03000,78.3125,137,61,0.62711
4351250,0.03000,77.6875,137,61,0.65250
4351260,0.01000,76.4375,137,61,0.69280
4351270,-0.02500,75.8125,137,61,0.70794
4351280,-0.05500,75.1875,137,61,0.71990
4351290,-0.07500,74.5000,137,61,0.72894
4351300,-0.10000,73.1875,137,61,0.73846
4351310,-0.11500,72.5000,137,61,0.73919
4351320,-0.11500,71.8125,137,61,0.73895
4351330,-0.11500,71.1875,137,61,0.73114
4351340,-0.11500,70.0625,137,61,0.70916
4351350,-0.11000,69.5625,137,61,0.70085
4351360,-0.10500,69.1875,137,61,0.69206
4351370,-0.10000,68.7500,137,61,0.68254
4351380,-0.11000,68.1250,137,61,0.66081
4351390,0.01000,67.7396,137,61,0.64689
4351400,0.44000,67.4375,137,61,0.63639
4351410,0.98500,67.0625,137,61,0.62491
4351420,0.92500,66.1250,137,61,0.60195
4351430,0.23000,65.6875,137,61,0.58999
4351440,-0.30500,65.1875,137,61,0.57778
4351450,-0.46500,64.6875,137,61,0.56581
4351460,-0.38500,63.5625,137,61,0.54286
4351470,-0.25500,63.0000,137,61,0.53187
4351480,-0.20000,62.5000,137,61,0.52112
4351490,-0.18000,62.0000,137,61,0.51087
4351500,-0.17000,61.0000,137,61,0.49231
4351510,-0.16000,60.5000,137,61,0.48449
4351520,-0.15000,60.0625,137,61,0.47619
4351530,-0.14500,59.3750,137,61,0.46789
4351540,-0.12500,59.4375,137,61,0.45079
4351550,-0.11500,60.0625,137,61,0.44225
4351560,-0.10500,62.0000,137,61,0.43370
4351570,-0.09000,66.0000,137,61,0.42540
4351580,-0.08000,80.3125,137,61,0.40879
4351590,-0.08000,89.3125,137,61,0.40073
4351600,-0.07500,98.3750,137,61,0.39292
4351610,-0.05000,106.9375,137,61,0.38657
4351620,-0.02000,120.9375,137,61,0.37436
4351630,-0.00500,126.0625,137,61,0.36752
4351640,0.00000,129.8750,137,61,0.36093
4351650,0.01000,132.4375,137,61,0.35433
4351660,0.02000,134.6250,137,61,0.34139
4351670,0.02500,134.5000,137,61,0.33504
4351680,0.03000,133.8750,137,61,0.32894
4351690,0.03000,132.8750,137,61,0.32283
4351700,0.03500,130.0625,137,61,0.31258
4351710,0.04000,128.4375,137,61,0.30867
4351720,0.05500,126.6875,137,61,0.30379
4351730,0.06000,124.9375,137,61,0.29866
4351740,0.06000,121.3750,137,61,0.28791
4351750,0.05000,119.5625,137,61,0.28254
4351760,0.02500,117.8125,137,61,0.27717
4351770,0.00500,115.9375,137,61,0.27204
4351780,-0.01000,112.0000,137,61,0.26252
4351790,-0.02000,109.6875,137,61,0.25812
4351800,-0.02000,107.0625,137,61,0.25372
4351810,-0.01500,104.0000,137,61,0.25079
4351820,-0.00500,96.9375,137,61,0.24689
4351830,-0.00500,93.3125,137,61,0.24567
4351840,0.00500,90.1250,137,61,0.24591
4351850,0.02000,87.5000,137,61,0.24860
4351860,0.03000,83.7500,137,61,0.26374
4351870,0.02500,82.5625,137,61,0.27717
4351880,0.02000,81.6250,137,61,0.29475
4351890,0.01000,80.9375,137,61,0.31648
4351900,0.00000,79.9375,137,61,0.36679
4351910,-0.00500,79.5000,137,61,0.39194
4351920,-0.00500,79.0625,137,61,0.42100
4351930,0.00000,78.6250,137,61,0.45177
4351940,0.01000,77.6250,137,61,0.51233
4351950,0.02500,77.0625,137,61,0.54042
4351960,0.03500,76.5000,137,61,0.56581
4351970,0.03000,75.9375,137,61,0.58828
4351980,0.01000,74.6875,137,61,0.62344
4351990,-0.02000,74.0625,137,61,0.63639
4352000,-0.04500,73.5000,137,61,0.64664
4352010,-0.07500,72.8750,137,61,0.65324
4352020,-0.09500,71.6250,137,61,0.66007
4352030,-0.10500,71.0000,137,61,0.66178
4352040,-0.10500,70.4375,137,61,0.66203
4352050,-0.10500,69.8125,137,61,0.66081
4352060,-0.09500,68.8125,137,61,0.65348
4352070,-0.09500,68.4375,137,61,0.64737
4352080,-0.09000,68.0625,137,61,0.64005
4352090,-0.09000,67.7500,137,61,0.63126
4352100,-0.10000,67.0625,137,61,0.61221
4352110,0.05000,66.7500,137,61,0.60244
4352120,0.51500,66.3750,137,61,0.59194
4352130,1.02500,65.9375,137,61,0.58095
4352140,0.89500,65.0000,137,61,0.55873
4352150,0.19500,64.5000,137,61,0.54750
4352160,-0.31500,64.0000,137,61,0.53651
4352170,-0.45500,63.5000,137,61,0.52576
4352180,-0.37000,62.4375,137,61,0.50549
4352190,-0.25500,62.0000,137,61,0.49597
4352200,-0.21000,61.5000,137,61,0.48791
4352210,-0.19500,61.0000,137,61,0.48034
4352220,-0.18000,60.1250,137,61,0.46422
4352230,-0.17000,59.6875,137,61,0.45592
4352240,-0.17000,59.2500,137,61,0.44786
4352250,-0.16000,58.8750,137,61,0.43980
4352260,-0.15000,58.7500,137,61,0.42393
4352270,-0.13500,59.6250,137,61,0.41612
4352280,-0.13500,61.8750,137,61,0.40830
4352290,-0.12500,66.3125,137,61,0.40073
4352300,-0.11500,81.3125,137,61,0.38681
4352310,-0.10500,90.3750,137,61,0.38144
4352320,-0.08500,99.3125,137,61,0.37509
4352330,-0.06500,107.6875,137,61,0.36850
4352340,-0.04000,121.4375,137,61,0.35482
4352350,-0.01500,126.4375,137,61,0.34799
4352360,0.00500,130.1875,137,61,0.34164
4352370,0.02000,132.6875,137,61,0.33529
4352380,0.03000,134.6250,137,61,0.32332
4352390,0.03500,134.5625,137,61,0.31770
4352400,0.04000,134.0625,137,61,0.31331
4352410,0.04000,133.0625,137,61,0.30965
4352420,0.04417,131.0938,137,61,0.30289
4352430,0.05000,128.9375,137,61,0.29573
4352440,0.05500,127.3750,137,61,0.29084
4352450,0.05500,125.7500,137,61,0.28571
4352460,0.06000,122.5000,137,61,0.27546
4352470,0.05000,120.7500,137,61,0.27057
4352480,0.02500,119.0000,137,61,0.26569
4352490,0.00000,117.1875,137,61,0.26105
4352500,-0.02000,113.3125,137,61,0.25348
4352510,-0.03500,111.0625,137,61,0.25128
4352520,-0.04500,108.5625,137,61,0.24811
4352530,-0.04000,105.6250,137,61,0.24469
4352540,-0.03500,98.7500,137,61,0.23956
4352550,-0.02500,95.1250,137,61,0.23858
4352560,-0.01500,91.8125,137,61,0.23956
4352570,-0.00500,88.9375,137,61,0.24298
4352580,0.00500,85.0000,137,61,0.25958
4352590,0.01000,83.6875,137,61,0.27375
4352600,0.00000,82.6875,137,61,0.28962
4352610,-0.00500,81.8125,137,61,0.30769
4352620,-0.01500,80.5625,137,61,0.35775
4352630,-0.01500,80.0625,137,61,0.38755
4352640,-0.01500,79.6250,137,61,0.41905
4352650,-0.01000,79.1875,137,61,0.45104
4352660,0.00500,78.1250,137,61,0.51258
4352670,0.02000,77.5625,137,61,0.54066
4352680,0.02500,77.0000,137,61,0.56630
4352690,0.02000,76.3750,137,61,0.58901
4352700,-0.00500,75.1875,137,61,0.62344
4352710,-0.04000,74.5000,137,61,0.63443
4352720,-0.06500,73.8125,137,61,0.64493
4352730,-0.09000,73.1875,137,61,0.65397
4352740,-0.11000,71.9375,137,61,0.66593
4352750,-0.12000,71.3125,137,61,0.66886
4352760,-0.11500,70.6875,137,61,0.67009
4352770,-0.11500,70.0625,137,61,0.66935
4352780,-0.11500,69.1250,137,61,0.66276
4352790,-0.11500,68.6875,137,61,0.65714
4352800,-0.10500,68.3750,137,61,0.65055
4352810,-0.10500,68.0000,137,61,0.64298
4352820,-0.10000,67.3125,137,61,0.62491
4352830,0.11000,66.9375,137,61,0.61441
4352840,0.63000,66.5625,137,61,0.60342
4352850,1.05500,66.1250,137,61,0.59194
4352860,0.78500,65.1875,137,61,0.56899
4352870,0.08000,64.6875,137,61,0.55775
4352880,-0.36500,64.1875,137,61,0.54676
4352890,-0.44500,63.0625,137,61,0.53602
4352900,-0.34000,62.5000,137,61,0.51624
4352910,-0.23500,61.9375,137,61,0.50769
4352920,-0.20000,61.4375,137,61,0.49866
4352930,-0.18000,61.0000,137,61,0.48938
4352940,-0.16500,60.0000,137,61,0.47106
4352950,-0.16000,59.5625,137,61,0.46227
4352960,-0.15500,59.0625,137,61,0.45372
4352970,-0.14500,58.4375,137,61,0.44542
4352980,-0.13500,58.6875,137,61,0.42955
4352990,-0.13000,59.7500,137,61,0.42198
4353000,-0.12500,62.4375,137,61,0.41563
4353010,-0.11500,67.3750,137,61,0.41001
4353020,-0.10500,82.8750,137,61,0.39658
4353030,-0.08500,91.8125,137,61,0.38974
4353040,-0.06500,100.5625,137,61,0.38266
4353050,-0.05000,108.6875,137,61,0.37582
4353060,-0.02500,121.8750,137,61,0.36215
4353070,-0.00500,126.6250,137,61,0.35580
4353080,0.02000,130.1875,137,61,0.34969
4353090,0.04000,132.5625,137,61,0.34383
4353100,0.05000,134.6250,137,61,0.33358
4353110,0.06000,134.6250,137,61,0.32991
4353120,0.06500,134.1250,137,61,0.32527
4353130,0.06000,133.3125,137,61,0.32039
4353140,0.06000,130.9375,137,61,0.31038
4353150,0.06000,129.5000,137,61,0.30525
4353160,0.06000,127.8750,137,61,0.30012
4353170,0.06500,126.2500,137,61,0.29524
4353180,0.07000,122.7500,137,61,0.28498
4353190,0.05000,120.9375,137,61,0.28010
4353200,0.02500,119.1875,137,61,0.27668
4353210,0.00000,117.3750,137,61,0.27375
4353220,-0.02000,113.4375,137,61,0.26593
4353230,-0.03500,111.2500,137,61,0.26178
4353240,-0.03500,108.7500,137,61,0.25788
4353250,-0.03500,105.8750,137,61,0.25421
4353260,-0.02500,99.0000,137,61,0.24908
4353270,-0.01500,95.3750,137,61,0.24884
4353280,-0.01000,92.0625,137,61,0.25104
4353290,0.00000,89.1875,137,61,0.25592
4353300,0.01000,84.8750,137,61,0.27375
4353310,0.01000,83.4375,137,61,0.28645
4353320,0.01000,82.3125,137,61,0.30354
4353330,0.00500,81.3750,137,61,0.32454
4353340,0.00000,80.0000,137,61,0.37729
4353350,-0.00500,79.4375,137,61,0.40733
4353360,-0.00500,78.9375,137,61,0.43858
4353370,0.00000,78.4375,137,61,0.46984
4353380,0.01500,77.4375,137,61,0.54994
4353390,0.02500,76.8750,137,61,0.58388
4353400,0.03000,76.3125,137,61,0.60904
4353410,0.01500,75.7500,137,61,0.62906
4353420,-0.01500,74.5625,137,61,0.66545
4353430,-0.04500,74.0000,137,61,0.68034
4353440,-0.07000,73.4896,137,61,0.69190
4353450,-0.09500,72.7500,137,61,0.70256
4353460,-0.10500,71.5000,137,61,0.71477
4353470,-0.11500,70.8750,137,61,0.71770
4353480,-0.11500,70.3125,137,61,0.71868
4353490,-0.11500,69.7500,137,61,0.71795
4353500,-0.11500,68.7500,137,61,0.71087
4353510,-0.11500,68.3125,137,61,0.70525
4353520,-0.11000,67.8750,137,61,0.69817
4353530,-0.11500,67.5000,137,61,0.68962
4353540,-0.09500,66.8125,137,61,0.66960
4353550,0.16500,66.4375,137,61,0.65836
4353560,0.72500,66.0625,137,61,0.64664
4353570,1.05000,65.6250,137,61,0.63468
4353580,0.66000,64.6875,137,61,0.61050
4353590,-0.03500,64.1250,137,61,0.59853
4353600,-0.41500,63.6250,137,61,0.58755
4353610,-0.44500,63.0625,137,61,0.57729
4353620,-0.32500,61.9375,137,61,0.55580
4353630,-0.23000,61.4375,137,61,0.54505
4353640,-0.20000,60.9375,137,61,0.53480
4353650,-0.18000,60.4375,137,61,0.52454
4353660,-0.16000,59.5000,137,61,0.50525
4353670,-0.15000,59.0625,137,61,0.49597
4353680,-0.14000,58.6250,137,61,0.48694
4353690,-0.12500,58.3125,137,61,0.47814
4353700,-0.10500,58.1875,137,61,0.46935
4353710,-0.08500,58.6250,137,61,0.46203
4353720,-0.07500,60.1250,137,61,0.45543
4353730,-0.06500,63.4375,137,61,0.44811
4353740,-0.06500,76.6875,137,61,0.43321
4353750,-0.05500,85.3750,137,61,0.42564
4353760,-0.05500,94.3750,137,61,0.41807
4353770,-0.04000,103.0000,137,61,0.41074
4353780,-0.02500,117.8750,137,61,0.39658
4353790,-0.01000,123.5625,137,61,0.38974
4353800,0.00500,127.9375,137,61,0.38315
4353810,0.02000,131.1250,137,61,0.37802
4353820,0.03000,134.3125,137,61,0.36850
4353830,0.04000,134.6875,137,61,0.36288
4353840,0.04000,134.4375,137,61,0.35726
4353850,0.04000,133.7500,137,61,0.35140
4353860,0.04000,131.5625,137,61,0.33993
4353870,0.04000,130.2500,137,61,0.33455
4353880,0.05000,128.8125,137,61,0.32918
4353890,0.06000,127.3125,137,61,0.32381
4353900,0.06000,124.1250,137,61,0.31306
4353910,0.04500,122.5000,137,61,0.30916
4353920,0.02000,120.8125,137,61,0.30598
4353930,-0.00500,119.1250,137,61,0.30159
4353940,-0.02500,115.4375,137,61,0.29133
4353950,-0.04500,113.4375,137,61,0.28571
4353960,-0.05500,111.3125,137,61,0.28034
4353970,-0.05000,108.8125,137,61,0.27521
4353980,-0.04500,102.6250,137,61,0.26667
4353990,-0.03000,98.9375,137,61,0.26447
4354000,-0.02000,95.2500,137,61,0.26398
4354010,-0.01000,91.8125,137,61,0.26593
4354020,-0.00500,86.4375,137,61,0.27790
4354030,-0.00500,84.5000,137,61,0.28913
4354040,-0.00500,83.0000,137,61,0.30501
4354050,-0.01500,81.8125,137,61,0.32552
4354060,-0.02000,80.0625,137,61,0.38120
4354070,-0.02500,79.3750,137,61,0.41514
4354080,-0.02500,78.8125,137,61,0.45177
4354090,-0.01500,78.3125,137,61,0.48987
4354100,0.00000,77.2500,137,61,0.56068
4354110,0.02000,76.7500,137,61,0.58950
4354120,0.02500,76.2500,137,61,0.61978
4354130,0.01000,75.7500,137,61,0.64884
4354140,-0.02500,74.7500,137,61,0.69890
4354150,-0.05500,74.1875,137,61,0.71893
4354160,-0.07500,73.6250,137,61,0.73529
4354170,-0.10000,73.0625,137,61,0.74847
4354180,-0.12000,71.9375,137,61,0.76581
4354190,-0.12500,71.3125,137,61,0.77070
4354200,-0.12000,70.6875,137,61,0.77338
4354210,-0.12000,70.1250,137,61,0.77289
4354220,-0.12000,69.0000,137,61,0.76703
4354230,-0.11500,68.5625,137,61,0.76215
4354240,-0.11500,68.1250,137,61,0.75556
4354250,-0.12000,67.7500,137,61,0.74750
4354260,-0.10500,67.0625,137,61,0.72747
4354270,0.12000,66.6875,137,61,0.71575
4354280,0.67000,66.3125,137,61,0.70330
4354290,1.08500,65.8750,137,61,0.69035
4354300,0.73500,64.8750,137,61,0.66447
4354310,0.01000,64.3750,137,61,0.65250
4354320,-0.39500,63.8750,137,61,0.63980
4354330,-0.45500,63.3125,137,61,0.62662
4354340,-0.34000,62.1875,137,61,0.60073
4354350,-0.24500,61.6250,137,61,0.58828
4354360,-0.22000,61.1250,137,61,0.57607
4354370,-0.20000,60.6250,137,61,0.56435
4354380,-0.18500,59.6875,137,61,0.54188
4354390,-0.17500,59.2500,137,61,0.53114
4354400,-0.17500,58.8125,137,61,0.52063
4354410,-0.17000,58.1250,137,61,0.50354
4354420,-0.16000,58.0625,137,61,0.49499
4354430,-0.14500,58.6250,137,61,0.48620
4354440,-0.13500,60.3750,137,61,0.47717
4354450,-0.13000,64.0625,137,61,0.46813
4354460,-0.12500,77.8750,137,61,0.45006
4354470,-0.10917,87.6875,137,61,0.43956
4354480,-0.08500,95.7500,137,61,0.43223
4354490,-0.05500,104.3125,137,61,0.42369
4354500,-0.02500,118.8125,137,61,0.40904
4354510,-0.00500,124.3125,137,61,0.40317
4354520,0.00500,128.5625,137,61,0.39658
4354530,0.02000,131.5625,137,61,0.38950
4354540,0.03000,134.4375,137,61,0.37558
4354550,0.03000,134.6875,137,61,0.36899
4354560,0.02500,134.4375,137,61,0.36239
4354570,0.02000,133.8125,137,61,0.35604
4354580,0.02000,131.6250,137,61,0.34335
4354590,0.03000,130.3125,137,61,0.33675
4354600,0.03500,128.8125,137,61,0.33016
4354610,0.04500,127.2500,137,61,0.32503
4354620,0.04500,124.0000,137,61,0.31551
4354630,0.03500,122.3125,137,61,0.30989
4354640,0.00500,120.6250,137,61,0.30403
4354650,-0.02500,118.8750,137,61,0.29841
4354660,-0.05500,115.3125,137,61,0.28767
4354670,-0.06500,113.3125,137,61,0.28254
4354680,-0.06500,111.1250,137,61,0.27790
4354690,-0.05500,108.5625,137,61,0.27350
4354700,-0.05500,102.3750,137,61,0.26764
4354710,-0.05000,98.8125,137,61,0.26740
4354720,-0.05000,95.1875,137,61,0.26813
4354730,-0.04500,91.8125,137,61,0.27057
4354740,-0.04500,86.4375,137,61,0.28547
4354750,-0.05000,84.5000,137,61,0.29963
4354760,-0.06500,83.0625,137,61,0.31893
4354770,-0.09500,81.8750,137,61,0.34359
4354780,-0.12500,80.1875,137,61,0.40830
4354790,-0.15000,79.5000,137,61,0.44664
4354800,-0.16000,79.0000,137,61,0.48718
4354810,-0.15000,78.0625,137,61,0.55604
4354820,-0.12500,77.5625,137,61,0.59170
4354830,-0.09000,77.0000,137,61,0.62735
4354840,-0.06000,76.5000,137,61,0.66081
4354850,-0.04000,76.0000,137,61,0.69109
4354860,-0.04500,75.0000,137,61,0.74042
4354870,-0.05000,74.4375,137,61,0.75922
4354880,-0.06000,73.9375,137,61,0.77460
4354890,-0.07500,73.4375,137,61,0.78681
4354900,-0.09500,72.3750,137,61,0.80122
4354910,-0.10500,71.8750,137,61,0.80366
4354920,-0.11000,71.3750,137,61,0.80562
4354930,-0.11500,70.8125,137,61,0.80610
4354940,-0.11000,69.8750,137,61,0.80244
4354950,-0.10500,69.4375,137,61,0.79780
4354960,-0.10500,69.0625,137,61,0.79170
4354970,-0.10500,68.6250,137,61,0.78364
4354980,-0.09500,67.8125,137,61,0.76337
4354990,0.12500,67.4375,137,61,0.75165
4355000,0.69000,67.0000,137,61,0.73895
4355010,1.14500,66.5625,137,61,0.72650
4355020,0.77500,65.5625,137,61,0.70134
4355030,0.00500,65.0000,137,61,0.68791
4355040,-0.42500,64.5000,137,61,0.67448
4355050,-0.46500,63.9375,137,61,0.66105
4355060,-0.33500,62.8750,137,61,0.63516
4355070,-0.24500,62.3750,137,61,0.62271
4355080,-0.22000,61.8125,137,61,0.61050
4355090,-0.21000,61.3125,137,61,0.59829
4355100,-0.19000,60.3750,137,61,0.57607
4355110,-0.18000,59.9375,137,61,0.56630
4355120,-0.17500,59.5625,137,61,0.55604
4355130,-0.17000,59.1875,137,61,0.54579
4355140,-0.17000,58.8125,137,61,0.52552
4355150,-0.16000,59.4375,137,61,0.51551
4355160,-0.15500,61.3125,137,61,0.50598
4355170,-0.14000,65.2500,137,61,0.49646
4355180,-0.12500,79.8125,137,61,0.47814
4355190,-0.10000,89.0625,137,61,0.46935
4355200,-0.07500,98.4375,137,61,0.46081
4355210,-0.04500,107.2500,137,61,0.45324
4355220,-0.02000,121.9375,137,61,0.43858
4355230,0.00500,127.3125,137,61,0.43053
4355240,0.02500,131.3750,137,61,0.42222
4355250,0.04000,134.1875,137,61,0.41441
4355260,0.05000,136.7500,137,61,0.39951
4355270,0.05000,136.8750,137,61,0.39243
4355280,0.04500,136.5000,137,61,0.38535
4355290,0.04500,135.7500,137,61,0.37851
4355300,0.04500,133.5625,137,61,0.36630
4355310,0.05000,132.1875,137,61,0.36166
4355320,0.05500,130.7500,137,61,0.35629
4355330,0.06000,129.2500,137,61,0.35067
4355340,0.05500,125.9375,137,61,0.33871
4355350,0.04000,124.2500,137,61,0.33260
4355360,0.01000,122.5000,137,61,0.32674
4355370,-0.01500,119.0000,137,61,0.32088
4355380,-0.04000,117.1875,137,61,0.30989
4355390,-0.05500,115.2500,137,61,0.30476
4355400,-0.05500,113.1250,137,61,0.30012
4355410,-0.05500,110.7500,137,61,0.29695
4355420,-0.05500,104.6250,137,61,0.29231
4355430,-0.05500,101.0000,137,61,0.28718
4355440,-0.05500,97.1250,137,61,0.28205
4355450,-0.06000,93.5000,137,61,0.28205
4355460,-0.07500,87.6250,137,61,0.29548
4355470,-0.09500,85.5625,137,61,0.30965
4355480,-0.11500,83.9375,137,61,0.32894
4355490,-0.15500,82.7500,137,61,0.35336
4355500,-0.18500,81.1250,137,61,0.41123
4355510,-0.22000,80.6250,137,61,0.44005
4355520,-0.27500,80.1875,137,61,0.47375
4355530,-0.34500,79.8125,137,61,0.51013
4355540,-0.40500,79.1250,137,61,0.58242
4355550,-0.44500,78.7500,137,61,0.61587
4355560,-0.47000,78.2500,137,61,0.64664
4355570,-0.48500,77.7500,137,61,0.67424
4355580,-0.50500,76.6875,137,61,0.71868
4355590,-0.51000,76.0625,137,61,0.73578
4355600,-0.48500,75.4375,137,61,0.74969
4355610,-0.46000,74.8125,137,61,0.75873
4355620,-0.43000,73.3750,137,61,0.76972
4355630,-0.39500,72.6875,137,61,0.77363
4355640,-0.34500,71.9375,137,61,0.77607
4355650,-0.30000,71.1875,137,61,0.77680
4355660,-0.25000,69.7500,137,61,0.77338
4355670,-0.20500,69.1250,137,61,0.76899
4355680,-0.16500,68.5625,137,61,0.76288
4355690,-0.13000,68.0625,137,61,0.75531
4355700,-0.09500,67.3125,137,61,0.73602
4355710,0.13000,66.9375,137,61,0.72503
4355720,0.70000,66.6250,137,61,0.71306
4355730,1.21500,66.3125,137,61,0.70037
4355740,0.92500,65.5625,137,61,0.67350
4355750,0.15500,65.1250,137,61,0.65983
4355760,-0.29500,64.7500,137,61,0.64640
4355770,-0.34500,64.2500,137,61,0.63297
4355780,-0.21500,63.2500,137,61,0.60733
4355790,-0.11500,62.7500,137,61,0.59487
4355800,-0.09500,62.2500,137,61,0.58291
4355810,-0.07500,61.7500,137,61,0.57216
4355820,-0.06000,60.8125,137,61,0.55238
4355830,-0.04500,60.3750,137,61,0.54237
4355840,-0.04000,60.0000,137,61,0.53260
4355850,-0.03500,59.5625,137,61,0.52283
4355860,-0.02500,59.1250,137,61,0.50354
4355870,-0.00500,59.5625,137,61,0.49426
4355880,0.01000,61.1250,137,61,0.48498
4355890,0.02500,64.6875,137,61,0.47546
4355900,0.04000,78.8125,137,61,0.45836
4355910,0.06000,88.0625,137,61,0.45128
4355920,0.08500,97.5625,137,61,0.44347
4355930,0.11000,106.5000,137,61,0.43516
4355940,0.14000,121.3750,137,61,0.41856
4355950,0.17000,126.8750,137,61,0.41050
4355960,0.19500,131.0000,137,61,0.40269
4355970,0.22500,133.8125,137,61,0.39463
4355980,0.25500,136.4375,137,61,0.37900
4355990,0.27500,136.6250,137,61,0.37143
4356000,0.27500,136.2500,137,61,0.36532
4356010,0.26500,135.5625,137,61,0.36020
4356020,0.26000,133.3125,137,61,0.34799
4356030,0.25500,131.9375,137,61,0.34164
4356040,0.25500,130.5000,137,61,0.33553
4356050,0.23500,129.0000,137,61,0.32943
4356060,0.20000,125.8125,137,61,0.31697
4356070,0.14500,124.1250,137,61,0.31087
4356080,0.06000,122.4375,137,61,0.30476
4356090,-0.01500,120.6250,137,61,0.29915
4356100,-0.06500,116.8750,137,61,0.28938
4356110,-0.08500,114.7500,137,61,0.28596
4356120,-0.09000,112.5000,137,61,0.28181
4356130,-0.08500,109.9375,137,61,0.27741
4356140,-0.06000,103.6250,137,61,0.26935
4356150,-0.01500,99.9375,137,61,0.26691
4356160,0.07000,96.3125,137,61,0.26618
4356170,0.15000,92.8750,137,61,0.26789
4356180,0.16500,87.5625,137,61,0.28181
4356190,0.12000,85.6875,137,61,0.29548
4356200,0.05000,84.2500,137,61,0.31136
4356210,0.01000,83.1250,137,61,0.33016
4356220,0.06500,81.6875,137,61,0.38608
4356230,0.16500,81.1875,137,61,0.42002
4356240,0.21000,80.7500,137,61,0.45641
4356250,0.19000,80.3750,137,61,0.49402
4356260,0.15000,79.5000,137,61,0.56581
4356270,0.11000,79.0000,137,61,0.59829
4356280,0.08500,78.4375,137,61,0.62759
4356290,0.12500,77.8750,137,61,0.65348
4356300,0.16000,76.5625,137,61,0.69158
4356310,0.14500,75.9375,137,61,0.70330
4356320,0.11000,75.2500,137,61,0.71429
4356330,0.07000,74.5625,137,61,0.72357
4356340,0.02000,73.1250,137,61,0.73602
4356350,-0.02000,72.4375,137,61,0.73919
4356360,-0.06500,71.7500,137,61,0.74066
4356370,-0.12000,71.1250,137,61,0.74042
4356380,-0.17000,70.0000,137,61,0.73455
4356390,-0.22000,69.4375,137,61,0.72894
4356400,-0.27000,68.9375,137,61,0.72210
4356410,-0.33500,68.5000,137,61,0.71404
4356420,-0.38500,67.7500,137,61,0.69402
4356430,-0.19000,67.3750,137,61,0.68230
4356440,0.34000,67.0625,137,61,0.66960
4356450,0.63000,66.6875,137,61,0.65665
4356460,0.09000,65.9375,137,61,0.62979
4356470,-0.63000,65.5000,137,61,0.61661
4356480,-0.83000,65.0625,137,61,0.60342
4356490,-0.65000,64.6250,137,61,0.59048
4356500,-0.40000,63.5625,137,61,0.56606
4356510,-0.22000,63.0625,137,61,0.55556
4356520,-0.15750,62.6042,137,61,0.54632
4356530,-0.15000,62.0000,137,61,0.53333
4356540,-0.13500,61.0625,137,61,0.51160
4356550,-0.12500,60.6250,137,61,0.50110
4356560,-0.11500,60.1250,137,61,0.49084
4356570,-0.10500,59.6875,137,61,0.48107
4356580,-0.08500,59.3125,137,61,0.46227
4356590,-0.07000,59.9375,137,61,0.45324
4356600,-0.06500,61.8750,137,61,0.44518
4356610,-0.05500,65.8750,137,61,0.43785
4356620,-0.04500,80.5625,137,61,0.42125
4356630,-0.02000,89.8125,137,61,0.41245
4356640,0.00000,99.1875,137,61,0.40391
4356650,0.02500,107.9375,137,61,0.39536
4356660,0.04500,122.1875,137,61,0.37900
4356670,0.07000,127.3125,137,61,0.37094
4356680,0.09000,131.0625,137,61,0.36337
4356690,0.10500,135.0625,137,61,0.35604
4356700,0.10500,135.6250,137,61,0.34335
4356710,0.10000,135.5625,137,61,0.33846
4356720,0.10000,135.0000,137,61,0.33284
4356730,0.10000,134.0625,137,61,0.32698
4356740,0.10000,131.6875,137,61,0.31477
4356750,0.11000,130.3125,137,61,0.30891
4356760,0.12000,128.8750,137,61,0.30305
4356770,0.13000,125.7500,137,61,0.29719
4356780,0.13000,124.1250,137,61,0.28547
4356790,0.11500,122.5000,137,61,0.27985
4356800,0.09000,120.8125,137,61,0.27570
4356810,0.07000,119.1250,137,61,0.27253
4356820,0.05000,115.3125,137,61,0.26349
4356830,0.03500,113.1875,137,61,0.25885
4356840,0.02000,110.7500,137,61,0.25421
4356850,0.01500,107.9375,137,61,0.24982
4356860,0.02000,101.1875,137,61,0.24225
4356870,0.03000,97.5000,137,61,0.24029
4356880,0.04000,93.9375,137,61,0.24029
4356890,0.04000,90.8125,137,61,0.24274
4356900,0.04000,86.0625,137,61,0.25739
4356910,0.03500,84.4375,137,61,0.26984
4356920,0.02500,83.1875,137,61,0.28791
4356930,0.02000,82.2500,137,61,0.31160
4356940,0.01000,81.0625,137,61,0.37363
4356950,0.00500,80.6250,137,61,0.41001
4356960,0.01000,80.1875,137,61,0.44811
4356970,0.03000,79.4375,137,61,0.48669
4356980,0.05000,79.0000,137,61,0.55946
4356990,0.06500,78.5000,137,61,0.59145
4357000,0.06000,77.9375,136,60,0.61661
4357010,0.04500,77.3125,136,60,0.63663
4357020,0.01000,76.0000,136,60,0.67375
4357030,-0.01500,75.3125,136,60,0.68840
4357040,-0.04500,74.5625,136,60,0.70037
4357050,-0.07000,73.1250,136,60,0.70989
4357060,-0.08500,72.4375,136,60,0.72137
4357070,-0.09500,71.6875,136,60,0.72381
4357080,-0.09500,71.0000,136,60,0.72454
4357090,-0.10000,70.3125,136,60,0.72332
4357100,-0.10500,69.1250,136,60,0.71575
4357110,-0.09500,68.6250,136,60,0.70965
4357120,-0.09000,68.1875,136,60,0.70208
4357130,-0.10000,67.8125,136,60,0.69328
4357140,0.02000,67.1875,136,60,0.67253
4357150,0.43000,66.8125,136,60,0.66056
4357160,0.98000,66.4375,136,60,0.64811
4357170,0.96000,66.0000,136,60,0.63516
4357180,0.28500,65.0625,136,60,0.60879
4357190,-0.25000,64.6250,136,60,0.59560
4357200,-0.41500,64.1250,136,60,0.58364
4357210,-0.34500,63.6250,136,60,0.57265
4357220,-0.24000,62.6250,136,60,0.54969
4357230,-0.19500,62.1250,136,60,0.53871
4357240,-0.18500,61.6875,136,60,0.52772
4357250,-0.17000,61.1875,136,60,0.51697
4357260,-0.16000,60.3125,136,60,0.49621
4357270,-0.15500,59.9375,136,60,0.48620
4357280,-0.15500,59.5625,136,60,0.47643
4357290,-0.15500,59.0625,136,60,0.46691
4357300,-0.15000,59.2500,136,60,0.44982
4357310,-0.13500,60.3750,136,60,0.44249
4357320,-0.12000,63.1875,136,60,0.43443
4357330,-0.10500,68.0625,136,60,0.42637
4357340,-0.09500,83.5625,136,60,0.41001
4357350,-0.08000,92.5625,136,60,0.40171
4357360,-0.06000,101.3125,136,60,0.39365
4357370,-0.04000,109.3750,136,60,0.38584
4357380,-0.02500,122.1250,136,60,0.37045
4357390,-0.00500,126.6250,136,60,0.36337
4357400,0.01000,129.7500,136,60,0.35775
4357410,0.03000,131.7500,136,60,0.35287
4357420,0.04000,133.0000,136,60,0.34139
4357430,0.04000,132.5000,136,60,0.33529
4357440,0.04000,131.5625,136,60,0.32918
4357450,0.04500,130.3125,136,60,0.32308
4357460,0.05500,127.1875,136,60,0.31111
4357470,0.06500,125.4375,136,60,0.30549
4357480,0.07000,123.6875,136,60,0.30208
4357490,0.07500,121.9375,136,60,0.29988
4357500,0.06000,118.4375,136,60,0.29426
4357510,0.04000,116.6250,136,60,0.29206
4357520,0.01500,114.8750,136,60,0.28889
4357530,-0.00500,113.0000,136,60,0.28523
4357540,-0.01583,109.8750,136,60,0.27900
4357550,-0.02000,106.4375,136,60,0.27253
4357560,-0.02000,103.6250,136,60,0.26813
4357570,-0.01500,100.4375,136,60,0.26422
4357580,-0.01500,93.5000,136,60,0.25836
4357590,-0.01500,90.3125,136,60,0.25739
4357600,-0.00500,87.5625,136,60,0.25836
4357610,0.00500,85.3125,136,60,0.26154
4357620,0.00500,82.2500,136,60,0.27521
4357630,0.00000,81.2500,136,60,0.28718
4357640,-0.01500,80.4375,136,60,0.30281
4357650,-0.02500,79.8125,136,60,0.32210
4357660,-0.03500,78.8750,136,60,0.36947
4357670,-0.03500,78.4375,136,60,0.39609
4357680,-0.03500,78.0000,136,60,0.42344
4357690,-0.01500,77.5000,136,60,0.45055
4357700,-0.00500,76.5000,136,60,0.49353
4357710,0.00500,75.8750,136,60,0.51429
4357720,-0.00500,75.2500,136,60,0.53407
4357730,-0.03000,74.6250,136,60,0.55214
4357740,-0.06000,73.2500,136,60,0.58144
4357750,-0.08500,72.5625,136,60,0.59243
4357760,-0.11000,71.9375,136,60,0.60122
4357770,-0.12500,71.2500,136,60,0.60781
4357780,-0.12500,70.0000,136,60,0.61538
4357790,-0.12500,69.3750,136,60,0.61661
4357800,-0.11500,68.8125,136,60,0.61587
4357810,-0.11500,68.2500,136,60,0.61368
4357820,-0.10500,67.3750,136,60,0.60635
4357830,-0.10000,67.0625,136,60,0.60098
4357840,-0.11000,66.7500,136,60,0.59438
4357850,-0.09000,66.5000,136,60,0.58681
4357860,0.15500,65.9375,136,60,0.56972
4357870,0.70000,65.5625,136,60,0.56068
4357880,1.01000,65.1875,136,60,0.55140
4357890,0.61500,64.7500,136,60,0.54237
4357900,-0.05000,63.8750,136,60,0.52601
4357910,-0.41000,63.3750,136,60,0.51770
4357920,-0.44500,62.8750,136,60,0.50916
4357930,-0.33500,62.3125,136,60,0.50085
4357940,-0.26000,61.2500,136,60,0.48449
4357950,-0.23000,60.7500,136,60,0.47692
4357960,-0.21000,60.3125,136,60,0.46935
4357970,-0.19500,59.8125,136,60,0.46227
4357980,-0.18500,58.8750,136,60,0.44884
4357990,-0.18000,58.5000,136,60,0.44225
4358000,-0.17500,58.1250,136,60,0.43663
4358010,-0.16500,57.8750,136,60,0.43175
4358020,-0.15500,58.5625,136,60,0.42027
4358030,-0.13500,60.5000,136,60,0.41441
4358040,-0.12000,64.5000,136,60,0.40855
4358050,-0.10500,70.6875,136,60,0.40244
4358060,-0.08500,87.3750,136,60,0.39048
4358070,-0.05500,96.1875,136,60,0.38437
4358080,-0.03000,104.5000,136,60,0.37851
4358090,-0.01500,111.9375,136,60,0.37265
4358100,0.00000,123.3750,136,60,0.36361
4358110,0.01000,127.1875,136,60,0.35849
4358120,0.02500,129.7500,136,60,0.35311
4358130,0.04000,131.2500,136,60,0.34774
4358140,0.05000,131.8125,136,60,0.33651
4358150,0.05500,131.1875,136,60,0.33114
4358160,0.06000,130.1875,136,60,0.32576
4358170,0.06000,128.8750,136,60,0.32015
4358180,0.06500,125.7500,136,60,0.30940
4358190,0.07000,124.0000,136,60,0.30403
4358200,0.07000,122.1875,136,60,0.30012
4358210,0.06000,120.3750,136,60,0.29695
4358220,0.04000,116.5625,136,60,0.28864
4358230,0.01500,114.6250,136,60,0.28400
4358240,-0.00500,112.7500,136,60,0.27937
4358250,-0.02500,110.7500,136,60,0.27473
4358260,-0.03500,106.3125,136,60,0.26569
4358270,-0.04000,103.6250,136,60,0.26129
4358280,-0.03500,100.6250,136,60,0.25739
4358290,-0.02500,97.2500,136,60,0.25397
4358300,-0.01500,90.3125,136,60,0.25201
4358310,-0.00500,87.2500,136,60,0.25250
4358320,0.00500,84.7500,136,60,0.25470
4358330,0.01000,82.7500,136,60,0.25910
4358340,0.01000,80.1875,136,60,0.27692
4358350,0.00000,79.3750,136,60,0.29109
4358360,0.00000,78.6875,136,60,0.30891
4358370,-0.01500,78.1875,136,60,0.33016
4358380,-0.02000,77.4375,136,60,0.37998
4358390,-0.02500,77.1250,136,60,0.40733
4358400,-0.02500,76.7500,136,60,0.43150
4358410,-0.01500,76.3750,136,60,0.45372
4358420,-0.00500,75.3750,136,60,0.50134
4358430,-0.00500,74.8750,136,60,0.52381
4358440,-0.02500,74.3125,136,60,0.54432
4358450,-0.05500,73.8125,136,60,0.56239
4358460,-0.07500,72.6250,136,60,0.59096
4358470,-0.09500,72.0000,136,60,0.60171
4358480,-0.11500,71.3750,136,60,0.61001
4358490,-0.13500,70.7500,136,60,0.61612
4358500,-0.13000,69.4375,136,60,0.62100
4358510,-0.12500,68.8750,136,60,0.62173
4358520,-0.12500,68.3125,136,60,0.62125
4358530,-0.12500,67.8125,136,60,0.61978
4358540,-0.12000,66.9375,136,60,0.61294
4358550,-0.11500,66.5625,136,60,0.60757
4358560,-0.12500,66.1875,136,60,0.60122
4358570,-0.06500,65.8750,136,60,0.59389
4358580,0.24000,65.1875,136,60,0.57705
4358590,0.81500,64.8750,136,60,0.56801
4358600,1.04500,64.5000,136,60,0.55971
4358610,0.53500,64.0625,136,60,0.55165
4358620,-0.09500,63.1250,136,60,0.53431
4358630,-0.37500,62.6250,136,60,0.52552
4358640,-0.36500,62.1250,136,60,0.51673
4358650,-0.25500,61.6875,136,60,0.50794
4358660,-0.19000,60.7500,136,60,0.49060
4358670,-0.17000,60.3125,136,60,0.48230
4358680,-0.15500,59.9375,136,60,0.47424
4358690,-0.14500,59.5000,136,60,0.46642
4358700,-0.13500,58.7500,136,60,0.45324
4358710,-0.13500,58.3750,136,60,0.44640
4358720,-0.12000,58.0625,136,60,0.43932
4358730,-0.10000,57.8750,136,60,0.43199
4358740,-0.07500,59.4375,136,60,0.41734
4358750,-0.05500,62.3750,136,60,0.41026
4358760,-0.05000,67.6250,136,60,0.40293
4358770,-0.05500,74.9375,136,60,0.39585
4358780,-0.05000,92.3125,136,60,0.38242
4358790,-0.03500,100.8750,136,60,0.37582
4358800,-0.02000,108.7500,136,60,0.37070
4358810,0.00000,115.6875,136,60,0.36606
4358820,0.02000,125.9375,136,60,0.35458
4358830,0.04000,129.2500,136,60,0.34872
4358840,0.05000,131.4375,136,60,0.34286
4358850,0.06000,132.6875,136,60,0.33724
4358860,0.05500,132.9375,136,60,0.32674
4358870,0.05500,132.2500,136,60,0.32186
4358880,0.06000,131.1250,136,60,0.31722
4358890,0.06000,129.7500,136,60,0.31258
4358900,0.07000,126.5000,136,60,0.30623
4358910,0.08000,124.6875,136,60,0.30256
4358920,0.09000,122.8125,136,60,0.29841
4358930,0.09000,120.8750,136,60,0.29426
4358940,0.07000,117.1875,136,60,0.28620
4358950,0.04000,115.3750,136,60,0.28230
4358960,0.00000,113.5000,136,60,0.27839
4358970,-0.03500,111.5625,136,60,0.27448
4358980,-0.06500,107.1875,136,60,0.26740
4358990,-0.08500,104.5625,136,60,0.26422
4359000,-0.08500,101.5625,136,60,0.26252
4359010,-0.09000,98.1875,136,60,0.26154
4359020,-0.08500,91.1875,136,60,0.26056
4359030,-0.08000,88.1250,136,60,0.26227
4359040,-0.08000,88.1250,136,60,0.26227
4359050,-0.08000,88.1250,136,60,0.26227
4359060,-0.09500,80.8750,136,60,0.29744
4359070,-0.09500,79.9375,136,60,0.31551
4359080,-0.11000,79.2500,136,60,0.33724
4359090,-0.11500,78.6875,136,60,0.36239
4359100,-0.11500,77.7500,136,60,0.41074
4359110,-0.11500,77.3125,136,60,0.43858
4359120,-0.09500,76.8750,136,60,0.46813
4359130,-0.08500,76.3750,136,60,0.49744
4359140,-0.07500,75.3750,136,60,0.55214
4359150,-0.07500,74.8750,136,60,0.57607
4359160,-0.09500,74.3125,136,60,0.59731
4359170,-0.12500,73.8125,136,60,0.61587
4359180,-0.14500,72.6875,136,60,0.64371
4359190,-0.17000,72.0625,136,60,0.65348
4359200,-0.19000,71.5000,136,60,0.65958
4359210,-0.20500,70.8750,136,60,0.66300
4359220,-0.21000,69.6875,136,60,0.66716
4359230,-0.20500,69.0625,136,60,0.66716
4359240,-0.20000,68.5000,136,60,0.66593
4359250,-0.20000,68.0000,136,60,0.66325
4359260,-0.18500,67.1250,136,60,0.65348
4359270,-0.18000,66.7500,136,60,0.64689
4359280,-0.17000,66.4375,136,60,0.63907
4359290,-0.03500,66.0625,136,60,0.63053
4359300,0.39500,65.2500,136,60,0.61368
4359310,0.93000,64.8750,136,60,0.60440
4359320,0.89500,64.4375,136,60,0.59463
4359330,0.24000,63.4375,136,60,0.58462
4359340,-0.29000,63.0000,136,60,0.56484
4359350,-0.46000,62.5000,136,60,0.55507
4359360,-0.39500,62.0000,136,60,0.54530
4359370,-0.29000,61.5625,136,60,0.53578
4359380,-0.25000,60.6250,136,60,0.51722
4359390,-0.23000,60.1875,136,60,0.50818
4359400,-0.21000,59.7500,136,60,0.50012
4359410,-0.20000,59.3750,136,60,0.49280
4359420,-0.19500,58.6875,136,60,0.47643
4359430,-0.19500,58.4375,136,60,0.46813
4359440,-0.17500,58.2500,136,60,0.46007
4359450,-0.15500,58.3750,136,60,0.45201
4359460,-0.13500,61.3125,136,60,0.43639
4359470,-0.12500,65.4375,136,60,0.42882
4359480,-0.11500,71.6875,136,60,0.42125
4359490,-0.11000,79.5625,136,60,0.41392
4359500,-0.10000,96.7500,136,60,0.40195
4359510,-0.08000,104.9375,136,60,0.39560
4359520,-0.05500,112.2500,136,60,0.38901
4359530,-0.03500,118.5625,136,60,0.38852
4359540,-0.01000,127.4375,136,60,0.38852
4359550,0.00000,130.1875,136,60,0.38364
4359560,0.01000,131.8750,136,60,0.37753
4359570,0.02000,132.8125,136,60,0.37094
4359580,0.02000,132.3750,136,60,0.35775
4359590,0.02250,131.5833,136,60,0.35165
4359600,0.02500,130.5000,136,60,0.34823
4359610,0.02500,129.1875,136,60,0.34310
4359620,0.03500,126.1250,136,60,0.33187
4359630,0.04000,124.5000,136,60,0.32625
4359640,0.04000,122.8125,136,60,0.32088
4359650,0.03000,121.1875,136,60,0.31575
4359660,0.01000,117.8125,136,60,0.30598
4359670,-0.01500,116.0625,136,60,0.30134
4359680,-0.04500,114.3750,136,60,0.29695
4359690,-0.06000,112.5000,136,60,0.29255
4359700,-0.06500,108.1250,136,60,0.28742
4359710,-0.06500,105.4375,136,60,0.28449
4359720,-0.06000,102.2500,136,60,0.28132
4359730,-0.05000,98.7500,136,60,0.27888
4359740,-0.03500,91.5625,136,60,0.27888
4359750,-0.02500,88.4375,136,60,0.28230
4359760,-0.00500,85.9375,136,60,0.28889
4359770,0.00000,83.9375,136,60,0.29915
4359780,-0.00500,81.1250,136,60,0.33260
4359790,-0.02000,80.1875,136,60,0.35238
4359800,-0.02500,79.4375,136,60,0.37436
4359810,-0.03500,78.8750,136,60,0.40171
4359820,-0.03000,78.0000,136,60,0.46667
4359830,-0.02000,77.6250,136,60,0.50134
4359840,-0.00500,77.1875,136,60,0.53602
4359850,0.01000,76.8125,136,60,0.56972
4359860,0.01000,75.9375,136,60,0.63077
4359870,0.00000,75.5000,136,60,0.65714
4359880,-0.02500,75.0625,136,60,0.68059
4359890,-0.04500,74.5625,136,60,0.70061
4359900,-0.06500,73.5000,136,60,0.72576
4359910,-0.08500,72.8750,136,60,0.73553
4359920,-0.10000,72.3125,136,60,0.74359
4359930,-0.10500,71.6875,136,60,0.74969
4359940,-0.11000,70.5000,136,60,0.75580
4359950,-0.11000,69.8750,136,60,0.75580
4359960,-0.10000,69.3125,136,60,0.75360
4359970,-0.09500,68.7500,136,60,0.74945
4359980,-0.09500,67.7500,136,60,0.73553
4359990,-0.10500,67.3125,136,60,0.72674
4360000,-0.01500,66.8125,136,60,0.71673
4360010,0.37000,66.3750,136,60,0.70525
4360020,0.93500,65.2500,136,60,0.67961
4360030,0.96000,64.6875,136,60,0.66593
4360040,0.36000,64.1875,136,60,0.65201
4360050,-0.20000,63.6250,136,60,0.63810
4360060,-0.42500,62.5625,136,60,0.61148
4360070,-0.38500,62.0625,136,60,0.59853
4360080,-0.28000,61.5625,136,60,0.58584
4360090,-0.23500,61.0625,136,60,0.57338
4360100,-0.22000,60.1875,136,60,0.55263
4360110,-0.20500,59.7500,136,60,0.54237
4360120,-0.19500,59.3750,136,60,0.53187
4360130,-0.19000,59.0000,136,60,0.52161
4360140,-0.19000,58.2500,136,60,0.50183
4360150,-0.17500,58.0625,136,60,0.49231
4360160,-0.16000,58.1875,136,60,0.48327
4360170,-0.15000,59.0625,136,60,0.47473
4360180,-0.13500,65.6875,136,60,0.45836
4360190,-0.12500,72.1875,136,60,0.45177
4360200,-0.11500,80.2500,136,60,0.44567
4360210,-0.10000,97.8750,136,60,0.43907
4360220,-0.07500,106.1250,136,60,0.42515
4360230,-0.05000,113.5625,136,60,0.41832
4360240,-0.02500,119.8750,136,60,0.41148
4360250,-0.00500,124.9375,136,60,0.40488
4360260,0.01000,131.3125,136,60,0.39219
4360270,0.02000,132.8125,136,60,0.38608
4360280,0.01500,133.3750,136,60,0.38022
4360290,0.01500,133.3125,136,60,0.37436
4360300,0.01500,131.8125,136,60,0.36581
4360310,0.01000,130.6250,136,60,0.36093
4360320,0.00500,129.1875,136,60,0.35580
4360330,0.00000,127.6875,136,60,0.35067
4360340,0.01000,124.4375,136,60,0.33993
4360350,0.01500,122.6875,136,60,0.33455
4360360,0.01000,121.0000,136,60,0.32918
4360370,-0.00500,119.3125,136,60,0.32381
4360380,-0.03000,115.8125,136,60,0.31331
4360390,-0.05500,114.0000,136,60,0.30940
4360400,-0.06500,112.0625,136,60,0.30623
4360410,-0.05500,109.9375,136,60,0.30183
4360420,-0.01000,104.7500,136,60,0.29255
4360430,0.05000,101.6250,136,60,0.28816
4360440,0.11500,98.1250,136,60,0.28474
4360450,0.19000,94.4375,136,60,0.28278
4360460,0.26500,87.8750,136,60,0.28571
4360470,0.32000,85.3750,136,60,0.29133
4360480,0.33500,83.4375,136,60,0.30085
4360490,0.32000,82.0000,136,60,0.31453
4360500,0.29000,79.9375,136,60,0.34774
4360510,0.26500,79.1875,136,60,0.37094
4360520,0.25000,78.6250,136,60,0.39878
4360530,0.23000,78.1875,136,60,0.42979
4360540,0.21000,77.3750,136,60,0.49621
4360550,0.19500,76.9375,136,60,0.52991
4360560,0.17500,76.5000,136,60,0.56239
4360570,0.14500,76.0625,136,60,0.59316
4360580,0.10000,75.0625,136,60,0.64640
4360590,0.03500,74.5625,136,60,0.66569
4360600,-0.02500,74.0000,136,60,0.68083
4360610,-0.09000,73.4375,136,60,0.69548
4360620,-0.14500,72.2500,136,60,0.71990
4360630,-0.18000,71.5625,136,60,0.72869
4360640,-0.20000,71.0000,136,60,0.73504
4360650,-0.21000,70.3750,136,60,0.73944
4360660,-0.22000,69.1875,136,60,0.74188
4360670,-0.23000,68.6875,136,60,0.74017
4360680,-0.24000,68.1875,136,60,0.73675
4360690,-0.25000,67.8125,136,60,0.73162
4360700,-0.27500,67.0625,136,60,0.71770
4360710,-0.19500,66.6875,136,60,0.70867
4360720,0.17500,66.2500,136,60,0.69841
4360730,0.74500,65.8125,136,60,0.68742
4360740,0.81500,64.8125,136,60,0.66300
4360750,0.17000,64.3125,136,60,0.65031
4360760,-0.43500,63.8125,136,60,0.63785
4360770,-0.64500,63.3125,136,60,0.62515
4360780,-0.59500,62.2500,136,60,0.60049
4360790,-0.49500,61.7500,136,60,0.58974
4360800,-0.45000,61.2500,136,60,0.57973
4360810,-0.44000,60.7500,136,60,0.56923
4360820,-0.41500,59.8750,136,60,0.54823
4360830,-0.39500,59.5000,136,60,0.53797
4360840,-0.38000,59.0625,136,60,0.52821
4360850,-0.37500,58.6875,136,60,0.51844
4360860,-0.35500,58.1875,136,60,0.49988
4360870,-0.32500,58.3750,136,60,0.49084
4360880,-0.29500,59.5625,136,60,0.48205
4360890,-0.26500,62.3125,136,60,0.47350
4360900,-0.23000,74.6250,136,60,0.45958
4360910,-0.20000,83.3125,136,60,0.45201
4360920,-0.16000,92.4375,136,60,0.44420
4360930,-0.12500,101.3125,136,60,0.43614
4360940,-0.08500,116.6875,136,60,0.42076
4360950,-0.05500,122.6250,136,60,0.41319
4360960,-0.02500,127.2500,136,60,0.40586
4360970,-0.00500,130.6250,136,60,0.39878
4360980,0.01500,134.0625,136,60,0.38535
4360990,0.03000,134.5000,136,60,0.38022
4361000,0.04000,134.3125,135,60,0.37582
4361010,0.04000,133.6875,135,60,0.37045
4361020,0.04500,131.6250,135,60,0.35873
4361030,0.04500,130.3125,135,60,0.35263
4361040,0.05000,128.9375,135,60,0.34676
4361050,0.06000,127.3750,135,60,0.34090
4361060,0.07000,124.1875,135,60,0.32967
4361070,0.06000,122.5000,135,60,0.32405
4361080,0.04000,120.8125,135,60,0.31868
4361090,0.01000,119.0000,135,60,0.31355
4361100,-0.01500,115.3125,135,60,0.30696
4361110,-0.03500,113.3750,135,60,0.30281
4361120,-0.04500,111.1875,135,60,0.29841
4361130,-0.04500,108.8125,135,60,0.29402
4361140,-0.04000,102.8750,135,60,0.28571
4361150,-0.02500,99.3750,135,60,0.28278
4361160,-0.02000,95.7500,135,60,0.28181
4361170,-0.01000,89.3125,135,60,0.28303
4361180,-0.00500,86.8750,135,60,0.29451
4361190,0.00000,84.8750,135,60,0.30427
4361200,0.00000,83.3125,135,60,0.31722
4361210,-0.00500,81.1875,135,60,0.33504
4361220,-0.01500,80.5000,135,60,0.38486
4361230,-0.02500,79.8750,135,60,0.41563
4361240,-0.02500,79.4375,135,60,0.44908
4361250,-0.02000,78.9375,135,60,0.48400
4361260,-0.00500,78.0625,135,60,0.55360
4361270,0.00500,77.6250,135,60,0.58632
4361280,0.01000,77.1250,135,60,0.61685
4361290,0.00500,76.5625,135,60,0.64444
4361300,-0.02000,75.5000,135,60,0.68303
4361310,-0.04000,74.8750,135,60,0.70012
4361320,-0.06000,74.3125,135,60,0.71551
4361330,-0.08500,73.6875,135,60,0.72845
4361340,-0.11000,72.4375,135,60,0.74725
4361350,-0.12500,71.8125,135,60,0.75311
4361360,-0.12500,71.1250,135,60,0.75678
4361370,-0.12500,70.5000,135,60,0.75824
4361380,-0.12500,69.3750,135,60,0.75604
4361390,-0.12000,68.8750,135,60,0.75214
4361400,-0.11500,68.4375,135,60,0.74676
4361410,-0.12000,68.0000,135,60,0.74017
4361420,-0.09500,67.3125,135,60,0.72283
4361430,0.18000,66.8750,135,60,0.71258
4361440,0.76500,66.5000,135,60,0.70134
4361450,1.10500,66.0625,135,60,0.68962
4361460,0.67000,65.1250,135,60,0.66447
4361470,-0.05500,64.6875,135,60,0.65177
4361480,-0.42000,64.1875,135,60,0.63932
4361490,-0.42000,63.6250,135,60,0.62784
4361500,-0.30500,62.5625,135,60,0.60586
4361510,-0.23500,62.0625,135,60,0.59463
4361520,-0.22000,61.5625,135,60,0.58339
4361530,-0.20500,61.0625,135,60,0.57241
4361540,-0.19000,60.1875,135,60,0.55140
4361550,-0.19000,59.8125,135,60,0.54139
4361560,-0.19000,59.3750,135,60,0.53138
4361570,-0.19000,59.0000,135,60,0.52161
4361580,-0.18000,58.9375,135,60,0.49109
4361590,-0.17000,59.9375,135,60,0.47937
4361600,-0.15500,62.4375,135,60,0.47033
4361610,-0.14500,67.2500,135,60,0.46129
4361620,-0.13000,83.0625,135,60,0.44347
4361630,-0.11500,92.5000,135,60,0.43492
4361640,-0.09750,100.6875,135,60,0.42792
4361650,-0.08000,110.2500,135,60,0.41832
4361660,-0.06500,123.8125,135,60,0.40195
4361670,-0.04500,128.6875,135,60,0.39414
4361680,-0.03000,132.1875,135,60,0.38657
4361690,-0.01000,134.4375,135,60,0.38071
4361700,0.00000,136.1875,135,60,0.36923
4361710,0.00500,135.9375,135,60,0.36288
4361720,0.00500,135.3125,135,60,0.35653
4361730,0.00500,134.3125,135,60,0.35018
4361740,0.01000,131.7500,135,60,0.33797
4361750,0.02000,130.2500,135,60,0.33211
4361760,0.03000,128.6250,135,60,0.32625
4361770,0.03500,127.0000,135,60,0.32039
4361780,0.04000,123.6250,135,60,0.30867
4361790,0.03000,121.8750,135,60,0.30427
4361800,0.01500,120.1250,135,60,0.30061
4361810,-0.00500,118.3750,135,60,0.29597
4361820,-0.02500,114.6250,135,60,0.28571
4361830,-0.04000,112.5000,135,60,0.28059
4361840,-0.04500,110.1250,135,60,0.27570
4361850,-0.04500,107.4375,135,60,0.27106
4361860,-0.03500,100.9375,135,60,0.26422
4361870,-0.03500,97.3125,135,60,0.26300
4361880,-0.03500,93.7500,135,60,0.26398
4361890,-0.02500,90.5625,135,60,0.26764
4361900,-0.02500,85.7500,135,60,0.28449
4361910,-0.02000,84.1250,135,60,0.29915
4361920,-0.02500,82.9375,135,60,0.31868
4361930,-0.02500,82.0000,135,60,0.34310
4361940,-0.02500,80.8125,135,60,0.40488
4361950,-0.03000,80.3125,135,60,0.44054
4361960,-0.02500,79.9375,135,60,0.47790
4361970,-0.02000,79.5625,135,60,0.51551
4361980,-0.00500,78.6250,135,60,0.58730
4361990,0.00000,78.0625,135,60,0.61563
4362000,0.00500,77.5000,135,60,0.63932
4362010,-0.00500,76.9375,135,60,0.66349
4362020,-0.03500,75.6875,135,60,0.70598
4362030,-0.06000,75.0000,135,60,0.72332
4362040,-0.08000,74.3750,135,60,0.73748
4362050,-0.10500,73.7500,135,60,0.74872
4362060,-0.12500,72.4375,135,60,0.76337
4362070,-0.13500,71.8125,135,60,0.76679
4362080,-0.13500,71.1250,135,60,0.76825
4362090,-0.13500,70.5000,135,60,0.76703
4362100,-0.13000,69.3125,135,60,0.75971
4362110,-0.12000,68.8125,135,60,0.75433
4362120,-0.11500,68.3750,135,60,0.74750
4362130,-0.12500,68.0000,135,60,0.73919
4362140,-0.03500,67.1875,135,60,0.71844
4362150,0.37500,66.7500,135,60,0.70623
4362160,1.00000,66.3750,135,60,0.69328
4362170,0.98500,65.5625,135,60,0.66593
4362180,0.37500,65.1875,135,60,0.65201
4362190,-0.26500,64.7500,135,60,0.63907
4362200,-0.46000,64.3125,135,60,0.62686
4362210,-0.36500,63.8750,135,60,0.61416
4362220,-0.24000,62.8750,135,60,0.58926
4362230,-0.20500,62.4375,135,60,0.57729
4362240,-0.19500,61.9375,135,60,0.56557
4362250,-0.18500,61.5000,135,60,0.55385
4362260,-0.17000,60.5625,135,60,0.53187
4362270,-0.16500,60.1250,135,60,0.52137
4362280,-0.16000,59.6875,135,60,0.51111
4362290,-0.15500,59.3125,135,60,0.50232
4362300,-0.14000,59.5000,135,60,0.48547
4362310,-0.13000,61.0625,135,60,0.47668
4362320,-0.12500,64.5625,135,60,0.46764
4362330,-0.12000,70.5000,135,60,0.45885
4362340,-0.11000,87.6875,135,60,0.44103
4362350,-0.09500,97.1250,135,60,0.43223
4362360,-0.07500,106.1250,135,60,0.42393
4362370,-0.05000,114.2500,135,60,0.41563
4362380,-0.02000,126.6250,135,60,0.39951
4362390,0.00500,130.7500,135,60,0.39292
4362400,0.02500,133.5625,135,60,0.38730
4362410,0.04500,135.2500,135,60,0.38071
4362420,0.06000,136.0000,135,60,0.36654
4362430,0.06000,135.5000,135,60,0.35946
4362440,0.06000,134.6250,135,60,0.35263
4362450,0.06000,133.5000,135,60,0.34579
4362460,0.07000,130.8750,135,60,0.33260
4362470,0.07000,129.3750,135,60,0.32625
4362480,0.08000,127.8750,135,60,0.32015
4362490,0.08000,126.2500,135,60,0.31551
4362500,0.08000,122.8750,135,60,0.30720
4362510,0.07000,121.0625,135,60,0.30208
4362520,0.04500,119.2500,135,60,0.29670
4362530,0.02000,117.3750,135,60,0.29109
4362540,0.00500,113.3125,135,60,0.27937
4362550,-0.01500,111.0000,135,60,0.27350
4362560,-0.02500,108.3125,135,60,0.26789
4362570,-0.02500,105.3125,135,60,0.26276
4362580,-0.01500,98.0625,135,60,0.25617
4362590,-0.01000,94.3125,135,60,0.25592
4362600,-0.00500,90.8125,135,60,0.25788
4362610,-0.00500,87.8750,135,60,0.26227
4362620,-0.00500,83.5625,135,60,0.28181
4362630,-0.00500,82.1875,135,60,0.29841
4362640,-0.01000,81.1250,135,60,0.32039
4362650,-0.01500,80.3750,135,60,0.34750
4362660,-0.01500,79.6146,135,60,0.39845
4362670,-0.01000,79.0000,135,60,0.45372
4362680,0.00000,78.6875,135,60,0.49377
4362690,0.02000,78.3125,135,60,0.52894
4362700,0.04000,77.5000,135,60,0.59389
4362710,0.05500,77.0000,135,60,0.62686
4362720,0.05000,76.4375,135,60,0.65739
4362730,0.03000,75.8750,135,60,0.68449
4362740,0.00000,74.5625,135,60,0.72723
4362750,-0.02000,73.8750,135,60,0.74310
4362760,-0.05500,73.1875,135,60,0.75556
4362770,-0.09000,72.5000,135,60,0.76484
4362780,-0.11500,71.1250,135,60,0.77582
4362790,-0.12500,70.4375,135,60,0.77705
4362800,-0.14000,69.7500,135,60,0.77607
4362810,-0.14500,68.5000,135,60,0.77411
4362820,-0.14000,67.9375,135,60,0.76581
4362830,-0.13000,67.5000,135,60,0.75897
4362840,-0.13500,67.0625,135,60,0.75043
4362850,-0.12500,66.6250,135,60,0.73993
4362860,0.11000,65.8125,135,60,0.71429
4362870,0.66500,65.4375,135,60,0.69988
4362880,1.03500,65.0000,135,60,0.68498
4362890,0.67000,64.6250,135,60,0.67082
4362900,-0.05500,63.7500,135,60,0.64322
4362910,-0.44500,63.3125,135,60,0.62906
4362920,-0.46500,62.8125,135,60,0.61514
4362930,-0.33500,61.7500,135,60,0.60147
4362940,-0.25000,61.1875,135,60,0.57534
4362950,-0.22500,60.6875,135,60,0.56288
4362960,-0.20500,60.1875,135,60,0.55092
4362970,-0.18500,59.6875,135,60,0.53919
4362980,-0.17000,58.8125,135,60,0.51648
4362990,-0.16000,58.3750,135,60,0.50672
4363000,-0.16000,58.0000,135,60,0.49792
4363010,-0.15000,57.8125,135,60,0.48840
4363020,-0.13500,59.1875,135,60,0.46886
4363030,-0.11500,62.0000,135,60,0.45910
4363040,-0.10500,67.0625,135,60,0.44957
4363050,-0.09500,74.3125,135,60,0.44029
4363060,-0.08500,92.1875,135,60,0.42173
4363070,-0.06500,101.1250,135,60,0.41270
4363080,-0.04500,109.3125,135,60,0.40366
4363090,-0.02500,116.3750,135,60,0.39634
4363100,-0.00500,126.5625,135,60,0.38193
4363110,0.01000,129.7500,135,60,0.37387
4363120,0.03000,131.8125,135,60,0.36606
4363130,0.04000,132.8750,135,60,0.35824
4363140,0.04500,132.7500,135,60,0.34286
4363150,0.05000,132.0000,135,60,0.33578
4363160,0.05500,130.8125,135,60,0.32869
4363170,0.06000,129.3750,135,60,0.32186
4363180,0.06500,126.0625,135,60,0.31038
4363190,0.07500,124.2500,135,60,0.30623
4363200,0.07500,122.3750,135,60,0.30110
4363210,0.07000,120.4375,135,60,0.29548
4363220,0.05500,116.5625,135,60,0.28376
4363230,0.03500,114.6250,135,60,0.27790
4363240,0.01500,112.6875,135,60,0.27204
4363250,-0.00500,110.6875,135,60,0.26642
4363260,-0.01500,106.1250,135,60,0.25495
4363270,-0.01500,103.4375,135,60,0.24957
4363280,-0.00500,100.3750,135,60,0.24469
4363290,0.00000,96.9375,135,60,0.24151
4363300,0.00000,90.0000,135,60,0.23834
4363310,0.00500,87.0625,135,60,0.23834
4363320,0.01000,84.6250,135,60,0.24078
4363330,0.00500,82.6875,135,60,0.24664
4363340,0.00000,80.0625,135,60,0.27204
4363350,-0.01000,79.2500,135,60,0.29231
4363360,-0.02500,78.6250,135,60,0.31770
4363370,-0.02500,78.1250,135,60,0.34799
4363380,-0.03000,77.3750,135,60,0.41368
4363390,-0.02500,77.0625,135,60,0.44420
4363400,-0.01000,76.6250,135,60,0.47839
4363410,0.00500,76.1875,135,60,0.51306
4363420,0.01500,75.1875,135,60,0.57802
4363430,0.01000,74.6875,135,60,0.60611
4363440,-0.01500,74.1250,135,60,0.63077
4363450,-0.04500,73.5625,135,60,0.65177
4363460,-0.07000,72.3750,135,60,0.68352
4363470,-0.09500,71.7500,135,60,0.69451
4363480,-0.12000,71.1250,135,60,0.70256
4363490,-0.13000,70.5000,135,60,0.70696
4363500,-0.13500,69.2500,135,60,0.70916
4363510,-0.13000,68.6875,135,60,0.70867
4363520,-0.12500,68.1250,135,60,0.70647
4363530,-0.11500,67.6250,135,60,0.70256
4363540,-0.11000,66.8125,135,60,0.69011
4363550,-0.11000,66.4375,135,60,0.68156
4363560,-0.10000,66.1250,135,60,0.67155
4363570,0.11000,65.7500,135,60,0.66056
4363580,0.65000,64.8750,135,60,0.63712
4363590,1.06500,64.4375,135,60,0.62589
4363600,0.71500,63.9375,135,60,0.61368
4363610,0.02000,63.4375,135,60,0.60122
4363620,-0.36500,62.4375,135,60,0.57314
4363630,-0.43500,61.8750,135,60,0.55629
4363640,-0.32500,61.3750,135,60,0.54261
4363650,-0.23000,60.8125,135,60,0.53040
4363660,-0.21000,59.8750,135,60,0.50867
4363670,-0.20000,59.4375,135,60,0.49866
4363680,-0.18500,59.0000,135,60,0.48913
4363690,-0.17250,58.3229,135,60,0.47721
4363700,-0.16000,57.6875,135,60,0.46569
4363710,-0.14500,57.3750,135,60,0.45739
4363720,-0.13000,57.1875,135,60,0.44933
4363730,-0.11500,57.5000,135,60,0.44103
4363740,-0.09500,61.6250,135,60,0.42491
4363750,-0.08000,66.8125,135,60,0.41734
4363760,-0.08000,74.1250,135,60,0.41001
4363770,-0.07500,82.6875,135,60,0.40293
4363780,-0.06000,100.3750,135,60,0.38999
4363790,-0.04000,108.2500,135,60,0.38486
4363800,-0.02000,115.1250,135,60,0.37875
4363810,-0.00500,120.8125,135,60,0.37216
4363820,0.01500,128.3750,135,60,0.35849
4363830,0.03500,130.3125,135,60,0.35189
4363840,0.04500,131.3125,135,60,0.34554
4363850,0.05000,131.4375,135,60,0.33919
4363860,0.05000,130.1250,135,60,0.32674
4363870,0.05000,128.9375,135,60,0.32063
4363880,0.05500,127.5000,135,60,0.31477
4363890,0.06000,125.8750,135,60,0.31038
4363900,0.07000,122.3750,135,60,0.30208
4363910,0.07500,120.5000,135,60,0.29744
4363920,0.07000,118.6250,135,60,0.29255
4363930,0.05000,116.6875,135,60,0.28767
4363940,0.02500,112.8750,135,60,0.27839
4363950,0.00000,110.8125,135,60,0.27399
4363960,-0.02000,108.6875,135,60,0.26935
4363970,-0.02500,106.3750,135,60,0.26471
4363980,-0.02500,100.9375,135,60,0.25665
4363990,-0.01500,97.8125,135,60,0.25421
4364000,-0.00500,94.4375,134,60,0.25128
4364010,0.00000,91.1250,134,60,0.24884
4364020,0.00500,85.4375,134,60,0.24835
4364030,0.01500,83.3750,134,60,0.25153
4364040,0.02000,81.7500,134,60,0.25788
4364050,0.02000,80.5000,134,60,0.26764
4364060,0.00500,78.8125,134,60,0.29963
4364070,-0.00500,78.2500,134,60,0.32161
4364080,-0.02500,77.7500,134,60,0.34725
4364090,-0.02500,77.3125,134,60,0.37216
4364100,-0.02500,76.4375,134,60,0.42564
4364110,-0.01500,76.0625,134,60,0.45568
4364120,0.00500,75.5625,134,60,0.48571
4364130,0.02000,75.1250,134,60,0.51453
4364140,0.02500,74.0625,134,60,0.56532
4364150,0.01000,73.5000,134,60,0.58657
4364160,-0.02500,72.9375,134,60,0.60488
4364170,-0.04000,72.3750,134,60,0.62002
4364180,-0.06000,71.1875,134,60,0.64103
4364190,-0.08500,70.6250,134,60,0.64664
4364200,-0.10500,70.0625,134,60,0.65128
4364210,-0.11000,69.4375,134,60,0.65470
4364220,-0.11500,68.3125,134,60,0.65690
4364230,-0.11500,67.7500,134,60,0.65543
4364240,-0.11500,67.2500,134,60,0.65250
4364250,-0.11500,66.8125,134,60,0.64811
4364260,-0.12000,66.0625,134,60,0.63541
4364270,-0.13500,65.6875,134,60,0.62759
4364280,-0.01500,65.3125,134,60,0.61905
4364290,0.31000,64.9375,134,60,0.61026
4364300,0.89000,64.1250,134,60,0.59219
4364310,0.98000,63.6875,134,60,0.58242
4364320,0.36000,63.1875,134,60,0.57265
4364330,-0.23000,62.7500,134,60,0.56264
4364340,-0.45000,61.6875,134,60,0.54310
4364350,-0.41000,61.1875,134,60,0.53333
4364360,-0.29000,60.6875,134,60,0.52381
4364370,-0.23000,60.1875,134,60,0.51453
4364380,-0.21000,59.1875,134,60,0.49768
4364390,-0.19000,58.7500,134,60,0.49060
4364400,-0.18000,58.3125,134,60,0.48303
4364410,-0.17000,57.8750,134,60,0.47521
4364420,-0.17000,57.1250,134,60,0.45958
4364430,-0.16000,56.8750,134,60,0.45177
4364440,-0.14500,56.9375,134,60,0.44420
4364450,-0.12000,57.8125,134,60,0.43687
4364460,-0.11000,64.6875,134,60,0.42222
4364470,-0.11000,71.4375,134,60,0.41514
4364480,-0.10500,79.7500,134,60,0.40806
4364490,-0.08500,88.6875,134,60,0.40220
4364500,-0.07000,105.7500,134,60,0.39121
4364510,-0.04500,113.1250,134,60,0.38510
4364520,-0.02500,119.3125,134,60,0.37875
4364530,-0.01000,124.2500,134,60,0.37265
4364540,0.01000,130.2500,134,60,0.36068
4364550,0.02500,131.6875,134,60,0.35482
4364560,0.03500,132.1875,134,60,0.34921
4364570,0.04000,132.0625,134,60,0.34359
4364580,0.03000,130.2500,134,60,0.33358
4364590,0.02500,128.9375,134,60,0.32991
4364600,0.03000,127.3750,134,60,0.32552
4364610,0.04000,125.7500,134,60,0.32088
4364620,0.05000,122.3125,134,60,0.31136
4364630,0.06000,120.5625,134,60,0.30647
4364640,0.06000,118.8125,134,60,0.30183
4364650,0.05000,117.0625,134,60,0.29719
4364660,0.03000,113.5000,134,60,0.28840
4364670,0.00500,111.5625,134,60,0.28425
4364680,-0.01500,109.5000,134,60,0.27985
4364690,-0.02000,107.2500,134,60,0.27668
4364700,-0.02500,101.6250,134,60,0.27106
4364710,-0.01500,97.8854,134,60,0.26736
4364720,-0.01500,94.8750,134,60,0.26496
4364730,-0.00500,91.4375,134,60,0.26325
4364740,-0.00500,85.6875,134,60,0.26569
4364750,0.00000,83.6250,134,60,0.27131
4364760,0.00000,82.0000,134,60,0.28034
4364770,-0.00500,80.6875,134,60,0.29304
4364780,-0.01000,78.9375,134,60,0.32698
4364790,-0.01500,78.2500,134,60,0.34628
4364800,-0.02500,77.7500,134,60,0.37021
4364810,-0.02000,77.3125,134,60,0.39756
4364820,-0.01500,76.3125,134,60,0.45739
4364830,-0.00500,75.8125,134,60,0.48767
4364840,0.01000,75.3750,134,60,0.51673
4364850,0.02000,74.3750,134,60,0.54359
4364860,0.01500,73.8750,134,60,0.58974
4364870,-0.00500,73.3750,134,60,0.60879
4364880,-0.03000,72.8125,134,60,0.62515
4364890,-0.05000,72.2500,134,60,0.63687
4364900,-0.07500,71.0625,134,60,0.65324
4364910,-0.10500,70.5625,134,60,0.65958
4364920,-0.12500,70.0000,134,60,0.66398
4364930,-0.12500,69.4375,134,60,0.66667
4364940,-0.12500,68.2500,134,60,0.66691
4364950,-0.12500,67.7500,134,60,0.66471
4364960,-0.12500,67.2500,134,60,0.66105
4364970,-0.11500,66.8125,134,60,0.65617
4364980,-0.12000,66.0000,134,60,0.64274
4364990,-0.13500,65.6250,134,60,0.63516
4365000,0.03500,65.2500,134,60,0.62637
4365010,0.53000,64.8125,134,60,0.61661
4365020,1.02500,64.0000,134,60,0.59609
4365030,0.84500,63.5625,134,60,0.58559
4365040,0.14000,63.1250,134,60,0.57509
4365050,-0.33500,62.6250,134,60,0.56484
4365060,-0.45000,61.7500,134,60,0.54432
4365070,-0.36000,61.2500,134,60,0.53431
4365080,-0.26000,60.7500,134,60,0.52576
4365090,-0.22000,60.3125,134,60,0.51795
4365100,-0.20500,59.4375,134,60,0.50134
4365110,-0.19000,59.0000,134,60,0.49280
4365120,-0.17500,58.5625,134,60,0.48449
4365130,-0.16000,58.1875,134,60,0.47643
4365140,-0.15000,57.5000,134,60,0.46105
4365150,-0.13500,57.3750,134,60,0.45348
4365160,-0.12500,57.8125,134,60,0.44591
4365170,-0.11500,59.3125,134,60,0.43858
4365180,-0.11000,68.1250,134,60,0.42540
4365190,-0.10500,75.6250,134,60,0.42002
4365200,-0.10000,84.1875,134,60,0.41392
4365210,-0.07500,93.0625,134,60,0.40757
4365220,-0.05000,109.5000,134,60,0.39438
4365230,-0.02000,116.3750,134,60,0.38803
4365240,0.00000,122.0625,134,60,0.38169
4365250,0.02000,126.5000,134,60,0.37534
4365260,0.04000,131.7500,134,60,0.36288
4365270,0.05500,132.8125,134,60,0.35678
4365280,0.06000,133.1250,134,60,0.35214
4365290,0.07000,132.8125,134,60,0.34823
4365300,0.07500,130.9375,134,60,0.33871
4365310,0.07500,129.5625,134,60,0.33358
4365320,0.07500,128.0625,134,60,0.32869
4365330,0.08000,126.4375,134,60,0.32381
4365340,0.08000,123.0000,134,60,0.31355
4365350,0.08500,121.1875,134,60,0.30842
4365360,0.07000,119.3125,134,60,0.30354
4365370,0.04500,117.4375,134,60,0.29890
4365380,0.01000,113.6250,134,60,0.29133
4365390,-0.01500,111.6250,134,60,0.28864
4365400,-0.04000,109.6250,134,60,0.28523
4365410,-0.04500,107.3125,134,60,0.28156
4365420,-0.04000,101.8125,134,60,0.27399
4365430,-0.02500,98.5000,134,60,0.27082
4365440,-0.00500,95.0000,134,60,0.26886
4365450,0.00500,91.5625,134,60,0.26838
4365460,0.01000,86.0000,134,60,0.27448
4365470,0.01000,83.9375,134,60,0.28205
4365480,0.01500,82.3125,134,60,0.29158
4365490,0.01000,81.0625,134,60,0.30379
4365500,-0.00500,79.3125,134,60,0.34090
4365510,-0.01000,78.6250,134,60,0.36532
4365520,-0.01500,78.0625,134,60,0.39292
4365530,-0.01500,77.5000,134,60,0.42295
4365540,-0.01500,76.5000,134,60,0.48571
4365550,-0.00500,76.0625,134,60,0.51648
4365560,0.00500,75.5625,134,60,0.54579
4365570,0.01000,75.0000,134,60,0.57314
4365580,-0.00500,73.9375,134,60,0.61685
4365590,-0.03500,73.3750,134,60,0.63199
4365600,-0.06000,72.8125,134,60,0.64664
4365610,-0.08500,72.1875,134,60,0.65983
4365620,-0.10500,71.0625,134,60,0.68010
4365630,-0.12500,70.4375,134,60,0.68718
4365640,-0.13000,69.8750,134,60,0.69206
4365650,-0.13000,69.3125,134,60,0.69524
4365660,-0.13500,68.2500,134,60,0.69646
4365670,-0.13000,67.7500,134,60,0.70696
4365680,-0.12500,67.3125,134,60,0.72186
4365690,-0.12000,66.8750,134,60,0.72576
4365700,-0.12500,66.1875,134,60,0.71844
4365710,-0.08500,65.8125,134,60,0.71062
4365720,0.22500,65.4375,134,60,0.70085
4365730,0.81500,65.0000,134,60,0.68987
4365740,0.88833,64.3229,134,60,0.67184
4365750,0.54500,63.6250,134,60,0.65324
4365760,-0.11500,63.1250,134,60,0.64054
4365770,-0.42500,62.6250,134,60,0.62808
4365780,-0.42500,61.5625,134,60,0.60488
4365790,-0.30500,61.0625,134,60,0.59463
4365800,-0.23500,60.6250,134,60,0.58413
4365810,-0.21000,60.1250,134,60,0.57338
4365820,-0.19000,59.2500,134,60,0.55165
4365830,-0.17500,58.8125,134,60,0.54090
4365840,-0.17000,58.3750,134,60,0.53016
4365850,-0.17000,57.9375,134,60,0.51966
4365860,-0.16500,57.3125,134,60,0.49939
4365870,-0.15500,57.4375,134,60,0.48962
4365880,-0.13500,58.4375,134,60,0.48107
4365890,-0.13000,60.9375,134,60,0.47326
4365900,-0.13000,72.3125,134,60,0.45641
4365910,-0.12500,80.6250,134,60,0.44811
4365920,-0.11000,89.4375,134,60,0.43980
4365930,-0.09000,98.2500,134,60,0.43150
4365940,-0.06500,113.6875,134,60,0.41514
4365950,-0.03500,119.8125,134,60,0.40733
4365960,-0.01500,124.7500,134,60,0.39976
4365970,0.01000,128.4375,134,60,0.39219
4365980,0.02500,132.3750,134,60,0.37900
4365990,0.03500,133.0000,134,60,0.37411
4366000,0.03500,132.9375,134,60,0.36825
4366010,0.03500,132.4375,134,60,0.36190
4366020,0.03000,130.5000,134,60,0.34945
4366030,0.03000,129.1875,134,60,0.34335
4366040,0.03500,127.6875,134,60,0.33724
4366050,0.04500,126.1250,134,60,0.33138
4366060,0.05000,122.7500,134,60,0.31990
4366070,0.04500,120.9375,134,60,0.31453
4366080,0.03000,119.1875,134,60,0.31062
4366090,0.01000,117.4375,134,60,0.30769
4366100,-0.01000,113.7500,134,60,0.29963
4366110,-0.03000,111.8125,134,60,0.29524
4366120,-0.04500,109.6875,134,60,0.29060
4366130,-0.04500,107.2500,134,60,0.28596
4366140,-0.03500,101.3750,134,60,0.27766
4366150,-0.02500,97.8750,134,60,0.27448
4366160,-0.01500,94.2500,134,60,0.27302
4366170,-0.01000,90.7500,134,60,0.27375
4366180,-0.00500,85.1250,134,60,0.28352
4366190,-0.00500,83.1250,134,60,0.29255
4366200,-0.01000,81.5000,134,60,0.30549
4366210,-0.01500,80.3125,134,60,0.32259
4366220,-0.02500,78.6250,134,60,0.36972
4366230,-0.02500,78.0000,134,60,0.39927
4366240,-0.02500,77.5000,134,60,0.43175
4366250,-0.02500,77.0625,134,60,0.46618
4366260,-0.01500,76.1875,134,60,0.53602
4366270,0.00500,75.6875,134,60,0.56972
4366280,0.02000,75.1875,134,60,0.59731
4366290,0.02000,74.6875,134,60,0.62076
4366300,-0.00500,73.6250,134,60,0.66716
4366310,-0.04000,73.0625,134,60,0.68718
4366320,-0.06500,72.5000,134,60,0.70452
4366330,-0.08000,71.3750,134,60,0.71917
4366340,-0.10500,70.7500,134,60,0.74017
4366350,-0.12500,70.1875,134,60,0.74701
4366360,-0.13000,69.5625,134,60,0.75140
4366370,-0.12500,69.0000,134,60,0.75360
4366380,-0.12500,67.9375,134,60,0.75165
4366390,-0.12000,67.4375,134,60,0.74799
4366400,-0.11500,67.0000,134,60,0.74310
4366410,-0.11500,66.6250,134,60,0.73651
4366420,-0.12000,65.9375,134,60,0.71966
4366430,-0.00500,65.5625,134,60,0.70916
4366440,0.42500,65.1250,134,60,0.69792
4366450,1.00000,64.6875,134,60,0.68596
4366460,0.96500,63.6875,134,60,0.66129
4366470,0.29500,63.1875,134,60,0.64860
4366480,-0.26500,62.6250,134,60,0.63687
4366490,-0.46000,62.1250,134,60,0.62564
4366500,-0.39500,61.0625,134,60,0.60220
4366510,-0.28000,60.5000,134,60,0.59048
4366520,-0.24000,60.0625,134,60,0.57924
4366530,-0.22500,59.6250,134,60,0.56825
4366540,-0.20500,58.6875,134,60,0.54725
4366550,-0.18500,58.2500,134,60,0.53724
4366560,-0.18000,57.8125,134,60,0.52723
4366570,-0.17000,57.1875,134,60,0.51770
4366580,-0.16000,57.1250,134,60,0.50012
4366590,-0.14000,57.6250,134,60,0.49304
4366600,-0.12500,59.2500,134,60,0.48523
4366610,-0.12500,62.7500,134,60,0.47717
4366620,-0.13000,76.3750,134,60,0.46105
4366630,-0.13000,85.1875,134,60,0.45324
4366640,-0.11500,94.2500,134,60,0.44542
4366650,-0.09500,102.8750,134,60,0.43761
4366660,-0.07500,117.4375,134,60,0.42247
4366670,-0.04500,123.0000,134,60,0.41514
4366680,-0.02500,127.3125,134,60,0.40928
4366690,0.00000,130.3750,134,60,0.40415
4366700,0.01000,133.3125,134,60,0.39219
4366710,0.02000,133.6250,134,60,0.38584
4366720,0.02500,133.3750,134,60,0.37924
4366730,0.02500,132.6875,134,60,0.37289
4366740,0.02000,130.4375,134,60,0.35971
4366750,0.02000,129.0000,134,60,0.35311
4366760,0.02584,127.7708,134,60,0.34717
4366770,0.03000,125.9375,134,60,0.34066
4366780,0.02500,122.6875,134,60,0.33236
4366790,0.02000,121.0000,134,60,0.32772
4366800,0.00000,119.2500,134,60,0.32259
4366810,-0.01500,117.5000,134,60,0.31722
4366820,-0.04000,113.8125,134,60,0.30696
4366830,-0.06000,111.8125,134,60,0.30159
4366840,-0.07000,109.5625,134,60,0.29621
4366850,-0.06500,107.0000,134,60,0.29133
4366860,-0.05500,100.8750,134,60,0.28278
4366870,-0.04000,97.3750,134,60,0.28010
4366880,-0.03500,93.8125,134,60,0.27985
4366890,-0.02500,87.5625,134,60,0.28181
4366900,-0.02500,85.1250,134,60,0.29255
4366910,-0.02500,83.2500,134,60,0.30330
4366920,-0.03000,81.7500,134,60,0.31819
4366930,-0.03500,80.6875,134,60,0.33797
4366940,-0.04500,79.0000,134,60,0.39048
4366950,-0.06000,78.3750,134,60,0.42247
4366960,-0.06500,77.8750,134,60,0.45690
4366970,-0.06500,77.3750,134,60,0.49255
4366980,-0.05000,76.4375,134,60,0.55214
4366990,-0.03500,76.0000,134,60,0.58266
4367000,-0.02000,75.5000,134,60,0.61294
4367010,-0.01000,74.9375,134,60,0.64127
4367020,-0.02000,73.8125,134,60,0.68962
4367030,-0.04500,73.2500,134,60,0.70916
4367040,-0.07500,72.6875,134,60,0.72576
4367050,-0.09500,72.1250,134,60,0.73919
4367060,-0.11500,70.9375,134,60,0.75800
4367070,-0.14000,70.3750,134,60,0.76386
4367080,-0.15500,69.7500,134,60,0.76630
4367090,-0.15500,69.1875,134,60,0.76654
4367100,-0.15000,68.0625,134,60,0.76435
4367110,-0.14500,67.5000,134,60,0.76117
4367120,-0.13500,67.0625,134,60,0.75653
4367130,-0.12000,66.6250,134,60,0.75018
4367140,-0.12500,65.9375,134,60,0.73309
4367150,-0.10500,65.5625,134,60,0.72259
4367160,0.16000,65.1875,134,60,0.71111
4367170,0.75000,64.8125,134,60,0.69890
4367180,1.11500,64.0000,134,60,0.67570
4367190,0.70500,63.5625,134,60,0.66349
4367200,-0.04500,63.0625,134,60,0.65079
4367210,-0.45000,62.0000,134,60,0.63810
4367220,-0.47000,61.4375,134,60,0.61392
4367230,-0.34000,60.9375,134,60,0.60244
4367240,-0.26000,60.3750,134,60,0.59121
4367250,-0.24500,59.8750,134,60,0.58022
4367260,-0.23000,58.9375,134,60,0.55897
4367270,-0.21000,58.5000,134,60,0.54847
4367280,-0.20000,58.0625,134,60,0.53919
4367290,-0.19000,57.6875,134,60,0.53065
4367300,-0.18000,57.0000,134,60,0.51184
4367310,-0.17000,57.0625,134,60,0.50208
4367320,-0.16000,57.8750,134,60,0.49280
4367330,-0.15000,60.1875,134,60,0.48352
4367340,-0.14000,71.6875,134,60,0.46569
4367350,-0.13500,80.3125,134,60,0.45714
4367360,-0.11500,89.6875,134,60,0.44884
4367370,-0.09500,98.8750,134,60,0.44078
4367380,-0.07000,115.0625,134,60,0.42808
4367390,-0.05000,121.3750,134,60,0.42100
4367400,-0.02500,126.4375,134,60,0.41368
4367410,0.00000,130.1250,134,60,0.40635
4367420,0.02000,134.0000,134,60,0.39219
4367430,0.03500,134.6250,134,60,0.38559
4367440,0.04500,134.6250,134,60,0.37900
4367450,0.05000,134.1875,134,60,0.37265
4367460,0.05500,132.3125,134,60,0.35995
4367470,0.05000,131.0000,134,60,0.35360
4367480,0.05000,129.5625,134,60,0.34872
4367490,0.05500,126.4375,134,60,0.34457
4367500,0.06500,124.7500,134,60,0.33407
4367510,0.06500,123.0625,134,60,0.32845
4367520,0.06000,121.3125,134,60,0.32283
4367530,0.04000,119.5625,134,60,0.31746
4367540,0.02000,115.8750,134,60,0.30720
4367550,-0.00500,113.8750,134,60,0.30208
4367560,-0.02500,111.8125,134,60,0.29695
4367570,-0.03000,109.5625,134,60,0.29182
4367580,-0.02000,104.0625,134,60,0.28596
4367590,-0.00500,100.8125,134,60,0.28327
4367600,0.02000,97.3125,134,60,0.28107
4367610,0.04000,93.7500,134,60,0.28083
4367620,0.05000,87.6875,134,60,0.28816
4367630,0.05500,85.4375,134,60,0.29719
4367640,0.05500,83.6250,134,60,0.31062
4367650,0.05000,82.2500,134,60,0.32869
4367660,0.04000,80.3125,134,60,0.37875
4367670,0.02000,79.6875,134,60,0.41001
4367680,0.00000,79.1250,134,60,0.43956
4367690,-0.00500,78.6250,134,60,0.46862
4367700,-0.00500,77.6875,134,60,0.53651
4367710,-0.00500,77.1875,134,60,0.57070
4367720,-0.00500,76.6250,134,60,0.59805
4367730,-0.01500,76.0625,134,60,0.62027
4367740,-0.01000,74.9375,134,60,0.66618
4367750,-0.00500,74.3750,134,60,0.68596
4367760,-0.00500,73.8125,134,60,0.70305
4367770,0.01000,73.2500,134,60,0.71746
4367780,0.02000,72.3229,134,60,0.73008
4367790,0.01000,71.3750,134,60,0.73944
4367800,0.00000,70.7500,134,60,0.74408
4367810,-0.00500,70.1250,134,60,0.74725
4367820,-0.00500,68.8125,134,60,0.74823
4367830,0.00000,68.2500,134,60,0.74579
4367840,0.00000,67.6250,134,60,0.74164
4367850,0.00500,67.1250,134,60,0.73578
4367860,0.00000,66.2500,134,60,0.71966
4367870,-0.03500,65.8750,134,60,0.70940
4367880,0.01500,65.5000,134,60,0.69890
4367890,0.38500,65.1250,134,60,0.68791
4367900,1.03500,64.3750,134,60,0.66325
4367910,1.20000,64.0000,134,60,0.65031
4367920,0.57500,63.6250,134,60,0.63712
4367930,-0.14000,63.2500,134,60,0.62393
4367940,-0.41500,62.3750,134,60,0.59805
4367950,-0.34500,61.8750,134,60,0.58559
4367960,-0.21000,61.3750,134,60,0.57387
4367970,-0.17000,60.8750,134,60,0.56239
4367980,-0.16500,59.8750,134,60,0.54310
4367990,-0.16000,59.4375,134,60,0.53309
4368000,-0.15500,59.0000,133,59,0.52308
4368010,-0.15500,58.5625,133,59,0.51306
4368020,-0.16000,57.8750,133,59,0.49328
4368030,-0.17000,57.7500,133,59,0.48352
4368040,-0.18000,58.0625,133,59,0.47399
4368050,-0.19000,59.5000,133,59,0.46447
4368060,-0.20000,68.1875,133,59,0.44615
4368070,-0.21500,75.8125,133,59,0.43712
4368080,-0.22000,84.8125,133,59,0.42955
4368090,-0.22000,94.1250,133,59,0.42271
4368100,-0.21000,111.3125,133,59,0.40733
4368110,-0.19000,118.3750,133,59,0.39951
4368120,-0.17000,124.1875,133,59,0.39194
4368130,-0.15000,128.6875,133,59,0.38437
4368140,-0.13500,133.8125,133,59,0.36923
4368150,-0.13000,134.8125,133,59,0.36190
4368160,-0.13000,135.0625,133,59,0.35458
4368170,-0.14000,134.7500,133,59,0.34750
4368180,-0.14500,133.1250,133,59,0.33724
4368190,-0.15500,131.9375,133,59,0.33187
4368200,-0.17000,130.6250,133,59,0.32625
4368210,-0.18500,129.1250,133,59,0.32039
4368220,-0.20500,126.0000,133,59,0.30916
4368230,-0.23500,124.3125,133,59,0.30354
4368240,-0.28000,122.6875,133,59,0.29792
4368250,-0.33000,121.0000,133,59,0.29255
4368260,-0.35500,117.5000,133,59,0.28230
4368270,-0.34500,115.6250,133,59,0.27692
4368280,-0.32500,113.6250,133,59,0.27326
4368290,-0.28500,111.5000,133,59,0.27009
4368300,-0.23000,106.2500,133,59,0.26203
4368310,-0.14500,103.1250,133,59,0.25836
4368320,-0.05500,99.6250,133,59,0.25543
4368330,0.00500,96.0000,133,59,0.25397
4368340,0.04000,89.4375,133,59,0.25836
4368350,0.05000,86.8125,133,59,0.26569
4368360,0.05000,84.7500,133,59,0.27741
4368370,0.03000,83.0625,133,59,0.29402
4368380,0.00000,80.8125,133,59,0.33333
4368390,-0.04000,80.0625,133,59,0.36068
4368400,-0.07500,79.4375,133,59,0.39292
4368410,-0.08500,78.9375,133,59,0.42857
4368420,-0.07500,78.1250,133,59,0.50476
4368430,-0.04500,77.6875,133,59,0.54237
4368440,-0.01500,77.1875,133,59,0.57827
4368450,-0.00500,76.6875,133,59,0.61148
4368460,-0.00500,75.5000,133,59,0.66813
4368470,-0.01000,74.8750,133,59,0.69133
4368480,-0.02000,74.1875,133,59,0.70842
4368490,-0.03000,73.5000,133,59,0.72137
4368500,-0.05000,72.1250,133,59,0.74481
4368510,-0.07500,71.5000,133,59,0.75360
4368520,-0.09500,70.8750,133,59,0.76020
4368530,-0.10500,70.1875,133,59,0.76484
4368540,-0.10500,68.9375,133,59,0.76825
4368550,-0.10000,68.3750,133,59,0.76703
4368560,-0.10000,67.8125,133,59,0.76410
4368570,-0.10500,66.8750,133,59,0.75922
4368580,-0.11500,66.5000,133,59,0.74505
4368590,-0.14000,66.1250,133,59,0.73578
4368600,-0.16000,65.7500,133,59,0.72527
4368610,0.04000,65.3750,133,59,0.71355
4368620,0.58000,64.6250,133,59,0.68767
4368630,1.03000,64.2500,133,59,0.67424
4368640,0.70000,63.8125,133,59,0.66056
4368650,-0.09500,63.3750,133,59,0.64689
4368660,-0.56000,62.4375,133,59,0.62002
4368670,-0.59500,61.8750,133,59,0.60806
4368680,-0.45000,61.3750,133,59,0.59683
4368690,-0.35000,60.8125,133,59,0.58510
4368700,-0.31500,59.7500,133,59,0.56142
4368710,-0.29000,59.2500,133,59,0.54969
4368720,-0.27000,58.8125,133,59,0.53822
4368730,-0.25000,58.3750,133,59,0.52674
4368740,-0.23500,57.5625,133,59,0.50501
4368750,-0.23000,57.2500,133,59,0.49475
4368760,-0.21000,57.1875,133,59,0.48474
4368770,-0.19500,57.7500,133,59,0.47497
4368780,-0.18000,63.3750,133,59,0.45910
4368790,-0.17500,69.4375,133,59,0.45055
4368800,-0.18000,77.4375,133,59,0.44151
4368810,-0.16417,90.8854,133,59,0.42768
4368820,-0.13000,104.2500,133,59,0.41392
4368830,-0.08000,112.0000,133,59,0.40513
4368840,-0.02500,118.5000,133,59,0.39683
4368850,0.02000,123.7500,133,59,0.38852
4368860,0.07000,130.2500,133,59,0.37241
4368870,0.10500,131.7500,133,59,0.36557
4368880,0.13000,132.4375,133,59,0.35971
4368890,0.14000,132.3750,133,59,0.35311
4368900,0.14500,131.0000,133,59,0.33895
4368910,0.14500,129.8750,133,59,0.33211
4368920,0.15000,128.5000,133,59,0.32527
4368930,0.16000,127.0000,133,59,0.31844
4368940,0.17000,123.8125,133,59,0.30525
4368950,0.17000,122.1250,133,59,0.29866
4368960,0.16500,120.4375,133,59,0.29231
