RelativeTimeMilliseconds,ECG,ART,ART (Sys),ART (Dia),PPG
4460960,-0.09000,58.0625,118,53,0.63687
4460970,-0.08500,57.7500,118,53,0.62784
4460980,-0.09500,57.3125,118,53,0.60977
4460990,-0.08500,57.1250,118,53,0.60024
4461000,0.14500,56.9375,118,53,0.59023
4461010,0.68000,56.6250,118,53,0.58022
4461020,1.06500,56.0000,118,53,0.56044
4461030,0.76000,55.6250,118,53,0.55067
4461040,0.07500,55.2500,118,53,0.54139
4461050,-0.34000,54.8750,118,53,0.53211
4461060,-0.40500,54.0625,118,53,0.51453
4461070,-0.30500,53.6875,118,53,0.50696
4461080,-0.22500,53.3125,118,53,0.50012
4461090,-0.20000,52.9375,118,53,0.49280
4461100,-0.19000,52.1875,118,53,0.47790
4461110,-0.18000,51.8125,118,53,0.47057
4461120,-0.17000,51.4375,118,53,0.46349
4461130,-0.17000,51.1250,118,53,0.45641
4461140,-0.17000,50.5000,118,53,0.44249
4461150,-0.16000,50.2500,118,53,0.43541
4461160,-0.15500,50.1875,118,53,0.42833
4461170,-0.15000,52.0000,118,53,0.42125
4461180,-0.14000,54.9375,118,53,0.41001
4461190,-0.12500,59.6875,118,53,0.40366
4461200,-0.11000,65.8750,118,53,0.39707
4461210,-0.09000,72.8125,118,53,0.39072
4461220,-0.07000,86.6250,118,53,0.37827
4461230,-0.05000,92.9375,118,53,0.37216
4461240,-0.03500,98.6250,118,53,0.36630
4461250,-0.01500,103.5000,118,53,0.36068
4461260,0.00000,110.6250,118,53,0.34969
4461270,0.01500,112.8750,118,53,0.34530
4461280,0.02000,114.3125,118,53,0.34164
4461290,0.02000,115.1875,118,53,0.33724
4461300,0.02500,114.8750,118,53,0.32772
4461310,0.03000,114.1250,118,53,0.32259
4461320,0.04000,113.1875,118,53,0.31770
4461330,0.05000,111.9375,118,53,0.31282
4461340,0.06000,109.1250,118,53,0.30379
4461350,0.07000,107.5625,118,53,0.29915
4461360,0.07000,105.9375,118,53,0.29475
4461370,0.05500,104.2500,118,53,0.29060
4461380,0.03000,100.9375,118,53,0.28498
4461390,0.01000,99.2500,118,53,0.28156
4461400,-0.01000,97.6250,118,53,0.27766
4461410,-0.02500,95.8750,118,53,0.27350
4461420,-0.02500,92.1875,118,53,0.26520
4461430,-0.03000,90.0625,118,53,0.26129
4461440,-0.03000,87.6875,118,53,0.25836
4461450,-0.02500,85.0625,118,53,0.25690
4461460,-0.02500,79.6250,118,53,0.26178
4461470,-0.02000,77.2500,118,53,0.26838
4461480,-0.02000,75.2500,118,53,0.27790
4461490,-0.01500,72.4375,118,53,0.29158
4461500,-0.01000,71.4375,118,53,0.33016
4461510,-0.01000,70.6250,118,53,0.35433
4461520,-0.01500,69.9375,118,53,0.38095
4461530,-0.01500,69.4375,118,53,0.40904
4461540,-0.02000,68.5625,118,53,0.46764
4461550,-0.02500,68.1250,118,53,0.49695
4461560,-0.03000,67.7500,118,53,0.52552
4461570,-0.02500,67.3750,118,53,0.54945
4461580,-0.02500,66.5000,118,53,0.59194
4461590,-0.01000,66.1250,118,53,0.61319
4461600,0.00000,65.6875,118,53,0.63248
4461610,0.01000,65.2500,118,53,0.64957
4461620,0.00000,64.3750,118,53,0.67595
4461630,-0.02000,63.9375,118,53,0.68571
4461640,-0.04500,63.5000,118,53,0.69328
4461650,-0.06500,63.0000,118,53,0.69890
4461660,-0.09000,62.0625,118,53,0.70525
4461670,-0.10500,61.5625,118,53,0.70525
4461680,-0.11500,61.0625,118,53,0.70379
4461690,-0.11500,60.5625,118,53,0.70159
4461700,-0.11500,59.6875,118,53,0.69377
4461710,-0.11500,59.2500,118,53,0.68791
4461720,-0.11000,58.8750,118,53,0.68107
4461730,-0.10000,58.6250,118,53,0.67302
4461740,-0.09500,58.1250,118,53,0.65397
4461750,-0.11000,57.9375,118,53,0.64347
4461760,-0.00500,57.6875,118,53,0.63272
4461770,0.37500,57.3750,118,53,0.62271
4461780,0.94500,56.7500,118,53,0.60269
4461790,1.02000,56.3750,118,53,0.59219
4461800,0.40000,56.0000,118,53,0.58193
4461810,-0.19000,55.6250,118,53,0.57167
4461820,-0.41000,54.7500,118,53,0.55214
4461830,-0.37000,54.3750,118,53,0.54286
4461840,-0.26500,53.9375,118,53,0.53382
4461850,-0.21000,53.5625,118,53,0.52503
4461860,-0.20000,52.8750,118,53,0.50794
4461870,-0.19000,52.5000,118,53,0.50012
4461880,-0.18500,52.1875,118,53,0.49304
4461890,-0.18000,51.8125,118,53,0.48547
4461900,-0.18000,51.1250,118,53,0.47033
4461910,-0.16500,50.8125,118,53,0.46276
4461920,-0.15500,50.6250,118,53,0.45543
4461930,-0.14500,50.6875,118,53,0.45324
4461940,-0.14500,53.3125,118,53,0.45031
4461950,-0.13500,56.9375,118,53,0.44493
4461960,-0.11500,62.3125,118,53,0.43883
4461970,-0.10000,68.8750,118,53,0.43321
4461980,-0.07500,82.8750,118,53,0.42198
4461990,-0.05500,89.5000,118,53,0.41538
4462000,-0.03500,95.6250,118,53,0.40855
4462010,-0.02500,101.0000,118,53,0.40171
4462020,-0.00500,109.3750,118,53,0.38828
4462030,0.01500,112.1250,118,53,0.38169
4462040,0.02750,114.0417,118,53,0.37639
4462050,0.03500,115.1875,118,53,0.36923
4462060,0.04000,115.6250,118,53,0.35702
4462070,0.04000,115.1875,118,53,0.35238
4462080,0.04000,114.3125,118,53,0.34872
4462090,0.04500,113.2500,118,53,0.34408
4462100,0.05500,110.5000,118,53,0.33358
4462110,0.06500,109.0000,118,53,0.32821
4462120,0.06500,107.4375,118,53,0.32308
4462130,0.05500,105.8750,118,53,0.31795
4462140,0.03500,102.6250,118,53,0.30769
4462150,0.01000,100.9375,118,53,0.30281
4462160,-0.01500,99.3125,118,53,0.29768
4462170,-0.02500,97.6875,118,53,0.29402
4462180,-0.03500,94.1875,118,53,0.28742
4462190,-0.03500,92.2500,118,53,0.28327
4462200,-0.03000,90.0625,118,53,0.27912
4462210,-0.02500,87.6875,118,53,0.27595
4462220,-0.02500,82.5000,118,53,0.27595
4462230,-0.01500,79.9375,118,53,0.28059
4462240,-0.01500,77.7500,118,53,0.28913
4462250,-0.01500,75.8750,118,53,0.30208
4462260,-0.01500,73.1875,118,53,0.34090
4462270,-0.01500,72.1875,118,53,0.36239
4462280,-0.01500,71.3750,118,53,0.38486
4462290,-0.02500,70.6875,118,53,0.41197
4462300,-0.03500,69.5000,118,53,0.47302
4462310,-0.04000,69.0625,118,53,0.50501
4462320,-0.04500,68.6250,118,53,0.53675
4462330,-0.04000,68.1250,118,53,0.56752
4462340,-0.02500,67.2500,118,53,0.62418
4462350,-0.01000,66.8125,118,53,0.64908
4462360,0.00500,66.3750,118,53,0.67155
4462370,0.01000,65.9375,118,53,0.68840
4462380,0.00000,65.0000,118,53,0.71502
4462390,-0.02500,64.5000,118,53,0.72698
4462400,-0.04500,64.0625,118,53,0.73700
4462410,-0.06500,63.6250,118,53,0.74505
4462420,-0.09000,62.6875,118,53,0.75482
4462430,-0.11000,62.1875,118,53,0.75678
4462440,-0.11500,61.6875,118,53,0.75726
4462450,-0.12000,61.2500,118,53,0.75604
4462460,-0.12500,60.3125,118,53,0.74969
4462470,-0.12500,59.8750,118,53,0.74432
4462480,-0.12500,59.4375,118,53,0.73773
4462490,-0.11500,59.1250,118,53,0.73016
4462500,-0.11500,58.5000,118,53,0.71209
4462510,-0.12500,58.2500,118,53,0.70183
4462520,-0.01500,58.0000,118,53,0.69084
4462530,0.37500,57.7500,118,53,0.67912
4462540,0.94000,57.1250,118,53,0.65543
4462550,1.00000,56.7500,118,53,0.64371
4462560,0.36500,56.3125,118,53,0.63223
4462570,-0.23000,55.9375,118,53,0.62173
4462580,-0.43500,55.1250,118,53,0.60171
4462590,-0.38500,54.6875,118,53,0.59121
4462600,-0.27500,54.3125,118,53,0.58071
4462610,-0.23000,53.8750,118,53,0.57045
4462620,-0.22000,53.1250,118,53,0.55067
4462630,-0.21000,52.7500,118,53,0.54090
4462640,-0.20000,52.3750,118,53,0.53114
4462650,-0.20000,52.0000,118,53,0.52161
4462660,-0.20000,51.3125,118,53,0.50354
4462670,-0.19000,51.0000,118,53,0.49621
4462680,-0.17500,50.8125,118,53,0.48938
4462690,-0.16500,50.8750,118,53,0.48205
4462700,-0.16000,53.6875,118,53,0.46642
4462710,-0.14500,57.5000,118,53,0.45861
4462720,-0.13500,63.0625,118,53,0.45079
4462730,-0.11500,69.8125,118,53,0.44298
4462740,-0.09500,83.9375,118,53,0.42759
4462750,-0.08000,90.6250,118,53,0.42027
4462760,-0.06000,96.7500,118,53,0.41294
4462770,-0.04000,102.1875,118,53,0.40708
4462780,-0.02000,110.3750,118,53,0.39609
4462790,-0.00500,113.1250,118,53,0.38974
4462800,0.00000,114.9375,118,53,0.38339
4462810,0.01000,116.0625,118,53,0.37705
4462820,0.01000,116.5000,118,53,0.36484
4462830,0.01500,116.0625,118,53,0.35873
4462840,0.02000,115.2500,118,53,0.35287
4462850,0.02500,114.1875,118,53,0.34701
4462860,0.03000,111.5000,118,53,0.33529
4462870,0.04000,109.9375,118,53,0.33114
4462880,0.04000,108.3125,118,53,0.32772
4462890,0.03000,106.6875,118,53,0.32332
4462900,0.01000,103.3125,118,53,0.31331
4462910,-0.01000,101.5625,118,53,0.30818
4462920,-0.03500,99.9375,118,53,0.30305
4462930,-0.05000,98.3125,118,53,0.29768
4462940,-0.05500,94.8750,118,53,0.28767
4462950,-0.05500,93.0000,118,53,0.28278
4462960,-0.05000,90.8750,118,53,0.27888
4462970,-0.04500,88.4375,118,53,0.27717
4462980,-0.04500,83.1250,118,53,0.27912
4462990,-0.04000,80.5000,118,53,0.28376
4463000,-0.03500,78.1875,118,53,0.29182
4463010,-0.03500,76.3125,118,53,0.30427
4463020,-0.03500,73.4375,118,53,0.34188
4463030,-0.04000,72.4375,118,53,0.36630
4463040,-0.05000,71.5625,118,53,0.39390
4463050,-0.05500,70.8750,118,53,0.42369
4463060,-0.05500,70.0104,118,53,0.47025
4463070,-0.05500,69.2500,118,53,0.51551
4463080,-0.06000,68.8750,118,53,0.54139
4463090,-0.06500,68.4375,118,53,0.56972
4463100,-0.06500,67.6250,118,53,0.62515
4463110,-0.06000,67.1875,118,53,0.65055
4463120,-0.04500,66.8125,118,53,0.67350
4463130,-0.03000,66.3750,118,53,0.69377
4463140,-0.02500,65.4375,118,53,0.72601
4463150,-0.02500,65.0000,118,53,0.73822
4463160,-0.04500,64.6250,118,53,0.74799
4463170,-0.07500,64.1250,118,53,0.75385
4463180,-0.09500,63.1875,118,53,0.75971
4463190,-0.11500,62.6875,118,53,0.76142
4463200,-0.13500,62.1875,118,53,0.76166
4463210,-0.14500,61.7500,118,53,0.76068
4463220,-0.14500,60.8125,118,53,0.75433
4463230,-0.14500,60.3125,118,53,0.74921
4463240,-0.14000,59.9375,118,53,0.74286
4463250,-0.13500,59.5000,118,53,0.73529
4463260,-0.12500,58.8125,118,53,0.71722
4463270,-0.12500,58.5625,118,53,0.70745
4463280,-0.13500,58.2500,118,53,0.69670
4463290,-0.04500,58.0000,118,53,0.68547
4463300,0.37000,57.5000,118,53,0.66203
4463310,0.99000,57.1875,118,53,0.65031
4463320,1.04500,56.9375,118,53,0.63858
4463330,0.39500,56.6250,118,53,0.62711
4463340,-0.22500,55.8750,118,53,0.60488
4463350,-0.45500,55.5000,118,53,0.59414
4463360,-0.39500,55.0625,118,53,0.58364
4463370,-0.27500,54.6250,118,53,0.57436
4463380,-0.24000,53.8125,118,53,0.55678
4463390,-0.23500,53.4375,118,53,0.54774
4463400,-0.22000,53.0625,118,53,0.53846
4463410,-0.21000,52.7500,118,53,0.52943
4463420,-0.21000,52.0625,118,53,0.51184
4463430,-0.20500,51.7500,118,53,0.50354
4463440,-0.20000,51.4375,118,53,0.49524
4463450,-0.19000,51.2500,118,53,0.48718
4463460,-0.18000,51.8125,118,53,0.47155
4463470,-0.17000,53.6250,118,53,0.46496
4463480,-0.15500,57.1875,118,53,0.45763
4463490,-0.14000,62.6250,118,53,0.45006
4463500,-0.12000,76.8125,118,53,0.43516
4463510,-0.09500,84.1250,118,53,0.42784
4463520,-0.07500,91.1250,118,53,0.42051
4463530,-0.05500,97.5000,118,53,0.41343
4463540,-0.03500,107.9375,118,53,0.39902
4463550,-0.01500,111.7500,118,53,0.39219
4463560,0.00000,114.5625,118,53,0.38559
4463570,0.01500,117.6875,118,53,0.37558
4463580,0.02000,118.1875,118,53,0.37045
4463590,0.02500,118.1250,118,53,0.36508
4463600,0.02500,117.6875,118,53,0.35946
4463610,0.03000,116.9375,118,53,0.35360
4463620,0.04000,114.7500,118,53,0.34212
4463630,0.04500,113.4375,118,53,0.33651
4463640,0.05500,112.0000,118,53,0.33114
4463650,0.06000,110.5625,118,53,0.32601
4463660,0.05000,107.4375,118,53,0.31722
4463670,0.03000,105.8750,118,53,0.31429
4463680,0.00500,104.2500,118,53,0.31013
4463690,-0.01500,102.6250,118,53,0.30574
4463700,-0.03500,99.3750,118,53,0.29597
4463710,-0.04000,97.6250,118,53,0.29109
4463720,-0.04500,95.7500,118,53,0.28645
4463730,-0.04500,93.6250,118,53,0.28254
4463740,-0.04500,88.7500,118,53,0.27863
4463750,-0.04000,85.9375,118,53,0.28034
4463760,-0.03500,83.1250,118,53,0.28523
4463770,-0.03000,80.6250,118,53,0.29304
4463780,-0.02500,76.6250,118,53,0.31917
4463790,-0.02500,75.1875,118,53,0.33944
4463800,-0.03000,74.0000,118,53,0.36361
4463810,-0.03500,73.0625,118,53,0.39145
4463820,-0.04500,71.6875,118,53,0.45446
4463830,-0.04500,71.1875,118,53,0.48816
4463840,-0.05000,70.6875,118,53,0.52259
4463850,-0.05500,70.3125,118,53,0.55678
4463860,-0.05500,69.4375,118,53,0.61734
4463870,-0.05000,69.0000,118,53,0.64103
4463880,-0.04500,68.5625,118,53,0.66569
4463890,-0.03000,68.1250,118,53,0.68938
4463900,-0.01500,67.1875,118,53,0.72991
4463910,-0.00500,66.7500,118,53,0.74603
4463920,-0.00500,66.2500,118,53,0.75946
4463930,-0.02000,65.7500,118,53,0.77021
4463940,-0.04500,64.8125,118,53,0.78437
4463950,-0.07000,64.3125,118,53,0.78852
4463960,-0.09500,63.8750,118,53,0.79072
4463970,-0.11500,63.3750,118,53,0.79023
4463980,-0.13000,62.3750,118,53,0.75873
4463990,-0.13000,61.8750,118,53,0.74725
4464000,-0.12500,61.4375,117,53,0.73871
4464010,-0.12000,61.0000,117,53,0.73089
4464020,-0.11500,60.1875,117,53,0.71404
4464030,-0.10500,59.8125,117,53,0.70452
4464040,-0.10000,59.5000,117,53,0.69426
4464050,-0.11500,59.2500,117,53,0.68352
4464060,-0.01500,58.7500,117,53,0.66105
4464070,0.39000,58.5000,117,53,0.65031
4464080,1.01000,58.1875,117,53,0.63883
4464090,0.92834,57.7188,117,53,0.62173
4464100,0.42000,57.2500,117,53,0.60488
4464110,-0.24000,56.9375,117,53,0.59414
4464120,-0.44500,56.6250,117,53,0.58364
4464130,-0.36000,56.2500,117,53,0.57314
4464140,-0.24000,55.4375,117,53,0.55336
4464150,-0.20500,55.0000,117,53,0.54383
4464160,-0.20000,54.6250,117,53,0.53455
4464170,-0.19500,54.1875,117,53,0.52625
4464180,-0.19000,53.4375,117,53,0.50989
4464190,-0.18500,53.0625,117,53,0.50110
4464200,-0.18000,52.7500,117,53,0.49231
4464210,-0.17500,52.4375,117,53,0.48352
4464220,-0.16500,52.1250,117,53,0.46642
4464230,-0.15500,52.5625,117,53,0.45836
4464240,-0.15000,54.0000,117,53,0.45031
4464250,-0.14500,57.1250,117,53,0.44249
4464260,-0.12500,68.7500,117,53,0.42833
4464270,-0.10500,76.1875,117,53,0.42247
4464280,-0.09000,83.6875,117,53,0.41563
4464290,-0.07500,90.8750,117,53,0.40855
4464300,-0.05500,103.3750,117,53,0.39390
4464310,-0.03000,108.3125,117,53,0.38681
4464320,-0.01500,112.2500,117,53,0.37949
4464330,0.00000,115.1875,117,53,0.37241
4464340,0.01000,118.3750,117,53,0.35897
4464350,0.01500,118.9375,117,53,0.35263
4464360,0.02000,118.8750,117,53,0.34628
4464370,0.02000,118.3750,117,53,0.34164
4464380,0.02000,116.4375,117,53,0.33236
4464390,0.03000,115.2500,117,53,0.32698
4464400,0.04000,113.8750,117,53,0.32137
4464410,0.05500,112.4375,117,53,0.31600
4464420,0.06000,109.3125,117,53,0.30525
4464430,0.05000,107.6875,117,53,0.30012
4464440,0.03000,106.0000,117,53,0.29499
4464450,0.01000,104.3750,117,53,0.28987
4464460,-0.01500,101.0625,117,53,0.28083
4464470,-0.03000,99.3750,117,53,0.27790
4464480,-0.03500,97.6250,117,53,0.27399
4464490,-0.03500,95.8125,117,53,0.26960
4464500,-0.03500,91.5625,117,53,0.26178
4464510,-0.03500,89.0000,117,53,0.25958
4464520,-0.03000,86.2500,117,53,0.25958
4464530,-0.02500,83.5625,117,53,0.26276
4464540,-0.02000,78.8125,117,53,0.28083
4464550,-0.01500,77.0000,117,53,0.29621
4464560,-0.01000,75.5000,117,53,0.31575
4464570,-0.01000,74.3125,117,53,0.33602
4464580,-0.01500,72.6875,117,53,0.38437
4464590,-0.02000,72.0625,117,53,0.41416
4464600,-0.03000,71.5625,117,53,0.44615
4464610,-0.03500,70.7500,117,53,0.47937
4464620,-0.03500,70.3125,117,53,0.54554
4464630,-0.03500,69.9375,117,53,0.57680
4464640,-0.03000,69.5000,117,53,0.60611
4464650,-0.01500,69.0625,117,53,0.63297
4464660,0.00000,68.1250,117,53,0.67521
4464670,0.01500,67.6250,117,53,0.68938
4464680,0.02000,67.0625,117,53,0.70330
4464690,0.01000,66.5000,117,53,0.71600
4464700,-0.01500,65.4375,117,53,0.73553
4464710,-0.03500,64.9375,117,53,0.74212
4464720,-0.05500,64.3750,117,53,0.74676
4464730,-0.08500,63.8750,117,53,0.74945
4464740,-0.10500,62.8125,117,53,0.74994
4464750,-0.10500,62.3125,117,53,0.74750
4464760,-0.10500,61.7500,117,53,0.74359
4464770,-0.10500,61.2500,117,53,0.73822
4464780,-0.10000,60.3125,117,53,0.72454
4464790,-0.08500,59.9375,117,53,0.71624
4464800,-0.08500,59.5625,117,53,0.70696
4464810,-0.08500,59.2500,117,53,0.69695
4464820,-0.07500,58.7500,117,53,0.67497
4464830,0.15000,58.5000,117,53,0.66325
4464840,0.71000,58.2500,117,53,0.65104
4464850,1.12000,57.9375,117,53,0.63883
4464860,0.74500,57.3125,117,53,0.61587
4464870,0.02000,57.0000,117,53,0.60537
4464880,-0.37500,56.6250,117,53,0.59463
4464890,-0.40500,56.2500,117,53,0.58364
4464900,-0.28000,55.4375,117,53,0.56239
4464910,-0.19000,55.0000,117,53,0.55238
4464920,-0.18000,54.5625,117,53,0.54261
4464930,-0.17000,54.1250,117,53,0.53284
4464940,-0.16500,53.3125,117,53,0.51355
4464950,-0.15500,52.9375,117,53,0.50403
4464960,-0.15500,52.5625,117,53,0.49451
4464970,-0.15500,52.1875,117,53,0.48645
4464980,-0.14500,51.6250,117,53,0.47057
4464990,-0.13000,51.5625,117,53,0.46203
4465000,-0.11500,52.1250,117,52,0.45348
4465010,-0.10500,53.8125,117,52,0.44518
4465020,-0.09000,62.4375,117,52,0.42882
4465030,-0.07500,69.0625,117,52,0.42076
4465040,-0.06000,76.3125,117,52,0.41294
4465050,-0.03500,83.5625,117,52,0.40488
4465060,-0.01500,96.6875,117,52,0.39048
4465070,0.00000,102.1875,117,52,0.38462
4465080,0.02000,106.8750,117,52,0.37802
4465090,0.04000,110.5625,117,52,0.37118
4465100,0.06000,115.0625,117,52,0.35751
4465110,0.07084,116.4688,117,52,0.34957
4465120,0.07500,116.3125,117,52,0.34408
4465130,0.07500,116.1250,117,52,0.33773
4465140,0.08000,114.5000,117,52,0.32527
4465150,0.08500,113.2500,117,52,0.31917
4465160,0.09500,111.8125,117,52,0.31429
4465170,0.11000,110.3125,117,52,0.31038
4465180,0.11500,107.1250,117,52,0.30037
4465190,0.11000,105.4375,117,52,0.29499
4465200,0.09000,103.6875,117,52,0.28962
4465210,0.06500,101.9375,117,52,0.28425
4465220,0.04000,98.4375,117,52,0.27326
4465230,0.02000,96.7500,117,52,0.26789
4465240,0.00500,95.0000,117,52,0.26276
4465250,-0.00500,93.0625,117,52,0.25763
4465260,-0.00500,88.8125,117,52,0.24957
4465270,-0.00500,86.3125,117,52,0.24786
4465280,-0.00500,83.6875,117,52,0.24664
4465290,-0.00500,78.6875,117,52,0.24664
4465300,0.00000,76.6875,117,52,0.25568
4465310,0.00500,75.0000,117,52,0.26593
4465320,0.01000,73.6875,117,52,0.28034
4465330,0.00500,72.6875,117,52,0.29866
4465340,-0.00500,71.1250,117,52,0.34628
4465350,-0.01500,70.5625,117,52,0.37411
4465360,-0.01500,70.1250,117,52,0.39976
4465370,-0.02000,69.7500,117,52,0.42466
4465380,-0.02500,69.0000,117,52,0.48205
4465390,-0.02500,68.6250,117,52,0.51111
4465400,-0.02500,68.2500,117,52,0.53944
4465410,-0.01500,67.8750,117,52,0.56581
4465420,-0.00500,66.9375,117,52,0.61197
4465430,0.01000,66.4375,117,52,0.63101
4465440,0.02000,65.9375,117,52,0.64737
4465450,0.01000,65.4375,117,52,0.66129
4465460,-0.01500,64.3750,117,52,0.67985
4465470,-0.04000,63.8750,117,52,0.68449
4465480,-0.06000,63.3750,117,52,0.68840
4465490,-0.08000,62.8750,117,52,0.69109
4465500,-0.09500,61.8750,117,52,0.69255
4465510,-0.10000,61.3750,117,52,0.69109
4465520,-0.09500,60.9375,117,52,0.68840
4465530,-0.09500,60.4375,117,52,0.68425
4465540,-0.09500,59.6250,117,52,0.67253
4465550,-0.09000,59.2500,117,52,0.66496
4465560,-0.08500,59.0000,117,52,0.65690
4465570,-0.08500,58.7500,117,52,0.64811
4465580,-0.09500,58.3125,117,52,0.62833
4465590,0.03000,58.0625,117,52,0.61758
4465600,0.44500,57.8125,117,52,0.60659
4465610,0.96500,57.5000,117,52,0.59560
4465620,0.92000,56.7500,117,52,0.57436
4465630,0.26500,56.3750,117,52,0.56386
4465640,-0.26000,55.9375,117,52,0.55360
4465650,-0.42000,55.5000,117,52,0.54359
4465660,-0.35000,54.6250,117,52,0.52552
4465670,-0.22500,54.1875,117,52,0.51770
4465680,-0.19500,53.8125,117,52,0.50940
4465690,-0.19000,53.4375,117,52,0.50085
4465700,-0.18000,52.6875,117,52,0.48400
4465710,-0.17000,52.3125,117,52,0.47546
4465720,-0.16500,51.9375,117,52,0.46716
4465730,-0.16000,51.6250,117,52,0.45910
4465740,-0.15000,51.0000,117,52,0.44274
4465750,-0.13500,50.8750,117,52,0.43468
4465760,-0.12500,51.1250,117,52,0.42784
4465770,-0.11500,54.8125,117,52,0.42173
4465780,-0.11500,59.1875,117,52,0.40733
4465790,-0.10500,65.1250,117,52,0.40000
4465800,-0.09000,71.9375,117,52,0.39267
4465810,-0.07000,78.8750,117,52,0.38535
4465820,-0.05000,91.8750,117,52,0.37167
4465830,-0.03000,97.5000,117,52,0.36508
4465840,-0.01500,102.3125,117,52,0.35849
4465850,0.00000,106.2500,117,52,0.35189
4465860,0.01500,111.3750,117,52,0.34066
4465870,0.03000,112.6250,117,52,0.33626
4465880,0.04000,113.1875,117,52,0.33114
4465890,0.05000,113.1250,117,52,0.32576
4465900,0.06000,111.6875,117,52,0.31453
4465910,0.07000,110.5000,117,52,0.30891
4465920,0.08000,109.0625,117,52,0.30305
4465930,0.09000,107.5000,117,52,0.29744
4465940,0.09000,104.0625,117,52,0.28645
4465950,0.08000,102.3125,117,52,0.28132
4465960,0.07000,100.5000,117,52,0.27766
4465970,0.04500,98.6875,117,52,0.27473
4465980,0.02000,95.2500,117,52,0.26667
4465990,0.00000,93.5000,117,52,0.26227
4466000,-0.01500,91.6875,117,52,0.25763
4466010,-0.02000,89.8125,117,52,0.25299
4466020,-0.02500,85.5000,117,52,0.24615
4466030,-0.02500,83.0625,117,52,0.24542
4466040,-0.02000,80.5625,117,52,0.24444
4466050,-0.01500,78.1250,117,52,0.24444
4466060,-0.01000,74.3125,117,52,0.25177
4466070,-0.00500,72.9375,117,52,0.25958
4466080,0.00000,71.8125,117,52,0.27131
4466090,-0.00500,70.9375,117,52,0.28669
4466100,-0.01000,69.6250,117,52,0.32747
4466110,-0.02000,69.1250,117,52,0.35214
4466120,-0.03000,68.7500,117,52,0.37875
4466130,-0.04000,68.3750,117,52,0.40659
4466140,-0.04000,67.6250,117,52,0.46276
4466150,-0.04500,67.2500,117,52,0.49011
4466160,-0.03500,66.8125,117,52,0.51306
4466170,-0.02000,65.9375,117,52,0.55385
4466180,-0.00500,65.5000,117,52,0.57363
4466190,0.00500,65.0625,117,52,0.59194
4466200,0.01000,64.5625,117,52,0.60806
4466210,0.00000,64.1250,117,52,0.62173
4466220,-0.02000,63.1875,117,52,0.64225
4466230,-0.04000,62.6875,117,52,0.64933
4466240,-0.06000,62.2500,117,52,0.65421
4466250,-0.08500,61.7500,117,52,0.65739
4466260,-0.10000,60.7500,117,52,0.65910
4466270,-0.10500,60.2500,117,52,0.65739
4466280,-0.10000,59.8125,117,52,0.65495
4466290,-0.09500,59.3750,117,52,0.65177
4466300,-0.09500,58.6250,117,52,0.64151
4466310,-0.09500,58.2500,117,52,0.63468
4466320,-0.08500,57.9375,117,52,0.62662
4466330,-0.07500,57.7500,117,52,0.61758
4466340,-0.08000,57.3125,117,52,0.59805
4466350,-0.01500,57.0625,117,52,0.58779
4466360,0.31000,56.8125,117,52,0.57827
4466370,0.87500,56.5000,117,52,0.56923
4466380,1.04000,55.8750,117,52,0.55067
4466390,0.47500,55.5000,117,52,0.54139
4466400,-0.14500,55.1875,117,52,0.53236
4466410,-0.40500,54.8125,117,52,0.52357
4466420,-0.39000,54.0625,117,52,0.50672
4466430,-0.28000,53.6875,117,52,0.49866
4466440,-0.21000,53.2500,117,52,0.49060
4466450,-0.20000,52.8750,117,52,0.48278
4466460,-0.19000,52.1250,117,52,0.46838
4466470,-0.18500,51.8125,117,52,0.46227
4466480,-0.18000,51.4375,117,52,0.45543
4466490,-0.17500,51.0625,117,52,0.44835
4466500,-0.17000,50.4375,117,52,0.43419
4466510,-0.16000,50.2500,117,52,0.42711
4466520,-0.15500,50.3750,117,52,0.42027
4466530,-0.14500,51.1875,117,52,0.41368
4466540,-0.14000,57.1875,117,52,0.40049
4466550,-0.12500,62.8125,117,52,0.39390
4466560,-0.10500,69.4375,117,52,0.38852
4466570,-0.08500,76.4375,117,52,0.38364
4466580,-0.06500,89.7500,117,52,0.37192
4466590,-0.04500,95.6250,117,52,0.36581
4466600,-0.03000,100.6875,117,52,0.35995
4466610,-0.01000,105.0000,117,52,0.35409
4466620,0.01000,110.9375,117,52,0.34237
4466630,0.02500,112.6250,117,52,0.33675
4466640,0.03500,113.5000,117,52,0.33114
4466650,0.04000,113.7500,117,52,0.32576
4466660,0.05000,112.7500,117,52,0.31697
4466670,0.05000,111.7500,117,52,0.31380
4466680,0.06000,110.5000,117,52,0.30989
4466690,0.07000,109.0625,117,52,0.30549
4466700,0.08500,105.8750,117,52,0.29646
4466710,0.08500,104.1250,117,52,0.29206
4466720,0.07500,102.4375,117,52,0.28767
4466730,0.05000,100.6875,117,52,0.28327
4466740,0.02000,97.3750,117,52,0.27448
4466750,-0.00500,95.6875,117,52,0.27009
4466760,-0.01500,94.0625,117,52,0.26691
4466770,-0.03500,92.3125,117,52,0.26447
4466780,-0.04000,88.3750,117,52,0.25665
4466790,-0.04000,86.0000,117,52,0.25299
4466800,-0.03500,83.5000,117,52,0.25006
4466810,-0.03000,80.9375,117,52,0.24860
4466820,-0.02500,76.4375,117,52,0.25397
4466830,-0.02000,74.6875,117,52,0.26178
4466840,-0.01500,73.3125,117,52,0.27375
4466850,-0.01500,72.1875,117,52,0.28962
4466860,-0.01000,70.5000,117,52,0.32894
4466870,-0.00500,69.8125,117,52,0.34969
4466880,-0.01000,69.3125,117,52,0.37436
4466890,-0.01500,68.8125,117,52,0.40147
4466900,-0.02000,67.9375,117,52,0.45861
4466910,-0.02500,67.5625,117,52,0.48694
4466920,-0.02500,67.1250,117,52,0.51453
4466930,-0.02000,66.6875,117,52,0.54066
4466940,-0.01000,65.8125,117,52,0.58730
4466950,0.01000,65.3750,117,52,0.60733
4466960,0.02000,64.8750,117,52,0.62247
4466970,0.01500,64.4375,117,52,0.63443
4466980,-0.00500,63.5625,117,52,0.65665
4466990,-0.04000,63.0625,117,52,0.66545
4467000,-0.07000,62.6250,117,52,0.67228
4467010,-0.09500,62.1875,117,52,0.67741
4467020,-0.11500,61.2500,117,52,0.68205
4467030,-0.12500,60.7500,117,52,0.68205
4467040,-0.11500,60.3125,117,52,0.68083
4467050,-0.10500,59.8750,117,52,0.67839
4467060,-0.09500,59.0625,117,52,0.66911
4467070,-0.09000,58.6875,117,52,0.66300
4467080,-0.09500,58.3750,117,52,0.65592
4467090,-0.09500,58.1250,117,52,0.64835
4467100,-0.10000,57.6250,117,52,0.63077
4467110,-0.08500,57.3750,117,52,0.62100
4467120,0.13500,57.0625,117,52,0.61099
4467130,0.68000,56.8125,117,52,0.60073
4467140,1.08500,56.1250,117,52,0.58022
4467150,0.74500,55.7500,117,52,0.56996
4467160,0.16333,55.4479,117,52,0.56243
4467170,-0.33000,55.0000,117,52,0.55238
4467180,-0.40500,54.1875,117,52,0.53455
4467190,-0.29000,53.7500,117,52,0.52576
4467200,-0.19000,53.4375,117,52,0.51722
4467210,-0.16500,53.0625,117,52,0.50867
4467220,-0.15000,52.3125,117,52,0.49255
4467230,-0.13500,51.9375,117,52,0.48474
4467240,-0.11500,51.5625,117,52,0.47668
4467250,-0.10000,51.2500,117,52,0.46886
4467260,-0.08500,50.6250,117,52,0.45568
4467270,-0.07000,50.3750,117,52,0.44884
4467280,-0.05000,50.3750,117,52,0.44176
4467290,-0.03000,52.5625,117,52,0.43468
4467300,-0.01000,55.8125,117,52,0.42100
4467310,0.00000,60.8125,117,52,0.41416
4467320,0.01000,67.1875,117,52,0.40733
4467330,0.02000,74.0625,117,52,0.40049
4467340,0.03000,87.5625,117,52,0.38730
4467350,0.06000,93.6875,117,52,0.38095
4467360,0.08000,99.1875,117,52,0.37582
4467370,0.09000,103.9375,117,52,0.37118
4467380,0.10000,110.6875,117,52,0.36020
4467390,0.11000,112.7500,117,52,0.35458
4467400,0.12000,114.0000,117,52,0.34896
4467410,0.12000,114.5625,117,52,0.34335
4467420,0.11500,114.1250,117,52,0.33089
4467430,0.10000,113.3125,117,52,0.32674
4467440,0.09000,112.2500,117,52,0.32210
4467450,0.08000,110.9375,117,52,0.31722
4467460,0.08000,108.0000,117,52,0.31038
4467470,0.07000,106.4375,117,52,0.30647
4467480,0.05000,104.8125,117,52,0.30183
4467490,0.02000,101.5625,117,52,0.29695
4467500,-0.01000,99.9375,117,52,0.28718
4467510,-0.03000,98.3125,117,52,0.28230
4467520,-0.02500,96.6875,117,52,0.27741
4467530,-0.04500,95.0000,117,52,0.27277
4467540,-0.08000,91.2500,117,52,0.26398
4467550,-0.10000,89.0625,117,52,0.26007
4467560,-0.10500,86.6250,117,52,0.25812
4467570,-0.09500,84.0000,117,52,0.25763
4467580,-0.07500,78.8125,117,52,0.26081
4467590,-0.06500,76.6250,117,52,0.26667
4467600,-0.05500,74.8750,117,52,0.27619
4467610,-0.05000,73.4375,117,52,0.28987
4467620,-0.04500,71.2500,117,52,0.32845
4467630,-0.04500,70.4375,117,52,0.35238
4467640,-0.05000,69.8125,117,52,0.37875
4467650,-0.06500,69.2500,117,52,0.40659
4467660,-0.07500,68.3125,117,52,0.45543
4467670,-0.08500,67.9375,117,52,0.48181
4467680,-0.08500,67.5000,117,52,0.50916
4467690,-0.08500,67.1250,117,52,0.53626
4467700,-0.08000,66.3125,117,52,0.58706
4467710,-0.06500,65.8125,117,52,0.60952
4467720,-0.05500,65.3750,117,52,0.62955
4467730,-0.05500,64.9375,117,52,0.64713
4467740,-0.05500,64.1250,117,52,0.67448
4467750,-0.08500,63.6250,117,52,0.68449
4467760,-0.10500,63.1875,117,52,0.69084
4467770,-0.12000,62.6875,117,52,0.69475
4467780,-0.13500,61.7500,117,52,0.70061
4467790,-0.15500,61.3125,117,52,0.70159
4467800,-0.16000,60.8125,117,52,0.70134
4467810,-0.15500,60.3750,117,52,0.69988
4467820,-0.15000,59.5000,117,52,0.69304
4467830,-0.14500,59.1250,117,52,0.68767
4467840,-0.14000,58.7500,117,52,0.68107
4467850,-0.13500,58.4375,117,52,0.67350
4467860,-0.12500,57.9375,117,52,0.65690
4467870,-0.13500,57.6875,117,52,0.64713
4467880,-0.08500,57.4375,117,52,0.63687
4467890,0.23500,57.1875,117,52,0.62637
4467900,0.81500,56.5625,117,52,0.60537
4467910,1.02000,56.1875,117,52,0.59487
4467920,0.53500,55.8125,117,52,0.58437
4467930,-0.10500,55.3750,117,52,0.57411
4467940,-0.42000,54.5625,117,52,0.55433
4467950,-0.42000,54.1875,117,52,0.54505
4467960,-0.30500,53.7500,117,52,0.53675
4467970,-0.24000,53.3125,117,52,0.52869
4467980,-0.22500,52.5625,117,52,0.51136
4467990,-0.22000,52.1875,117,52,0.50281
4468000,-0.21000,51.8750,117,52,0.49451
4468010,-0.20500,51.5625,117,52,0.48645
4468020,-0.20000,50.8125,117,52,0.47106
4468030,-0.19500,50.5000,117,52,0.46374
4468040,-0.18000,50.3125,117,52,0.45641
4468050,-0.17500,50.3750,117,52,0.44908
4468060,-0.16500,52.8750,117,52,0.43687
4468070,-0.15500,56.4375,117,52,0.43590
4468080,-0.14000,61.6875,117,52,0.43687
4468090,-0.12000,68.1875,117,52,0.43346
4468100,-0.09500,82.0625,117,52,0.42076
4468110,-0.07500,88.6250,117,52,0.41368
4468120,-0.04500,94.7500,117,52,0.40659
4468130,-0.02500,100.1875,117,52,0.39976
4468140,-0.00500,108.5625,117,52,0.38681
4468150,0.01000,111.3750,117,52,0.38046
4468160,0.02500,113.3750,117,52,0.37534
4468170,0.03000,114.5625,117,52,0.37094
4468180,0.03000,114.9896,117,52,0.36292
4468190,0.03000,114.7500,117,52,0.35433
4468200,0.03000,113.9375,117,52,0.34823
4468210,0.03000,112.9375,117,52,0.34212
4468220,0.04000,110.1875,117,52,0.33040
4468230,0.04500,108.6250,117,52,0.32454
4468240,0.05000,107.0000,117,52,0.31893
4468250,0.05000,103.6250,117,52,0.31331
4468260,0.03000,101.9375,117,52,0.30623
4468270,0.00500,100.3125,117,52,0.30232
4468280,-0.01500,98.6875,117,52,0.29768
4468290,-0.03000,97.0625,117,52,0.29280
4468300,-0.04500,93.7500,117,52,0.28254
4468310,-0.04500,91.8750,117,52,0.27741
4468320,-0.04500,89.8125,117,52,0.27277
4468330,-0.04500,87.5000,117,52,0.26911
4468340,-0.04000,82.3125,117,52,0.26764
4468350,-0.04000,79.8125,117,52,0.27155
4468360,-0.03500,77.6250,117,52,0.27814
4468370,-0.03500,75.7500,117,52,0.28816
4468380,-0.03500,73.0000,117,52,0.32137
4468390,-0.03500,71.9375,117,52,0.34408
4468400,-0.03500,71.1250,117,52,0.37021
4468410,-0.04000,70.3750,117,52,0.39902
4468420,-0.04500,69.2500,117,52,0.46154
4468430,-0.05000,68.7500,117,52,0.49377
4468440,-0.05500,68.3125,117,52,0.53358
4468450,-0.05500,67.8750,117,52,0.56899
4468460,-0.04500,67.0625,117,52,0.61001
4468470,-0.03500,66.6250,117,52,0.63272
4468480,-0.01500,66.1875,117,52,0.65543
4468490,0.00000,65.7500,117,52,0.67643
4468500,0.00500,64.8125,117,52,0.71160
4468510,-0.01500,64.3750,117,52,0.72527
4468520,-0.04500,63.8750,117,52,0.73651
4468530,-0.06500,63.4375,117,52,0.74530
4468540,-0.08500,62.5000,117,52,0.75678
4468550,-0.11000,62.0000,117,52,0.75971
4468560,-0.12500,61.5000,117,52,0.76020
4468570,-0.12500,61.0625,117,52,0.75897
4468580,-0.12500,60.1250,117,52,0.75409
4468590,-0.12500,59.7500,117,52,0.74994
4468600,-0.11500,59.3750,117,52,0.74457
4468610,-0.11000,59.0625,117,52,0.73773
4468620,-0.10500,58.5000,117,52,0.72015
4468630,-0.10500,58.2500,117,52,0.70989
4468640,-0.10500,58.0000,117,52,0.69890
4468650,0.10000,57.6875,117,52,0.68742
4468660,0.61000,57.1250,117,52,0.66569
4468670,1.06500,56.7500,117,52,0.65421
4468680,0.85500,56.3750,117,52,0.64249
4468690,0.15000,56.0000,117,52,0.63077
4468700,-0.31500,55.1875,117,52,0.60806
4468710,-0.41500,54.8125,117,52,0.59707
4468720,-0.31500,54.4375,117,52,0.58657
4468730,-0.22000,54.0000,117,52,0.57631
4468740,-0.20000,53.1875,117,52,0.55629
4468750,-0.19500,52.8125,117,52,0.54750
4468760,-0.19000,52.4375,117,52,0.53919
4468770,-0.19000,52.0625,117,52,0.53040
4468780,-0.19000,51.3750,117,52,0.51258
4468790,-0.19000,51.0625,117,52,0.50330
4468800,-0.18000,50.8125,117,52,0.49402
4468810,-0.17000,51.0625,117,52,0.47643
4468820,-0.17000,52.3125,117,52,0.46789
4468830,-0.16000,55.1250,117,52,0.45934
4468840,-0.14500,59.6875,117,52,0.45104
4468850,-0.13000,65.8125,117,52,0.44298
4468860,-0.11500,79.8750,117,52,0.43053
4468870,-0.09500,86.7500,117,52,0.42369
4468880,-0.07000,93.1250,117,52,0.41661
4468890,-0.04500,98.8750,117,52,0.40928
4468900,-0.02500,107.9375,117,52,0.39487
4468910,-0.00500,111.1250,117,52,0.38803
4468920,0.01000,113.4375,117,52,0.38120
4468930,0.02000,114.8750,117,52,0.37460
4468940,0.02500,115.8750,117,52,0.36215
4468950,0.03000,115.6875,117,52,0.35726
4468960,0.02500,115.0625,117,52,0.35311
4468970,0.03000,114.1875,117,52,0.34799
4468980,0.03500,111.8125,117,52,0.33651
4468990,0.04000,110.3750,117,52,0.33040
4469000,0.05000,108.8750,116,52,0.32430
4469010,0.05000,107.2500,116,52,0.31844
4469020,0.04000,104.0000,116,52,0.30794
4469030,0.02000,102.3750,116,52,0.30281
4469040,0.00000,100.7500,116,52,0.29744
4469050,-0.02000,99.1250,116,52,0.29231
4469060,-0.03000,95.8125,116,52,0.28547
4469070,-0.04000,94.0000,116,52,0.28132
4469080,-0.04000,92.0625,116,52,0.27692
4469090,-0.04000,89.8125,116,52,0.27277
4469100,-0.03500,84.7500,116,52,0.26886
4469110,-0.03500,82.0625,116,52,0.27082
4469120,-0.03500,79.5625,116,52,0.27619
4469130,-0.03500,77.4375,116,52,0.28596
4469140,-0.03500,74.1875,116,52,0.31868
4469150,-0.03500,73.0000,116,52,0.33822
4469160,-0.03000,72.0625,116,52,0.35946
4469170,-0.03500,71.3125,116,52,0.38535
4469180,-0.04500,70.1250,116,52,0.44615
4469190,-0.05000,69.6250,116,52,0.47888
4469200,-0.05500,69.1875,116,52,0.51209
4469210,-0.06167,68.5938,116,52,0.56064
4469220,-0.06500,68.0000,116,52,0.60757
4469230,-0.06000,67.5625,116,52,0.63590
4469240,-0.05000,67.1250,116,52,0.66154
4469250,-0.03500,66.6875,116,52,0.68474
4469260,-0.01500,65.8125,116,52,0.71600
4469270,-0.00500,65.3750,116,52,0.72943
4469280,-0.01000,64.9375,116,52,0.74164
4469290,-0.02500,64.4375,116,52,0.75189
4469300,-0.04500,63.5625,116,52,0.76654
4469310,-0.07000,63.0625,116,52,0.77094
4469320,-0.09000,62.6250,116,52,0.77363
4469330,-0.11500,62.1250,116,52,0.77460
4469340,-0.12500,61.1250,116,52,0.77167
4469350,-0.12500,60.6875,116,52,0.76777
4469360,-0.12000,60.1875,116,52,0.76239
4469370,-0.11500,59.7500,116,52,0.75629
4469380,-0.11000,58.9375,116,52,0.74090
4469390,-0.10000,58.5625,116,52,0.73187
4469400,-0.09000,58.2500,116,52,0.72186
4469410,-0.10500,58.0000,116,52,0.71087
4469420,-0.04000,57.5000,116,52,0.68816
4469430,0.34000,57.2500,116,52,0.67668
4469440,0.96500,56.9375,116,52,0.66520
4469450,1.10500,56.6250,116,52,0.65397
4469460,0.49500,56.0000,116,52,0.63150
4469470,-0.17000,55.6250,116,52,0.62027
4469480,-0.44000,55.2500,116,52,0.61197
4469490,-0.38500,54.8125,116,52,0.60293
4469500,-0.26000,54.0625,116,52,0.58413
4469510,-0.21000,53.6250,116,52,0.57485
4469520,-0.20000,53.2500,116,52,0.56557
4469530,-0.19000,52.8750,116,52,0.55653
4469540,-0.18000,52.1250,116,52,0.53871
4469550,-0.18000,51.8125,116,52,0.53089
4469560,-0.18000,51.4375,116,52,0.52381
4469570,-0.18000,51.1250,116,52,0.51624
4469580,-0.16500,50.8750,116,52,0.50061
4469590,-0.15500,51.3750,116,52,0.49304
4469600,-0.15000,52.9375,116,52,0.48547
4469610,-0.14000,56.1250,116,52,0.47790
4469620,-0.12500,67.8125,116,52,0.46227
4469630,-0.10500,75.1250,116,52,0.45470
4469640,-0.08500,82.5000,116,52,0.44737
4469650,-0.06500,89.5000,116,52,0.44005
4469660,-0.03500,101.6250,116,52,0.42833
4469670,-0.01500,106.4375,116,52,0.42222
4469680,0.00500,110.3125,116,52,0.41563
4469690,0.02500,113.1875,116,52,0.40879
4469700,0.04000,116.5000,116,52,0.39560
4469710,0.04000,117.0625,116,52,0.38926
4469720,0.04000,117.1875,116,52,0.38291
4469730,0.03500,116.8750,116,52,0.37680
4469740,0.03500,115.3750,116,52,0.36459
4469750,0.03500,114.3125,116,52,0.35971
4469760,0.04000,113.1250,116,52,0.35580
4469770,0.04500,111.7500,116,52,0.35092
4469780,0.05000,108.8125,116,52,0.33993
4469790,0.04500,107.2500,116,52,0.33455
4469800,0.03000,105.6250,116,52,0.32918
4469810,0.01000,104.0000,116,52,0.32381
4469820,-0.01500,100.6875,116,52,0.31331
4469830,-0.03000,99.0000,116,52,0.30818
4469840,-0.04500,97.2500,116,52,0.30330
4469850,-0.04500,93.3750,116,52,0.29548
4469860,-0.04000,91.1875,116,52,0.29353
4469870,-0.03500,88.6875,116,52,0.29182
4469880,-0.03000,86.0000,116,52,0.29158
4469890,-0.03000,83.3125,116,52,0.29402
4469900,-0.03000,78.4375,116,52,0.30989
4469910,-0.02500,76.5625,116,52,0.32430
4469920,-0.02500,75.0625,116,52,0.34335
4469930,-0.02500,73.8125,116,52,0.36654
4469940,-0.03500,72.1250,116,52,0.42271
4469950,-0.03500,71.5000,116,52,0.45031
4469960,-0.04500,71.0000,116,52,0.47717
4469970,-0.05500,70.5625,116,52,0.50794
4469980,-0.06500,69.7500,116,52,0.57314
4469990,-0.06500,69.3750,116,52,0.60537
4470000,-0.06500,69.0000,116,52,0.63614
4470010,-0.05500,68.5625,116,52,0.66447
4470020,-0.04500,67.6250,116,52,0.71331
4470030,-0.02500,67.1250,116,52,0.73358
4470040,-0.00500,66.6250,116,52,0.75092
4470050,0.00000,66.1875,116,52,0.76557
4470060,-0.00500,65.1875,116,52,0.78193
4470070,-0.03000,64.6875,116,52,0.78828
4470080,-0.05000,64.1875,116,52,0.79341
4470090,-0.07000,63.6875,116,52,0.79707
4470100,-0.09500,62.6250,116,52,0.80000
4470110,-0.11500,62.1250,116,52,0.79927
4470120,-0.13000,61.6875,116,52,0.78413
4470130,-0.13500,61.1875,116,52,0.76142
4470140,-0.13500,60.3125,116,52,0.73651
4470150,-0.13000,59.9375,116,52,0.72698
4470160,-0.12500,59.5625,116,52,0.71795
4470170,-0.11500,59.2500,116,52,0.70867
4470180,-0.11500,58.6875,116,52,0.68840
4470190,-0.12000,58.3750,116,52,0.67741
4470200,0.07000,58.1250,116,52,0.66618
4470210,0.61000,57.8125,116,52,0.65470
4470220,1.14000,57.3125,116,52,0.63199
4470230,0.95000,57.0000,116,52,0.61897
4470240,0.14500,56.7500,116,52,0.61001
4470250,-0.39500,56.4375,116,52,0.59951
4470260,-0.47500,55.7500,116,52,0.58120
4470270,-0.35500,55.3125,116,52,0.57192
4470280,-0.27000,54.9375,116,52,0.56264
4470290,-0.25000,54.5000,116,52,0.55360
4470300,-0.24000,53.7500,116,52,0.53504
4470310,-0.22500,53.3750,116,52,0.52601
4470320,-0.22000,53.0000,116,52,0.51722
4470330,-0.22000,52.6250,116,52,0.50867
4470340,-0.21500,51.9375,116,52,0.49158
4470350,-0.21000,51.6875,116,52,0.48400
4470360,-0.20500,51.7500,116,52,0.47717
4470370,-0.20000,52.3750,116,52,0.46960
4470380,-0.19000,58.0625,116,52,0.45348
4470390,-0.18000,63.7500,116,52,0.44518
4470400,-0.16000,70.7500,116,52,0.43712
4470410,-0.14500,78.2500,116,52,0.42930
4470420,-0.12500,92.5625,116,52,0.41416
4470430,-0.10000,98.8125,116,52,0.40684
4470440,-0.07500,104.3125,116,52,0.39951
4470450,-0.05000,108.8125,116,52,0.39219
4470460,-0.02500,114.8750,116,52,0.38095
4470470,-0.01500,116.5625,116,52,0.37509
4470480,-0.00500,117.4375,116,52,0.36874
4470490,0.00000,117.7500,116,52,0.36093
4470500,0.00500,117.0000,116,52,0.34921
4470510,0.01000,116.1875,116,52,0.34383
4470520,0.01500,115.1250,116,52,0.33822
4470530,0.02000,113.9375,116,52,0.33236
4470540,0.03500,111.1875,116,52,0.32137
4470550,0.04500,109.6875,116,52,0.31722
4470560,0.04000,108.1250,116,52,0.31355
4470570,0.03000,106.5625,116,52,0.30916
4470580,0.01000,103.3125,116,52,0.29988
4470590,-0.00500,101.6250,116,52,0.29499
4470600,-0.02500,100.0000,116,52,0.29035
4470610,-0.03500,98.3125,116,52,0.28571
4470620,-0.04500,94.6875,116,52,0.27595
4470630,-0.04500,92.6875,116,52,0.27155
4470640,-0.04500,90.3125,116,52,0.26813
4470650,-0.04000,87.7500,116,52,0.26691
4470660,-0.03500,82.3125,116,52,0.27082
4470670,-0.03000,79.8750,116,52,0.27643
4470680,-0.03000,77.8125,116,52,0.28596
4470690,-0.02500,76.0625,116,52,0.29963
4470700,-0.02000,73.5625,116,52,0.33968
4470710,-0.01500,72.6250,116,52,0.37289
4470720,-0.02000,71.9375,116,52,0.40488
4470730,-0.02500,71.3750,116,52,0.42882
4470740,-0.03000,70.4375,116,52,0.48718
4470750,-0.03000,70.0625,116,52,0.51380
4470760,-0.03500,69.6875,116,52,0.53797
4470770,-0.03500,69.3125,116,52,0.56435
4470780,-0.03500,68.4375,116,52,0.61563
4470790,-0.02500,68.0000,116,52,0.63834
4470800,-0.00500,67.5625,116,52,0.65836
4470810,0.01000,67.0625,116,52,0.67595
4470820,0.01500,66.0625,116,52,0.70305
4470830,0.00000,65.5625,116,52,0.71306
4470840,-0.02500,65.0000,116,52,0.72015
4470850,-0.05000,64.5000,116,52,0.72430
4470860,-0.07500,63.3750,116,52,0.72869
4470870,-0.09500,62.8750,116,52,0.72967
4470880,-0.12000,62.3750,116,52,0.72967
4470890,-0.12500,61.8750,116,52,0.72845
4470900,-0.12500,60.8750,116,52,0.72186
4470910,-0.12000,60.3750,116,52,0.71648
4470920,-0.12000,59.9375,116,52,0.70989
4470930,-0.11500,59.5625,116,52,0.70208
4470940,-0.11000,58.9375,116,52,0.68352
4470950,-0.11500,58.6250,116,52,0.67375
4470960,-0.10500,58.4375,116,52,0.66374
4470970,0.10000,58.1875,116,52,0.65299
4470980,0.65000,57.6875,116,52,0.63053
4470990,1.09500,57.3750,116,52,0.61905
4471000,0.76500,57.1250,116,52,0.60781
4471010,0.04500,56.7500,116,52,0.59658
4471020,-0.35500,56.0000,116,52,0.57485
4471030,-0.40500,55.5625,116,52,0.56435
4471040,-0.28000,55.1875,116,52,0.55433
4471050,-0.18000,54.6875,116,52,0.54530
4471060,-0.17000,53.8125,116,52,0.52845
4471070,-0.16000,53.4375,116,52,0.51966
4471080,-0.15500,53.0625,116,52,0.51062
4471090,-0.15500,52.6875,116,52,0.50183
4471100,-0.15500,52.0000,116,52,0.48083
4471110,-0.15000,51.6250,116,52,0.47375
4471120,-0.14000,51.3750,116,52,0.46593
4471130,-0.12500,51.3125,116,52,0.45788
4471140,-0.12000,53.1875,116,52,0.44200
4471150,-0.11500,56.2500,116,52,0.43541
4471160,-0.10500,61.1875,116,52,0.42930
4471170,-0.08500,67.6250,116,52,0.42247
4471180,-0.07500,81.8125,116,52,0.40733
4471190,-0.04500,88.6250,116,52,0.39951
4471200,-0.02500,94.8750,116,52,0.39170
4471210,0.00000,100.3750,116,52,0.38413
4471220,0.02000,108.8750,116,52,0.36752
4471230,0.04000,111.6875,116,52,0.35946
4471240,0.05500,113.5625,116,52,0.35385
4471250,0.07000,114.6875,116,52,0.34921
4471260,0.07667,114.9375,116,52,0.34188
4471270,0.08000,114.4375,116,52,0.33431
4471280,0.08500,113.5625,116,52,0.32894
4471290,0.09000,112.4375,116,52,0.32332
4471300,0.10000,109.6875,116,52,0.31233
4471310,0.11000,108.1250,116,52,0.30696
4471320,0.11500,106.4375,116,52,0.30159
4471330,0.11000,104.7500,116,52,0.29621
4471340,0.09000,101.3125,116,52,0.28596
4471350,0.06000,99.6250,116,52,0.28083
4471360,0.03000,97.8750,116,52,0.27692
4471370,0.01000,96.1875,116,52,0.27375
4471380,0.00000,92.6250,116,52,0.26496
4471390,-0.00500,90.6250,116,52,0.26007
4471400,-0.00500,88.4375,116,52,0.25519
4471410,-0.00500,86.0000,116,52,0.25104
4471420,-0.00500,80.8125,116,52,0.24713
4471430,-0.00500,78.3750,116,52,0.24908
4471440,-0.00500,76.3750,116,52,0.25421
4471450,0.00000,74.6875,116,52,0.26227
4471460,0.00500,72.3125,116,52,0.28840
4471470,0.00500,71.4375,116,52,0.30720
4471480,-0.00500,70.7500,116,52,0.33675
4471490,-0.00500,70.1875,116,52,0.36557
4471500,-0.01500,69.2500,116,52,0.41294
4471510,-0.02000,68.8750,116,52,0.44713
4471520,-0.02500,68.5625,116,52,0.47839
4471530,-0.03000,68.2500,116,52,0.50061
4471540,-0.02500,67.5000,116,52,0.54799
4471550,-0.02000,67.0625,116,52,0.56703
4471560,-0.00500,66.6250,116,52,0.58339
4471570,0.01000,66.1875,116,52,0.60024
4471580,0.02000,65.2500,116,52,0.63004
4471590,0.01500,64.7500,116,52,0.64200
4471600,-0.00500,64.2500,116,52,0.65201
4471610,-0.03000,63.7500,116,52,0.66081
4471620,-0.05500,62.7500,116,52,0.67082
4471630,-0.07500,62.2500,116,52,0.67326
4471640,-0.09000,61.7500,116,52,0.67448
4471650,-0.09500,61.2500,116,52,0.67350
4471660,-0.09000,60.3125,116,52,0.66838
4471670,-0.09000,59.8750,116,52,0.66447
4471680,-0.09000,59.5000,116,52,0.65958
4471690,-0.08500,59.1250,116,52,0.65348
4471700,-0.08500,58.5000,116,52,0.63858
4471710,-0.08500,58.2500,116,52,0.62979
4471720,-0.09500,58.0000,116,52,0.62002
4471730,0.03000,57.8125,116,52,0.60977
4471740,0.46500,57.2500,116,52,0.58462
4471750,0.99500,56.9375,116,52,0.57680
4471760,0.89000,56.6250,116,52,0.56874
4471770,0.24000,56.2500,116,52,0.55995
4471780,-0.26000,55.5000,116,52,0.54139
4471790,-0.42500,55.1250,116,52,0.53236
4471800,-0.35000,54.6875,116,52,0.52332
4471810,-0.23500,54.2500,116,52,0.51453
4471820,-0.20000,53.4375,116,52,0.49719
4471830,-0.18500,53.0625,116,52,0.48889
4471840,-0.18000,52.6875,116,52,0.48083
4471850,-0.17500,52.3125,116,52,0.47375
4471860,-0.17000,51.5625,116,52,0.45836
4471870,-0.17000,51.2500,116,52,0.45006
4471880,-0.17000,51.0000,116,52,0.44396
4471890,-0.15500,50.8125,116,52,0.43736
4471900,-0.14500,51.8750,116,52,0.42344
4471910,-0.14000,54.0625,116,52,0.41636
4471920,-0.12500,58.0000,116,52,0.40928
4471930,-0.11000,63.5625,116,52,0.40220
4471940,-0.09500,77.0625,116,52,0.38828
4471950,-0.07500,83.8125,116,52,0.38266
4471960,-0.05500,90.1250,116,52,0.37753
4471970,-0.03500,100.8125,116,52,0.36581
4471980,-0.02500,105.0000,116,52,0.35971
4471990,-0.00500,108.2500,116,52,0.35214
4472000,0.01500,110.6250,116,52,0.34554
4472010,0.03000,112.1250,116,52,0.34090
4472020,0.04500,113.0000,116,52,0.33065
4472030,0.06000,112.6250,116,52,0.32552
4472040,0.07000,111.8750,116,52,0.32039
4472050,0.08000,110.8125,116,52,0.31624
4472060,0.08500,108.1250,116,52,0.30842
4472070,0.09500,106.5625,116,52,0.30379
4472080,0.10000,104.9375,116,52,0.29915
4472090,0.09000,103.1875,116,52,0.29451
4472100,0.07000,99.8125,116,52,0.28498
4472110,0.04500,98.1250,116,52,0.28010
4472120,0.01500,96.4375,116,52,0.27424
4472130,-0.00500,94.7500,116,52,0.26886
4472140,-0.02500,91.1875,116,52,0.26081
4472150,-0.03500,89.2500,116,52,0.25788
4472160,-0.03500,87.0625,116,52,0.25568
4472170,-0.03500,84.6250,116,52,0.25397
4472180,-0.03000,79.3125,116,52,0.25324
4472190,-0.02500,76.7500,116,52,0.25446
4472200,-0.02000,74.5625,116,52,0.25714
4472210,-0.02000,72.8125,116,52,0.26325
4472220,-0.01500,70.5000,116,52,0.28791
4472230,-0.01500,69.6875,116,52,0.30623
4472240,-0.02000,69.0625,116,52,0.32796
4472250,-0.02500,68.6250,116,52,0.35629
4472260,-0.03500,67.9375,116,52,0.40098
4472270,-0.04000,67.6250,116,52,0.42491
4472280,-0.04666,67.3646,116,52,0.44656
4472290,-0.05000,67.0000,116,52,0.47717
4472300,-0.04500,66.3750,116,52,0.52796
4472310,-0.03500,66.0000,116,52,0.55140
4472320,-0.02500,65.6250,116,52,0.57265
4472330,-0.01000,65.2500,116,52,0.59194
4472340,-0.00500,64.3750,116,52,0.62149
4472350,-0.00500,63.9375,116,52,0.63126
4472360,-0.02500,63.4375,116,52,0.64078
4472370,-0.05000,62.9375,116,52,0.64908
4472380,-0.07000,62.0000,116,52,0.66227
4472390,-0.09000,61.5000,116,52,0.66520
4472400,-0.11500,61.0000,116,52,0.66691
4472410,-0.12500,60.5625,116,52,0.66740
4472420,-0.12000,59.6250,116,52,0.66447
4472430,-0.11500,59.1875,116,52,0.66105
4472440,-0.11500,58.8125,116,52,0.65617
4472450,-0.11500,58.5000,116,52,0.65031
4472460,-0.10500,57.8750,116,52,0.63614
4472470,-0.09500,57.6250,116,52,0.62759
4472480,-0.10500,57.4375,116,52,0.61832
4472490,-0.06000,57.1875,116,52,0.60855
4472500,0.27000,56.6875,116,52,0.58608
4472510,0.85500,56.4375,116,52,0.57460
4472520,1.03500,56.0625,116,52,0.56654
4472530,0.52500,55.6875,116,52,0.55751
4472540,-0.09000,54.9375,116,52,0.53822
4472550,-0.38500,54.5000,116,52,0.53162
4472560,-0.38000,54.1250,116,52,0.52381
4472570,-0.27000,53.6875,116,52,0.51380
4472580,-0.21000,52.8750,116,52,0.49817
4472590,-0.19000,52.5000,116,52,0.49109
4472600,-0.18000,52.1250,116,52,0.48181
4472610,-0.17000,51.8125,116,52,0.47350
4472620,-0.16500,51.1250,116,52,0.46081
4472630,-0.15500,50.8125,116,52,0.45250
4472640,-0.15000,50.5000,116,52,0.44493
4472650,-0.13500,50.3125,116,52,0.44029
4472660,-0.12500,50.8750,116,52,0.42759
4472670,-0.11500,52.5625,116,52,0.42027
4472680,-0.10500,55.8125,116,52,0.41490
4472690,-0.09000,60.8750,116,52,0.40855
4472700,-0.07500,73.9375,116,52,0.39365
4472710,-0.05500,80.7500,116,52,0.38852
4472720,-0.03000,87.1875,116,52,0.38291
4472730,-0.00500,93.1875,116,52,0.37705
4472740,0.01000,103.0625,116,52,0.36679
4472750,0.03500,106.7500,116,52,0.36264
4472760,0.05500,109.5625,116,52,0.35629
4472770,0.07000,112.6875,116,52,0.35018
4472780,0.08000,113.2500,116,52,0.34066
4472790,0.09000,113.2500,116,52,0.33553
4472800,0.09000,112.8125,116,52,0.33040
4472810,0.10000,112.0000,116,52,0.32527
4472820,0.10000,109.6875,116,52,0.31380
4472830,0.10500,108.2500,116,52,0.30818
4472840,0.11000,106.6875,116,52,0.30403
4472850,0.11000,105.0625,116,52,0.30085
4472860,0.10000,101.6250,116,52,0.29280
4472870,0.08000,99.9375,116,52,0.28962
4472880,0.04500,98.2500,116,52,0.28571
4472890,0.02500,96.6250,116,52,0.28059
4472900,0.01000,93.1875,116,52,0.27204
4472910,0.00000,91.3750,116,52,0.26813
4472920,0.00000,89.4375,116,52,0.26422
4472930,0.00500,87.1875,116,52,0.26007
4472940,0.01000,82.2500,116,52,0.25519
4472950,0.01000,79.7500,116,52,0.25690
4472960,0.01000,77.4375,116,52,0.25958
4472970,0.01500,75.5000,116,52,0.26349
4472980,0.01500,72.6250,116,52,0.28913
4472990,0.01500,71.6250,116,52,0.30842
4473000,0.01000,70.7500,116,52,0.32430
4473010,0.00500,70.0625,116,52,0.34579
4473020,-0.00500,69.0625,116,52,0.41563
4473030,-0.01500,68.6250,116,52,0.44151
4473040,-0.02000,68.2500,116,52,0.46471
4473050,-0.02500,67.8125,116,52,0.48669
4473060,-0.03500,66.9375,116,52,0.52576
4473070,-0.03000,66.5000,116,52,0.55336
4473080,-0.02000,66.0625,116,52,0.58217
4473090,-0.00500,65.6250,116,52,0.60122
4473100,0.00000,64.7500,116,52,0.63150
4473110,0.00000,64.3125,116,52,0.64615
4473120,-0.02000,63.8125,116,52,0.65568
4473130,-0.05000,63.3125,116,52,0.66447
4473140,-0.07000,62.3750,116,52,0.67741
4473150,-0.09000,61.9375,116,52,0.68132
4473160,-0.11500,61.4375,116,52,0.68352
4473170,-0.12500,61.0000,116,52,0.68425
4473180,-0.13500,60.0625,116,52,0.68278
4473190,-0.13500,59.6250,116,52,0.67888
4473200,-0.13500,59.1875,116,52,0.67375
4473210,-0.13500,58.8750,116,52,0.66764
4473220,-0.13000,58.3125,116,52,0.65201
4473230,-0.12000,58.0625,116,52,0.64274
4473240,-0.12500,57.8125,116,52,0.63370
4473250,-0.12000,57.6250,116,52,0.62442
4473260,0.09000,57.1250,116,52,0.60415
4473270,0.60500,56.8125,116,52,0.59365
4473280,1.02500,56.5000,116,52,0.58315
4473290,0.77000,55.7500,116,52,0.57289
4473300,0.09000,55.2375,116,52,0.56017
4473310,-0.30416,54.8563,116,52,0.54691
4473320,-0.44000,54.5000,116,52,0.53504
4473330,-0.34500,54.0625,116,52,0.52650
4473340,-0.25500,53.3125,116,52,0.51209
4473350,-0.23000,52.9375,116,52,0.50476
4473360,-0.22000,52.5625,116,52,0.49719
4473370,-0.21000,52.1875,116,52,0.48938
4473380,-0.20500,51.5625,116,52,0.47399
4473390,-0.19500,51.1875,116,52,0.46642
4473400,-0.19000,50.8750,116,52,0.45861
4473410,-0.18500,50.6250,116,52,0.45079
4473420,-0.18000,50.7500,116,52,0.43590
4473430,-0.16500,51.9375,116,52,0.42882
4473440,-0.15500,54.5625,116,52,0.42271
4473450,-0.14500,58.9375,116,52,0.41758
4473460,-0.12500,71.6250,116,52,0.40562
4473470,-0.11000,78.5000,116,52,0.39951
4473480,-0.09000,85.1875,116,52,0.39341
4473490,-0.07000,91.4375,116,52,0.38730
4473500,-0.05000,102.0000,116,52,0.37485
4473510,-0.03000,106.0625,116,52,0.36874
4473520,-0.01000,109.2500,116,52,0.36288
4473530,0.00500,111.5625,116,52,0.35702
4473540,0.01000,113.9375,116,52,0.34847
4473550,0.02000,114.2500,116,52,0.34383
4473560,0.03000,114.0625,116,52,0.33895
4473570,0.03500,113.5625,116,52,0.33407
4473580,0.03500,111.5625,116,52,0.32430
4473590,0.04000,110.2500,116,52,0.31941
4473600,0.05000,108.8125,116,52,0.31453
4473610,0.06000,107.3125,116,52,0.30989
4473620,0.05000,104.0000,116,52,0.30012
4473630,0.03500,102.3125,116,52,0.29548
4473640,0.01000,100.6250,116,52,0.29231
4473650,-0.01500,98.8750,116,52,0.28962
4473660,-0.03500,95.4375,116,52,0.28132
4473670,-0.04500,93.6250,116,52,0.27692
4473680,-0.05000,91.6875,116,52,0.27253
4473690,-0.04500,89.5625,116,52,0.26862
4473700,-0.04500,84.6875,116,52,0.26398
4473710,-0.03500,82.0000,116,52,0.26496
4473720,-0.03500,79.3750,116,52,0.26911
4473730,-0.02500,77.0625,116,52,0.27692
4473740,-0.02500,73.5000,116,52,0.30012
4473750,-0.02500,72.2500,116,52,0.31722
4473760,-0.02500,71.2500,116,52,0.33822
4473770,-0.03500,70.5000,116,52,0.36239
4473780,-0.04000,69.3125,116,52,0.41636
4473790,-0.04500,68.9375,116,52,0.44469
4473800,-0.05000,68.5625,116,52,0.47302
4473810,-0.05000,67.8750,116,52,0.50110
4473820,-0.04500,67.5000,116,52,0.55360
4473830,-0.03500,67.1250,116,52,0.57753
4473840,-0.02500,66.7500,116,52,0.59634
4473850,-0.01000,66.3750,116,52,0.61197
4473860,0.00000,65.5625,116,52,0.64322
4473870,0.00000,65.1250,116,52,0.65665
4473880,-0.01000,64.6250,116,52,0.66838
4473890,-0.03500,64.1875,116,52,0.67790
4473900,-0.06000,63.1875,116,52,0.69133
4473910,-0.07500,62.7500,116,52,0.69524
4473920,-0.10000,62.2500,116,52,0.69744
4473930,-0.12000,61.7500,116,52,0.69817
4473940,-0.12500,60.6875,116,52,0.69475
4473950,-0.12000,60.2500,116,52,0.69182
4473960,-0.12500,59.7500,116,52,0.68767
4473970,-0.12500,59.3125,116,52,0.68254
4473980,-0.12500,58.5625,116,52,0.66862
4473990,-0.11500,58.2500,116,52,0.66032
4474000,-0.12000,58.0000,116,52,0.65104
4474010,-0.12500,57.7500,116,52,0.64127
4474020,0.02500,57.1250,116,52,0.62027
4474030,0.47500,56.8125,116,52,0.60952
4474040,0.99000,56.4375,116,52,0.59976
4474050,0.90000,56.0625,116,52,0.59048
4474060,0.23500,55.2500,116,52,0.57094
4474070,-0.28000,54.8125,116,52,0.56117
4474080,-0.43000,54.4375,116,52,0.55165
4474090,-0.37500,54.0000,116,52,0.54212
4474100,-0.26000,53.1250,116,52,0.52405
4474110,-0.22000,52.7500,116,52,0.51526
4474120,-0.21000,52.4375,116,52,0.50647
4474130,-0.20000,52.0625,116,52,0.49792
4474140,-0.19500,51.3750,116,52,0.48376
4474150,-0.19000,51.0000,116,52,0.47643
4474160,-0.19500,50.6875,116,52,0.46886
4474170,-0.19000,50.4375,116,52,0.46105
4474180,-0.17000,50.3750,116,52,0.44591
4474190,-0.16000,51.3125,116,52,0.43858
4474200,-0.15000,53.5000,116,52,0.43126
4474210,-0.14500,57.5000,116,52,0.42833
4474220,-0.13000,69.8125,116,52,0.42295
4474230,-0.11500,76.7500,116,52,0.41832
4474240,-0.09500,83.5625,116,52,0.41343
4474250,-0.07500,90.0625,116,52,0.40733
4474260,-0.05000,101.0625,116,52,0.39365
4474270,-0.03000,105.3750,116,52,0.38657
4474280,-0.00500,108.8125,116,52,0.37949
4474290,0.01000,111.3750,116,52,0.37241
4474300,0.02500,114.1250,116,52,0.35897
4474310,0.03500,114.5625,116,52,0.35263
4474320,0.04000,114.4375,116,52,0.34652
4474330,0.04250,113.3750,116,52,0.33891
4474340,0.04500,111.9375,116,52,0.33162
4474350,0.05000,110.6875,116,52,0.32650
4474360,0.06000,109.2500,116,52,0.32112
4474370,0.07000,107.8125,116,52,0.31551
4474380,0.08000,104.6250,116,52,0.30476
4474390,0.06500,103.0000,116,52,0.29915
4474400,0.04000,101.3125,116,52,0.29353
4474410,0.01000,99.6250,116,52,0.28791
4474420,-0.00500,96.3125,116,52,0.27692
4474430,-0.02500,94.6250,116,52,0.27277
4474440,-0.03500,92.8125,116,52,0.26960
4474450,-0.04000,90.9375,116,52,0.26569
4474460,-0.03500,86.3750,116,52,0.25958
4474470,-0.03000,83.8125,116,52,0.25934
4474480,-0.03000,81.1875,116,52,0.26203
4474490,-0.02500,78.7500,116,52,0.26862
4474500,-0.02000,74.7500,116,52,0.29524
4474510,-0.01500,73.3125,116,52,0.31526
4474520,-0.01500,72.0625,116,52,0.33944
4474530,-0.02500,70.3125,116,52,0.39243
4474540,-0.02500,69.6875,116,52,0.41783
4474550,-0.03500,69.1250,116,52,0.44689
4474560,-0.03500,68.6250,116,52,0.47766
4474570,-0.04000,68.1875,116,52,0.50891
4474580,-0.04500,67.3750,116,52,0.56947
4474590,-0.04500,66.9375,116,52,0.59756
4474600,-0.04500,66.5000,116,52,0.62369
4474610,-0.03000,66.0625,116,52,0.64737
4474620,-0.01000,65.1875,116,52,0.68718
4474630,0.00000,64.7500,116,52,0.70110
4474640,0.00500,64.3125,116,52,0.71136
4474650,-0.00500,63.8750,116,52,0.72161
4474660,-0.03500,62.9375,116,52,0.73773
4474670,-0.06500,62.4375,116,52,0.74335
4474680,-0.08500,61.9375,116,52,0.74701
4474690,-0.10500,61.5000,116,52,0.74872
4474700,-0.12000,60.5625,116,52,0.74774
4474710,-0.12500,60.1250,116,52,0.74505
4474720,-0.12500,59.6875,116,52,0.74090
4474730,-0.12500,59.2500,116,52,0.73529
4474740,-0.12500,58.5000,116,52,0.72063
4474750,-0.12500,58.1875,116,52,0.71184
4474760,-0.11500,57.8750,116,52,0.70232
4474770,-0.11500,57.3750,116,52,0.69182
4474780,-0.11500,57.1250,116,52,0.66886
4474790,0.11500,56.8125,116,52,0.65690
4474800,0.65000,56.5000,116,52,0.64469
4474810,1.07500,56.1250,116,52,0.63248
4474820,0.79500,55.3750,116,52,0.60879
4474830,0.07000,54.9375,116,52,0.59829
4474840,-0.38000,54.5625,116,52,0.58877
4474850,-0.45000,54.1250,116,52,0.57851
4474860,-0.34000,53.3750,116,52,0.55800
4474870,-0.25000,52.9375,116,52,0.54799
4474880,-0.22500,52.5625,116,52,0.53822
4474890,-0.21000,52.1875,116,52,0.52845
4474900,-0.20000,51.5000,116,52,0.50965
4474910,-0.19000,51.1250,116,52,0.50085
4474920,-0.18500,50.8125,116,52,0.49231
4474930,-0.19000,50.5000,116,52,0.48352
4474940,-0.19500,50.1875,116,52,0.46911
4474950,-0.18000,50.5625,116,52,0.46129
4474960,-0.15500,51.9375,116,52,0.45324
4474970,-0.14000,54.8125,116,52,0.44493
4474980,-0.13000,65.7500,116,52,0.42784
4474990,-0.12000,72.7500,116,52,0.41954
4475000,-0.10000,79.9375,115,52,0.41148
4475010,-0.07500,86.7500,115,52,0.40366
4475020,-0.05000,98.8125,115,52,0.38901
4475030,-0.02500,103.7500,115,52,0.38315
4475040,-0.00500,107.8125,115,52,0.37802
4475050,0.00500,111.0000,115,52,0.37216
4475060,0.02000,114.8125,115,52,0.35946
4475070,0.02500,115.5625,115,52,0.35336
4475080,0.03000,115.8125,115,52,0.34725
4475090,0.04000,115.6250,115,52,0.34090
4475100,0.05000,114.1250,115,52,0.32845
4475110,0.06000,113.0625,115,52,0.32234
4475120,0.06000,111.8125,115,52,0.31648
4475130,0.07500,110.3750,115,52,0.31062
4475140,0.08000,107.2500,115,52,0.30281
4475150,0.07500,105.6250,115,52,0.29841
4475160,0.05500,103.9375,115,52,0.29353
4475170,0.03000,102.2500,115,52,0.28840
4475180,0.00000,98.8750,115,52,0.27814
4475190,-0.01500,97.1875,115,52,0.27302
4475200,-0.02500,95.5000,115,52,0.26813
4475210,-0.03000,93.6875,115,52,0.26349
4475220,-0.02500,89.6875,115,52,0.25617
4475230,-0.01500,87.3125,115,52,0.25543
4475240,-0.00500,84.7500,115,52,0.25714
4475250,0.00000,82.1875,115,52,0.26154
4475260,0.00000,77.6875,115,52,0.28205
4475270,-0.00500,75.8750,115,52,0.29939
4475280,0.00000,74.3750,115,52,0.32137
4475290,0.00000,73.1875,115,52,0.34701
4475300,-0.00500,71.4375,115,52,0.40733
4475310,-0.01000,70.7500,115,52,0.44005
4475320,-0.01500,70.1875,115,52,0.47350
4475330,-0.02500,69.6875,115,52,0.50696
4475340,-0.02000,68.7500,115,52,0.56166
4475350,-0.00500,68.2083,115,52,0.59430
4475360,0.01000,67.8125,115,52,0.61758
4475370,0.02000,67.3125,115,52,0.64420
4475380,0.03000,66.3750,115,52,0.69060
4475390,0.05000,65.9375,115,52,0.70989
4475400,0.07000,65.4375,115,52,0.72625
4475410,0.07000,64.9375,115,52,0.74017
4475420,0.04000,63.9375,115,52,0.76020
4475430,0.00000,63.4375,115,52,0.76532
4475440,-0.02500,62.9375,115,52,0.76777
4475450,-0.05500,62.3750,115,52,0.76972
4475460,-0.09000,61.4375,115,52,0.77094
4475470,-0.11500,60.9375,115,52,0.76996
4475480,-0.13000,60.5000,115,52,0.76752
4475490,-0.14000,60.0000,115,52,0.76386
4475500,-0.14500,59.0625,115,52,0.75214
4475510,-0.14500,58.6875,115,52,0.74432
4475520,-0.13500,58.3125,115,52,0.73529
4475530,-0.13000,58.0000,115,52,0.72527
4475540,-0.14500,57.4375,115,52,0.70476
4475550,-0.11000,57.1875,115,52,0.69353
4475560,0.18500,56.9375,115,52,0.68181
4475570,0.80500,56.6250,115,52,0.66984
4475580,1.14500,56.0625,115,52,0.64567
4475590,0.63000,55.8125,115,52,0.63370
4475600,-0.13500,55.5000,115,52,0.62222
4475610,-0.48500,55.1875,115,52,0.61099
4475620,-0.47000,54.4375,115,52,0.58926
4475630,-0.33500,54.0000,115,52,0.57973
4475640,-0.26000,53.5625,115,52,0.57070
4475650,-0.25000,53.1250,115,52,0.56142
4475660,-0.24000,52.3750,115,52,0.54188
4475670,-0.23000,52.0625,115,52,0.53236
4475680,-0.22000,51.6875,115,52,0.52283
4475690,-0.21000,51.3750,115,52,0.51355
4475700,-0.21000,50.8125,115,52,0.49475
4475710,-0.21000,50.7500,115,52,0.48547
4475720,-0.20000,51.1875,115,52,0.47619
4475730,-0.18500,52.6250,115,52,0.46716
4475740,-0.18000,60.6250,115,52,0.45275
4475750,-0.17500,67.0625,115,52,0.44518
4475760,-0.16500,74.3125,115,52,0.43712
4475770,-0.14500,81.6875,115,52,0.42882
4475780,-0.12000,95.3125,115,52,0.41245
4475790,-0.09500,101.0625,115,52,0.40440
4475800,-0.06500,106.0000,115,52,0.39658
4475810,-0.04500,110.0000,115,52,0.38877
4475820,-0.01500,115.1875,115,52,0.37387
4475830,0.00000,116.5000,115,52,0.36801
4475840,0.01500,117.1875,115,52,0.36288
4475850,0.02500,117.2500,115,52,0.35678
4475860,0.03000,116.3125,115,52,0.34383
4475870,0.03000,115.3750,115,52,0.33748
4475880,0.04000,114.3125,115,52,0.33114
4475890,0.04500,113.0625,115,52,0.32503
4475900,0.05500,110.1875,115,52,0.31331
4475910,0.06000,108.6875,115,52,0.30769
4475920,0.05500,107.1875,115,52,0.30208
4475930,0.03000,105.6250,115,52,0.29670
4475940,0.00000,102.5625,115,52,0.28987
4475950,-0.02500,101.0625,115,52,0.28571
4475960,-0.04500,99.5000,115,52,0.28083
4475970,-0.06500,96.1875,115,52,0.27595
4475980,-0.09000,94.3125,115,52,0.26618
4475990,-0.11500,92.1875,115,52,0.26276
4476000,-0.12000,89.8125,115,52,0.26129
4476010,-0.09500,87.1875,115,52,0.26252
4476020,-0.04500,81.8750,115,52,0.27717
4476030,0.00000,79.4375,115,52,0.28938
4476040,0.02000,77.4375,115,52,0.30452
4476050,0.01000,75.6875,115,52,0.32503
4476060,-0.01500,73.2500,115,52,0.37973
4476070,-0.05000,72.3750,115,52,0.41172
4476080,-0.06500,71.6875,115,52,0.44591
4476090,-0.07000,71.1250,115,52,0.48107
4476100,-0.06500,70.1875,115,52,0.55189
4476110,-0.07000,69.8125,115,52,0.58584
4476120,-0.08000,69.3750,115,52,0.61832
4476130,-0.08000,68.9375,115,52,0.64469
4476140,-0.07000,67.9375,115,52,0.68987
4476150,-0.04000,67.4375,115,52,0.71160
4476160,-0.01500,66.9375,115,52,0.73114
4476170,0.00000,66.3750,115,52,0.74799
4476180,0.01000,65.3125,115,52,0.77387
4476190,-0.00500,64.8125,115,52,0.78339
4476200,-0.03500,64.2500,115,52,0.79048
4476210,-0.06000,63.1875,115,52,0.79560
4476220,-0.09000,62.7500,115,52,0.80049
4476230,-0.12500,62.2500,115,52,0.79927
4476240,-0.14000,61.8125,115,52,0.79634
4476250,-0.14500,61.3125,115,52,0.79292
4476260,-0.14500,60.5000,115,52,0.75116
4476270,-0.14000,60.0625,115,52,0.73480
4476280,-0.13000,59.6875,115,52,0.72234
4476290,-0.11500,59.3125,115,52,0.71136
4476300,-0.10500,58.7500,115,52,0.69011
4476310,-0.11500,58.4375,115,52,0.67912
4476320,-0.06500,58.1875,115,52,0.66764
4476330,0.31000,57.8750,115,52,0.65690
4476340,0.97000,57.3125,115,52,0.63516
4476350,1.15500,57.0625,115,52,0.62393
4476360,0.53000,56.7500,115,52,0.61294
4476370,-0.22000,56.4375,115,52,0.60195
4476380,-0.49333,55.8229,115,52,0.58604
4476390,-0.47000,55.1875,115,52,0.57045
4476400,-0.33000,54.8125,115,52,0.56044
4476410,-0.27500,54.3750,115,52,0.55067
4476420,-0.26000,53.5625,115,52,0.53187
4476430,-0.25000,53.1250,115,52,0.52381
4476440,-0.23000,52.6875,115,52,0.51624
4476450,-0.21000,52.3125,115,52,0.50794
4476460,-0.20000,51.6250,115,52,0.49109
4476470,-0.19500,51.3125,115,52,0.48254
4476480,-0.19000,51.1875,115,52,0.47424
4476490,-0.18500,51.5625,115,52,0.46618
4476500,-0.17500,55.8750,115,52,0.44982
4476510,-0.17000,60.6875,115,52,0.44176
4476520,-0.16500,67.0625,115,52,0.43370
4476530,-0.15500,74.3125,115,52,0.42686
4476540,-0.13500,88.8125,115,52,0.41392
4476550,-0.11500,95.4375,115,52,0.40659
4476560,-0.09500,101.2500,115,52,0.39951
4476570,-0.06500,106.1875,115,52,0.39243
4476580,-0.03500,113.1875,115,52,0.37827
4476590,-0.01000,115.3125,115,52,0.37143
4476600,0.01000,116.6250,115,52,0.36459
4476610,0.02500,117.2500,115,52,0.35800
4476620,0.03500,117.0625,115,52,0.34554
4476630,0.04000,116.3750,115,52,0.34066
4476640,0.04000,115.5000,115,52,0.33651
4476650,0.04500,114.3750,115,52,0.33162
4476660,0.05000,111.7500,115,52,0.32088
4476670,0.06000,110.1875,115,52,0.31502
4476680,0.06000,108.6250,115,52,0.30916
4476690,0.05500,107.0000,115,52,0.30330
4476700,0.04000,103.6250,115,52,0.29231
4476710,0.02000,101.9375,115,52,0.28694
4476720,0.00000,100.2500,115,52,0.28181
4476730,-0.01500,98.5625,115,52,0.27790
4476740,-0.02500,95.0625,115,52,0.27057
4476750,-0.02500,93.1250,115,52,0.26642
4476760,-0.02000,91.0000,115,52,0.26300
4476770,-0.00500,88.5625,115,52,0.26081
4476780,0.00000,83.2500,115,52,0.26422
4476790,0.00000,80.6875,115,52,0.27131
4476800,0.00000,78.3750,115,52,0.28254
4476810,0.00000,76.4375,115,52,0.29841
4476820,0.00000,73.6250,115,52,0.34261
4476830,-0.00500,72.6250,115,52,0.36606
4476840,-0.01000,71.8125,115,52,0.38999
4476850,-0.02500,71.1250,115,52,0.41832
4476860,-0.03000,70.1250,115,52,0.48059
4476870,-0.04000,69.7500,115,52,0.51233
4476880,-0.04500,69.3125,115,52,0.54359
4476890,-0.04500,68.9375,115,52,0.57314
4476900,-0.03500,68.0625,115,52,0.62637
4476910,-0.02500,67.6250,115,52,0.64908
4476920,0.00000,67.1250,115,52,0.66886
4476930,0.02000,66.6875,115,52,0.68352
4476940,0.03000,65.6250,115,52,0.70574
4476950,0.01500,65.1250,115,52,0.71526
4476960,-0.01000,64.5625,115,52,0.72308
4476970,-0.03500,64.0000,115,52,0.72894
4476980,-0.06500,63.0000,115,52,0.73504
4476990,-0.09500,62.4375,115,52,0.73578
4477000,-0.11500,61.9375,115,52,0.73504
4477010,-0.12500,61.4375,115,52,0.73284
4477020,-0.13000,60.4375,115,52,0.72479
4477030,-0.13500,60.0000,115,52,0.71893
4477040,-0.12500,59.5625,115,52,0.71233
4477050,-0.11000,59.1875,115,52,0.70476
4477060,-0.09500,58.5000,115,52,0.68669
4477070,-0.09500,58.2500,115,52,0.67619
4477080,-0.10500,58.0000,115,52,0.66496
4477090,0.09500,57.7500,115,52,0.65348
4477100,0.62000,57.1875,115,52,0.62979
4477110,1.07500,56.8750,115,52,0.61807
4477120,0.82500,56.5000,115,52,0.60659
4477130,0.08500,56.1875,115,52,0.59609
4477140,-0.38000,55.4375,115,52,0.57558
4477150,-0.45500,55.0625,115,52,0.56508
4477160,-0.33500,54.6250,115,52,0.55458
4477170,-0.23500,54.1875,115,52,0.54432
4477180,-0.20000,53.3125,115,52,0.52454
4477190,-0.19000,52.8750,115,52,0.51502
4477200,-0.18000,52.5000,115,52,0.50598
4477210,-0.17000,51.6875,115,52,0.48864
4477220,-0.17000,51.3750,115,52,0.48034
4477230,-0.18000,51.0000,115,52,0.47302
4477240,-0.18500,50.8125,115,52,0.46642
4477250,-0.18000,50.8125,115,52,0.45885
4477260,-0.16000,53.0000,115,52,0.44249
4477270,-0.13500,56.3750,115,52,0.43419
4477280,-0.11500,61.5625,115,52,0.42589
4477290,-0.08500,68.1875,115,52,0.41783
4477300,-0.03500,82.5625,115,52,0.40195
4477310,0.00500,89.3750,115,52,0.39438
4477320,0.04500,95.5000,115,52,0.38706
4477330,0.08000,100.9375,115,52,0.38120
4477340,0.10500,109.0625,115,52,0.37021
4477350,0.12000,111.7500,115,52,0.36386
4477360,0.13500,113.5625,115,52,0.35726
4477370,0.13000,115.0000,115,52,0.35092
4477380,0.12500,114.8750,115,52,0.33822
4477390,0.11000,114.3125,115,52,0.33187
4477400,0.11000,113.7292,115,52,0.32646
4477410,0.10500,112.4375,115,52,0.31917
4477420,0.11000,109.7500,115,52,0.30720
4477430,0.12000,108.2500,115,52,0.30281
4477440,0.12000,106.6250,115,52,0.29915
4477450,0.10500,105.0000,115,52,0.29475
4477460,0.08000,101.7500,115,52,0.28474
4477470,0.04000,100.0625,115,52,0.27985
4477480,0.00500,98.4375,115,52,0.27497
4477490,-0.01500,96.7500,115,52,0.26984
4477500,-0.02500,93.1875,115,52,0.25958
4477510,-0.03500,91.1875,115,52,0.25470
4477520,-0.03500,89.0000,115,52,0.25055
4477530,-0.03000,86.5625,115,52,0.24835
4477540,-0.02500,81.1875,115,52,0.24884
4477550,-0.03500,78.6250,115,52,0.25226
4477560,-0.04000,76.4375,115,52,0.25934
4477570,-0.05000,74.6250,115,52,0.27057
4477580,-0.06500,72.0000,115,52,0.30598
4477590,-0.08500,71.1250,115,52,0.32943
4477600,-0.10500,70.3750,115,52,0.35580
4477610,-0.12000,69.3125,115,52,0.38437
4477620,-0.12500,68.8750,115,52,0.44518
4477630,-0.13000,68.5000,115,52,0.47204
4477640,-0.12500,68.1250,115,52,0.49670
4477650,-0.11000,67.7500,115,52,0.52332
4477660,-0.09000,66.9375,115,52,0.57534
4477670,-0.06500,66.5000,115,52,0.59902
4477680,-0.03000,66.0000,115,52,0.62002
4477690,0.00500,65.5625,115,52,0.63858
4477700,0.02500,64.5625,115,52,0.66789
4477710,0.02500,64.0625,115,52,0.67888
4477720,0.00500,63.6250,115,52,0.68742
4477730,-0.01000,63.1250,115,52,0.69255
4477740,-0.02500,62.0625,115,52,0.69744
4477750,-0.05000,61.5000,115,52,0.69841
4477760,-0.07500,61.0625,115,52,0.69841
4477770,-0.08500,60.6250,115,52,0.69744
4477780,-0.09500,59.7500,115,52,0.69158
4477790,-0.10500,59.3125,115,52,0.68694
4477800,-0.10500,58.8750,115,52,0.68083
4477810,-0.11000,58.4375,115,52,0.67350
4477820,-0.10500,57.8750,115,52,0.65617
4477830,-0.09500,57.6250,115,52,0.64689
4477840,-0.11000,57.3750,115,52,0.63687
4477850,-0.01500,57.1250,115,52,0.62613
4477860,0.36500,56.6250,115,52,0.60366
4477870,0.94000,56.3125,115,52,0.59243
4477880,1.02500,56.0000,115,52,0.58169
4477890,0.39500,55.6875,115,52,0.57143
4477900,-0.20500,54.8750,115,52,0.55116
4477910,-0.43000,54.5000,115,52,0.54164
4477920,-0.38000,54.1250,115,52,0.53211
4477930,-0.26000,53.6875,115,52,0.52357
4477940,-0.20000,52.8750,115,52,0.50745
4477950,-0.18500,52.5000,115,52,0.49890
4477960,-0.16500,52.1250,115,52,0.49035
4477970,-0.16000,51.7500,115,52,0.48181
4477980,-0.15500,51.0625,115,52,0.46545
4477990,-0.15000,50.6875,115,52,0.45739
4478000,-0.14000,50.4375,115,52,0.44908
4478010,-0.12500,50.2500,115,52,0.44103
4478020,-0.11500,51.3125,115,52,0.42637
4478030,-0.10500,53.6250,115,52,0.42051
4478040,-0.10500,57.7500,115,52,0.41392
4478050,-0.10500,63.5625,115,52,0.40708
4478060,-0.09500,77.3125,115,52,0.39292
4478070,-0.08000,84.1250,115,52,0.38584
4478080,-0.05500,90.5625,115,52,0.37900
4478090,-0.03500,96.3750,115,52,0.37216
4478100,-0.01500,105.6250,115,52,0.35849
4478110,0.00500,108.8750,115,52,0.35189
4478120,0.03000,111.2500,115,52,0.34530
4478130,0.04000,112.8125,115,52,0.34042
4478140,0.05500,113.7500,115,52,0.33089
4478150,0.06000,113.3750,115,52,0.32552
4478160,0.06000,112.6875,115,52,0.31990
4478170,0.06000,111.7500,115,52,0.31453
4478180,0.06000,109.2500,115,52,0.30379
4478190,0.06000,107.8125,115,52,0.29841
4478200,0.06000,106.2500,115,52,0.29304
4478210,0.06000,104.6250,115,52,0.28791
4478220,0.05000,101.2500,115,52,0.27912
4478230,0.02500,99.6250,115,52,0.27619
4478240,-0.00500,98.0000,115,52,0.27228
4478250,-0.02000,96.3125,115,52,0.26789
4478260,-0.02500,92.8750,115,52,0.25836
4478270,-0.02500,91.0000,115,52,0.25324
4478280,-0.02500,88.9375,115,52,0.24860
4478290,-0.01500,86.6250,115,52,0.24493
4478300,-0.01000,81.5000,115,52,0.24469
4478310,-0.00500,79.0625,115,52,0.25104
4478320,0.00000,76.8125,115,52,0.25885
4478330,0.00500,75.0000,115,52,0.26862
4478340,0.01000,72.3750,115,52,0.29719
4478350,0.01500,71.3750,115,52,0.31746
4478360,0.01000,70.6250,115,52,0.34115
4478370,0.00000,70.0000,115,52,0.36752
4478380,-0.00500,69.0625,115,52,0.42613
4478390,-0.01000,68.6875,115,52,0.45665
4478400,-0.01500,68.3125,115,52,0.48718
4478410,-0.01500,67.8750,115,52,0.51722
4478420,-0.01500,67.4562,115,52,0.54383
4478430,-0.01000,67.0438,115,52,0.56777
4478440,0.00000,66.6250,115,52,0.58974
4478450,0.01500,66.1875,115,52,0.61050
4478460,0.02500,65.1875,115,52,0.64762
4478470,0.03000,64.6875,115,52,0.66276
4478480,0.01500,64.1250,115,52,0.67595
4478490,-0.01500,63.6250,115,52,0.68669
4478500,-0.04000,62.5625,115,52,0.70159
4478510,-0.05500,62.0000,115,52,0.70623
4478520,-0.08000,61.5000,115,52,0.70891
4478530,-0.09500,60.9375,115,52,0.70989
4478540,-0.09500,60.0000,115,52,0.70598
4478550,-0.09500,59.5000,115,52,0.70256
4478560,-0.09500,59.0625,115,52,0.69817
4478570,-0.09000,58.6875,115,52,0.69280
4478580,-0.08500,57.9375,115,52,0.67888
4478590,-0.07500,57.6875,115,52,0.67033
4478600,-0.07500,57.3750,115,52,0.66105
4478610,-0.08500,57.1875,115,52,0.65104
4478620,0.06000,56.6875,115,52,0.62979
4478630,0.52000,56.4375,115,52,0.62002
4478640,1.02500,56.1250,115,52,0.61050
4478650,0.79500,55.5000,115,52,0.59048
4478660,0.23500,55.1250,115,52,0.58022
4478670,-0.28000,54.6875,115,52,0.57021
4478680,-0.42500,54.3125,115,52,0.56068
4478690,-0.34500,53.9375,115,52,0.55140
4478700,-0.24500,53.1250,115,52,0.53309
4478710,-0.20500,52.7500,115,52,0.52430
4478720,-0.19000,52.3750,115,52,0.51575
4478730,-0.18000,51.6875,115,52,0.50745
4478740,-0.17000,51.3125,115,52,0.49353
4478750,-0.17000,50.9375,115,52,0.48620
4478760,-0.16500,50.5625,115,52,0.47863
4478770,-0.16000,50.2500,115,52,0.47082
4478780,-0.15000,50.0625,115,52,0.45543
4478790,-0.13500,50.5000,115,52,0.44786
4478800,-0.13000,51.8750,115,52,0.44054
4478810,-0.12000,54.8125,115,52,0.43346
4478820,-0.10500,65.7500,115,52,0.41954
4478830,-0.09500,72.5625,115,52,0.41368
4478840,-0.07500,79.5000,115,52,0.40855
4478850,-0.06000,86.1250,115,52,0.40269
4478860,-0.04500,97.7500,115,52,0.39023
4478870,-0.02500,102.5625,115,52,0.38388
4478880,-0.00500,106.5000,115,52,0.37778
4478890,0.01000,109.6250,115,52,0.37167
4478900,0.01500,113.2500,115,52,0.35971
4478910,0.02500,113.9375,115,52,0.35409
4478920,0.03000,114.1250,115,52,0.34847
4478930,0.03500,113.8125,115,52,0.34310
4478940,0.03500,112.1875,115,52,0.33529
4478950,0.04000,111.0000,115,52,0.33065
4478960,0.05500,109.6875,115,52,0.32552
4478970,0.06500,108.1875,115,52,0.32015
4478980,0.06500,105.0000,115,52,0.30916
4478990,0.05500,103.3125,115,52,0.30379
4479000,0.03500,101.5625,115,52,0.29866
4479010,0.01000,99.8750,115,52,0.29353
4479020,-0.01000,96.3750,115,52,0.28327
4479030,-0.02500,94.6875,115,52,0.27961
4479040,-0.03500,92.8750,115,52,0.27668
4479050,-0.03500,90.9375,115,52,0.27277
4479060,-0.03500,86.5625,115,52,0.26545
4479070,-0.03500,84.0625,115,52,0.26325
4479080,-0.03500,81.5000,115,52,0.26349
4479090,-0.02500,79.0625,115,52,0.26667
4479100,-0.02000,75.1875,115,52,0.28449
4479110,-0.00500,73.7500,115,52,0.29988
4479120,0.00000,72.5625,115,52,0.31917
4479130,0.00000,71.6250,115,52,0.34212
4479140,0.00000,70.1875,115,52,0.38730
4479150,-0.00500,69.6250,115,52,0.41343
4479160,-0.01500,69.1250,115,52,0.44151
4479170,-0.01500,68.6875,115,52,0.47033
4479180,-0.01500,67.8125,115,52,0.52723
4479190,-0.01500,67.3750,115,52,0.55409
4479200,-0.01000,66.9375,115,52,0.57924
4479210,0.00000,66.4375,115,52,0.60269
4479220,0.01000,65.5000,115,52,0.64249
4479230,0.01500,65.0000,115,52,0.65665
4479240,0.02000,64.5625,115,52,0.66740
4479250,0.01000,64.1250,115,52,0.67814
4479260,-0.02000,63.1250,115,52,0.69573
4479270,-0.04500,62.6875,115,52,0.70232
4479280,-0.07000,62.2500,115,52,0.70720
4479290,-0.09000,61.7500,115,52,0.71038
4479300,-0.10500,60.8750,115,52,0.71233
4479310,-0.11000,60.3750,115,52,0.71087
4479320,-0.11000,59.9375,115,52,0.70794
4479330,-0.10500,59.5625,115,52,0.70354
4479340,-0.10500,58.8125,115,52,0.69182
4479350,-0.09500,58.5000,115,52,0.68449
4479360,-0.09000,58.2500,115,52,0.67619
4479370,-0.08500,58.0000,115,52,0.66716
4479380,-0.08000,57.5625,115,52,0.64713
4479390,0.12000,57.3125,115,52,0.63663
4479400,0.65000,57.0625,115,52,0.62589
4479410,1.09500,56.7500,115,52,0.61514
4479420,0.80000,56.0000,115,52,0.59389
4479430,0.10500,55.6250,115,52,0.58462
4479440,-0.31500,55.2500,115,52,0.57607
4479450,-0.41500,54.6563,115,52,0.56703
4479460,-0.31500,54.0625,115,52,0.54896
4479470,-0.22500,53.6875,115,52,0.53993
4479480,-0.20000,53.3125,115,52,0.53114
4479490,-0.19000,52.9375,115,52,0.52259
4479500,-0.18000,52.1875,115,52,0.50598
4479510,-0.17000,51.8125,115,52,0.49817
4479520,-0.17000,51.5000,115,52,0.49035
4479530,-0.17000,51.1875,115,52,0.48254
4479540,-0.17000,50.6875,115,52,0.46984
4479550,-0.15500,50.6875,115,52,0.46325
4479560,-0.14500,51.1875,115,52,0.45641
4479570,-0.13500,52.7500,115,52,0.44933
4479580,-0.12500,60.8750,115,52,0.43492
4479590,-0.10500,67.0625,115,52,0.42759
4479600,-0.09000,73.8750,115,52,0.42051
4479610,-0.07000,80.7500,115,52,0.41343
4479620,-0.05500,93.3750,115,52,0.39951
4479630,-0.03500,98.8750,115,52,0.39414
4479640,-0.01500,103.5625,115,52,0.38950
4479650,0.01000,107.3750,115,52,0.38413
4479660,0.02000,112.4375,115,52,0.37265
4479670,0.02500,113.8125,115,52,0.36679
4479680,0.03000,114.4375,115,52,0.36068
4479690,0.04000,114.5625,115,52,0.35482
4479700,0.04500,113.6250,115,52,0.34359
4479710,0.05500,112.6875,115,52,0.33773
4479720,0.06000,111.5625,115,52,0.33211
4479730,0.07000,110.2500,115,52,0.32772
4479740,0.07500,107.1875,115,52,0.31990
4479750,0.07000,105.6250,115,52,0.31502
4479760,0.05500,104.0000,115,52,0.31013
4479770,0.03500,102.3750,115,52,0.30525
4479780,0.01000,99.1875,115,52,0.29524
4479790,-0.00500,97.6250,115,52,0.29011
4479800,-0.02000,96.0000,115,52,0.28498
4479810,-0.02500,94.3750,115,52,0.27985
4479820,-0.03000,90.5625,115,52,0.27106
4479830,-0.03000,88.2500,115,52,0.26886
4479840,-0.02500,85.6875,115,52,0.26838
4479850,-0.02000,83.0000,115,52,0.26911
4479860,-0.01500,78.0625,115,52,0.27912
4479870,-0.00500,76.0625,115,52,0.28962
4479880,0.00000,74.5000,115,52,0.30452
4479890,0.00000,73.1875,115,52,0.32357
4479900,-0.00500,71.3125,115,52,0.37143
4479910,-0.01500,70.5625,115,52,0.39927
4479920,-0.02500,69.9375,115,52,0.42833
4479930,-0.03000,69.4375,115,52,0.45421
4479940,-0.03500,68.5000,115,52,0.50525
4479950,-0.03500,68.0000,115,52,0.53284
4479960,-0.03500,67.5625,115,52,0.55971
4479970,-0.03000,67.1250,115,52,0.58510
4479980,-0.02000,66.2500,115,52,0.63053
4479990,-0.00500,65.8125,115,52,0.64982
4480000,0.00500,65.3125,115,52,0.66667
4480010,0.01000,64.8750,115,52,0.68107
4480020,-0.01000,63.9375,115,52,0.70305
4480030,-0.04000,63.5000,115,52,0.70940
4480040,-0.05500,63.0000,115,52,0.71331
4480050,-0.06500,62.5000,115,52,0.71673
4480060,-0.09000,61.6250,115,52,0.72088
4480070,-0.10000,61.1875,115,52,0.72088
4480080,-0.10000,60.6875,115,52,0.71990
4480090,-0.09500,60.2500,115,52,0.71746
4480100,-0.09500,59.4375,115,52,0.70867
4480110,-0.09500,59.0625,115,52,0.70232
4480120,-0.09500,58.6875,115,52,0.69451
4480130,-0.09000,58.4375,115,52,0.68620
4480140,-0.09500,57.9375,115,52,0.66789
4480150,-0.07000,57.7500,115,52,0.65763
4480160,0.21000,57.5000,115,52,0.64713
4480170,0.77500,57.1875,115,52,0.63614
4480180,1.06500,56.4375,115,52,0.61416
4480190,0.65500,56.0625,115,52,0.60317
4480200,-0.01500,55.6250,115,52,0.59267
4480210,-0.37000,55.2500,115,52,0.58242
4480220,-0.39500,54.4375,115,52,0.56264
4480230,-0.29000,54.0625,115,52,0.55385
4480240,-0.21000,53.6250,115,52,0.54603
4480250,-0.18500,52.8750,115,52,0.53773
4480260,-0.17000,52.5000,115,52,0.52063
4480270,-0.16000,52.1875,115,52,0.51209
4480280,-0.15500,51.8125,115,52,0.50379
4480290,-0.15000,51.5000,115,52,0.49548
4480300,-0.15000,50.8125,115,52,0.47912
4480310,-0.14500,50.5625,115,52,0.47106
4480320,-0.13500,50.5000,115,52,0.46300
4480330,-0.12500,51.0625,115,52,0.45641
4480340,-0.11500,55.8750,115,52,0.44371
4480350,-0.11500,55.8750,115,52,0.44371
4480360,-0.11500,55.8750,115,52,0.44371
4480370,-0.06500,80.5625,115,52,0.42100
4480380,-0.05500,87.1250,115,52,0.41441
4480390,-0.03500,93.1875,115,52,0.40757
4480400,-0.01500,98.6250,115,52,0.40024
4480410,0.00500,103.3750,115,52,0.39316
4480420,0.03000,110.2500,115,52,0.37973
4480430,0.04000,112.3750,115,52,0.37460
4480440,0.05000,113.7500,115,52,0.36996
4480450,0.06000,114.5625,115,52,0.36459
4480460,0.06000,114.3125,115,52,0.35311
4480470,0.06000,113.6250,115,52,0.34701
4480480,0.06167,112.9375,115,52,0.34172
4480490,0.06500,111.5625,115,52,0.33480
4480500,0.07000,108.8125,115,52,0.32381
4480510,0.07000,107.3125,115,52,0.31844
4480520,0.06000,105.7500,115,52,0.31331
4480530,0.04500,104.1250,115,52,0.30965
4480540,0.02000,100.8125,115,52,0.30256
4480550,0.00000,99.1250,115,52,0.29792
4480560,-0.02000,97.5000,115,52,0.29304
4480570,-0.03500,95.8125,115,52,0.28791
4480580,-0.04500,92.2500,115,52,0.27741
4480590,-0.04500,90.1875,115,52,0.27253
4480600,-0.04500,87.9375,115,52,0.26886
4480610,-0.04500,82.7500,115,52,0.26691
4480620,-0.05000,80.1250,115,52,0.27179
4480630,-0.04500,77.8125,115,52,0.27863
4480640,-0.03500,75.8750,115,52,0.28889
4480650,-0.03500,74.2500,115,52,0.30354
4480660,-0.03500,71.9375,115,52,0.34603
4480670,-0.03500,71.0625,115,52,0.37241
4480680,-0.04000,70.3750,115,52,0.40122
4480690,-0.04500,69.7500,115,52,0.43199
4480700,-0.05500,68.8125,115,52,0.49451
4480710,-0.06500,68.3750,115,52,0.52527
4480720,-0.07000,67.9375,115,52,0.55531
4480730,-0.06500,67.5625,115,52,0.57998
4480740,-0.05500,66.7500,115,52,0.62344
4480750,-0.03500,66.3125,115,52,0.64493
4480760,-0.02000,65.8750,115,52,0.66447
4480770,-0.01500,65.4375,115,52,0.68205
4480780,-0.01500,64.5625,115,52,0.71013
4480790,-0.03500,64.1250,115,52,0.72088
4480800,-0.06500,63.6250,115,52,0.72943
4480810,-0.08500,63.1250,115,52,0.73602
4480820,-0.10500,62.1875,115,52,0.74383
4480830,-0.12500,61.6875,115,52,0.74432
4480840,-0.13500,61.2500,115,52,0.74335
4480850,-0.13500,60.7500,115,52,0.74164
4480860,-0.13000,59.9375,115,52,0.73504
4480870,-0.13000,59.5625,115,52,0.72967
4480880,-0.13000,59.1875,115,52,0.72332
4480890,-0.12500,58.8125,115,52,0.71575
4480900,-0.11500,58.2500,115,52,0.69768
4480910,-0.13000,58.0000,115,52,0.68718
4480920,-0.08500,57.7500,115,52,0.67619
4480930,0.21500,57.5000,115,52,0.66569
4480940,0.80500,56.9375,115,52,0.64420
4480950,1.09500,56.5625,115,52,0.63297
4480960,0.59000,56.1875,115,52,0.62173
4480970,-0.10500,55.8125,115,52,0.61050
4480980,-0.42500,55.0000,115,52,0.58901
4480990,-0.42500,54.6250,115,52,0.57875
4481000,-0.30500,54.1875,115,52,0.56874
4481010,-0.24000,53.7500,115,52,0.55897
4481020,-0.23000,53.0000,115,52,0.54017
4481030,-0.21500,52.6250,115,52,0.53211
4481040,-0.20500,52.3125,115,52,0.52479
4481050,-0.19500,51.9375,115,52,0.51697
4481060,-0.19000,51.2500,115,52,0.50061
4481070,-0.18500,50.9375,115,52,0.49231
4481080,-0.17500,50.7500,115,52,0.48425
4481090,-0.16000,50.7500,115,52,0.47595
4481100,-0.16000,52.6875,115,52,0.45958
4481110,-0.15000,55.7500,115,52,0.45177
4481120,-0.13500,60.6250,115,52,0.44420
4481130,-0.11500,66.8750,115,52,0.43761
4481140,-0.09500,80.9375,115,52,0.42540
4481150,-0.07500,87.7500,115,52,0.41856
4481160,-0.05500,94.0000,115,52,0.41148
4481170,-0.03500,99.6250,115,52,0.40464
4481180,-0.01500,108.3125,115,52,0.39121
4481190,0.00000,111.3125,115,52,0.38462
4481200,0.01500,113.5000,115,52,0.37802
4481210,0.02500,114.8750,115,52,0.37167
4481220,0.03000,115.8125,115,52,0.35922
4481230,0.03000,115.5625,115,52,0.35458
4481240,0.03000,114.9375,115,52,0.35067
4481250,0.04000,114.0625,115,52,0.34579
4481260,0.04000,111.6875,115,52,0.33529
4481270,0.05000,110.3125,115,52,0.32991
4481280,0.06000,108.8125,115,52,0.32454
4481290,0.06000,107.2500,115,52,0.31893
4481300,0.04000,104.0625,115,52,0.30818
4481310,0.01500,102.5000,115,52,0.30281
4481320,-0.01000,100.8750,115,52,0.29768
4481330,-0.03000,99.2500,115,52,0.29402
4481340,-0.04500,95.9375,115,52,0.28718
4481350,-0.05000,94.1875,115,52,0.28278
4481360,-0.05000,92.2500,115,52,0.27863
4481370,-0.05000,90.0625,115,52,0.27521
4481380,-0.05500,85.0625,115,52,0.27350
4481390,-0.05500,82.4375,115,52,0.27717
4481400,-0.05000,80.0000,115,52,0.28474
4481410,-0.04500,77.8750,115,52,0.29670
4481420,-0.04500,74.5625,115,52,0.33480
4481430,-0.04500,73.3750,115,52,0.35653
4481440,-0.05000,72.4375,115,52,0.37973
4481450,-0.05500,71.6875,115,52,0.40757
4481460,-0.06500,70.5000,115,52,0.47033
4481470,-0.07500,70.0625,115,52,0.50256
4481480,-0.07500,69.6250,115,52,0.53431
4481490,-0.08000,69.2500,115,52,0.56557
4481500,-0.08000,68.6667,115,52,0.60875
4481510,-0.07500,68.0625,115,52,0.64933
4481520,-0.06500,67.6250,115,52,0.67277
4481530,-0.04500,67.1875,115,52,0.69084
4481540,-0.03000,66.2500,115,52,0.71966
4481550,-0.02000,65.7500,115,52,0.73260
4481560,-0.01500,65.2500,115,52,0.74383
4481570,-0.03000,64.3125,115,52,0.75336
4481580,-0.06000,63.8125,115,52,0.76630
4481590,-0.08500,63.3125,115,52,0.77021
4481600,-0.10500,62.8125,115,52,0.77241
4481610,-0.13000,62.3125,115,52,0.77289
4481620,-0.14500,61.3125,115,52,0.76948
4481630,-0.14500,60.8125,115,52,0.76532
4481640,-0.14500,60.3750,115,52,0.76020
4481650,-0.14500,59.9375,115,52,0.75409
4481660,-0.14000,59.1250,115,52,0.73822
4481670,-0.13000,58.7500,115,52,0.72869
4481680,-0.12500,58.4375,115,52,0.71844
4481690,-0.13500,58.1875,115,52,0.70745
4481700,-0.09000,57.6875,115,52,0.68425
4481710,0.21000,57.4375,115,52,0.67253
4481720,0.82500,57.1875,115,52,0.66081
4481730,1.14500,56.9375,115,52,0.65006
4481740,0.64000,56.3750,115,52,0.62906
4481750,-0.10500,56.0625,115,52,0.61832
4481760,-0.44500,55.6875,115,52,0.60781
4481770,-0.42500,55.3125,115,52,0.59756
4481780,-0.30000,54.5000,115,52,0.57729
4481790,-0.23500,54.0625,115,52,0.56752
4481800,-0.23000,53.6875,115,52,0.55775
4481810,-0.21500,53.0000,115,52,0.53895
4481820,-0.20500,52.6875,115,52,0.53089
4481830,-0.19500,52.3125,115,52,0.52357
4481840,-0.19500,51.9375,115,52,0.51575
4481850,-0.19000,51.6250,115,52,0.50769
4481860,-0.18500,51.1875,115,52,0.49109
4481870,-0.17500,51.3125,115,52,0.48303
4481880,-0.16000,52.1875,115,52,0.47473
4481890,-0.15500,54.4375,115,52,0.46667
4481900,-0.14500,64.3750,115,52,0.45006
4481910,-0.13000,71.3750,115,52,0.44200
4481920,-0.11000,78.6875,115,52,0.43419
4481930,-0.08500,85.8125,115,52,0.42759
4481940,-0.07000,98.6250,115,52,0.41538
4481950,-0.04500,103.8750,115,52,0.40855
4481960,-0.02500,108.2500,115,52,0.40171
4481970,-0.01000,111.7500,115,52,0.39487
4481980,-0.00500,115.9375,115,52,0.38144
4481990,0.00500,116.9375,115,52,0.37485
4482000,0.01000,117.3125,115,52,0.36850
4482010,0.01000,117.1875,115,52,0.36239
4482020,0.01000,115.8750,115,52,0.35165
4482030,0.02000,114.9375,115,52,0.34774
4482040,0.03000,113.7500,115,52,0.34286
4482050,0.04500,112.4375,115,52,0.33748
4482060,0.05000,109.5000,115,52,0.32650
4482070,0.06000,107.9375,115,52,0.32088
4482080,0.05000,106.2500,115,52,0.31551
4482090,0.03000,104.5000,115,52,0.31013
4482100,0.00500,101.1250,115,52,0.29988
4482110,-0.01500,99.5000,115,52,0.29475
4482120,-0.03000,97.8125,115,52,0.28962
4482130,-0.03500,96.1250,115,52,0.28596
4482140,-0.03500,92.3750,115,52,0.28010
4482150,-0.03500,90.1875,115,52,0.27741
4482160,-0.03500,87.7500,115,52,0.27643
4482170,-0.03500,85.1250,115,52,0.27790
4482180,-0.03500,80.1875,115,52,0.29206
4482190,-0.03500,78.1250,115,52,0.30598
4482200,-0.03500,76.4375,115,52,0.32454
4482210,-0.04000,75.0625,115,52,0.34725
4482220,-0.04000,73.0625,115,52,0.39902
4482230,-0.04500,72.3750,115,52,0.42466
4482240,-0.05500,71.8125,115,52,0.45446
4482250,-0.06500,71.3750,115,52,0.48669
4482260,-0.07500,70.5625,115,52,0.55263
4482270,-0.07000,70.1875,115,52,0.58462
4482280,-0.07000,69.8125,115,52,0.61490
4482290,-0.06000,69.3750,115,52,0.64298
4482300,-0.05500,68.3750,115,52,0.69158
4482310,-0.04500,67.8750,115,52,0.71160
4482320,-0.03000,67.3750,115,52,0.72894
4482330,-0.01500,66.8125,115,52,0.74139
4482340,-0.02000,65.7500,115,52,0.75971
4482350,-0.03500,65.2500,115,52,0.76728
4482360,-0.06500,64.6875,115,52,0.77338
4482370,-0.08000,64.1875,115,52,0.77778
4482380,-0.10000,63.1250,115,52,0.78168
4482390,-0.12000,62.6250,115,52,0.78168
4482400,-0.13500,62.1250,115,52,0.78046
4482410,-0.13500,61.6875,115,52,0.76948
4482420,-0.14000,60.7500,115,52,0.74115
4482430,-0.13500,60.2500,115,52,0.73114
4482440,-0.13500,59.8125,115,52,0.72161
4482450,-0.12500,59.4375,115,52,0.71184
4482460,-0.13000,58.7500,115,52,0.69084
4482470,-0.15000,58.5000,115,52,0.67961
4482480,-0.06500,58.1875,115,52,0.66789
4482490,0.33000,57.9375,115,52,0.65617
4482500,0.96000,57.3750,115,52,0.63272
4482510,1.09000,57.1250,115,52,0.62100
4482520,0.42000,56.8750,115,52,0.60977
4482530,-0.15083,56.5000,115,52,0.59475
4482540,-0.47000,55.8750,115,52,0.58022
4482550,-0.38500,55.5000,115,52,0.57045
4482560,-0.26500,55.1250,115,52,0.56093
4482570,-0.23000,54.6875,115,52,0.55140
4482580,-0.22500,53.8750,115,52,0.53284
4482590,-0.21500,53.5000,115,52,0.52381
4482600,-0.20000,53.0625,115,52,0.51477
4482610,-0.18500,52.6875,115,52,0.50598
4482620,-0.18000,52.0000,115,52,0.48987
4482630,-0.18000,51.6875,115,52,0.48278
4482640,-0.18000,51.3750,115,52,0.47521
4482650,-0.16000,51.3750,115,52,0.46740
4482660,-0.15000,53.6875,115,52,0.45128
4482670,-0.14000,57.2500,115,52,0.44298
4482680,-0.13000,62.6875,115,52,0.43492
4482690,-0.11000,69.4375,115,52,0.42686
4482700,-0.08500,83.9375,115,52,0.41123
4482710,-0.06500,90.7500,115,52,0.40366
4482720,-0.04500,97.0000,115,52,0.39585
4482730,-0.02500,102.4375,115,52,0.38950
4482740,-0.00500,110.7500,115,52,0.37778
4482750,0.01000,113.4375,115,52,0.37118
4482760,0.02500,115.1875,115,52,0.36435
4482770,0.03500,116.1875,115,52,0.35751
4482780,0.04000,116.5000,115,52,0.34432
4482790,0.04500,116.0000,115,52,0.33797
4482800,0.05000,115.2500,115,52,0.33162
4482810,0.05500,114.2500,115,52,0.32527
4482820,0.06000,111.7500,115,52,0.31453
4482830,0.07000,110.3125,115,52,0.31087
4482840,0.08000,108.8125,115,52,0.30623
4482850,0.08000,107.2500,115,52,0.30110
4482860,0.06500,104.0625,115,52,0.29060
4482870,0.04500,102.4375,115,52,0.28547
4482880,0.02500,100.8125,115,52,0.28010
4482890,0.01000,99.1875,115,52,0.27497
4482900,-0.00500,95.7500,115,52,0.26447
4482910,-0.00500,93.8750,115,52,0.25958
4482920,-0.01000,91.8750,115,52,0.25519
4482930,-0.01000,89.6250,115,52,0.25299
4482940,-0.01500,84.3750,115,52,0.25348
4482950,-0.00500,81.6875,115,52,0.25690
4482960,-0.00500,79.3125,115,52,0.26398
4482970,0.00000,77.2500,115,52,0.27521
4482980,0.00000,74.1250,115,52,0.31087
4482990,0.00500,73.0000,115,52,0.33480
4483000,0.00500,72.0625,115,52,0.36190
4483010,0.00000,71.3750,115,52,0.39145
4483020,-0.00500,70.4375,115,52,0.45031
4483030,-0.01000,70.0000,115,52,0.47643
4483040,-0.01500,69.6875,115,52,0.50525
4483050,-0.01500,69.3125,115,52,0.53455
4483060,-0.01000,68.5000,115,52,0.58999
4483070,-0.00500,68.0625,115,52,0.61514
4483080,0.00500,67.6250,115,52,0.63785
4483090,0.02500,66.6875,115,52,0.65812
4483100,0.04000,66.1875,115,52,0.69084
4483110,0.04000,65.6250,115,52,0.70354
4483120,0.03000,65.0625,115,52,0.71404
4483130,0.00000,64.5625,115,52,0.72063
4483140,-0.02500,63.5000,115,52,0.72821
4483150,-0.03500,62.9375,115,52,0.73065
4483160,-0.05500,62.4375,115,52,0.73187
4483170,-0.07500,61.9375,115,52,0.73187
4483180,-0.08500,60.9375,115,52,0.72747
4483190,-0.08500,60.5000,115,52,0.72332
4483200,-0.08500,60.0625,115,52,0.71795
4483210,-0.08500,59.6250,115,52,0.71111
4483220,-0.08000,58.9375,115,52,0.69451
4483230,-0.07000,58.6250,115,52,0.68523
4483240,-0.07500,58.3750,115,52,0.67497
4483250,-0.05500,58.1875,115,52,0.66374
4483260,0.18000,57.6875,115,52,0.64029
4483270,0.74000,57.3750,115,52,0.62857
4483280,1.10500,57.0000,115,52,0.61709
4483290,0.69500,56.6875,115,52,0.60586
4483300,0.00500,55.9375,115,52,0.58413
4483310,-0.35000,55.5625,115,52,0.57363
4483320,-0.38500,55.1875,115,52,0.56435
4483330,-0.27000,54.7500,115,52,0.55556
4483340,-0.19000,53.9375,115,52,0.53700
4483350,-0.17000,53.5625,115,52,0.52796
4483360,-0.16000,53.1875,115,52,0.51893
4483370,-0.15500,52.7500,115,52,0.50989
4483380,-0.14500,52.0000,115,52,0.49206
4483390,-0.14000,51.6875,115,52,0.48327
4483400,-0.13500,51.3125,115,52,0.47473
4483410,-0.13500,51.0625,115,52,0.46618
4483420,-0.12500,51.0000,115,52,0.45079
4483430,-0.11500,51.9375,115,52,0.44420
4483440,-0.10500,54.1875,115,52,0.43687
4483450,-0.09500,58.1250,115,52,0.42906
4483460,-0.08000,70.3125,115,52,0.41392
4483470,-0.06500,77.1875,115,52,0.40610
4483480,-0.05000,84.0000,115,52,0.39829
4483490,-0.03500,90.3125,115,52,0.39072
4483500,-0.01000,100.9375,115,52,0.37582
4483510,0.01500,105.0625,115,52,0.36850
4483520,0.03000,108.2500,115,52,0.36264
4483530,0.04000,110.5625,115,52,0.35775
4483540,0.05500,112.6875,115,52,0.34579
4483550,0.06917,113.0417,115,52,0.33858
4483560,0.08000,112.4375,115,52,0.33333
4483570,0.08500,111.6875,115,52,0.32723
4483580,0.09000,109.3750,115,52,0.31526
4483590,0.09500,108.0000,115,52,0.30916
4483600,0.10500,106.5000,115,52,0.30330
4483610,0.10500,104.9375,115,52,0.29744
4483620,0.10000,101.5625,115,52,0.28767
4483630,0.08000,99.8750,115,52,0.28425
4483640,0.05000,98.1875,115,52,0.27985
4483650,0.02500,96.5000,115,52,0.27521
4483660,0.00000,93.1250,115,52,0.26520
4483670,-0.01000,91.3750,115,52,0.25983
4483680,-0.02000,89.4375,115,52,0.25470
4483690,-0.02500,87.2500,115,52,0.24982
4483700,-0.02500,82.2500,115,52,0.24225
4483710,-0.02500,79.6250,115,52,0.24103
4483720,-0.02500,77.1250,115,52,0.24225
4483730,-0.02000,73.1875,115,52,0.24640
4483740,-0.01500,71.8125,115,52,0.26447
4483750,-0.01500,70.6875,115,52,0.27961
4483760,-0.01500,69.8125,115,52,0.29866
4483770,-0.01500,69.1875,115,52,0.32137
4483780,-0.01500,68.1875,115,52,0.37460
4483790,-0.01500,67.8125,115,52,0.40342
4483800,-0.01500,67.4375,115,52,0.43272
4483810,-0.01500,67.1250,115,52,0.46178
4483820,-0.01500,66.4375,115,52,0.51453
4483830,-0.01500,66.0000,115,52,0.53553
4483840,-0.00500,65.6250,115,52,0.55751
4483850,0.01000,65.1875,115,52,0.57851
4483860,0.04000,64.3125,115,52,0.61514
4483870,0.05000,63.8125,115,52,0.63004
4483880,0.03500,63.3125,115,52,0.64274
4483890,0.01000,62.8125,115,52,0.65299
4483900,-0.02000,61.8125,115,52,0.66764
4483910,-0.05500,61.2500,115,52,0.67204
4483920,-0.08500,60.7500,115,52,0.67399
4483930,-0.09500,60.2500,115,52,0.67399
4483940,-0.08500,59.1875,115,52,0.67179
4483950,-0.07000,58.7500,115,52,0.66886
4483960,-0.06000,58.2500,115,52,0.66496
4483970,-0.05000,57.8125,115,52,0.65983
4483980,-0.04500,57.0000,115,52,0.64591
4483990,-0.05500,56.6875,115,52,0.63736
4484000,-0.06000,56.4375,115,52,0.62784
4484010,-0.06500,56.2500,115,52,0.61783
4484020,0.08500,55.9375,115,52,0.59756
4484030,0.56500,55.7500,115,52,0.58803
4484040,1.07500,55.5000,115,52,0.57802
4484050,0.89000,55.2500,115,52,0.56777
4484060,0.21000,54.6875,115,52,0.54725
4484070,-0.27000,54.3125,115,52,0.53724
4484080,-0.41500,53.9375,115,52,0.52747
4484090,-0.32500,53.5625,115,52,0.51795
4484100,-0.22000,52.8125,115,52,0.49963
4484110,-0.18500,52.4375,115,52,0.49060
4484120,-0.17000,52.0625,115,52,0.48303
4484130,-0.15500,51.6875,115,52,0.47619
4484140,-0.14000,51.0000,115,52,0.46129
4484150,-0.13500,50.6250,115,52,0.45372
4484160,-0.14500,50.2500,115,52,0.44615
4484170,-0.14500,49.9375,115,52,0.43834
4484180,-0.14000,49.5625,115,52,0.42320
4484190,-0.13500,50.0000,115,52,0.41563
4484200,-0.13000,51.5000,115,52,0.40806
4484210,-0.12000,54.6250,115,52,0.40049
4484220,-0.10500,65.5625,115,52,0.38681
4484230,-0.10000,72.2500,115,52,0.38120
4484240,-0.08500,78.9375,115,52,0.37509
4484250,-0.07000,85.3750,115,52,0.36850
4484260,-0.05500,96.6250,115,52,0.35507
4484270,-0.03500,101.1250,115,52,0.34823
4484280,-0.01500,104.7500,115,52,0.34164
4484290,-0.00500,107.5000,115,52,0.33553
4484300,0.01000,110.5000,115,52,0.32332
4484310,0.01500,110.9375,115,52,0.31746
4484320,0.02500,110.8750,115,52,0.31282
4484330,0.03000,110.3750,115,52,0.30916
4484340,0.03500,108.5000,115,52,0.29963
4484350,0.05000,107.2500,115,52,0.29451
4484360,0.06000,105.8750,115,52,0.28962
4484370,0.07000,104.3750,115,52,0.28474
4484380,0.06000,101.0625,115,52,0.27497
4484390,0.04500,99.4375,115,52,0.27009
4484400,0.02000,97.7500,115,52,0.26520
4484410,-0.00500,96.0625,115,52,0.26032
4484420,-0.02500,92.6875,115,52,0.25201
4484430,-0.04000,90.9375,115,52,0.24933
4484440,-0.04500,89.0625,115,52,0.24567
4484450,-0.04500,87.0625,115,52,0.24151
4484460,-0.04000,82.5000,115,52,0.24322
4484470,-0.03500,79.9375,115,52,0.24371
4484480,-0.03500,77.3750,115,52,0.24469
4484490,-0.03500,75.0625,115,52,0.24762
4484500,-0.03500,71.5000,115,52,0.26422
4484510,-0.03500,70.3125,115,52,0.27863
4484520,-0.04000,69.3125,115,52,0.29451
4484530,-0.04000,68.5625,115,52,0.31258
4484540,-0.03500,67.4375,115,52,0.36117
4484550,-0.04500,67.0000,115,52,0.38926
4484560,-0.05500,66.6250,115,52,0.41856
4484570,-0.05500,66.0938,115,52,0.46215
4484580,-0.05500,65.5625,115,52,0.50476
4484590,-0.03500,65.1875,115,52,0.53114
4484600,0.00000,64.7500,115,52,0.55580
4484610,0.03500,64.3125,115,52,0.57851
4484620,0.05000,63.5000,115,52,0.61514
4484630,0.03500,63.0625,115,52,0.62784
4484640,-0.00500,62.6250,115,52,0.64054
4484650,-0.05500,62.1875,115,52,0.65177
4484660,-0.08500,61.3125,115,52,0.66935
4484670,-0.11000,60.8750,115,52,0.67546
4484680,-0.12000,60.4375,115,52,0.67985
4484690,-0.13000,60.0000,115,52,0.68254
4484700,-0.13500,59.1875,115,52,0.68352
4484710,-0.14000,58.7500,115,52,0.68181
4484720,-0.14000,58.4375,115,52,0.67863
4484730,-0.14000,58.1250,115,52,0.67424
4484740,-0.13500,57.5000,115,52,0.66203
4484750,-0.15000,57.2500,115,52,0.65446
4484760,-0.07000,57.0625,115,52,0.64615
4484770,0.31500,56.8125,115,52,0.63687
4484780,0.90500,56.1875,115,52,0.61661
4484790,0.97500,55.8750,115,52,0.60611
4484800,0.39000,55.5000,115,52,0.59560
4484810,-0.19500,54.6875,115,52,0.58510
4484820,-0.44000,54.3125,115,52,0.56508
4484830,-0.40500,53.8750,115,52,0.55629
4484840,-0.29000,53.4375,115,52,0.54725
4484850,-0.24000,53.0625,115,52,0.53797
4484860,-0.23000,52.3125,115,52,0.52015
4484870,-0.22000,52.0000,115,52,0.51160
4484880,-0.21000,51.6250,115,52,0.50281
4484890,-0.20500,51.3125,115,52,0.49426
4484900,-0.19500,50.6875,115,52,0.47839
4484910,-0.18000,50.3750,115,52,0.47057
4484920,-0.15000,50.1250,115,52,0.46398
4484930,-0.12500,50.1875,115,52,0.45788
4484940,-0.10500,52.5625,115,52,0.44396
4484950,-0.10500,55.9375,115,52,0.43687
4484960,-0.11000,61.0625,115,52,0.42979
4484970,-0.10500,67.4375,115,52,0.42271
4484980,-0.09000,80.8125,115,52,0.40855
4484990,-0.08000,87.1875,115,52,0.40171
4485000,-0.06000,93.0000,115,52,0.39512
4485010,-0.04000,98.1250,115,52,0.38852
4485020,-0.02000,106.1250,115,52,0.37680
4485030,-0.00500,108.8125,115,52,0.37216
4485040,0.01000,110.6875,115,52,0.36679
4485050,0.02000,111.8125,115,52,0.36093
4485060,0.03000,112.3750,115,52,0.34921
4485070,0.03500,111.9375,115,52,0.34359
4485080,0.04500,111.1875,115,52,0.33797
4485090,0.05000,110.2500,115,52,0.33211
4485100,0.06000,107.7500,115,52,0.32088
4485110,0.06000,106.2500,115,52,0.31551
4485120,0.07000,104.6875,115,52,0.31160
4485130,0.06000,103.0000,115,52,0.30842
4485140,0.04000,99.6875,115,52,0.30012
4485150,0.01000,98.0000,115,52,0.29524
4485160,-0.01500,96.2500,115,52,0.29035
4485170,-0.03500,94.5625,115,52,0.28547
4485180,-0.04000,91.0000,115,52,0.27570
4485190,-0.04000,89.0000,115,52,0.27106
4485200,-0.03500,86.8750,115,52,0.26691
4485210,-0.04000,84.5000,115,52,0.26374
4485220,-0.04500,79.3750,115,52,0.26398
4485230,-0.04000,77.0000,115,52,0.26691
4485240,-0.03500,74.9375,115,52,0.27326
4485250,-0.03000,73.2500,115,52,0.28327
4485260,-0.03000,70.8125,115,52,0.31600
4485270,-0.03500,69.9375,115,52,0.33822
4485280,-0.04000,69.1875,115,52,0.36361
4485290,-0.04500,68.5625,115,52,0.39121
4485300,-0.05000,67.5000,115,52,0.45031
4485310,-0.04500,67.0625,115,52,0.48010
4485320,-0.04500,66.6875,115,52,0.50549
4485330,-0.03000,66.2500,115,52,0.52845
4485340,0.00000,65.4375,115,52,0.57680
4485350,0.03500,65.0625,115,52,0.59951
4485360,0.05000,64.6250,115,52,0.62076
4485370,0.03000,64.1250,115,52,0.63980
4485380,-0.01000,63.2500,115,52,0.67057
4485390,-0.05500,62.8125,115,52,0.68254
4485400,-0.08500,62.3750,115,52,0.69231
4485410,-0.11000,61.9375,115,52,0.69988
4485420,-0.12500,60.9375,115,52,0.70672
4485430,-0.13000,60.5000,115,52,0.70867
4485440,-0.13000,60.0625,115,52,0.70989
4485450,-0.13000,59.6250,115,52,0.70965
4485460,-0.13500,58.7500,115,52,0.70525
4485470,-0.13000,58.3750,115,52,0.70134
4485480,-0.12000,58.0625,115,52,0.69621
4485490,-0.12500,57.8125,115,52,0.68962
4485500,-0.09000,57.3125,115,52,0.67302
4485510,0.20500,57.0625,115,52,0.66325
4485520,0.78500,56.8125,115,52,0.65372
4485530,1.03500,56.5625,115,52,0.64420
4485540,0.57500,55.8125,115,52,0.62344
4485550,-0.09500,55.4375,115,52,0.61270
4485560,-0.43000,55.0000,115,52,0.60171
4485570,-0.44000,54.5625,115,52,0.59096
4485580,-0.32500,53.6250,115,52,0.57021
4485590,-0.25000,53.1875,115,52,0.56020
4485600,-0.22500,52.8125,115,52,0.55173
4485610,-0.22000,52.3125,115,52,0.54139
4485620,-0.20500,51.5000,115,52,0.52576
4485630,-0.20000,51.1250,115,52,0.51746
4485640,-0.19500,50.6875,115,52,0.50916
4485650,-0.19000,50.3125,115,52,0.50110
4485660,-0.17500,49.7500,115,52,0.48498
4485670,-0.16000,49.8125,115,52,0.47741
4485680,-0.14500,50.5625,115,52,0.46984
4485690,-0.13500,52.6875,115,52,0.46203
4485700,-0.12500,62.1250,115,52,0.44640
4485710,-0.12000,68.6875,115,52,0.43858
4485720,-0.11000,75.6250,115,52,0.43199
4485730,-0.09500,82.3750,115,52,0.42613
4485740,-0.07000,94.5625,115,52,0.41343
4485750,-0.05000,99.6250,115,52,0.40684
4485760,-0.03000,103.8750,115,52,0.40049
4485770,-0.01000,107.2500,115,52,0.39414
4485780,0.00500,111.3125,115,52,0.38144
4485790,0.02000,112.2500,115,52,0.37509
4485800,0.03000,112.5625,115,52,0.36874
4485810,0.03500,112.4375,115,52,0.36239
4485820,0.04000,111.0000,115,52,0.35336
4485830,0.05000,109.8750,115,52,0.34847
4485840,0.06000,108.5625,115,52,0.34335
4485850,0.07000,107.0625,115,52,0.33797
4485860,0.08500,103.8750,115,52,0.32698
4485870,0.08000,102.1875,115,52,0.32161
4485880,0.06500,100.5625,115,52,0.31624
4485890,0.03500,98.8750,115,52,0.31111
4485900,0.01000,95.6250,115,52,0.30061
4485910,-0.01000,93.9375,115,52,0.29524
4485920,-0.01500,92.2500,115,52,0.29133
4485930,-0.01500,90.4375,115,52,0.28816
4485940,-0.01500,86.3125,115,52,0.27961
4485950,-0.01500,83.8125,115,52,0.27570
4485960,-0.01000,81.1875,115,52,0.27350
4485970,-0.00500,78.5000,115,52,0.27375
4485980,0.00000,73.8750,115,52,0.28400
4485990,0.00500,72.1250,115,52,0.29548
4486000,0.01000,70.7500,115,52,0.31136
4486010,0.01000,69.6875,115,52,0.33114
4486020,0.01000,68.1875,115,52,0.37289
4486030,0.00500,67.6250,115,52,0.39853
4486040,0.00500,67.1250,115,52,0.42637
4486050,0.00000,66.6250,115,52,0.45543
4486060,0.00000,65.8125,115,52,0.51331
4486070,0.01000,65.4375,115,52,0.54090
4486080,0.03500,65.0625,115,52,0.56728
4486090,0.08000,64.6250,115,52,0.59170
4486100,0.12000,63.8125,115,52,0.63443
4486110,0.14000,63.3750,115,52,0.65250
4486120,0.12000,63.0000,115,52,0.66618
4486130,0.08500,62.5625,115,52,0.67643
4486140,0.05000,61.7500,115,52,0.69573
4486150,0.01000,61.3125,115,52,0.70305
4486160,-0.02000,60.9375,115,52,0.70891
4486170,-0.04500,60.5000,115,52,0.71282
4486180,-0.06500,59.6875,115,52,0.71600
4486190,-0.08000,59.3125,115,52,0.71551
4486200,-0.09000,58.8750,115,52,0.71380
4486210,-0.09500,58.5000,115,52,0.71062
4486220,-0.09000,57.7500,115,52,0.70012
4486230,-0.08500,57.5000,115,52,0.69328
4486240,-0.09500,57.2500,115,52,0.68571
4486250,-0.05000,57.0000,115,52,0.67717
4486260,0.24000,56.5625,115,52,0.65690
4486270,0.81500,56.2500,115,52,0.64591
4486280,1.09000,55.9375,115,52,0.63468
4486290,0.59000,55.6250,115,52,0.62320
4486300,-0.08500,54.8750,115,52,0.59976
4486310,-0.41500,54.5000,115,52,0.58828
4486320,-0.44000,54.0625,115,52,0.57802
4486330,-0.33000,53.6250,115,52,0.56874
4486340,-0.25500,52.8125,115,52,0.54896
4486350,-0.24000,52.3750,115,52,0.53919
4486360,-0.23000,52.0000,115,52,0.52967
4486370,-0.21000,51.2500,115,52,0.52015
4486380,-0.19000,50.9375,115,52,0.50134
4486390,-0.18500,50.5625,115,52,0.49231
4486400,-0.17500,50.2500,115,52,0.48352
4486410,-0.16500,49.9375,115,52,0.47497
4486420,-0.15500,50.1875,115,52,0.46056
4486430,-0.14500,51.4375,115,52,0.45299
4486440,-0.14000,54.2500,115,52,0.44518
4486450,-0.12500,58.9375,115,52,0.43736
4486460,-0.11000,71.8750,115,52,0.42222
4486470,-0.09000,78.7500,115,52,0.41490
4486480,-0.06500,85.3750,115,52,0.40757
4486490,-0.04000,91.5625,115,52,0.40024
4486500,-0.01500,101.9375,115,52,0.38901
4486510,0.00000,105.9375,115,52,0.38657
4486520,0.02000,109.0000,115,52,0.38291
4486530,0.03000,111.1875,115,52,0.37900
4486540,0.04000,113.3125,115,52,0.36752
4486550,0.04000,113.5000,115,52,0.36142
4486560,0.04500,113.2500,115,52,0.35507
4486570,0.05000,112.5625,115,52,0.34896
4486580,0.05000,110.3750,115,52,0.33675
4486590,0.05500,109.0625,115,52,0.33065
4486600,0.06000,107.5625,115,52,0.32430
4486610,0.06500,106.0000,115,52,0.31819
4486620,0.05500,103.4896,115,52,0.31156
4486630,0.04000,100.9375,115,52,0.30525
4486640,0.01500,99.2500,115,52,0.30012
4486650,-0.01500,97.6250,115,52,0.29499
4486660,-0.03000,94.3125,115,52,0.28474
4486670,-0.04500,92.5625,115,52,0.27961
4486680,-0.04500,90.6875,115,52,0.27473
4486690,-0.04500,88.7500,115,52,0.27009
4486700,-0.04500,84.0625,115,52,0.26325
4486710,-0.05000,81.5000,115,52,0.26252
4486720,-0.05500,79.0000,115,52,0.26447
4486730,-0.05500,76.6875,115,52,0.26960
4486740,-0.05000,73.1250,115,52,0.29206
4486750,-0.04500,71.8125,115,52,0.31013
4486760,-0.04500,70.8125,115,52,0.33236
4486770,-0.05000,69.9375,115,52,0.35824
4486780,-0.06000,68.6875,115,52,0.41807
4486790,-0.07500,68.1875,115,52,0.45006
4486800,-0.08500,67.6875,115,52,0.48230
4486810,-0.10000,67.2500,115,52,0.51429
4486820,-0.10500,66.3125,115,52,0.56606
4486830,-0.10500,65.8125,115,52,0.59219
4486840,-0.09000,65.3750,115,52,0.61783
4486850,-0.07500,64.9375,115,52,0.64200
4486860,-0.04500,64.0625,115,52,0.68376
4486870,0.00000,63.6250,115,52,0.70134
4486880,0.03000,63.1875,115,52,0.71648
4486890,0.02000,62.7500,115,52,0.72918
4486900,-0.02000,61.8125,115,52,0.74799
4486910,-0.06500,61.3750,115,52,0.75287
4486920,-0.09500,60.8750,115,52,0.75531
4486930,-0.12500,60.3750,115,52,0.75726
4486940,-0.15000,59.5000,115,52,0.75800
4486950,-0.15500,59.0625,115,52,0.75604
4486960,-0.15000,58.6250,115,52,0.75263
4486970,-0.15000,57.8125,115,52,0.74799
4486980,-0.15000,57.4375,115,52,0.73455
4486990,-0.15000,57.0625,115,52,0.72601
4487000,-0.14500,56.7500,115,52,0.71648
4487010,-0.15500,56.5000,115,52,0.70623
4487020,-0.16000,56.0625,115,52,0.68596
4487030,0.04500,55.8750,115,52,0.67497
4487040,0.58500,55.6875,115,52,0.66374
4487050,1.06000,55.4375,115,52,0.65226
4487060,0.67000,54.8750,115,52,0.62882
4487070,0.07000,54.5625,115,52,0.61758
4487080,-0.39500,54.2500,115,52,0.60659
4487090,-0.46500,53.8125,115,52,0.59585
4487100,-0.35000,52.9375,115,52,0.57509
4487110,-0.25500,52.5625,115,52,0.56630
4487120,-0.22500,52.1250,115,52,0.55800
4487130,-0.21000,51.7500,115,52,0.54945
4487140,-0.20000,51.0000,115,52,0.53162
4487150,-0.19500,50.6250,115,52,0.52234
4487160,-0.20000,50.2500,115,52,0.51331
4487170,-0.21000,49.9375,115,52,0.50476
4487180,-0.21000,49.3750,115,52,0.48767
4487190,-0.19500,49.3750,115,52,0.47912
4487200,-0.17000,50.0625,115,52,0.47082
4487210,-0.15500,51.9375,115,52,0.46252
4487220,-0.13500,60.9375,115,52,0.44908
4487230,-0.11500,67.5625,115,52,0.44200
4487240,-0.08500,74.6875,115,52,0.43443
4487250,-0.05000,81.7500,115,52,0.42662
4487260,-0.01500,94.4375,115,52,0.41099
4487270,0.01000,99.8125,115,52,0.40366
4487280,0.03000,104.3125,115,52,0.39658
4487290,0.04500,107.9375,115,52,0.38974
4487300,0.05500,112.5000,115,52,0.37656
4487310,0.05000,113.6250,115,52,0.37143
4487320,0.03500,114.1250,115,52,0.36728
4487330,0.03000,114.1250,115,52,0.36215
4487340,0.05000,113.1250,115,52,0.35092
4487350,0.08500,112.1875,115,52,0.34530
4487360,0.12000,111.0625,115,52,0.33944
4487370,0.16500,109.7500,115,52,0.33358
4487380,0.22000,106.6875,115,52,0.32186
4487390,0.25583,105.1250,115,52,0.31600
4487400,0.27500,103.5000,115,52,0.31038
4487410,0.28000,101.8125,115,52,0.30476
4487420,0.25500,98.4375,115,52,0.29719
4487430,0.22500,96.7500,115,52,0.29304
4487440,0.18500,95.0625,115,52,0.28816
4487450,0.14500,93.2500,115,52,0.28327
4487460,0.10000,89.3750,115,52,0.27399
4487470,0.07000,87.1250,115,52,0.27033
4487480,0.03000,84.6250,115,52,0.26813
4487490,0.00000,81.9375,115,52,0.26838
4487500,-0.01500,77.0000,115,52,0.28010
4487510,-0.03000,75.0000,115,52,0.29060
4487520,-0.04500,73.3750,115,52,0.30427
4487530,-0.05500,72.0625,115,52,0.32308
4487540,-0.06500,70.1875,115,52,0.37363
4487550,-0.07000,69.5000,115,52,0.40366
4487560,-0.08500,68.8750,115,52,0.43565
4487570,-0.09500,68.3750,115,52,0.46862
4487580,-0.08500,67.5000,115,52,0.53480
4487590,-0.06500,67.1250,115,52,0.56679
4487600,-0.03500,66.6875,115,52,0.59707
4487610,-0.01500,66.2500,115,52,0.62564
4487620,-0.01000,65.3750,115,52,0.66740
4487630,0.00000,64.8750,115,52,0.68669
4487640,0.12000,64.3750,115,52,0.70476
4487650,0.35166,63.6771,115,52,0.72702
4487660,0.56500,63.0000,115,52,0.74628
4487670,0.63000,62.5625,115,52,0.75531
4487680,0.48000,62.1250,115,52,0.76215
4487690,0.28500,61.6875,115,52,0.76703
4487700,0.24500,60.7500,115,52,0.77167
4487710,0.21500,60.3125,115,52,0.77118
4487720,0.12500,59.8750,115,52,0.76899
4487730,0.02000,59.5000,115,52,0.76606
4487740,-0.08500,58.6250,115,52,0.75751
4487750,-0.19000,58.1875,115,52,0.75116
4487760,-0.30000,57.8125,115,52,0.74383
4487770,-0.42500,57.3750,115,52,0.73504
4487780,-0.51500,56.6250,115,52,0.71477
4487790,-0.52000,56.2500,115,52,0.70354
4487800,-0.46000,56.0000,115,52,0.69182
4487810,-0.40500,55.6875,115,52,0.67961
4487820,-0.23000,55.2500,115,52,0.65763
4487830,0.24500,55.0000,115,52,0.64640
4487840,0.86500,54.7500,115,52,0.63516
4487850,0.89000,54.5000,115,52,0.62418
4487860,0.16500,54.0000,115,52,0.60293
4487870,-0.46000,53.7500,115,52,0.59292
4487880,-0.65500,53.4375,115,52,0.58315
4487890,-0.61000,53.1250,115,52,0.57338
4487900,-0.53000,52.3750,115,52,0.55433
4487910,-0.49500,52.0000,115,52,0.54603
4487920,-0.44000,51.6250,115,52,0.53822
4487930,-0.33500,51.3125,115,52,0.52967
4487940,-0.19000,50.5625,115,52,0.51209
4487950,0.00000,50.1875,115,52,0.50354
4487960,0.22500,49.8750,115,52,0.49499
4487970,0.46500,49.6250,115,52,0.48645
4487980,0.70500,49.5000,115,52,0.46935
4487990,0.87500,50.3750,115,52,0.46105
4488000,0.89000,52.4375,114,51,0.45275
4488010,0.80500,56.3125,114,51,0.44469
4488020,0.65000,68.6875,114,51,0.43150
4488030,0.49500,75.8750,114,51,0.42442
4488040,0.36000,83.0000,114,51,0.41709
4488050,0.23500,95.7500,114,51,0.40977
4488060,0.11000,101.0000,114,51,0.39512
4488070,0.01500,105.3750,114,51,0.38755
4488080,-0.04500,108.8750,114,51,0.38022
4488090,-0.06500,111.3750,114,51,0.37314
4488100,-0.07000,114.0000,114,51,0.35922
4488110,-0.06500,114.3750,114,51,0.35385
4488120,-0.06500,114.2500,114,51,0.34921
4488130,-0.07000,113.8125,114,51,0.34359
4488140,-0.08500,112.1875,114,51,0.33138
4488150,-0.09000,111.0625,114,51,0.32527
4488160,-0.09500,109.7500,114,51,0.31941
4488170,-0.10500,108.3125,114,51,0.31355
4488180,-0.12000,105.3125,114,51,0.30232
4488190,-0.14500,103.6875,114,51,0.29695
4488200,-0.18000,102.0625,114,51,0.29158
4488210,-0.21500,100.4375,114,51,0.28645
4488220,-0.24500,97.1875,114,51,0.28010
4488230,-0.27000,95.5000,114,51,0.27595
4488240,-0.27500,93.7500,114,51,0.27131
4488250,-0.26500,91.8750,114,51,0.26642
4488260,-0.25000,87.5625,114,51,0.25836
4488270,-0.23000,85.1250,114,51,0.25617
4488280,-0.22500,82.5000,114,51,0.25641
4488290,-0.23000,80.0000,114,51,0.26032
4488300,-0.24000,75.7500,114,51,0.28083
4488310,-0.26000,74.1250,114,51,0.29573
4488320,-0.27000,72.7500,114,51,0.31355
4488330,-0.28000,71.6875,114,51,0.33651
4488340,-0.30000,70.1250,114,51,0.39438
4488350,-0.33000,69.5625,114,51,0.42711
4488360,-0.37500,69.0625,114,51,0.46105
4488370,-0.40500,68.6250,114,51,0.49573
4488380,-0.39500,67.8750,114,51,0.56313
4488390,-0.36500,67.3750,114,51,0.59463
4488400,-0.34500,66.9375,114,51,0.62418
4488410,-0.32000,66.5000,114,51,0.65128
4488420,-0.27500,65.6250,114,51,0.68987
4488430,-0.23000,65.1250,114,51,0.70745
4488440,-0.19500,64.6250,114,51,0.72381
4488450,-0.14500,64.1250,114,51,0.73822
4488460,-0.11500,63.1250,114,51,0.75995
4488470,-0.10500,62.5625,114,51,0.76752
4488480,-0.13500,62.0625,114,51,0.77314
4488490,-0.17500,61.5625,114,51,0.77680
4488500,-0.21000,60.6250,114,51,0.77900
4488510,-0.24500,60.1250,114,51,0.77705
4488520,-0.28000,59.6250,114,51,0.77363
4488530,-0.29000,59.1875,114,51,0.76948
4488540,-0.29500,58.2500,114,51,0.75800
4488550,-0.29000,57.8750,114,51,0.74286
4488560,-0.28000,57.4375,114,51,0.72308
4488570,-0.26500,57.0625,114,51,0.70818
4488580,-0.24500,56.3125,114,51,0.68303
4488590,-0.23000,56.0000,114,51,0.67106
4488600,-0.22500,55.7500,114,51,0.65934
4488610,-0.08500,55.5000,114,51,0.64786
4488620,0.41500,55.0625,114,51,0.62686
4488630,1.02000,54.8750,114,51,0.61612
4488640,0.91000,54.6250,114,51,0.60513
4488650,0.14500,54.3750,114,51,0.59389
4488660,-0.44500,53.8125,114,51,0.57192
4488670,-0.59500,53.4479,114,51,0.55954
4488680,-0.47000,53.1250,114,51,0.55116
4488690,-0.34500,52.6875,114,51,0.54115
4488700,-0.30500,51.9375,114,51,0.52161
4488710,-0.28500,51.5625,114,51,0.51306
4488720,-0.26000,51.1250,114,51,0.50525
4488730,-0.24000,50.7500,114,51,0.49695
4488740,-0.22000,50.0625,114,51,0.47985
4488750,-0.20500,49.6875,114,51,0.47106
4488760,-0.20000,49.4375,114,51,0.46227
4488770,-0.18000,49.2500,114,51,0.45372
4488780,-0.16000,50.4375,114,51,0.43663
4488790,-0.13500,52.8125,114,51,0.42833
4488800,-0.10500,57.0000,114,51,0.42002
4488810,-0.07000,62.8125,114,51,0.41319
4488820,-0.03000,76.8750,114,51,0.39976
4488830,0.02000,83.8750,114,51,0.39194
4488840,0.06000,90.3125,114,51,0.38413
4488850,0.10500,96.1250,114,51,0.37656
4488860,0.14000,105.2500,114,51,0.36239
4488870,0.16500,108.5000,114,51,0.35556
4488880,0.19000,110.8125,114,51,0.34896
4488890,0.21500,112.4375,114,51,0.34261
4488900,0.22500,113.6250,114,51,0.33016
4488910,0.23500,113.4375,114,51,0.32552
4488920,0.23500,112.9375,114,51,0.32161
4488930,0.24000,112.0625,114,51,0.31673
4488940,0.25000,109.8125,114,51,0.30647
4488950,0.26500,108.4375,114,51,0.30110
4488960,0.27000,106.9375,114,51,0.29573
4488970,0.26500,105.3750,114,51,0.29060
4488980,0.24500,102.0000,114,51,0.28059
4488990,0.21500,100.3125,114,51,0.27570
4489000,0.17500,98.6250,114,51,0.27082
4489010,0.14500,97.0000,114,51,0.26740
4489020,0.11500,93.6250,114,51,0.26105
4489030,0.09500,91.8750,114,51,0.25665
4489040,0.08000,89.9375,114,51,0.25226
4489050,0.08000,87.8125,114,51,0.24835
4489060,0.08000,82.9375,114,51,0.24322
4489070,0.07500,80.3125,114,51,0.24371
4489080,0.07000,77.8125,114,51,0.24762
4489090,0.06000,75.6250,114,51,0.26154
4489100,0.06000,72.1875,114,51,0.29402
4489110,0.05500,70.9375,114,51,0.32381
4489120,0.04500,69.9375,114,51,0.34945
4489130,0.03000,69.1250,114,51,0.37827
4489140,0.01000,68.0000,114,51,0.44078
4489150,-0.00500,67.6250,114,51,0.47277
4489160,-0.02000,67.1875,114,51,0.50452
4489170,-0.03500,66.8750,114,51,0.53529
4489180,-0.04500,66.1250,114,51,0.59170
4489190,-0.06000,65.7500,114,51,0.61661
4489200,-0.06500,65.3750,114,51,0.63639
4489210,-0.05500,64.9375,114,51,0.65250
4489220,-0.04500,64.0000,114,51,0.68400
4489230,-0.02500,63.5625,114,51,0.69744
4489240,0.00500,63.1250,114,51,0.70867
4489250,0.02500,62.6250,114,51,0.71770
4489260,0.01000,61.6875,114,51,0.72991
4489270,-0.02500,61.1875,114,51,0.73382
4489280,-0.07500,60.6875,114,51,0.73455
4489290,-0.10500,60.1875,114,51,0.73382
4489300,-0.12500,59.1875,114,51,0.72552
4489310,-0.14500,58.6875,114,51,0.72063
4489320,-0.15500,58.2500,114,51,0.71453
4489330,-0.15500,57.8125,114,51,0.70745
4489340,-0.15500,56.9375,114,51,0.68987
4489350,-0.16000,56.5625,114,51,0.67961
4489360,-0.16000,56.1875,114,51,0.66886
4489370,-0.16000,55.8125,114,51,0.65763
4489380,-0.16000,55.3125,114,51,0.63419
4489390,-0.17000,55.1250,114,51,0.62344
4489400,0.00000,54.8750,114,51,0.61319
4489410,0.48500,54.6875,114,51,0.60220
4489420,0.99000,54.3125,114,51,0.58046
4489430,0.83500,54.0625,114,51,0.56996
4489440,0.12500,53.8125,114,51,0.55971
4489450,-0.38000,53.5000,114,51,0.54994
4489460,-0.51000,52.7500,114,51,0.53065
4489470,-0.41500,52.3750,114,51,0.52137
4489480,-0.30500,51.9375,114,51,0.51233
4489490,-0.26500,51.5625,114,51,0.50330
4489500,-0.25500,50.8125,114,51,0.48864
4489510,-0.24500,50.4375,114,51,0.48083
4489520,-0.24000,50.0625,114,51,0.47277
4489530,-0.23000,49.7500,114,51,0.46471
4489540,-0.21500,49.0625,114,51,0.44860
4489550,-0.20000,48.7500,114,51,0.44078
4489560,-0.18000,48.5625,114,51,0.43272
4489570,-0.15500,48.8750,114,51,0.42491
4489580,-0.15000,52.7500,114,51,0.40952
4489590,-0.15000,57.1875,114,51,0.40342
4489600,-0.14500,63.0625,114,51,0.39805
4489610,-0.12500,69.7500,114,51,0.39194
4489620,-0.10500,83.1250,114,51,0.37924
4489630,-0.09000,89.2500,114,51,0.37289
4489640,-0.07000,94.6875,114,51,0.36679
4489650,-0.05500,99.3750,114,51,0.36068
4489660,-0.04000,106.3125,114,51,0.34847
4489670,-0.02500,108.5000,114,51,0.34237
4489680,-0.00500,109.9375,114,51,0.33651
4489690,0.00500,110.6875,114,51,0.33065
4489700,0.00917,110.5208,114,51,0.32422
4489710,0.01000,109.7500,114,51,0.31819
4489720,0.01000,108.6875,114,51,0.31355
4489730,0.01000,107.4375,114,51,0.30867
4489740,0.01000,104.5000,114,51,0.29890
4489750,0.01000,102.8125,114,51,0.29377
4489760,0.00500,101.1250,114,51,0.28864
4489770,-0.00500,99.4375,114,51,0.28376
4489780,-0.02500,96.0625,114,51,0.27424
4489790,-0.05000,94.3125,114,51,0.27106
4489800,-0.07500,92.6250,114,51,0.26838
4489810,-0.09500,90.8750,114,51,0.26471
4489820,-0.10500,87.1875,114,51,0.25714
4489830,-0.09500,85.1250,114,51,0.25397
4489840,-0.07500,82.8750,114,51,0.25226
4489850,-0.06000,80.4375,114,51,0.25299
4489860,-0.04000,75.6875,114,51,0.26545
4489870,-0.02000,73.6250,114,51,0.27790
4489880,-0.00500,71.9375,114,51,0.29475
4489890,0.01000,70.5625,114,51,0.31575
4489900,0.01500,68.5625,114,51,0.35971
4489910,0.02000,67.8750,114,51,0.38632
4489920,0.01000,67.3125,114,51,0.41514
4489930,0.01000,66.3750,114,51,0.44518
4489940,0.01000,66.0000,114,51,0.51941
4489950,0.01500,65.5625,114,51,0.54725
4489960,0.01000,65.1875,114,51,0.58632
4489970,0.01000,64.7500,114,51,0.60952
4489980,0.00500,63.9375,114,51,0.64640
4489990,0.00500,63.5000,114,51,0.65885
4490000,0.01000,63.0625,114,51,0.67131
4490010,0.02000,62.6250,114,51,0.68254
4490020,0.03500,61.7500,114,51,0.70305
4490030,0.07000,61.2500,114,51,0.70818
4490040,0.09500,60.8125,114,51,0.71160
4490050,0.09000,60.3750,114,51,0.71404
4490060,0.05000,59.4375,114,51,0.71111
4490070,0.00000,59.0000,114,51,0.70720
4490080,-0.03500,58.5625,114,51,0.70208
4490090,-0.06500,58.1250,114,51,0.69597
4490100,-0.08500,57.3125,114,51,0.68083
4490110,-0.09500,56.8750,114,51,0.67204
4490120,-0.09500,56.5000,114,51,0.66227
4490130,-0.09500,56.1875,114,51,0.65201
4490140,-0.10500,55.5000,114,51,0.63028
4490150,-0.10500,55.1875,114,51,0.61954
4490160,-0.09500,54.8750,114,51,0.60879
4490170,-0.09500,54.6250,114,51,0.59805
4490180,-0.11000,54.2500,114,51,0.57949
4490190,0.10000,54.1250,114,51,0.56996
4490200,0.49000,53.9375,114,51,0.56044
4490210,1.03500,53.8125,114,51,0.55092
4490220,0.92500,53.3125,114,51,0.53284
4490230,0.24500,53.0000,114,51,0.52405
4490240,-0.28000,52.6250,114,51,0.51526
4490250,-0.44500,52.3125,114,51,0.50647
4490260,-0.36500,51.5625,114,51,0.48889
4490270,-0.25000,51.1875,114,51,0.48034
4490280,-0.21000,50.8125,114,51,0.47326
4490290,-0.20000,50.4375,114,51,0.46691
4490300,-0.19000,49.6875,114,51,0.45201
4490310,-0.18000,49.3125,114,51,0.44420
4490320,-0.17000,49.0000,114,51,0.43663
4490330,-0.15500,48.6250,114,51,0.42906
4490340,-0.15000,48.0000,114,51,0.41441
4490350,-0.13500,47.8750,114,51,0.40733
4490360,-0.12500,48.2500,114,51,0.40000
4490370,-0.12000,49.5625,114,51,0.39292
4490380,-0.12500,57.0625,114,51,0.38193
4490390,-0.12000,63.0625,114,51,0.37558
4490400,-0.11000,69.7500,114,51,0.36899
4490410,-0.09000,76.5000,114,51,0.36239
4490420,-0.06500,88.8750,114,51,0.34945
4490430,-0.04000,94.2500,114,51,0.34310
4490440,-0.01500,98.8750,114,51,0.33700
4490450,0.01000,102.7500,114,51,0.33114
4490460,0.03000,107.8750,114,51,0.32015
4490470,0.04000,109.2500,114,51,0.31477
4490480,0.05000,110.0625,114,51,0.31087
4490490,0.05500,110.2500,114,51,0.30769
4490500,0.06000,109.3125,114,51,0.29841
4490510,0.06000,108.3125,114,51,0.29328
4490520,0.06500,107.1250,114,51,0.28816
4490530,0.08000,105.7500,114,51,0.28303
4490540,0.08000,102.6875,114,51,0.27350
4490550,0.08000,101.0625,114,51,0.26886
4490560,0.07000,99.4375,114,51,0.26422
4490570,0.05500,97.7500,114,51,0.26203
4490580,0.03000,94.5000,114,51,0.26178
4490590,0.01000,92.8125,114,51,0.25934
4490600,-0.01000,91.1250,114,51,0.25665
4490610,-0.02000,89.3750,114,51,0.25446
4490620,-0.02500,85.5000,114,51,0.25470
4490630,-0.02000,83.2500,114,51,0.25910
4490640,-0.01500,80.8125,114,51,0.26764
4490650,-0.01500,78.3125,114,51,0.28059
4490660,-0.01500,73.8125,114,51,0.31966
4490670,-0.02000,72.0625,114,51,0.34139
4490680,-0.02000,70.6875,114,51,0.36435
4490690,-0.02000,69.5625,114,51,0.39145
4490700,-0.02500,67.8750,114,51,0.45153
4490710,-0.02500,67.2500,114,51,0.48230
4490720,-0.02833,66.7813,114,51,0.50814
4490730,-0.03500,66.2500,114,51,0.54164
4490740,-0.04500,65.4375,114,51,0.59536
4490750,-0.04500,65.0000,114,51,0.61929
4490760,-0.04500,64.6250,114,51,0.64127
4490770,-0.05000,64.1875,114,51,0.66081
4490780,-0.05500,63.3750,114,51,0.68620
4490790,-0.05500,63.0000,114,51,0.69695
4490800,-0.05000,62.5625,114,51,0.70623
4490810,-0.04500,62.1250,114,51,0.71404
4490820,-0.02000,61.2500,114,51,0.72430
4490830,0.02000,60.8125,114,51,0.72698
4490840,0.05000,60.3125,114,51,0.72821
4490850,0.04500,59.8750,114,51,0.72796
4490860,0.00500,58.9375,114,51,0.72308
4490870,-0.03500,58.5000,114,51,0.71868
4490880,-0.06500,58.0625,114,51,0.71306
4490890,-0.09500,57.6250,114,51,0.70647
4490900,-0.11500,56.7500,114,51,0.69109
4490910,-0.12500,56.3125,114,51,0.68205
4490920,-0.12500,55.9375,114,51,0.67228
4490930,-0.12500,55.5625,114,51,0.66203
4490940,-0.12500,54.8125,114,51,0.64103
4490950,-0.12500,54.5625,114,51,0.63077
4490960,-0.11500,54.3125,114,51,0.62027
4490970,-0.11500,54.1250,114,51,0.61001
4490980,-0.11000,53.7500,114,51,0.59170
4490990,0.07000,53.5625,114,51,0.58217
4491000,0.58000,53.3750,114,51,0.57265
4491010,1.07000,53.1875,114,51,0.56337
4491020,0.84500,52.6875,114,51,0.54554
