RelativeTimeMilliseconds,ECG,ART,ART (Sys),ART (Dia),PPG
4800000,-0.07000,55.9375,104,49,0.70745
4800010,-0.08500,55.5625,104,49,0.70403
4800020,-0.11000,54.7500,104,49,0.69328
4800030,-0.12000,54.3750,104,49,0.68645
4800040,-0.12000,53.9375,104,49,0.67839
4800050,-0.11500,53.4375,104,49,0.66960
4800060,-0.12000,52.5000,104,49,0.64982
4800070,-0.12000,52.1875,104,49,0.63907
4800080,-0.12000,51.9375,104,49,0.62808
4800090,-0.11500,51.8125,104,49,0.61709
4800100,-0.11500,51.6875,104,49,0.59536
4800110,-0.10583,51.7292,104,49,0.58319
4800120,0.08000,51.8125,104,49,0.57534
4800130,0.61000,51.8125,104,49,0.56654
4800140,1.08500,51.5625,104,49,0.54799
4800150,0.86500,51.3750,104,49,0.53895
4800160,0.00500,51.1875,104,49,0.53016
4800170,-0.34000,50.8750,104,49,0.52161
4800180,-0.44500,50.2500,104,49,0.50525
4800190,-0.34500,49.8750,104,49,0.49744
4800200,-0.25000,49.5000,104,49,0.48987
4800210,-0.22000,49.1250,104,49,0.48254
4800220,-0.21000,48.3125,104,49,0.47057
4800230,-0.19500,47.9375,104,49,0.46422
4800240,-0.18500,47.5000,104,49,0.45739
4800250,-0.18000,47.1250,104,49,0.45055
4800260,-0.17500,46.3125,104,49,0.43712
4800270,-0.17000,45.9375,104,49,0.43053
4800280,-0.16000,45.6250,104,49,0.42418
4800290,-0.15000,45.4375,104,49,0.41783
4800300,-0.14500,46.4375,104,49,0.40537
4800310,-0.13500,48.4375,104,49,0.39927
4800320,-0.12500,51.8125,104,49,0.39438
4800330,-0.11000,56.2500,104,49,0.38999
4800340,-0.09500,66.4375,104,49,0.37949
4800350,-0.08000,71.5625,104,49,0.37387
4800360,-0.06500,76.6250,104,49,0.36825
4800370,-0.05000,81.3750,104,49,0.36264
4800380,-0.03000,89.5000,104,49,0.35189
4800390,-0.01000,92.8125,104,49,0.34676
4800400,0.01000,95.5000,104,49,0.34188
4800410,0.02000,97.6250,104,49,0.33700
4800420,0.03000,100.1250,104,49,0.33065
4800430,0.03500,100.6250,104,49,0.32674
4800440,0.03500,100.6875,104,49,0.32259
4800450,0.04000,100.4375,104,49,0.31844
4800460,0.05000,99.0000,104,49,0.30965
4800470,0.06500,97.9375,104,49,0.30501
4800480,0.08000,96.6875,104,49,0.30037
4800490,0.08500,95.3750,104,49,0.29597
4800500,0.07000,92.6250,104,49,0.28718
4800510,0.05000,91.1875,104,49,0.28303
4800520,0.01500,89.7500,104,49,0.28010
4800530,-0.00500,88.3125,104,49,0.27790
4800540,-0.02500,85.3750,104,49,0.27106
4800550,-0.03500,83.8750,104,49,0.26716
4800560,-0.03500,82.3125,104,49,0.26374
4800570,-0.03500,80.6250,104,49,0.26081
4800580,-0.03500,76.8125,104,49,0.25861
4800590,-0.03000,74.6875,104,49,0.26105
4800600,-0.03000,72.6250,104,49,0.26642
4800610,-0.03000,70.6875,104,49,0.27570
4800620,-0.03000,67.5625,104,49,0.30183
4800630,-0.02500,66.4375,104,49,0.32112
4800640,-0.02500,65.4375,104,49,0.34432
4800650,-0.02500,64.6250,104,49,0.37070
4800660,-0.03500,63.3125,104,49,0.42955
4800670,-0.04000,62.7500,104,49,0.46007
4800680,-0.04500,62.3125,104,49,0.49060
4800690,-0.04500,61.8750,104,49,0.52063
4800700,-0.05500,61.1875,104,49,0.57607
4800710,-0.05500,60.8125,104,49,0.60098
4800720,-0.06000,60.5000,104,49,0.62076
4800730,-0.06000,59.8125,104,49,0.65348
4800740,-0.05500,59.5000,104,49,0.66911
4800750,-0.04500,59.1250,104,49,0.68303
4800760,-0.04000,58.8125,104,49,0.69499
4800770,-0.02500,58.4375,104,49,0.70525
4800780,-0.00500,57.8125,104,49,0.72015
4800790,0.00000,57.5000,104,49,0.72479
4800800,-0.00500,57.1250,104,49,0.72772
4800810,-0.02500,56.4375,104,49,0.72894
4800820,-0.04500,56.1250,104,49,0.72552
4800830,-0.06500,55.7500,104,49,0.72259
4800840,-0.08500,55.3750,104,49,0.71893
4800850,-0.10500,55.0000,104,49,0.71404
4800860,-0.11000,54.3750,104,49,0.70061
4800870,-0.11000,54.0000,104,49,0.69231
4800880,-0.10500,53.6875,104,49,0.68303
4800890,-0.10500,53.3750,104,49,0.67302
4800900,-0.10500,52.8750,104,49,0.65104
4800910,-0.10500,52.6250,104,49,0.63980
4800920,-0.10000,52.4375,104,49,0.62930
4800930,-0.11000,52.0625,104,49,0.61929
4800940,-0.04500,51.8750,104,49,0.59829
4800950,0.29000,51.6875,104,49,0.58779
4800960,0.89500,51.4375,104,49,0.57753
4800970,1.11500,51.1875,104,49,0.56728
4800980,0.54500,50.6875,104,49,0.54823
4800990,-0.12500,50.3125,104,49,0.53895
4801000,-0.41500,50.0000,104,49,0.52991
4801010,-0.40500,49.6875,104,49,0.52112
4801020,-0.29000,49.1250,104,49,0.50647
4801030,-0.23000,48.8125,104,49,0.49915
4801040,-0.22000,48.5000,104,49,0.49158
4801050,-0.20500,48.1875,104,49,0.48400
4801060,-0.19500,47.5000,104,49,0.46862
4801070,-0.18500,47.1875,104,49,0.46129
4801080,-0.18500,46.8750,104,49,0.45397
4801090,-0.18000,46.6250,104,49,0.44689
4801100,-0.18000,46.1250,104,49,0.43346
4801110,-0.16500,46.0000,104,49,0.42686
4801120,-0.15500,46.1875,104,49,0.42149
4801130,-0.14500,47.1250,104,49,0.41636
4801140,-0.14000,52.5000,104,49,0.40464
4801150,-0.12500,57.0625,104,49,0.39853
4801160,-0.11000,62.1875,104,49,0.39219
4801170,-0.09000,67.5000,104,49,0.38608
4801180,-0.07000,77.9375,104,49,0.37411
4801190,-0.05000,82.8750,104,49,0.36825
4801200,-0.03500,87.3125,104,49,0.36264
4801210,-0.01500,91.3125,104,49,0.35726
4801220,0.00500,97.4375,104,49,0.34969
4801230,0.02000,99.5625,104,49,0.34554
4801240,0.03000,101.0000,104,49,0.34090
4801250,0.03000,101.8750,104,49,0.33602
4801260,0.03000,102.3125,104,49,0.32625
4801270,0.03000,102.0625,104,49,0.32137
4801280,0.03000,101.5000,104,49,0.31673
4801290,0.04000,100.6875,104,49,0.31209
4801300,0.05000,98.5625,104,49,0.30330
4801310,0.06000,97.2500,104,49,0.29915
4801320,0.05500,95.8750,104,49,0.29621
4801330,0.04500,94.4375,104,49,0.29377
4801340,0.02000,91.4375,104,49,0.28669
4801350,0.00000,89.9375,104,49,0.28278
4801360,-0.01500,88.3750,104,49,0.27888
4801370,-0.03000,86.8750,104,49,0.27473
4801380,-0.04000,83.8125,104,49,0.26716
4801390,-0.04000,82.1875,104,49,0.26398
4801400,-0.04000,80.5000,104,49,0.26203
4801410,-0.04000,78.5625,104,49,0.26178
4801420,-0.04000,74.4375,104,49,0.26862
4801430,-0.03500,72.3750,104,49,0.27643
4801440,-0.03500,70.5625,104,49,0.28791
4801450,-0.04000,69.0000,104,49,0.30354
4801460,-0.04500,66.6250,104,49,0.34701
4801470,-0.04500,65.8125,104,49,0.37387
4801480,-0.05000,65.0625,104,49,0.40293
4801490,-0.04500,64.5000,104,49,0.43346
4801500,-0.04500,63.4375,104,49,0.49499
4801510,-0.05000,63.0000,104,49,0.52479
4801520,-0.05500,62.6250,104,49,0.54969
4801530,-0.05500,62.3125,104,49,0.57167
4801540,-0.05500,61.7500,104,49,0.61758
4801550,-0.05500,61.3750,104,49,0.63883
4801560,-0.05500,61.0625,104,49,0.65861
4801570,-0.05500,60.7500,104,49,0.67595
4801580,-0.04500,60.1875,104,49,0.70379
4801590,-0.03000,59.8750,104,49,0.71429
4801600,-0.01000,59.4375,104,49,0.72283
4801610,0.00000,59.0625,104,49,0.72943
4801620,0.00500,58.2500,104,49,0.73431
4801630,-0.01500,57.9375,104,49,0.73553
4801640,-0.04500,57.5625,104,49,0.73578
4801650,-0.06500,57.2500,104,49,0.73504
4801660,-0.08000,56.6250,104,49,0.72991
4801670,-0.10000,56.3125,104,49,0.72552
4801680,-0.11000,55.9375,104,49,0.71990
4801690,-0.10500,55.5625,104,49,0.71331
4801700,-0.10500,54.8750,104,49,0.69646
4801710,-0.10500,54.5000,104,49,0.68669
4801720,-0.10500,54.1250,104,49,0.67668
4801730,-0.10500,53.7500,104,49,0.66667
4801740,-0.10000,53.2500,104,49,0.64469
4801750,-0.10500,53.0625,104,49,0.63321
4801760,-0.09000,52.9375,104,49,0.62173
4801770,0.12000,52.7500,104,49,0.61026
4801780,0.67000,52.2500,104,49,0.58828
4801790,1.12500,52.0000,104,49,0.57753
4801800,0.82000,51.6875,104,49,0.56728
4801810,0.10000,51.3750,104,49,0.55727
4801820,-0.34000,50.6875,104,49,0.54066
4801830,-0.42500,50.3750,104,49,0.53236
4801840,-0.31500,50.0625,104,49,0.52405
4801850,-0.23000,49.7500,104,49,0.51575
4801860,-0.21000,49.1250,104,49,0.49988
4801870,-0.20000,48.7500,104,49,0.49231
4801880,-0.19000,48.4375,104,49,0.48474
4801890,-0.18000,48.0625,104,49,0.47766
4801900,-0.18000,47.4375,104,49,0.46349
4801910,-0.17500,47.1250,104,49,0.45714
4801920,-0.17000,46.8750,104,49,0.45153
4801930,-0.17000,46.6250,104,49,0.44493
4801940,-0.16000,46.8750,104,49,0.43101
4801950,-0.14500,47.8125,104,49,0.42418
4801960,-0.13500,50.0000,104,49,0.41758
4801970,-0.12000,53.5000,104,49,0.41099
4801980,-0.10500,63.3125,104,49,0.39805
4801990,-0.09000,68.6875,104,49,0.39170
4802000,-0.07500,74.0000,104,48,0.38535
4802010,-0.06000,79.1250,104,48,0.37924
4802020,-0.04500,88.2500,104,48,0.37045
4802030,-0.02500,92.1250,104,48,0.36557
4802040,-0.00500,95.4375,104,48,0.36044
4802050,0.01000,98.1875,104,48,0.35507
4802060,0.03000,101.8125,104,48,0.34457
4802070,0.03500,102.7500,104,48,0.33919
4802080,0.03500,103.2500,104,48,0.33407
4802090,0.03500,103.3125,104,48,0.32894
4802100,0.04000,102.4375,104,48,0.31868
4802110,0.04500,101.6250,104,48,0.31502
4802120,0.05500,100.6250,104,48,0.31209
4802130,0.07000,99.5000,104,48,0.30842
4802140,0.07000,96.9375,104,48,0.29988
4802150,0.06500,95.5625,104,48,0.29573
4802160,0.04500,94.4063,104,48,0.29214
4802170,0.02000,92.7500,104,48,0.28694
4802180,0.00000,89.8750,104,48,0.27790
4802190,-0.01000,88.4375,104,48,0.27326
4802200,-0.01500,87.0000,104,48,0.26862
4802210,-0.01500,85.5000,104,48,0.26422
4802220,-0.02000,82.1875,104,48,0.26081
4802230,-0.02000,80.2500,104,48,0.26056
4802240,-0.02000,78.1250,104,48,0.26203
4802250,-0.02000,75.8750,104,48,0.26642
4802260,-0.01500,71.5625,104,48,0.28718
4802270,-0.01500,69.8125,104,48,0.30427
4802280,-0.02500,68.4375,104,48,0.32576
4802290,-0.02500,66.3125,104,48,0.37924
4802300,-0.02500,65.4375,104,48,0.40977
4802310,-0.02500,64.7500,104,48,0.43736
4802320,-0.03000,64.1250,104,48,0.46349
4802330,-0.04000,63.6250,104,48,0.49255
4802340,-0.05000,62.7500,104,48,0.55189
4802350,-0.05500,62.3750,104,48,0.57998
4802360,-0.06500,62.0625,104,48,0.60635
4802370,-0.06500,61.6875,104,48,0.63077
4802380,-0.06500,61.0000,104,48,0.67302
4802390,-0.06500,60.7500,104,48,0.69084
4802400,-0.06500,60.4375,104,48,0.70623
4802410,-0.05500,60.1250,104,48,0.71941
4802420,-0.04000,59.4375,104,48,0.73455
4802430,-0.02500,59.0625,104,48,0.74017
4802440,-0.02000,58.7500,104,48,0.74505
4802450,-0.02000,58.4375,104,48,0.74847
4802460,-0.04000,57.7500,104,48,0.75067
4802470,-0.06500,57.3750,104,48,0.74969
4802480,-0.08000,57.0000,104,48,0.74750
4802490,-0.10000,56.6875,104,48,0.74383
4802500,-0.11500,55.9375,104,48,0.73260
4802510,-0.12500,55.6250,104,48,0.72527
4802520,-0.12500,55.2500,104,48,0.71697
4802530,-0.12500,54.8750,104,48,0.70769
4802540,-0.12000,54.2500,104,48,0.68669
4802550,-0.11500,53.9375,104,48,0.67521
4802560,-0.10500,53.6875,104,48,0.66325
4802570,-0.09500,53.4375,104,48,0.65104
4802580,-0.10500,52.9375,104,48,0.62637
4802590,-0.06000,52.7500,104,48,0.61441
4802600,0.27500,52.6250,104,48,0.60293
4802610,0.89000,52.3750,104,48,0.59145
4802620,1.13500,51.8750,104,48,0.57216
4802630,0.60500,51.6250,104,48,0.56264
4802640,-0.10500,51.3125,104,48,0.55287
4802650,-0.42500,51.0000,104,48,0.54335
4802660,-0.40500,50.3125,104,48,0.52454
4802670,-0.29000,50.0000,104,48,0.51551
4802680,-0.23000,49.6875,104,48,0.50672
4802690,-0.22000,49.3750,104,48,0.49817
4802700,-0.21500,48.6875,104,48,0.48181
4802710,-0.20500,48.4375,104,48,0.47497
4802720,-0.20000,48.1250,104,48,0.46862
4802730,-0.20000,47.8750,104,48,0.46178
4802740,-0.19500,47.3125,104,48,0.44762
4802750,-0.18000,47.0625,104,48,0.44054
4802760,-0.16500,46.9375,104,48,0.43370
4802770,-0.15500,47.0000,104,48,0.42662
4802780,-0.14000,49.5000,104,48,0.41294
4802790,-0.13000,52.5625,104,48,0.40610
4802800,-0.11500,56.9375,104,48,0.39927
4802810,-0.10000,62.0625,104,48,0.39243
4802820,-0.08500,73.0000,104,48,0.38242
4802830,-0.06500,78.3125,104,48,0.37705
4802840,-0.05000,83.2500,104,48,0.37143
4802850,-0.03000,87.8125,104,48,0.36557
4802860,-0.01500,95.3750,104,48,0.35433
4802870,0.00000,98.3125,104,48,0.34872
4802880,0.01500,100.6250,104,48,0.34335
4802890,0.02500,102.3125,104,48,0.33797
4802900,0.03000,104.0000,104,48,0.32723
4802910,0.03000,104.1875,104,48,0.32332
4802920,0.03000,104.0625,104,48,0.32015
4802930,0.03000,103.6250,104,48,0.31600
4802940,0.03500,102.0000,104,48,0.30720
4802950,0.04500,100.8750,104,48,0.30256
4802960,0.05500,99.6250,104,48,0.29792
4802970,0.06000,98.2500,104,48,0.29353
4802980,0.04500,95.3750,104,48,0.28498
4802990,0.02500,93.8750,104,48,0.28083
4803000,0.00000,92.4375,104,48,0.27668
4803010,-0.01500,90.9375,104,48,0.27253
4803020,-0.03000,88.0000,104,48,0.26764
4803030,-0.03500,86.5000,104,48,0.26471
4803040,-0.03500,84.9375,104,48,0.26154
4803050,-0.03500,83.2500,104,48,0.25885
4803060,-0.03500,79.3750,104,48,0.25812
4803070,-0.03000,77.2500,104,48,0.26178
4803080,-0.03000,75.0000,104,48,0.26935
4803090,-0.02500,73.0000,104,48,0.28132
4803100,-0.02000,69.6875,104,48,0.31844
4803110,-0.02000,68.4375,104,48,0.33993
4803120,-0.02000,67.4375,104,48,0.36288
4803130,-0.02000,66.5625,104,48,0.39072
4803140,-0.02500,65.1250,104,48,0.45348
4803150,-0.02500,64.6250,104,48,0.48596
4803160,-0.03500,64.1875,104,48,0.51795
4803170,-0.03500,63.7500,104,48,0.54896
4803180,-0.03666,63.2083,104,48,0.59141
4803190,-0.04000,62.6875,104,48,0.63126
4803200,-0.04500,62.3125,104,48,0.65446
4803210,-0.05000,62.0000,104,48,0.67546
4803220,-0.04500,61.3125,104,48,0.70379
4803230,-0.03500,61.0000,104,48,0.71624
4803240,-0.02000,60.6875,104,48,0.72772
4803250,0.00000,60.3750,104,48,0.73724
4803260,0.01000,59.6875,104,48,0.75116
4803270,0.01500,59.3750,104,48,0.75531
4803280,-0.00500,59.0625,104,48,0.75775
4803290,-0.03500,58.6875,104,48,0.75873
4803300,-0.05000,57.9375,104,48,0.75629
4803310,-0.07500,57.5625,104,48,0.75263
4803320,-0.09500,57.1875,104,48,0.74774
4803330,-0.10500,56.8125,104,48,0.74212
4803340,-0.10000,56.1250,104,48,0.72821
4803350,-0.09500,55.7500,104,48,0.71966
4803360,-0.09000,55.3750,104,48,0.70989
4803370,-0.08500,55.0625,104,48,0.69915
4803380,-0.07500,54.4375,104,48,0.67595
4803390,-0.06500,54.1875,104,48,0.66374
4803400,-0.07500,53.9375,104,48,0.65153
4803410,0.00000,53.6875,104,48,0.63956
4803420,0.40500,53.1250,104,48,0.61807
4803430,1.05500,52.9375,104,48,0.60708
4803440,1.19500,52.6875,104,48,0.59609
4803450,0.56500,52.4375,104,48,0.58510
4803460,-0.14000,51.9375,104,48,0.56410
4803470,-0.42000,51.6250,104,48,0.55409
4803480,-0.35500,51.3125,104,48,0.54432
4803490,-0.23000,51.0000,104,48,0.53504
4803500,-0.19000,50.3125,104,48,0.51722
4803510,-0.18000,50.0000,104,48,0.50965
4803520,-0.18000,49.6250,104,48,0.50256
4803530,-0.17000,49.3125,104,48,0.49499
4803540,-0.16500,48.7500,104,48,0.47985
4803550,-0.17000,48.5000,104,48,0.47253
4803560,-0.17000,48.1875,104,48,0.46520
4803570,-0.17000,47.9375,104,48,0.45763
4803580,-0.16500,47.7500,104,48,0.44274
4803590,-0.16000,48.2500,104,48,0.43516
4803600,-0.15500,49.6250,104,48,0.42784
4803610,-0.14500,52.3750,104,48,0.42076
4803620,-0.13500,61.5625,104,48,0.41001
4803630,-0.11500,67.1250,104,48,0.40415
4803640,-0.09500,72.7500,104,48,0.39780
4803650,-0.07500,78.3125,104,48,0.39121
4803660,-0.06000,88.3125,104,48,0.37851
4803670,-0.04000,92.6875,104,48,0.37216
4803680,-0.02500,96.4375,104,48,0.36606
4803690,-0.01000,99.5000,104,48,0.36020
4803700,0.00000,103.6875,104,48,0.34896
4803710,0.01000,104.8125,104,48,0.34481
4803720,0.02000,105.5000,104,48,0.34139
4803730,0.02000,105.6875,104,48,0.33724
4803740,0.02000,105.1250,104,48,0.32772
4803750,0.02500,104.3750,104,48,0.32259
4803760,0.03000,103.4375,104,48,0.31770
4803770,0.04000,102.3750,104,48,0.31282
4803780,0.05000,99.7500,104,48,0.30330
4803790,0.04000,98.3125,104,48,0.29890
4803800,0.03000,96.8125,104,48,0.29451
4803810,0.01000,93.8125,104,48,0.29109
4803820,-0.01000,92.3125,104,48,0.28498
4803830,-0.02500,90.8125,104,48,0.28107
4803840,-0.04000,89.3125,104,48,0.27692
4803850,-0.05000,87.8125,104,48,0.27253
4803860,-0.05500,84.6875,104,48,0.26545
4803870,-0.05500,82.9375,104,48,0.26349
4803880,-0.05500,81.0000,104,48,0.26349
4803890,-0.05500,78.9375,104,48,0.26642
4803900,-0.05500,74.7500,104,48,0.28376
4803910,-0.05500,72.8750,104,48,0.29670
4803920,-0.05000,71.2500,104,48,0.31282
4803930,-0.05000,68.7500,104,48,0.35800
4803940,-0.05000,67.7500,104,48,0.38413
4803950,-0.05000,66.9375,104,48,0.41368
4803960,-0.05500,66.3125,104,48,0.44493
4803970,-0.06000,65.6875,104,48,0.47692
4803980,-0.06500,64.8125,104,48,0.53968
4803990,-0.06500,64.5000,104,48,0.56923
4804000,-0.07000,64.1875,104,48,0.59731
4804010,-0.07500,63.8750,104,48,0.61978
4804020,-0.07500,63.2500,104,48,0.65861
4804030,-0.07000,62.9375,104,48,0.67717
4804040,-0.06500,62.5625,104,48,0.69426
4804050,-0.05500,62.1875,104,48,0.70916
4804060,-0.03000,61.5000,104,48,0.73236
4804070,-0.01500,61.1875,104,48,0.74042
4804080,0.00000,60.8125,104,48,0.74896
4804090,-0.01500,60.4375,104,48,0.75263
4804100,-0.04000,59.6250,104,48,0.75458
4804110,-0.06500,59.2500,104,48,0.75214
4804120,-0.08500,58.8125,104,48,0.74896
4804130,-0.10500,58.4375,104,48,0.74530
4804140,-0.10500,57.6250,104,48,0.73431
4804150,-0.10500,57.2500,104,48,0.72698
4804160,-0.09500,56.8750,104,48,0.71868
4804170,-0.09500,56.5000,104,48,0.70940
4804180,-0.09500,55.8125,104,48,0.68791
4804190,-0.08500,55.5000,104,48,0.67619
4804200,-0.07500,55.1875,104,48,0.66520
4804210,-0.12583,54.8229,104,48,0.64811
4804220,-0.07500,54.5000,104,48,0.63077
4804230,0.24000,54.3125,104,48,0.61905
4804240,0.89000,54.0625,104,48,0.60757
4804250,1.23000,53.8125,104,48,0.59634
4804260,0.74000,53.3750,104,48,0.57436
4804270,-0.07000,53.1250,104,48,0.56386
4804280,-0.46500,52.9375,104,48,0.55360
4804290,-0.43500,52.6250,104,48,0.54359
4804300,-0.30000,52.0625,104,48,0.52552
4804310,-0.24500,51.6875,104,48,0.51770
4804320,-0.24000,51.3750,104,48,0.50940
4804330,-0.23000,50.7500,104,48,0.50110
4804340,-0.21000,50.4375,104,48,0.48498
4804350,-0.20000,50.1250,104,48,0.47692
4804360,-0.19500,49.7500,104,48,0.46886
4804370,-0.19500,49.4375,104,48,0.46105
4804380,-0.19000,48.8125,104,48,0.44567
4804390,-0.18500,48.6875,104,48,0.43834
4804400,-0.17500,48.9375,104,48,0.43199
4804410,-0.17000,50.0000,104,48,0.42637
4804420,-0.16000,55.8750,104,48,0.41343
4804430,-0.15500,60.6875,104,48,0.40659
4804440,-0.13500,66.1875,104,48,0.39976
4804450,-0.12000,71.8750,104,48,0.39292
4804460,-0.10000,82.8750,104,48,0.37998
4804470,-0.07500,87.8750,104,48,0.37363
4804480,-0.05500,92.3125,104,48,0.36728
4804490,-0.03500,96.2500,104,48,0.36093
4804500,-0.01500,102.0000,104,48,0.35018
4804510,0.00000,103.8750,104,48,0.34628
4804520,0.01000,105.1250,104,48,0.34139
4804530,0.01500,105.8125,104,48,0.33626
4804540,0.02000,105.8750,104,48,0.32576
4804550,0.03000,105.3750,104,48,0.32063
4804560,0.04000,104.6250,104,48,0.31551
4804570,0.04500,103.6875,104,48,0.31038
4804580,0.06000,101.3750,104,48,0.30061
4804590,0.07000,100.0625,104,48,0.29597
4804600,0.07000,98.6250,104,48,0.29255
4804610,0.06500,97.1875,104,48,0.28987
4804620,0.05000,94.2500,104,48,0.28205
4804630,0.02500,92.7500,104,48,0.27766
4804640,0.01000,91.2500,104,48,0.27326
4804650,-0.00500,89.7500,104,48,0.26886
4804660,-0.01500,86.6875,104,48,0.26081
4804670,-0.01500,85.0000,104,48,0.25812
4804680,-0.01500,83.1875,104,48,0.25739
4804690,-0.02000,79.0000,104,48,0.25910
4804700,-0.02000,76.7500,104,48,0.27204
4804710,-0.01500,74.6250,104,48,0.28303
4804720,-0.01500,72.6875,104,48,0.29866
4804730,-0.01000,71.0000,104,48,0.31868
4804740,-0.01500,68.4375,104,48,0.37045
4804750,-0.02500,67.4375,104,48,0.40073
4804760,-0.03000,66.6250,104,48,0.43248
4804770,-0.03500,65.9375,104,48,0.46496
4804780,-0.04000,64.9375,104,48,0.52845
4804790,-0.04500,64.5625,104,48,0.55824
4804800,-0.05000,64.2500,104,48,0.58242
4804810,-0.05500,63.6250,104,48,0.62491
4804820,-0.05500,63.3125,104,48,0.64591
4804830,-0.05500,63.0625,104,48,0.66520
4804840,-0.05500,62.7500,104,48,0.68230
4804850,-0.04500,62.3750,104,48,0.69744
4804860,-0.03000,61.6875,104,48,0.72112
4804870,-0.01000,61.3125,104,48,0.72943
4804880,0.01000,60.9375,104,48,0.73578
4804890,0.02000,60.5625,104,48,0.74017
4804900,0.01500,59.8125,104,48,0.74286
4804910,-0.01500,59.4375,104,48,0.74115
4804920,-0.04500,59.0000,104,48,0.73895
4804930,-0.07500,58.1875,104,48,0.73602
4804940,-0.10000,57.8125,104,48,0.72723
4804950,-0.12500,57.3750,104,48,0.72137
4804960,-0.13500,57.0000,104,48,0.71404
4804970,-0.12500,56.2500,104,48,0.69621
4804980,-0.11500,55.8125,104,48,0.68596
4804990,-0.10000,55.4375,104,48,0.67521
4805000,-0.09000,55.0625,103,48,0.66471
4805010,-0.08500,54.5000,103,48,0.64249
4805020,-0.08000,54.2500,103,48,0.63077
4805030,-0.10000,54.0000,103,48,0.61880
4805040,-0.05000,53.7500,103,48,0.60708
4805050,0.31000,53.5625,103,48,0.59536
4805060,0.92000,53.1250,103,48,0.57314
4805070,1.06500,52.8750,103,48,0.56264
4805080,0.47500,52.6250,103,48,0.55238
4805090,-0.18000,52.3125,103,48,0.54212
4805100,-0.45000,51.6875,103,48,0.52381
4805110,-0.40500,51.4375,103,48,0.51600
4805120,-0.27500,51.1250,103,48,0.50769
4805130,-0.22000,50.7500,103,48,0.49915
4805140,-0.20500,50.0000,103,48,0.48254
4805150,-0.19500,49.6875,103,48,0.47448
4805160,-0.18000,49.3750,103,48,0.46642
4805170,-0.16500,48.6875,103,48,0.45861
4805180,-0.15500,48.3750,103,48,0.44298
4805190,-0.14500,48.1250,103,48,0.43541
4805200,-0.13500,47.8750,103,48,0.42906
4805210,-0.11500,47.6875,103,48,0.42344
4805220,-0.10500,48.4375,103,48,0.40977
4805230,-0.10583,50.1667,103,48,0.40155
4805240,-0.11000,53.0625,103,48,0.39560
4805250,-0.11000,57.3125,103,48,0.38877
4805260,-0.10500,68.0000,103,48,0.37534
4805270,-0.09500,73.5625,103,48,0.36874
4805280,-0.08000,78.9375,103,48,0.36215
4805290,-0.06500,84.0000,103,48,0.35580
4805300,-0.04000,92.7500,103,48,0.34481
4805310,-0.02500,96.2500,103,48,0.34066
4805320,-0.00500,99.1250,103,48,0.33578
4805330,0.01000,101.2500,103,48,0.33065
4805340,0.01500,103.5625,103,48,0.32015
4805350,0.02000,103.8750,103,48,0.31502
4805360,0.03500,103.7500,103,48,0.30989
4805370,0.04000,103.3125,103,48,0.30476
4805380,0.05000,101.6250,103,48,0.29451
4805390,0.05500,100.4375,103,48,0.28962
4805400,0.07000,99.1250,103,48,0.28620
4805410,0.08000,97.6875,103,48,0.28352
4805420,0.07500,94.6875,103,48,0.27546
4805430,0.07500,93.1875,103,48,0.27082
4805440,0.07000,91.6875,103,48,0.26618
4805450,0.03000,90.1250,103,48,0.26178
4805460,0.00500,87.1250,103,48,0.25299
4805470,0.00000,85.5625,103,48,0.24860
4805480,0.00000,84.0000,103,48,0.24469
4805490,0.00000,82.2500,103,48,0.24151
4805500,0.01000,78.3125,103,48,0.24176
4805510,0.02000,76.0625,103,48,0.24469
4805520,0.02000,73.9375,103,48,0.25055
4805530,0.02000,71.9375,103,48,0.26007
4805540,0.02500,68.8125,103,48,0.29206
4805550,0.02500,67.6250,103,48,0.31429
4805560,0.02000,66.6875,103,48,0.33993
4805570,0.01000,65.8750,103,48,0.36850
4805580,0.00000,64.6875,103,48,0.43004
4805590,-0.01000,64.2500,103,48,0.46129
4805600,-0.01500,63.8125,103,48,0.48840
4805610,-0.02500,63.5000,103,48,0.52576
4805620,-0.03500,63.0000,103,48,0.57607
4805630,-0.04500,62.6875,103,48,0.61050
4805640,-0.04500,62.3750,103,48,0.63053
4805650,-0.04500,62.0625,103,48,0.64835
4805660,-0.03000,61.4375,103,48,0.67668
4805670,-0.01500,61.0625,103,48,0.68742
4805680,0.00000,60.7500,103,48,0.69597
4805690,0.02000,60.3750,103,48,0.70110
4805700,0.03500,59.6875,103,48,0.70647
4805710,0.03000,59.3750,103,48,0.70794
4805720,0.01000,59.0000,103,48,0.70842
4805730,-0.02500,58.2500,103,48,0.70745
4805740,-0.05000,57.9375,103,48,0.70183
4805750,-0.07500,57.5625,103,48,0.69719
4805760,-0.09500,57.1875,103,48,0.69109
4805770,-0.11000,56.8125,103,48,0.68352
4805780,-0.10500,56.0625,103,48,0.66545
4805790,-0.10500,55.6875,103,48,0.65592
4805800,-0.10000,55.2500,103,48,0.64615
4805810,-0.09500,54.5625,103,48,0.62442
4805820,-0.09000,54.2500,103,48,0.61294
4805830,-0.08500,54.0000,103,48,0.60147
4805840,-0.09000,53.7500,103,48,0.59023
4805850,-0.06500,53.5000,103,48,0.57924
4805860,0.18000,53.0000,103,48,0.55824
4805870,0.74500,52.8125,103,48,0.54823
4805880,1.06500,52.5625,103,48,0.53846
4805890,0.62000,52.3125,103,48,0.52991
4805900,-0.06500,51.6875,103,48,0.51380
4805910,-0.41500,51.3750,103,48,0.50549
4805920,-0.44500,51.0625,103,48,0.49719
4805930,-0.32500,50.7500,103,48,0.48889
4805940,-0.24000,50.1250,103,48,0.47326
4805950,-0.22500,49.7500,103,48,0.46593
4805960,-0.21000,49.4375,103,48,0.45861
4805970,-0.19000,49.1250,103,48,0.45250
4805980,-0.17000,48.5000,103,48,0.44103
4805990,-0.16500,48.2500,103,48,0.43590
4806000,-0.16000,47.9375,103,48,0.43101
4806010,-0.15000,47.6875,103,48,0.42515
4806020,-0.13500,47.3750,103,48,0.41245
4806030,-0.12500,47.6250,103,48,0.40610
4806040,-0.12000,48.5625,103,48,0.40000
4806050,-0.11500,50.6250,103,48,0.39390
4806060,-0.11500,58.6250,103,48,0.38169
4806070,-0.11500,63.8125,103,48,0.37582
4806080,-0.10500,69.1875,103,48,0.37021
4806090,-0.09500,74.5000,103,48,0.36557
4806100,-0.08000,84.4375,103,48,0.35678
4806110,-0.06500,88.8125,103,48,0.35140
4806120,-0.05000,92.6875,103,48,0.34628
4806130,-0.03500,95.9375,103,48,0.34115
4806140,-0.01500,100.5000,103,48,0.33162
4806150,0.00000,101.8125,103,48,0.32723
4806160,0.02000,102.5000,103,48,0.32259
4806170,0.03000,102.6250,103,48,0.31819
4806180,0.05000,101.8125,103,48,0.30940
4806190,0.06500,101.0000,103,48,0.30623
4806200,0.08000,99.9375,103,48,0.30354
4806210,0.10000,98.6875,103,48,0.30012
4806220,0.11000,95.9375,103,48,0.29206
4806230,0.10500,94.4375,103,48,0.28791
4806240,0.09000,92.9375,103,48,0.28376
4806250,0.06000,91.3750,103,48,0.27961
4806260,0.02750,89.0521,103,48,0.27318
4806270,0.00000,86.7500,103,48,0.26691
4806280,-0.01500,85.2500,103,48,0.26325
4806290,-0.02500,83.6875,103,48,0.26105
4806300,-0.02500,80.3125,103,48,0.25983
4806310,-0.02500,78.3125,103,48,0.26056
4806320,-0.02500,76.2500,103,48,0.26374
4806330,-0.02000,74.1250,103,48,0.27009
4806340,-0.01000,70.3125,103,48,0.29475
4806350,-0.00500,68.8125,103,48,0.31331
4806360,0.00000,67.5625,103,48,0.33553
4806370,0.00000,66.5625,103,48,0.36068
4806380,-0.00500,65.0000,103,48,0.41734
4806390,-0.00500,64.5000,103,48,0.44322
4806400,-0.01500,64.0000,103,48,0.46740
4806410,-0.01500,63.6250,103,48,0.49377
4806420,-0.01500,62.9375,103,48,0.54628
4806430,-0.01500,62.6250,103,48,0.57070
4806440,-0.01500,62.3125,103,48,0.59316
4806450,-0.01500,62.0000,103,48,0.61368
4806460,-0.01500,61.3750,103,48,0.64762
4806470,-0.01500,61.1250,103,48,0.66129
4806480,-0.00500,60.7500,103,48,0.67277
4806490,0.00000,60.4375,103,48,0.68059
4806500,0.01500,59.7500,103,48,0.69231
4806510,0.03000,59.3750,103,48,0.69548
4806520,0.03000,59.0000,103,48,0.69768
4806530,0.01000,58.6250,103,48,0.69744
4806540,-0.02000,57.8750,103,48,0.69280
4806550,-0.04000,57.5000,103,48,0.68864
4806560,-0.06000,57.1250,103,48,0.68352
4806570,-0.08000,56.7500,103,48,0.67717
4806580,-0.09500,55.9375,103,48,0.66154
4806590,-0.09500,55.5625,103,48,0.65275
4806600,-0.08500,55.2500,103,48,0.64298
4806610,-0.09000,54.8750,103,48,0.63272
4806620,-0.08500,54.1875,103,48,0.61099
4806630,-0.08500,53.8750,103,48,0.60000
4806640,-0.08000,53.6250,103,48,0.58901
4806650,-0.08500,53.4375,103,48,0.57314
4806660,-0.08500,53.0625,103,48,0.55336
4806670,0.13000,52.8750,103,48,0.54017
4806680,0.67000,52.6250,103,48,0.53236
4806690,1.10000,52.3750,103,48,0.52405
4806700,0.80500,51.8750,103,48,0.50769
4806710,0.09000,51.6250,103,48,0.49988
4806720,-0.34500,51.3750,103,48,0.49231
4806730,-0.42500,51.0625,103,48,0.48498
4806740,-0.32500,50.4375,103,48,0.47057
4806750,-0.24000,50.0625,103,48,0.46374
4806760,-0.22000,49.7500,103,48,0.45690
4806770,-0.20500,49.4375,103,48,0.45031
4806780,-0.19000,48.8125,103,48,0.43932
4806790,-0.17000,48.5000,103,48,0.43346
4806800,-0.14500,48.1875,103,48,0.42735
4806810,-0.12000,47.8750,103,48,0.42100
4806820,-0.11000,47.3125,103,48,0.40830
4806830,-0.12500,47.1875,103,48,0.40195
4806840,-0.15000,47.2500,103,48,0.39585
4806850,-0.17000,47.8125,103,48,0.38950
4806860,-0.17000,52.3125,103,48,0.37729
4806870,-0.15500,56.5625,103,48,0.37241
4806880,-0.13500,61.6875,103,48,0.36825
4806890,-0.11000,67.1250,103,48,0.36337
4806900,-0.08000,77.8750,103,48,0.35287
4806910,-0.06000,82.9375,103,48,0.34774
4806920,-0.04500,87.5625,103,48,0.34286
4806930,-0.03500,91.6875,103,48,0.33797
4806940,-0.01500,98.2500,103,48,0.32894
4806950,0.00000,100.5000,103,48,0.32454
4806960,0.02000,102.1250,103,48,0.32015
4806970,0.04500,103.5000,103,48,0.31575
4806980,0.06000,103.5000,103,48,0.30989
4806990,0.07000,103.1250,103,48,0.30647
4807000,0.06500,102.4375,104,48,0.30281
4807010,0.08000,101.5625,104,48,0.29890
4807020,0.11500,99.1250,104,48,0.29109
4807030,0.12000,97.7500,104,48,0.28694
4807040,0.10500,96.2500,104,48,0.28303
4807050,0.08500,94.7500,104,48,0.27888
4807060,0.07000,91.6875,104,48,0.27106
4807070,0.07500,90.2500,104,48,0.26862
4807080,0.09000,88.8125,104,48,0.26716
4807090,0.09000,87.3125,104,48,0.26520
4807100,0.08500,84.3125,104,48,0.26374
4807110,0.10500,82.6250,104,48,0.26593
4807120,0.14500,80.8125,104,48,0.27131
4807130,0.14500,78.8125,104,48,0.28059
4807140,0.14000,74.1875,104,48,0.31184
4807150,0.14000,71.8750,104,48,0.33358
4807160,0.12500,69.8125,104,48,0.35873
4807170,0.09000,68.0625,104,48,0.38657
4807180,0.05500,65.6875,104,48,0.43712
4807190,0.03000,64.8750,104,48,0.46496
4807200,0.00500,64.2500,104,48,0.49377
4807210,-0.02500,63.7500,104,48,0.52234
4807220,-0.05500,63.0000,104,48,0.57582
4807230,-0.07500,62.6875,104,48,0.60000
4807240,-0.08500,62.4375,104,48,0.62198
4807250,-0.09500,62.1875,104,48,0.64200
4807260,-0.10500,61.6875,104,48,0.67497
4807270,-0.12500,61.4375,104,48,0.68596
4807280,-0.11417,61.1979,104,48,0.69373
4807290,-0.08000,60.8750,104,48,0.70183
4807300,-0.03000,60.3750,104,48,0.71380
4807310,0.00000,60.0625,104,48,0.71770
4807320,0.01000,59.7500,104,48,0.72015
4807330,0.00500,59.4375,104,48,0.72112
4807340,-0.00500,58.8125,104,48,0.71844
4807350,-0.02500,58.4375,104,48,0.71502
4807360,-0.04500,58.1250,104,48,0.71038
4807370,-0.06000,57.7500,104,48,0.70452
4807380,-0.07000,57.0625,104,48,0.68962
4807390,-0.08500,56.6875,104,48,0.68083
4807400,-0.09000,56.3125,104,48,0.67106
4807410,-0.09500,55.9375,104,48,0.66056
4807420,-0.10500,55.1875,104,48,0.63785
4807430,-0.12500,54.8750,104,48,0.62637
4807440,-0.14500,54.5625,104,48,0.61490
4807450,-0.15000,54.2500,104,48,0.60366
4807460,-0.15000,53.8125,104,48,0.58193
4807470,-0.16000,53.6250,104,48,0.57241
4807480,-0.04500,53.3750,104,48,0.56361
4807490,0.38000,53.1875,104,48,0.55433
4807500,0.95000,52.6875,104,48,0.53602
4807510,0.93000,52.4375,104,48,0.52723
4807520,0.27500,52.1250,104,48,0.51868
4807530,-0.38500,51.5625,104,48,0.50232
4807540,-0.53000,51.2500,104,48,0.49426
4807550,-0.47500,50.9375,104,48,0.48669
4807560,-0.37500,50.5625,104,48,0.47937
4807570,-0.34000,50.1875,104,48,0.47302
4807580,-0.32500,49.4375,104,48,0.46129
4807590,-0.29000,49.1250,104,48,0.45495
4807600,-0.24500,48.8125,104,48,0.44860
4807610,-0.21500,48.4375,104,48,0.44200
4807620,-0.19000,47.8125,104,48,0.42930
4807630,-0.18000,47.5000,104,48,0.42295
4807640,-0.16000,47.3125,104,48,0.41636
4807650,-0.12500,47.2500,104,48,0.41001
4807660,-0.08000,48.4375,104,48,0.39731
4807670,-0.04500,50.5625,104,48,0.39194
4807680,-0.02500,54.0625,104,48,0.38706
4807690,-0.00500,58.6250,104,48,0.38169
4807700,0.01000,69.3750,104,48,0.36996
4807710,0.03000,74.8125,104,48,0.36435
4807720,0.05000,80.0625,104,48,0.35873
4807730,0.06000,85.0625,104,48,0.35311
4807740,0.06500,93.7500,104,48,0.34261
4807750,0.07000,97.2500,104,48,0.33748
4807760,0.07500,100.0625,104,48,0.33260
4807770,0.08000,102.1875,104,48,0.32894
4807780,0.08000,104.5000,104,48,0.32186
4807790,0.08000,104.8750,104,48,0.31746
4807800,0.07500,104.8750,104,48,0.31306
4807810,0.07500,104.5000,104,48,0.30891
4807820,0.07000,103.0000,104,48,0.30061
4807830,0.07000,102.0000,104,48,0.29670
4807840,0.06500,100.7500,104,48,0.29280
4807850,0.05000,99.4375,104,48,0.28913
4807860,0.03000,96.5625,104,48,0.28205
4807870,0.00000,95.0000,104,48,0.27985
4807880,-0.03500,93.5000,104,48,0.27790
4807890,-0.07000,92.0000,104,48,0.27521
4807900,-0.08500,89.0625,104,48,0.26984
4807910,-0.10000,87.5625,104,48,0.26886
4807920,-0.11500,86.0625,104,48,0.26984
4807930,-0.12500,84.4375,104,48,0.27350
4807940,-0.13500,80.6875,104,48,0.29206
4807950,-0.14500,78.5625,104,48,0.30745
4807960,-0.14500,76.3125,104,48,0.32723
4807970,-0.15000,74.1875,104,48,0.34750
4807980,-0.14500,70.5625,104,48,0.39463
4807990,-0.14500,69.1875,104,48,0.42344
4808000,-0.14500,68.0000,104,48,0.45592
4808010,-0.14500,67.0625,104,48,0.49084
4808020,-0.14500,65.6875,104,48,0.55604
4808030,-0.14500,65.1875,104,48,0.58584
4808040,-0.13000,64.7500,104,48,0.61368
4808050,-0.12500,64.4375,104,48,0.63956
4808060,-0.11500,63.7500,104,48,0.68474
4808070,-0.10500,63.4375,104,48,0.70085
4808080,-0.09000,63.1250,104,48,0.71331
4808090,-0.07000,62.8125,104,48,0.72576
4808100,-0.05000,62.1250,104,48,0.74701
4808110,-0.03000,61.8125,104,48,0.75482
4808120,-0.01000,61.5000,104,48,0.76093
4808130,0.00000,61.1250,104,48,0.76508
4808140,-0.01500,60.4375,104,48,0.76874
4808150,-0.04500,60.0625,104,48,0.76801
4808160,-0.07500,59.6875,104,48,0.76581
4808170,-0.09500,59.3125,104,48,0.76166
4808180,-0.11500,58.5625,104,48,0.74994
4808190,-0.12500,58.1875,104,48,0.74261
4808200,-0.12500,57.8125,104,48,0.73407
4808210,-0.11500,57.3750,104,48,0.72454
4808220,-0.09500,56.6875,104,48,0.70305
4808230,-0.07000,56.3125,104,48,0.69133
4808240,-0.04500,56.0000,104,48,0.67912
4808250,-0.03000,55.7500,104,48,0.66691
4808260,-0.02000,55.2500,104,48,0.64298
4808270,-0.03500,55.0625,104,48,0.63199
4808280,0.02000,54.8125,104,48,0.62173
4808290,0.37000,54.6250,104,48,0.61123
4808300,0.96000,54.2875,104,48,0.59753
4808310,1.01584,53.8687,104,48,0.58293
4808320,0.64000,53.4375,104,48,0.56972
4808330,-0.06500,53.0625,104,48,0.56020
4808340,-0.41500,52.3750,104,48,0.54188
4808350,-0.43500,52.0000,104,48,0.53284
4808360,-0.32500,51.6250,104,48,0.52405
4808370,-0.26000,51.2500,104,48,0.51648
4808380,-0.26000,50.6875,104,48,0.50159
4808390,-0.26000,50.3750,104,48,0.49377
4808400,-0.26000,50.0625,104,48,0.48620
4808410,-0.26000,49.8125,104,48,0.47863
4808420,-0.26500,49.1250,104,48,0.46300
4808430,-0.26500,48.8125,104,48,0.45543
4808440,-0.26000,48.5000,104,48,0.44811
4808450,-0.25000,48.3125,104,48,0.44078
4808460,-0.24000,49.1250,104,48,0.42637
4808470,-0.23000,50.9375,104,48,0.42051
4808480,-0.21500,54.1875,104,48,0.41538
4808490,-0.19000,58.6250,104,48,0.40928
4808500,-0.16500,69.3750,104,48,0.39683
4808510,-0.13500,74.9375,104,48,0.39023
4808520,-0.10500,80.2500,104,48,0.38364
4808530,-0.07000,85.3125,104,48,0.37729
4808540,-0.03500,94.1250,104,48,0.36508
4808550,0.00000,97.6875,104,48,0.35922
4808560,0.03500,100.6250,104,48,0.35336
4808570,0.06000,102.8750,104,48,0.34896
4808580,0.06500,105.3750,104,48,0.34066
4808590,0.07000,105.8125,104,48,0.33578
4808600,0.07000,105.8750,104,48,0.33065
4808610,0.07000,105.5625,104,48,0.32527
4808620,0.07000,104.1875,104,48,0.31477
4808630,0.08000,103.1250,104,48,0.30965
4808640,0.09000,102.0000,104,48,0.30427
4808650,0.10000,100.6875,104,48,0.29915
4808660,0.10500,97.9375,104,48,0.28913
4808670,0.09500,96.5000,104,48,0.28596
4808680,0.07500,95.0000,104,48,0.28327
4808690,0.06000,93.5000,104,48,0.27961
4808700,0.04500,90.5000,104,48,0.27228
4808710,0.04000,88.9375,104,48,0.27033
4808720,0.03500,87.3750,104,48,0.27057
4808730,0.04000,85.6250,104,48,0.27375
4808740,0.04500,81.6250,104,48,0.29158
4808750,0.04500,79.3750,104,48,0.30720
4808760,0.04500,77.0625,104,48,0.32723
4808770,0.04000,74.7500,104,48,0.34774
4808780,0.03500,71.0625,104,48,0.39609
4808790,0.05000,69.6250,104,48,0.42564
4808800,0.05500,68.5000,104,48,0.45665
4808810,0.04000,67.5000,104,48,0.48840
4808820,0.02500,66.0000,104,48,0.55092
4808830,0.00500,65.4375,104,48,0.58046
4808840,-0.03000,65.0000,104,48,0.60830
4808850,-0.06500,64.5625,104,48,0.63419
4808860,-0.07500,63.9375,104,48,0.67888
4808870,-0.08500,63.6250,104,48,0.69499
4808880,-0.10500,63.3125,104,48,0.70769
4808890,-0.11500,63.0000,104,48,0.72039
4808900,-0.11500,62.3750,104,48,0.74188
4808910,-0.09000,62.0625,104,48,0.74994
4808920,-0.05000,61.7500,104,48,0.75604
4808930,-0.01500,61.3750,104,48,0.76020
4808940,0.00000,60.6875,104,48,0.76386
4808950,-0.00500,60.3125,104,48,0.76313
4808960,-0.02500,59.9375,104,48,0.76117
4808970,-0.03500,59.5625,104,48,0.75726
4808980,-0.04000,58.8125,104,48,0.74628
4808990,-0.04500,58.4375,104,48,0.73919
4809000,-0.04500,58.0625,104,48,0.73114
4809010,-0.03500,57.6875,104,48,0.72186
4809020,-0.03500,56.9375,104,48,0.70085
4809030,-0.02500,56.5625,104,48,0.68913
4809040,-0.01500,56.1875,104,48,0.67717
4809050,-0.01500,55.8750,104,48,0.66471
4809060,-0.02000,55.3750,104,48,0.64005
4809070,-0.04500,55.1250,104,48,0.62882
4809080,-0.04500,54.9375,104,48,0.61832
4809090,0.19000,54.6875,104,48,0.60708
4809100,0.76500,54.1875,104,48,0.58486
4809110,1.13500,53.9375,104,48,0.57411
4809120,0.70000,53.6250,104,48,0.56386
4809130,-0.02000,53.3125,104,48,0.55385
4809140,-0.39000,52.6250,104,48,0.53504
4809150,-0.42500,52.3125,104,48,0.52576
4809160,-0.31500,52.0000,104,48,0.51673
4809170,-0.24000,51.6875,104,48,0.50891
4809180,-0.22000,51.0000,104,48,0.49426
4809190,-0.21000,50.6875,104,48,0.48620
4809200,-0.21000,50.3750,104,48,0.47814
4809210,-0.20000,50.0000,104,48,0.47033
4809220,-0.20000,49.3125,104,48,0.45495
4809230,-0.20000,49.0000,104,48,0.44737
4809240,-0.20000,48.7500,104,48,0.43980
4809250,-0.19500,48.6250,104,48,0.43248
4809260,-0.19000,49.5000,104,48,0.41929
4809270,-0.18000,51.2500,104,48,0.41392
4809280,-0.18000,54.3125,104,48,0.40781
4809290,-0.17000,58.7500,104,48,0.40147
4809300,-0.16500,69.5625,104,48,0.38828
4809310,-0.15000,75.1875,104,48,0.38169
4809320,-0.12500,80.6875,104,48,0.37534
4809330,-0.10083,88.0833,104,48,0.36642
4809340,-0.07500,94.8750,104,48,0.35775
4809350,-0.04500,98.5625,104,48,0.35214
4809360,-0.02000,101.5625,104,48,0.34676
4809370,0.00000,103.8125,104,48,0.34261
4809380,0.02000,106.3125,104,48,0.33480
4809390,0.03000,106.8125,104,48,0.32991
4809400,0.04000,106.8750,104,48,0.32479
4809410,0.05000,106.5625,104,48,0.31966
4809420,0.05000,105.1875,104,48,0.30916
4809430,0.06500,104.1250,104,48,0.30403
4809440,0.07500,102.9375,104,48,0.29915
4809450,0.08500,101.6250,104,48,0.29426
4809460,0.08000,98.6875,104,48,0.28669
4809470,0.07000,97.1875,104,48,0.28400
4809480,0.04000,95.6875,104,48,0.28034
4809490,0.01000,94.1875,104,48,0.27643
4809500,-0.02500,91.1875,104,48,0.26911
4809510,-0.04500,89.7500,104,48,0.26667
4809520,-0.06000,88.1875,104,48,0.26618
4809530,-0.06500,86.5000,104,48,0.26862
4809540,-0.06500,82.7500,104,48,0.28474
4809550,-0.05500,80.6250,104,48,0.29939
4809560,-0.05500,78.5000,104,48,0.31868
4809570,-0.05500,76.4375,104,48,0.33895
4809580,-0.05500,72.9375,104,48,0.38779
4809590,-0.05500,71.5625,104,48,0.41783
4809600,-0.06000,70.3125,104,48,0.44982
4809610,-0.06500,69.1875,104,48,0.48230
4809620,-0.07500,67.3125,104,48,0.54676
4809630,-0.07500,66.6250,104,48,0.57729
4809640,-0.08000,66.0625,104,48,0.60586
4809650,-0.08000,65.5625,104,48,0.63199
4809660,-0.08500,64.8125,104,48,0.67448
4809670,-0.08500,64.5000,104,48,0.68913
4809680,-0.09500,64.1875,104,48,0.70403
4809690,-0.09500,63.9375,104,48,0.71819
4809700,-0.09500,63.3125,104,48,0.74115
4809710,-0.09000,63.0000,104,48,0.74945
4809720,-0.07500,62.6875,104,48,0.75580
4809730,-0.04500,62.3125,104,48,0.76044
4809740,-0.02500,61.6250,104,48,0.76435
4809750,-0.01500,61.2500,104,48,0.76386
4809760,-0.02500,60.8750,104,48,0.76190
4809770,-0.05500,60.5000,104,48,0.75849
4809780,-0.07500,59.6875,104,48,0.74799
4809790,-0.08500,59.3125,104,48,0.74139
4809800,-0.10000,58.9375,104,48,0.73358
4809810,-0.11500,58.5625,104,48,0.72430
4809820,-0.11500,57.8125,104,48,0.70354
4809830,-0.11000,57.4375,104,48,0.69206
4809840,-0.10500,57.1250,104,48,0.68010
4809850,-0.09500,56.7500,104,48,0.66789
4809860,-0.09500,56.1250,104,48,0.64518
4809870,-0.08500,55.8750,104,48,0.63468
4809880,-0.09500,55.6250,104,48,0.62393
4809890,-0.09500,55.3750,104,48,0.61319
4809900,0.12000,54.9375,104,48,0.59243
4809910,0.67000,54.6875,104,48,0.58242
4809920,1.15000,54.4375,104,48,0.57241
4809930,0.90000,54.1875,104,48,0.56239
4809940,0.11000,53.6250,104,48,0.54359
4809950,-0.39000,53.3125,104,48,0.53455
4809960,-0.46000,53.0000,104,48,0.52552
4809970,-0.34500,52.6875,104,48,0.51746
4809980,-0.25500,52.0000,104,48,0.50256
4809990,-0.23500,51.6250,104,48,0.49475
4810000,-0.22000,51.3125,104,48,0.48718
4810010,-0.21000,50.9375,104,48,0.47961
4810020,-0.20000,50.2500,104,48,0.46398
4810030,-0.19000,49.9375,104,48,0.45641
4810040,-0.18000,49.6250,104,48,0.44884
4810050,-0.17500,49.3750,104,48,0.43712
4810060,-0.16500,49.1875,104,48,0.41441
4810070,-0.15500,49.6875,104,48,0.40733
4810080,-0.14000,51.0625,104,48,0.40024
4810090,-0.13500,53.7500,104,48,0.39292
4810100,-0.12500,63.0000,104,48,0.37900
4810110,-0.10500,68.7500,104,48,0.37241
4810120,-0.09000,74.5625,104,48,0.36581
4810130,-0.07500,80.3750,104,48,0.35946
4810140,-0.06000,90.9375,104,48,0.34750
4810150,-0.04500,95.5000,104,48,0.34188
4810160,-0.03500,99.4375,104,48,0.33626
4810170,-0.01500,102.6875,104,48,0.33211
4810180,0.00000,107.0000,104,48,0.32405
4810190,0.01000,108.1875,104,48,0.31917
4810200,0.01500,108.8750,104,48,0.31404
4810210,0.01500,109.0625,104,48,0.30891
4810220,0.01000,108.5000,104,48,0.29890
4810230,0.01000,107.7500,104,48,0.29402
4810240,0.01000,106.8125,104,48,0.28938
4810250,0.02000,105.6875,104,48,0.28474
4810260,0.03000,103.0000,104,48,0.27668
4810270,0.03000,101.4375,104,48,0.27399
4810280,0.01500,99.9375,104,48,0.27033
4810290,-0.00500,98.3750,104,48,0.26618
4810300,-0.02500,95.1875,104,48,0.25739
4810310,-0.04000,93.6250,104,48,0.25348
4810320,-0.05500,92.0625,104,48,0.25055
4810330,-0.06500,90.5000,104,48,0.24933
4810340,-0.06500,87.2500,104,48,0.25543
4810350,-0.06000,85.1667,104,48,0.26488
4810360,-0.05500,83.4375,104,48,0.27741
4810370,-0.04500,81.2500,104,48,0.29280
4810380,-0.03500,77.0000,104,48,0.33407
4810390,-0.02500,75.1875,104,48,0.36142
4810400,-0.01500,73.6250,104,48,0.39170
4810410,-0.01000,72.2500,104,48,0.42393
4810420,-0.00500,70.2500,104,48,0.49060
4810430,-0.01000,69.4375,104,48,0.52308
4810440,-0.02000,68.8125,104,48,0.55458
4810450,-0.02500,68.2500,104,48,0.58437
4810460,-0.04000,67.4375,104,48,0.63492
4810470,-0.05500,67.0625,104,48,0.65348
4810480,-0.06500,66.6875,104,48,0.67668
4810490,-0.06500,66.3125,104,48,0.69695
4810500,-0.07000,65.6250,104,48,0.72259
4810510,-0.06500,65.2500,104,48,0.73358
4810520,-0.05500,64.9375,104,48,0.74286
4810530,-0.03000,64.5625,104,48,0.75018
4810540,-0.01000,63.8125,104,48,0.75922
4810550,0.00000,63.5000,104,48,0.76117
4810560,-0.00500,63.1875,104,48,0.76166
4810570,-0.03500,62.9375,104,48,0.76020
4810580,-0.07000,62.3750,104,48,0.75336
4810590,-0.09500,62.0000,104,48,0.74872
4810600,-0.12500,61.5000,104,48,0.74310
4810610,-0.14500,60.9375,104,48,0.73651
4810620,-0.15500,59.8125,104,48,0.71966
4810630,-0.15000,59.3125,104,48,0.70989
4810640,-0.14500,58.8125,104,48,0.69915
4810650,-0.13500,58.3750,104,48,0.68767
4810660,-0.12500,57.5625,104,48,0.66447
4810670,-0.11000,57.2500,104,48,0.65348
4810680,-0.10500,56.9375,104,48,0.64200
4810690,-0.12000,56.6875,104,48,0.63028
4810700,-0.00500,56.2500,104,48,0.60684
4810710,0.44000,56.0625,104,48,0.59560
4810720,1.07000,55.8750,104,48,0.58462
4810730,1.10500,55.6250,104,48,0.57411
4810740,0.37000,55.1875,104,48,0.55409
4810750,-0.27500,55.0000,104,48,0.54457
4810760,-0.44000,54.6875,104,48,0.53529
4810770,-0.34500,54.4375,104,48,0.52723
4810780,-0.24000,53.6875,104,48,0.51184
4810790,-0.21000,53.3125,104,48,0.50379
4810800,-0.20500,52.9375,104,48,0.49573
4810810,-0.20000,52.5625,104,48,0.48742
4810820,-0.19000,51.8750,104,48,0.47106
4810830,-0.18500,51.5625,104,48,0.46300
4810840,-0.18000,51.3125,104,48,0.45519
4810850,-0.17000,51.0000,104,48,0.44737
4810860,-0.16000,50.5625,104,48,0.43370
4810870,-0.15500,50.7500,104,48,0.42808
4810880,-0.15500,51.6875,104,48,0.42198
4810890,-0.15000,53.8750,104,48,0.41538
4810900,-0.14500,62.4375,104,48,0.40195
4810910,-0.13500,68.1250,104,48,0.39536
4810920,-0.12500,74.0000,104,48,0.38877
4810930,-0.11000,79.7500,104,48,0.38242
4810940,-0.09500,90.4375,104,48,0.36972
4810950,-0.07000,95.1875,104,48,0.36361
4810960,-0.05000,99.3750,104,48,0.35873
4810970,-0.03000,102.8750,104,48,0.35458
4810980,-0.01000,107.6250,104,48,0.34383
4810990,0.01000,108.9375,104,48,0.33797
4811000,0.01500,109.6250,104,48,0.33211
4811010,0.02000,109.8750,104,48,0.32625
4811020,0.02000,109.1875,104,48,0.31502
4811030,0.03000,108.3750,104,48,0.30940
4811040,0.04500,107.4375,104,48,0.30379
4811050,0.06000,106.3125,104,48,0.29817
4811060,0.08000,103.6875,104,48,0.28889
4811070,0.09000,102.3125,104,48,0.28571
4811080,0.08500,100.8750,104,48,0.28156
4811090,0.06500,99.3750,104,48,0.27692
4811100,0.03500,96.3750,104,48,0.26716
4811110,0.01500,94.8750,104,48,0.26252
4811120,0.00000,93.3125,104,48,0.25836
4811130,-0.01000,91.7500,104,48,0.25568
4811140,-0.01500,88.4375,104,48,0.25739
4811150,-0.01500,86.5625,104,48,0.26374
4811160,-0.01500,84.4375,104,48,0.27302
4811170,-0.01500,82.1250,104,48,0.28571
4811180,-0.01500,77.5625,104,48,0.32576
4811190,-0.01500,75.5625,104,48,0.35189
4811200,-0.01000,73.8750,104,48,0.38120
4811210,-0.00500,72.5000,104,48,0.41270
4811220,-0.00500,70.4375,104,48,0.47814
4811230,-0.01000,69.6875,104,48,0.51087
4811240,-0.02000,69.1250,104,48,0.54261
4811250,-0.02500,68.6250,104,48,0.57314
4811260,-0.04000,67.8125,104,48,0.62393
4811270,-0.04500,67.4375,104,48,0.64274
4811280,-0.05500,67.1250,104,48,0.66178
4811290,-0.06000,66.7500,104,48,0.67985
4811300,-0.06500,66.0000,104,48,0.70989
4811310,-0.06500,65.6250,104,48,0.72161
4811320,-0.06500,65.1875,104,48,0.73114
4811330,-0.05500,64.7500,104,48,0.73822
4811340,-0.03500,63.8750,104,48,0.74701
4811350,-0.01000,63.4375,104,48,0.74872
4811360,0.00000,63.0000,104,48,0.74799
4811370,0.00500,62.5625,104,48,0.74579
4811380,-0.01166,61.9063,104,48,0.74098
4811390,-0.03500,61.2500,104,48,0.73504
4811400,-0.05000,60.8125,104,48,0.72943
4811410,-0.07000,60.4375,104,48,0.72234
4811420,-0.09000,59.6250,104,48,0.70476
4811430,-0.09500,59.1875,104,48,0.69451
4811440,-0.09500,58.8125,104,48,0.68327
4811450,-0.09500,58.3750,104,48,0.67155
4811460,-0.09000,57.6250,104,48,0.64786
4811470,-0.09000,57.3125,104,48,0.63687
4811480,-0.08500,56.9375,104,48,0.62540
4811490,-0.07500,56.6250,104,48,0.61392
4811500,-0.08500,56.1250,104,48,0.58877
4811510,0.01500,55.8750,104,48,0.57656
4811520,0.44000,55.6250,104,48,0.56777
4811530,1.04000,55.4375,104,48,0.55800
4811540,1.04500,54.9375,104,48,0.53822
4811550,0.36500,54.6875,104,48,0.52845
4811560,-0.24000,54.3750,104,48,0.51990
4811570,-0.43500,54.0625,104,48,0.51209
4811580,-0.34000,53.3750,104,48,0.49524
4811590,-0.22000,53.0000,104,48,0.48669
4811600,-0.18000,52.6250,104,48,0.47839
4811610,-0.17000,51.8750,104,48,0.47009
4811620,-0.16500,51.5000,104,48,0.45421
4811630,-0.15500,51.1875,104,48,0.44640
4811640,-0.14000,50.9375,104,48,0.43883
4811650,-0.13500,50.6250,104,48,0.43126
4811660,-0.13500,50.1250,104,48,0.41685
4811670,-0.12500,50.0000,104,48,0.41099
4811680,-0.12500,50.0000,104,48,0.40415
4811690,-0.12000,50.5625,104,48,0.39683
4811700,-0.11500,54.8125,104,48,0.38217
4811710,-0.11500,59.0000,104,48,0.37485
4811720,-0.10500,64.1875,104,48,0.36777
4811730,-0.08500,69.8125,104,48,0.36093
4811740,-0.06500,81.1875,104,48,0.34750
4811750,-0.04500,86.5625,104,48,0.34115
4811760,-0.02500,91.5000,104,48,0.33626
4811770,-0.01000,95.9375,104,48,0.33211
4811780,0.01000,102.8125,104,48,0.32161
4811790,0.02500,105.1875,104,48,0.31624
4811800,0.04000,106.8125,104,48,0.31087
4811810,0.05500,107.7500,104,48,0.30549
4811820,0.06500,108.1250,104,48,0.29475
4811830,0.07000,107.7500,104,48,0.28938
4811840,0.07500,107.0625,104,48,0.28425
4811850,0.08500,106.1875,104,48,0.27912
4811860,0.09500,103.7500,104,48,0.27009
4811870,0.10500,102.3125,104,48,0.26716
4811880,0.11000,100.8125,104,48,0.26325
4811890,0.10000,99.2500,104,48,0.25910
4811900,0.08000,96.0625,104,48,0.25031
4811910,0.05000,94.5000,104,48,0.24567
4811920,0.03000,92.8750,104,48,0.24127
4811930,0.01000,91.3125,104,48,0.23761
4811940,0.00000,88.1875,104,48,0.23370
4811950,-0.00500,86.5000,104,48,0.23492
4811960,-0.00500,84.6250,104,48,0.23883
4811970,-0.00500,82.5625,104,48,0.24591
4811980,-0.00500,78.1250,104,48,0.27277
4811990,-0.00500,76.0625,104,48,0.29280
4812000,-0.01500,74.1875,104,48,0.31673
4812010,-0.02000,72.5625,104,48,0.34432
4812020,-0.02500,70.1250,104,48,0.40635
4812030,-0.03000,69.1250,104,48,0.43883
4812040,-0.03500,68.3125,104,48,0.47131
4812050,-0.03500,67.6875,104,48,0.50281
4812060,-0.04000,66.6875,104,48,0.55824
4812070,-0.04500,66.3125,104,48,0.57973
4812080,-0.05500,65.9375,104,48,0.60220
4812090,-0.05500,65.6250,104,48,0.62393
4812100,-0.06000,65.0625,104,48,0.65592
4812110,-0.05500,64.6875,104,48,0.66886
4812120,-0.04500,64.3750,104,48,0.68010
4812130,-0.02500,64.0625,104,48,0.68962
4812140,-0.01000,63.4375,104,48,0.70232
4812150,0.01000,63.1250,104,48,0.70623
4812160,0.02000,62.7500,104,48,0.70745
4812170,0.02500,62.4375,104,48,0.70720
4812180,0.00500,61.6875,104,48,0.70476
4812190,-0.02500,61.2500,104,48,0.70208
4812200,-0.04000,60.8750,104,48,0.69841
4812210,-0.05500,60.4375,104,48,0.69328
4812220,-0.08000,59.6250,104,48,0.67937
4812230,-0.09500,59.2500,104,48,0.67082
4812240,-0.09500,58.8125,104,48,0.66129
4812250,-0.09500,58.4375,104,48,0.65104
4812260,-0.09500,57.6250,104,48,0.63028
4812270,-0.09000,57.2500,104,48,0.62027
4812280,-0.08500,56.9375,104,48,0.60977
4812290,-0.07000,56.6250,104,48,0.59927
4812300,-0.07500,56.1875,104,48,0.57900
4812310,-0.02500,55.9375,104,48,0.56899
4812320,0.30500,55.6875,104,48,0.55946
4812330,0.89000,55.4375,104,48,0.55018
4812340,1.04000,54.9375,104,48,0.53260
4812350,0.49500,54.6875,104,48,0.52430
4812360,-0.12500,54.5000,104,48,0.51673
4812370,-0.40500,53.9375,104,48,0.50989
4812380,-0.38500,53.5625,104,48,0.49548
4812390,-0.27000,53.1875,104,48,0.48791
4812400,-0.21583,52.8854,104,48,0.48164
4812410,-0.19500,52.4375,104,48,0.47302
4812420,-0.18000,51.6250,104,48,0.45836
4812430,-0.17000,51.2500,104,48,0.45079
4812440,-0.16500,50.8125,104,48,0.44347
4812450,-0.16000,50.4375,104,48,0.43614
4812460,-0.15500,49.7500,104,48,0.42320
4812470,-0.14500,49.5000,104,48,0.41783
4812480,-0.13000,49.3750,104,48,0.41148
4812490,-0.12000,49.5625,104,48,0.40488
4812500,-0.11000,52.6250,104,48,0.39170
4812510,-0.09500,56.1250,104,48,0.38510
4812520,-0.08500,60.8125,104,48,0.37851
4812530,-0.06500,66.1875,104,48,0.37045
4812540,-0.05000,77.4375,104,48,0.35849
4812550,-0.03500,82.8125,104,48,0.35311
4812560,-0.01500,87.8750,104,48,0.34872
4812570,0.00000,92.4375,104,48,0.34481
4812580,0.01500,99.8125,104,48,0.33529
4812590,0.03000,102.5000,104,48,0.33040
4812600,0.04000,104.4375,104,48,0.32552
4812610,0.05000,105.6250,104,48,0.32063
4812620,0.06000,106.2500,104,48,0.31111
4812630,0.06000,105.8750,104,48,0.30623
4812640,0.06000,105.1250,104,48,0.30159
4812650,0.07500,104.1875,104,48,0.29695
4812660,0.08500,101.5625,104,48,0.28913
4812670,0.10000,100.1250,104,48,0.28645
4812680,0.11000,98.5625,104,48,0.28303
4812690,0.10500,97.0625,104,48,0.27888
4812700,0.09000,94.0000,104,48,0.27033
4812710,0.06000,92.4375,104,48,0.26593
4812720,0.03000,90.9375,104,48,0.26178
4812730,0.01000,89.3750,104,48,0.25812
4812740,-0.00500,86.1875,104,48,0.25324
4812750,-0.01500,84.3750,104,48,0.25324
4812760,-0.02000,82.4375,104,48,0.25592
4812770,-0.01500,80.2500,104,48,0.26105
4812780,-0.01500,75.5625,104,48,0.28181
4812790,-0.01500,73.3750,104,48,0.29817
4812800,-0.01500,71.5000,104,48,0.31819
4812810,-0.01500,70.0000,104,48,0.34164
4812820,-0.01500,67.8750,104,48,0.39536
4812830,-0.02000,67.1250,104,48,0.42393
4812840,-0.02000,66.5625,104,48,0.45299
4812850,-0.02500,66.1250,104,48,0.48156
4812860,-0.03000,65.4375,104,48,0.52698
4812870,-0.04000,65.1875,104,48,0.54945
4812880,-0.04500,65.0000,104,48,0.57167
4812890,-0.05000,64.7500,104,48,0.59243
4812900,-0.05000,64.3125,104,48,0.62808
4812910,-0.05500,64.0625,104,48,0.64249
4812920,-0.05000,63.7500,104,48,0.65470
4812930,-0.04500,63.4375,104,48,0.66471
4812940,-0.02500,62.7500,104,48,0.67839
4812950,-0.00500,62.3750,104,48,0.68230
4812960,0.00000,62.0000,104,48,0.68400
4812970,0.00000,61.6250,104,48,0.68376
4812980,-0.02500,60.7500,104,48,0.68156
4812990,-0.05000,60.3125,104,48,0.67863
4813000,-0.07000,59.8750,104,48,0.67473
4813010,-0.09500,59.5000,104,48,0.66960
4813020,-0.11000,58.6875,104,48,0.65568
4813030,-0.11500,58.2500,104,48,0.64713
4813040,-0.11500,57.8750,104,48,0.63761
4813050,-0.11500,57.5000,104,48,0.62759
4813060,-0.11500,56.8125,104,48,0.60830
4813070,-0.11500,56.5000,104,48,0.59805
4813080,-0.10500,56.2500,104,48,0.58755
4813090,-0.09500,56.0625,104,48,0.57680
4813100,-0.10500,55.6250,104,48,0.55604
4813110,-0.07500,55.4375,104,48,0.54603
4813120,0.21500,55.1875,104,48,0.53651
4813130,0.79500,54.9375,104,48,0.52723
4813140,1.07500,54.3750,104,48,0.50965
4813150,0.59000,54.0625,104,48,0.50159
4813160,-0.07500,53.6875,104,48,0.49475
4813170,-0.39500,53.3750,104,48,0.48840
4813180,-0.41000,52.6875,104,48,0.47497
4813190,-0.29000,52.3750,104,48,0.46813
4813200,-0.21500,52.0000,104,48,0.46129
4813210,-0.20000,51.6875,104,48,0.45470
4813220,-0.19000,51.0000,104,48,0.44127
4813230,-0.18000,50.6250,104,48,0.43468
4813240,-0.17000,50.3125,104,48,0.42833
4813250,-0.16000,50.0000,104,48,0.42198
4813260,-0.15000,49.4375,104,48,0.41197
4813270,-0.14500,49.1875,104,48,0.40659
4813280,-0.13500,49.1875,104,48,0.40073
4813290,-0.13500,49.5000,104,48,0.39487
4813300,-0.12500,53.0625,104,48,0.38266
4813310,-0.12000,56.7500,104,48,0.37680
4813320,-0.11500,61.5625,104,48,0.37094
4813330,-0.10000,67.0000,104,48,0.36508
4813340,-0.08000,78.0625,104,48,0.35458
4813350,-0.06500,83.4375,104,48,0.34945
4813360,-0.05500,88.5000,104,48,0.34554
4813370,-0.04000,93.0625,104,48,0.34237
4813380,-0.02500,100.4375,104,48,0.33407
4813390,-0.01000,103.0625,104,48,0.32943
4813400,0.00500,104.8750,104,48,0.32479
4813410,0.01500,106.0625,104,48,0.31990
4813420,0.02000,106.4938,104,48,0.31365
4813430,0.02250,106.3187,104,48,0.30698
4813440,0.02500,105.6875,104,48,0.30085
4813450,0.03000,104.7500,104,48,0.29621
4813460,0.04500,102.3750,104,48,0.29035
4813470,0.05500,100.9375,104,48,0.28694
4813480,0.07000,99.5000,104,48,0.28278
4813490,0.07000,98.0625,104,48,0.27863
4813500,0.05500,95.0000,104,48,0.27033
4813510,0.03000,93.5000,104,48,0.26593
4813520,0.00500,92.0000,104,48,0.26203
4813530,-0.01000,90.5625,104,48,0.25836
4813540,-0.01500,87.5000,104,48,0.25372
4813550,-0.02000,85.8125,104,48,0.25592
4813560,-0.03000,83.9375,104,48,0.25983
4813570,-0.03000,81.8125,104,48,0.26422
4813580,-0.02500,77.1250,104,48,0.28547
4813590,-0.02500,74.8125,104,48,0.30256
4813600,-0.02500,72.7500,104,48,0.32332
4813610,-0.02000,71.0000,104,48,0.34774
4813620,-0.01500,68.5000,104,48,0.40342
4813630,-0.02000,67.6250,104,48,0.43297
4813640,-0.02500,66.9375,104,48,0.46276
4813650,-0.03000,65.9375,104,48,0.49206
4813660,-0.03500,65.5625,104,48,0.53871
4813670,-0.04000,65.1875,104,48,0.56190
4813680,-0.04500,64.9375,104,48,0.58462
4813690,-0.05000,64.6875,104,48,0.60586
4813700,-0.05500,64.1875,104,48,0.64225
4813710,-0.05500,63.9375,104,48,0.65714
4813720,-0.05500,63.6875,104,48,0.66984
4813730,-0.05500,63.3750,104,48,0.68010
4813740,-0.04500,62.6250,104,48,0.69475
4813750,-0.03500,62.3125,104,48,0.69939
4813760,-0.02500,61.9375,104,48,0.70134
4813770,-0.01500,61.5625,104,48,0.70134
4813780,-0.01500,60.8125,104,48,0.69939
4813790,-0.04500,60.3750,104,48,0.69695
4813800,-0.07000,60.0000,104,48,0.69328
4813810,-0.09000,59.6250,104,48,0.68864
4813820,-0.11500,58.8750,104,48,0.67546
4813830,-0.13500,58.4375,104,48,0.66691
4813840,-0.13500,58.0625,104,48,0.65763
4813850,-0.13000,57.6875,104,48,0.64737
4813860,-0.12500,57.0000,104,48,0.62735
4813870,-0.13000,56.6875,104,48,0.61661
4813880,-0.12500,56.3750,104,48,0.60562
4813890,-0.12000,56.1250,104,48,0.59438
4813900,-0.11000,55.6250,104,48,0.57314
4813910,-0.11500,55.4375,104,48,0.56288
4813920,0.02000,55.2500,104,48,0.55287
4813930,0.48500,55.0625,104,48,0.54335
4813940,1.03500,54.5000,104,48,0.52503
4813950,0.93000,54.1875,104,48,0.51648
4813960,0.25500,53.8750,104,48,0.50891
4813970,-0.27000,53.5000,104,48,0.50208
4813980,-0.43000,52.8125,104,48,0.48718
4813990,-0.34500,52.5000,104,48,0.47961
4814000,-0.22000,52.1250,105,49,0.47228
4814010,-0.20000,51.7500,105,49,0.46520
4814020,-0.18500,51.1250,105,49,0.45153
4814030,-0.18000,50.8125,105,49,0.44469
4814040,-0.17000,50.5000,105,49,0.43785
4814050,-0.16000,50.1875,105,49,0.43126
4814060,-0.15000,49.5625,105,49,0.42100
4814070,-0.14000,49.3125,105,49,0.41563
4814080,-0.13500,49.1250,105,49,0.41001
4814090,-0.13500,49.2500,105,49,0.40415
4814100,-0.13500,51.8125,105,49,0.39219
4814110,-0.12500,54.9375,105,49,0.38584
4814120,-0.13000,59.3750,105,49,0.37973
4814130,-0.13000,64.6250,105,49,0.37363
4814140,-0.11000,75.9375,105,49,0.36386
4814150,-0.08500,81.5000,105,49,0.36068
4814160,-0.07000,86.8125,105,49,0.35751
4814170,-0.06000,91.6875,105,49,0.35433
4814180,-0.04500,99.8125,105,49,0.34481
4814190,-0.02500,102.8750,105,49,0.33968
4814200,-0.00500,105.1875,105,49,0.33455
4814210,0.02000,106.8750,105,49,0.32943
4814220,0.04000,108.3750,105,49,0.31966
4814230,0.04000,108.4375,105,49,0.31477
4814240,0.04000,108.1250,105,49,0.30989
4814250,0.04500,107.5000,105,49,0.30501
4814260,0.06000,105.5000,105,49,0.29866
4814270,0.07500,104.1875,105,49,0.29475
4814280,0.09500,102.8125,105,49,0.29035
4814290,0.10000,101.3125,105,49,0.28596
4814300,0.09000,98.2500,105,49,0.27668
4814310,0.06500,96.7500,105,49,0.27179
4814320,0.04000,95.2500,105,49,0.26716
4814330,0.02000,93.6875,105,49,0.26276
4814340,0.00500,90.6875,105,49,0.25665
4814350,-0.02000,89.1250,105,49,0.25617
4814360,-0.05000,87.3750,105,49,0.25836
4814370,-0.06500,85.5000,105,49,0.26325
4814380,-0.05500,81.0625,105,49,0.28400
4814390,-0.04500,78.6875,105,49,0.30085
4814400,-0.04500,76.5000,105,49,0.32234
4814410,-0.05500,74.5000,105,49,0.34799
4814420,-0.05500,71.6250,105,49,0.40781
4814430,-0.05500,70.6250,105,49,0.44029
4814440,-0.05500,69.6875,105,49,0.47326
4814450,-0.05583,68.5313,105,49,0.51738
4814460,-0.05500,67.5000,105,49,0.55946
4814470,-0.05000,66.9375,105,49,0.58632
4814480,-0.05000,66.3750,105,49,0.61294
4814490,-0.05000,65.9375,105,49,0.63834
4814500,-0.04500,65.1875,105,49,0.68303
4814510,-0.04000,64.8125,105,49,0.70159
4814520,-0.03500,64.5000,105,49,0.71770
4814530,-0.02500,64.2500,105,49,0.73114
4814540,-0.01000,63.6875,105,49,0.75092
4814550,0.00000,63.3750,105,49,0.75604
4814560,0.01000,63.0625,105,49,0.75873
4814570,0.01000,62.7500,105,49,0.76093
4814580,0.00000,62.0000,105,49,0.76142
4814590,-0.03500,61.5625,105,49,0.76044
4814600,-0.05500,61.1875,105,49,0.75800
4814610,-0.07500,60.7500,105,49,0.75409
4814620,-0.09500,59.9375,105,49,0.74212
4814630,-0.11500,59.5000,105,49,0.73455
4814640,-0.12000,59.0625,105,49,0.72576
4814650,-0.12000,58.6875,105,49,0.71600
4814660,-0.12000,57.8750,105,49,0.69573
4814670,-0.12000,57.5000,105,49,0.68425
4814680,-0.11500,57.1875,105,49,0.67228
4814690,-0.10500,57.0000,105,49,0.66007
4814700,-0.10500,56.5625,105,49,0.63614
4814710,-0.11500,56.3750,105,49,0.62393
4814720,0.03000,56.1250,105,49,0.61221
4814730,0.52500,55.9375,105,49,0.60073
4814740,1.09500,55.3125,105,49,0.57924
4814750,1.00000,55.0000,105,49,0.57021
4814760,0.34000,54.6250,105,49,0.56190
4814770,-0.14500,54.2500,105,49,0.55311
4814780,-0.31000,53.5625,105,49,0.53553
4814790,-0.28500,53.1875,105,49,0.52698
4814800,-0.24500,52.8125,105,49,0.51868
4814810,-0.25000,52.4375,105,49,0.51038
4814820,-0.24000,51.6875,105,49,0.49426
4814830,-0.21000,51.3125,105,49,0.48645
4814840,-0.18000,51.0000,105,49,0.47863
4814850,-0.17000,50.6250,105,49,0.47057
4814860,-0.16000,50.0000,105,49,0.45714
4814870,-0.15500,49.7500,105,49,0.45006
4814880,-0.14500,49.6250,105,49,0.44274
4814890,-0.13500,49.8125,105,49,0.43541
4814900,-0.11500,52.5625,105,49,0.42100
4814910,-0.09500,55.8125,105,49,0.41392
4814920,-0.08000,60.3750,105,49,0.40684
4814930,-0.06500,65.6875,105,49,0.40000
4814940,-0.05500,77.0625,105,49,0.38706
4814950,-0.04500,82.6875,105,49,0.38193
4814960,-0.02500,88.0000,105,49,0.37753
4814970,-0.00500,92.9375,105,49,0.37216
4814980,0.01500,101.1250,105,49,0.36093
4814990,0.04000,104.1875,105,49,0.35531
4815000,0.05000,106.4375,105,49,0.34969
4815010,0.04000,108.0625,105,49,0.34383
4815020,0.03000,109.3750,105,49,0.33260
4815030,0.02000,109.3125,105,49,0.32723
4815040,0.01000,108.9375,105,49,0.32161
4815050,0.00000,108.2500,105,49,0.31600
4815060,-0.00500,106.2500,105,49,0.30867
4815070,-0.01000,104.9375,105,49,0.30427
4815080,-0.01500,103.6250,105,49,0.29963
4815090,-0.01500,100.6875,105,49,0.29475
4815100,-0.03000,99.2500,105,49,0.28498
4815110,-0.05500,97.7500,105,49,0.28010
4815120,-0.08000,96.3125,105,49,0.27521
4815130,-0.10500,94.8125,105,49,0.27057
4815140,-0.11000,91.8750,105,49,0.26349
4815150,-0.10500,90.3750,105,49,0.26300
4815160,-0.09000,88.6875,105,49,0.26496
4815170,-0.07500,86.8125,105,49,0.26935
4815180,-0.05500,82.4375,105,49,0.28987
4815190,-0.04500,80.0000,105,49,0.30672
4815200,-0.04000,77.6250,105,49,0.32796
4815210,-0.04000,75.5000,105,49,0.35336
4815220,-0.04500,72.1875,105,49,0.41294
4815230,-0.04500,71.0000,105,49,0.44518
4815240,-0.04500,69.9375,105,49,0.47814
4815250,-0.05000,69.1250,105,49,0.51111
4815260,-0.05500,67.8125,105,49,0.56410
4815270,-0.06500,67.3125,105,49,0.59121
4815280,-0.07000,66.8750,105,49,0.61783
4815290,-0.07500,66.5625,105,49,0.64322
4815300,-0.08000,65.8750,105,49,0.68742
4815310,-0.08500,65.5625,105,49,0.70574
4815320,-0.08500,65.1875,105,49,0.72137
4815330,-0.08000,64.8750,105,49,0.73455
4815340,-0.06500,64.1875,105,49,0.75409
4815350,-0.05000,63.8125,105,49,0.75922
4815360,-0.02500,63.4375,105,49,0.76190
4815370,-0.01500,63.0625,105,49,0.76435
4815380,-0.01500,62.3125,105,49,0.76630
4815390,-0.03500,61.9375,105,49,0.76508
4815400,-0.06500,61.5625,105,49,0.76215
4815410,-0.08500,60.7500,105,49,0.75800
4815420,-0.10000,60.3125,105,49,0.74579
4815430,-0.12000,59.8750,105,49,0.73773
4815440,-0.12500,59.4375,105,49,0.72845
4815450,-0.12500,59.0625,105,49,0.71819
4815460,-0.12000,58.3125,105,49,0.69719
4815470,-0.12000,57.8687,105,49,0.68505
4815480,-0.11833,57.5688,105,49,0.67526
4815490,-0.11500,57.2500,105,49,0.66129
4815500,-0.11000,56.7500,105,49,0.63663
4815510,-0.11500,56.5000,105,49,0.62442
4815520,-0.09500,56.3125,105,49,0.61221
4815530,0.19000,55.8125,105,49,0.60049
4815540,0.78000,55.5000,105,49,0.57851
4815550,1.09000,55.1875,105,49,0.56899
4815560,0.66000,54.8125,105,49,0.56020
4815570,-0.03500,54.5000,105,49,0.55092
4815580,-0.40500,53.7500,105,49,0.53138
4815590,-0.42000,53.3750,105,49,0.52186
4815600,-0.30000,53.0000,105,49,0.51062
4815610,-0.23000,52.6875,105,49,0.50085
4815620,-0.20500,52.0000,105,49,0.48620
4815630,-0.20000,51.6875,105,49,0.47863
4815640,-0.19000,51.3125,105,49,0.47106
4815650,-0.18000,50.9375,105,49,0.46349
4815660,-0.17500,50.3125,105,49,0.45128
4815670,-0.17500,50.0625,105,49,0.44444
4815680,-0.17000,49.8125,105,49,0.43736
4815690,-0.17000,49.7500,105,49,0.43028
4815700,-0.16000,51.1875,105,49,0.41636
4815710,-0.15500,53.5625,105,49,0.40928
4815720,-0.14500,57.3125,105,49,0.40244
4815730,-0.13500,62.2500,105,49,0.39536
4815740,-0.11500,73.6250,105,49,0.38120
4815750,-0.09500,79.4375,105,49,0.37558
4815760,-0.07500,85.0000,105,49,0.37070
4815770,-0.05500,90.2500,105,49,0.36532
4815780,-0.03500,99.1875,105,49,0.35360
4815790,-0.02000,102.7500,105,49,0.34774
4815800,-0.00500,105.5625,105,49,0.34212
4815810,0.00000,107.6875,105,49,0.33651
4815820,0.01000,109.8125,105,49,0.32552
4815830,0.01000,110.0625,105,49,0.32015
4815840,0.01500,109.8750,105,49,0.31477
4815850,0.02000,109.3750,105,49,0.30965
4815860,0.03000,107.6250,105,49,0.30232
4815870,0.03500,106.4375,105,49,0.29768
4815880,0.04500,105.0625,105,49,0.29280
4815890,0.05000,103.6250,105,49,0.28791
4815900,0.05000,100.6250,105,49,0.27814
4815910,0.03500,99.1250,105,49,0.27326
4815920,0.01500,97.6875,105,49,0.26838
4815930,0.00000,96.2500,105,49,0.26349
4815940,-0.01500,93.3125,105,49,0.25568
4815950,-0.03500,91.8125,105,49,0.25421
4815960,-0.04500,90.2500,105,49,0.25495
4815970,-0.04500,86.5625,105,49,0.25763
4815980,-0.04500,84.4375,105,49,0.27253
4815990,-0.04500,82.0625,105,49,0.28645
4816000,-0.03500,79.6875,105,49,0.30501
4816010,-0.03000,77.4375,105,49,0.32772
4816020,-0.02500,73.7500,105,49,0.38388
4816030,-0.02000,72.3750,105,49,0.41563
4816040,-0.02000,71.2500,105,49,0.44860
4816050,-0.02500,70.3125,105,49,0.48205
4816060,-0.02500,68.8125,105,49,0.53724
4816070,-0.02500,68.2500,105,49,0.56557
4816080,-0.03000,67.7500,105,49,0.59365
4816090,-0.03500,67.3125,105,49,0.62613
4816100,-0.03500,66.6250,105,49,0.67277
4816110,-0.04500,66.2500,105,49,0.69109
4816120,-0.04500,65.9375,105,49,0.70769
4816130,-0.04500,65.6250,105,49,0.72234
4816140,-0.04500,64.9375,105,49,0.74481
4816150,-0.03500,64.6250,105,49,0.75116
4816160,-0.02500,64.2500,105,49,0.75507
4816170,-0.00500,63.8750,105,49,0.75849
4816180,0.01000,63.1875,105,49,0.76215
4816190,0.00500,62.8125,105,49,0.75751
4816200,-0.01500,62.3750,105,49,0.74799
4816210,-0.04500,62.0000,105,49,0.74115
4816220,-0.06500,61.1250,105,49,0.73065
4816230,-0.08500,60.6875,105,49,0.72357
4816240,-0.10500,60.2500,105,49,0.71551
4816250,-0.12000,59.8750,105,49,0.70647
4816260,-0.11500,59.1250,105,49,0.68742
4816270,-0.11500,58.7500,105,49,0.67692
4816280,-0.11500,58.3750,105,49,0.66569
4816290,-0.11000,58.0000,105,49,0.65421
4816300,-0.10500,57.3750,105,49,0.62344
4816310,-0.10500,57.1250,105,49,0.60977
4816320,-0.11000,56.8750,105,49,0.60024
4816330,-0.07500,56.6875,105,49,0.58999
4816340,0.21500,56.2500,105,49,0.56630
4816350,0.82500,56.0000,105,49,0.55702
4816360,1.16500,55.7500,105,49,0.54750
4816370,0.68000,55.4375,105,49,0.53822
4816380,-0.06000,54.8125,105,49,0.52332
4816390,-0.42500,54.4375,105,49,0.51282
4816400,-0.42500,54.0625,105,49,0.50354
4816410,-0.30000,53.6875,105,49,0.49499
4816420,-0.23000,53.0000,105,49,0.47912
4816430,-0.22000,52.6250,105,49,0.47326
4816440,-0.20500,52.3125,105,49,0.46740
4816450,-0.19500,51.9375,105,49,0.45983
4816460,-0.18500,51.3125,105,49,0.44469
4816470,-0.18500,51.0000,105,49,0.43712
4816480,-0.18000,50.6875,105,49,0.42979
4816490,-0.18000,50.4375,105,49,0.42271
4816500,-0.17166,50.5625,105,49,0.41245
4816510,-0.16000,51.5000,105,49,0.40244
4816520,-0.15000,53.6875,105,49,0.39609
4816530,-0.14000,57.3750,105,49,0.38999
4816540,-0.12500,68.0625,105,49,0.37875
4816550,-0.11000,74.1250,105,49,0.37436
4816560,-0.09000,80.1875,105,49,0.36923
4816570,-0.07500,86.0000,105,49,0.36361
4816580,-0.05500,96.4375,105,49,0.35238
4816590,-0.04000,100.7500,105,49,0.34676
4816600,-0.01500,104.3750,105,49,0.34115
4816610,0.00000,109.3750,105,49,0.33016
4816620,0.01000,110.8125,105,49,0.32503
4816630,0.02000,111.5625,105,49,0.31990
4816640,0.03000,111.8750,105,49,0.31624
4816650,0.03000,111.7500,105,49,0.31331
4816660,0.03000,110.6250,105,49,0.30525
4816670,0.03500,109.6250,105,49,0.30085
4816680,0.03500,108.4375,105,49,0.29646
4816690,0.04000,107.1250,105,49,0.29206
4816700,0.05000,104.2500,105,49,0.28278
4816710,0.04500,102.7500,105,49,0.27790
4816720,0.03500,101.2500,105,49,0.27326
4816730,0.01000,99.7500,105,49,0.26862
4816740,-0.01000,96.7500,105,49,0.26178
4816750,-0.03000,95.3125,105,49,0.26081
4816760,-0.04500,93.8125,105,49,0.26032
4816770,-0.05500,92.3125,105,49,0.26203
4816780,-0.05500,88.7500,105,49,0.27570
4816790,-0.05000,86.6875,105,49,0.28938
4816800,-0.04500,84.4375,105,49,0.30769
4816810,-0.04500,82.1250,105,49,0.33016
4816820,-0.04000,77.6250,105,49,0.38535
4816830,-0.04000,75.7500,105,49,0.41661
4816840,-0.04000,74.1875,105,49,0.44493
4816850,-0.04000,72.8750,105,49,0.47179
4816860,-0.04000,70.9375,105,49,0.53284
4816870,-0.04500,70.3125,105,49,0.56361
4816880,-0.04500,69.6875,105,49,0.59316
4816890,-0.05000,69.2500,105,49,0.62100
4816900,-0.05000,68.5625,105,49,0.66960
4816910,-0.05500,68.2500,105,49,0.69011
4816920,-0.06000,67.8750,105,49,0.70794
4816930,-0.06500,67.5625,105,49,0.72308
4816940,-0.06000,66.8750,105,49,0.74383
4816950,-0.06000,66.5000,105,49,0.74921
4816960,-0.05000,66.1250,105,49,0.75433
4816970,-0.04500,65.7500,105,49,0.75849
4816980,-0.03000,65.0000,105,49,0.76288
4816990,-0.01500,64.6250,105,49,0.76313
4817000,-0.00500,64.1875,106,49,0.76190
4817010,-0.01667,63.7500,106,49,0.75926
4817020,-0.04000,63.3125,106,49,0.75531
4817030,-0.06500,62.8750,106,49,0.75018
4817040,-0.08000,62.4375,106,49,0.74359
4817050,-0.10000,62.0000,106,49,0.73602
4817060,-0.12500,61.1250,106,49,0.71819
4817070,-0.13000,60.6875,106,49,0.70794
4817080,-0.13000,60.2500,106,49,0.69719
4817090,-0.13500,59.8750,106,49,0.68571
4817100,-0.13000,59.1250,106,49,0.66178
4817110,-0.12500,58.8125,106,49,0.64957
4817120,-0.11500,58.4375,106,49,0.63761
4817130,-0.11500,58.1250,106,49,0.62589
4817140,-0.12500,57.6250,106,49,0.60317
4817150,0.05000,57.3750,106,49,0.59316
4817160,0.73000,57.1250,106,49,0.58388
4817170,1.16500,56.6250,106,49,0.57436
4817180,0.98000,56.3750,106,49,0.55531
4817190,0.18500,56.1250,106,49,0.54603
4817200,-0.36500,55.8750,106,49,0.53675
4817210,-0.46500,55.5625,106,49,0.52747
4817220,-0.34500,54.8750,106,49,0.50989
4817230,-0.24000,54.5000,106,49,0.50134
4817240,-0.22000,54.1250,106,49,0.49328
4817250,-0.21000,53.8125,106,49,0.48620
4817260,-0.20500,53.1250,106,49,0.47277
4817270,-0.19500,52.8125,106,49,0.46545
4817280,-0.19000,52.4375,106,49,0.45788
4817290,-0.18000,52.0625,106,49,0.45031
4817300,-0.17500,51.5000,106,49,0.43541
4817310,-0.16500,51.2500,106,49,0.42808
4817320,-0.15500,51.2500,106,49,0.42100
4817330,-0.14500,51.8125,106,49,0.41392
4817340,-0.14500,56.5000,106,49,0.40000
4817350,-0.13500,61.0000,106,49,0.39438
4817360,-0.12000,66.5625,106,49,0.38950
4817370,-0.10500,72.6250,106,49,0.38388
4817380,-0.09000,84.8125,106,49,0.37216
4817390,-0.07500,90.5625,106,49,0.36630
4817400,-0.05500,95.8125,106,49,0.36044
4817410,-0.03500,100.5000,106,49,0.35482
4817420,-0.01500,107.6875,106,49,0.34383
4817430,-0.00500,110.0625,106,49,0.33822
4817440,0.00000,111.7500,106,49,0.33284
4817450,0.01000,112.6875,106,49,0.32869
4817460,0.01000,113.0625,106,49,0.32088
4817470,0.01500,112.6250,106,49,0.31624
4817480,0.02000,112.0000,106,49,0.31111
4817490,0.03000,111.0625,106,49,0.30623
4817500,0.04000,108.7500,106,49,0.29646
4817510,0.05000,107.3750,106,49,0.29158
4817520,0.05500,106.0000,106,49,0.28694
4817530,0.05000,104.5000,106,49,0.28230
4817540,0.04000,101.5000,106,49,0.27277
4817550,0.02000,99.9375,106,49,0.26960
4817560,-0.00500,98.4375,106,49,0.26716
4817570,-0.01500,97.0000,106,49,0.26422
4817580,-0.02500,94.0000,106,49,0.26203
4817590,-0.02500,92.3750,106,49,0.26471
4817600,-0.03000,90.6250,106,49,0.27106
4817610,-0.03500,88.6250,106,49,0.28181
4817620,-0.03000,83.9375,106,49,0.31746
4817630,-0.02500,81.5000,106,49,0.34212
4817640,-0.02500,79.2500,106,49,0.37021
4817650,-0.02500,77.2500,106,49,0.39683
4817660,-0.03000,74.1250,106,49,0.45372
4817670,-0.03500,72.9375,106,49,0.48645
4817680,-0.04000,71.9375,106,49,0.51966
4817690,-0.04500,71.1875,106,49,0.55238
4817700,-0.05500,70.0000,106,49,0.61368
4817710,-0.05500,69.5625,106,49,0.64103
4817720,-0.05500,69.1875,106,49,0.66593
4817730,-0.05500,68.8750,106,49,0.68791
4817740,-0.06000,68.2500,106,49,0.72308
4817750,-0.06000,67.9375,106,49,0.73455
4817760,-0.06500,67.5625,106,49,0.74261
4817770,-0.06000,67.1875,106,49,0.75043
4817780,-0.05000,66.3750,106,49,0.76215
4817790,-0.03500,65.9375,106,49,0.76581
4817800,-0.01500,65.5000,106,49,0.76801
4817810,-0.00500,65.0625,106,49,0.76874
4817820,-0.00500,64.1875,106,49,0.76630
4817830,-0.02000,63.7500,106,49,0.76288
4817840,-0.05000,63.2500,106,49,0.75800
4817850,-0.06500,62.8125,106,49,0.75189
4817860,-0.08500,61.8750,106,49,0.73626
4817870,-0.10500,61.4375,106,49,0.72674
4817880,-0.12000,61.0000,106,49,0.71648
4817890,-0.11500,60.5625,106,49,0.70574
4817900,-0.11500,59.7500,106,49,0.68181
4817910,-0.11000,59.3125,106,49,0.66935
4817920,-0.10500,58.9375,106,49,0.65665
4817930,-0.09500,58.5625,106,49,0.64396
4817940,-0.09000,57.9375,106,49,0.61954
4817950,-0.09500,57.6250,106,49,0.60855
4817960,-0.04000,57.3750,106,49,0.59853
4817970,0.29500,57.1250,106,49,0.58803
4817980,0.93000,56.6250,106,49,0.56728
4817990,1.16500,56.3750,106,49,0.55727
4818000,0.56500,56.1250,106,49,0.54750
4818010,-0.15000,55.8750,106,49,0.53797
4818020,-0.41500,55.3125,106,49,0.51941
4818030,-0.35500,55.0000,106,49,0.51038
4818040,-0.22500,54.6250,106,49,0.50134
4818050,-0.17500,54.2500,106,49,0.49353
4818060,-0.17500,53.5000,106,49,0.47888
4818070,-0.17000,53.1250,106,49,0.47082
4818080,-0.16000,52.7500,106,49,0.46276
4818090,-0.15000,52.3750,106,49,0.45470
4818100,-0.14500,51.7500,106,49,0.43907
4818110,-0.14000,51.4375,106,49,0.43126
4818120,-0.13500,51.1250,106,49,0.42369
4818130,-0.12500,50.8750,106,49,0.41636
4818140,-0.10500,51.5000,106,49,0.40122
4818150,-0.09500,53.0625,106,49,0.39512
4818160,-0.09500,56.0000,106,49,0.38974
4818170,-0.08500,60.4375,106,49,0.38339
4818180,-0.07500,71.8125,106,49,0.36972
4818190,-0.05500,77.8750,106,49,0.36288
4818200,-0.04500,83.8750,106,49,0.35604
4818210,-0.03000,89.5625,106,49,0.34921
4818220,-0.01500,99.3750,106,49,0.33578
4818230,0.00500,103.3125,106,49,0.32894
4818240,0.02500,106.5625,106,49,0.32015
4818250,0.04000,110.5625,106,49,0.31160
4818260,0.04500,111.5625,106,49,0.30037
4818270,0.05000,111.9375,106,49,0.29524
4818280,0.05000,111.8125,106,49,0.29011
4818290,0.05000,111.3750,106,49,0.28523
4818300,0.06000,109.5625,106,49,0.27595
4818310,0.07000,108.3125,106,49,0.27131
4818320,0.08000,106.9375,106,49,0.26667
4818330,0.09000,105.4375,106,49,0.26203
4818340,0.09000,102.2500,106,49,0.25421
4818350,0.08000,100.6875,106,49,0.25153
4818360,0.06500,99.0625,106,49,0.24786
4818370,0.05000,97.5000,106,49,0.24371
4818380,0.03500,94.4375,106,49,0.23639
4818390,0.03000,92.8750,106,49,0.23443
4818400,0.02500,91.3125,106,49,0.23443
4818410,0.02500,89.6250,106,49,0.23712
4818420,0.03000,85.6250,106,49,0.25397
4818430,0.03000,83.2500,106,49,0.26886
4818440,0.03000,80.8750,106,49,0.28816
4818450,0.02000,78.5625,106,49,0.30818
4818460,0.01000,74.7500,106,49,0.35653
4818470,0.02000,73.2500,106,49,0.38632
4818480,0.02500,72.0625,106,49,0.41807
4818490,0.02000,71.0625,106,49,0.45055
4818500,0.01000,69.6875,106,49,0.51502
4818510,0.00000,69.1875,106,49,0.54554
4818520,-0.01500,68.7500,106,49,0.57411
4818530,-0.02000,68.3750,106,49,0.60024
4818540,-0.02000,67.7500,106,49,0.64200
4818550,-0.02000,67.3854,106,49,0.66109
4818560,-0.02000,67.1250,106,49,0.67057
4818570,-0.02000,66.8125,106,49,0.68352
4818580,-0.02000,66.1875,106,49,0.70330
4818590,-0.00500,65.8125,106,49,0.71013
4818600,0.00000,65.4375,106,49,0.71502
4818610,0.02000,65.0625,106,49,0.71795
4818620,0.03500,64.1875,106,49,0.71868
4818630,0.05000,63.7500,106,49,0.71673
4818640,0.04500,63.3125,106,49,0.71355
4818650,0.02000,62.9375,106,49,0.70891
4818660,-0.00500,62.1250,106,49,0.69646
4818670,-0.03000,61.7500,106,49,0.68913
4818680,-0.06500,61.3125,106,49,0.68107
4818690,-0.08500,60.8750,106,49,0.67204
4818700,-0.09000,59.9375,106,49,0.65153
4818710,-0.09000,59.5000,106,49,0.64029
4818720,-0.09500,59.0000,106,49,0.62882
4818730,-0.08500,58.5625,106,49,0.61709
4818740,-0.08500,57.7500,106,49,0.59414
4818750,-0.07500,57.4375,106,49,0.58388
4818760,-0.07000,57.1250,106,49,0.57289
4818770,-0.08500,56.8750,106,49,0.56190
4818780,0.00000,56.3750,106,49,0.54115
4818790,0.38000,56.1875,106,49,0.53114
4818800,0.96500,56.0000,106,49,0.52161
4818810,1.02000,55.7500,106,49,0.51258
4818820,0.36000,55.1250,106,49,0.49499
4818830,-0.24000,54.8750,106,49,0.48645
4818840,-0.46000,54.5000,106,49,0.47790
4818850,-0.39500,54.1250,106,49,0.47057
4818860,-0.28500,53.4375,106,49,0.45714
4818870,-0.23000,53.0625,106,49,0.45006
4818880,-0.22000,52.6875,106,49,0.44274
4818890,-0.20000,52.3125,106,49,0.43565
4818900,-0.19000,51.5625,106,49,0.42149
4818910,-0.17500,51.1875,106,49,0.41441
4818920,-0.17000,50.8750,106,49,0.40733
4818930,-0.16000,50.5000,106,49,0.40024
4818940,-0.14500,50.0000,106,49,0.38681
4818950,-0.12500,49.9375,106,49,0.38144
4818960,-0.10500,50.3125,106,49,0.37534
4818970,-0.09000,51.3750,106,49,0.36874
4818980,-0.08500,57.3125,106,49,0.35507
4818990,-0.07500,62.1875,106,49,0.34847
4819000,-0.06500,67.6875,107,49,0.34212
4819010,-0.05000,73.3750,107,49,0.33602
4819020,-0.03500,84.6250,107,49,0.32405
4819030,-0.02000,89.8125,107,49,0.31844
4819040,-0.00500,94.5000,107,49,0.31306
4819050,0.00500,98.6250,107,49,0.30891
4819060,0.01500,104.5625,107,49,0.30134
4819070,0.02000,106.4375,107,49,0.29670
4819080,0.02500,107.5625,107,49,0.29206
4819090,0.03000,108.0625,107,49,0.28742
4819100,0.04000,107.6250,107,49,0.27814
4819110,0.05000,106.8750,107,49,0.27375
4819120,0.07000,105.8750,107,49,0.26935
4819130,0.08500,104.6875,107,49,0.26496
4819140,0.10000,101.8750,107,49,0.25739
4819150,0.11500,100.3125,107,49,0.25519
4819160,0.11000,98.7500,107,49,0.25177
4819170,0.09500,97.1875,107,49,0.24786
4819180,0.07000,94.0625,107,49,0.23956
4819190,0.04000,92.5625,107,49,0.23590
4819200,0.02000,91.0625,107,49,0.23248
4819210,0.01000,89.5000,107,49,0.23004
4819220,0.00000,86.0000,107,49,0.23077
4819230,-0.00500,84.0000,107,49,0.23541
4819240,-0.00500,81.8125,107,49,0.24371
4819250,-0.00500,79.5000,107,49,0.25470
4819260,-0.00500,75.0625,107,49,0.28669
4819270,0.00000,73.2500,107,49,0.30916
4819280,0.00500,71.7500,107,49,0.33504
4819290,0.00000,70.4375,107,49,0.36337
4819300,-0.00500,68.5625,107,49,0.42393
4819310,-0.01000,67.9375,107,49,0.45446
4819320,-0.02500,67.3750,107,49,0.48425
4819330,-0.03500,66.9375,107,49,0.51306
4819340,-0.04500,66.3125,107,49,0.56215
4819350,-0.04500,66.0000,107,49,0.58046
4819360,-0.04500,65.7500,107,49,0.59902
4819370,-0.04500,65.5000,107,49,0.61661
4819380,-0.04500,65.0000,107,49,0.64615
4819390,-0.04000,64.6875,107,49,0.65739
4819400,-0.03500,64.3750,107,49,0.66618
4819410,-0.02500,64.0000,107,49,0.67302
4819420,-0.01000,63.3125,107,49,0.68034
4819430,0.00500,62.9375,107,49,0.68132
4819440,0.01000,62.5625,107,49,0.68059
4819450,0.01000,62.1875,107,49,0.67814
4819460,-0.01000,61.4375,107,49,0.67033
4819470,-0.03500,61.0625,107,49,0.66496
4819480,-0.05500,60.6875,107,49,0.65836
4819490,-0.07500,60.2500,107,49,0.65031
4819500,-0.10000,59.4375,107,49,0.63053
4819510,-0.11500,59.0000,107,49,0.61929
4819520,-0.11500,58.5625,107,49,0.60757
4819530,-0.11000,58.1875,107,49,0.59560
4819540,-0.11000,57.4375,107,49,0.57289
4819550,-0.11000,57.1250,107,49,0.56288
4819560,-0.10500,56.7500,107,49,0.55287
4819570,-0.10000,56.5000,107,49,0.54286
4819580,-0.11000,56.0000,107,49,0.52357
4819590,-0.09500,55.7500,107,49,0.51404
4819600,0.15500,55.5625,107,49,0.50476
4819610,0.71000,55.3125,107,49,0.49573
4819620,1.06000,54.7500,107,49,0.47839
4819630,0.70500,54.5000,107,49,0.47009
4819640,0.01500,54.1875,107,49,0.46227
4819650,-0.37500,53.8125,107,49,0.45543
4819660,-0.42500,53.1250,107,49,0.44298
4819670,-0.32000,52.8125,107,49,0.43639
4819680,-0.23500,52.4375,107,49,0.42979
4819690,-0.21000,52.1250,107,49,0.42320
4819700,-0.20000,51.5000,107,49,0.41026
4819710,-0.18000,51.1875,107,49,0.40415
4819720,-0.17500,50.8750,107,49,0.39805
4819730,-0.16500,50.5000,107,49,0.39219
4819740,-0.16000,49.9375,107,49,0.38120
4819750,-0.15000,49.6875,107,49,0.37680
4819760,-0.14000,49.5000,107,49,0.37192
4819770,-0.12500,49.5000,107,49,0.36679
4819780,-0.11500,51.1875,107,49,0.35604
4819790,-0.10500,53.6875,107,49,0.35067
4819800,-0.09500,57.5625,107,49,0.34530
4819810,-0.08000,62.5000,107,49,0.33993
4819820,-0.07500,73.5625,107,49,0.32967
4819830,-0.06500,79.1250,107,49,0.32479
4819840,-0.05500,84.5625,107,49,0.32015
4819850,-0.03500,89.6250,107,49,0.31673
4819860,-0.02500,98.2500,107,49,0.31038
4819870,-0.00500,101.5625,107,49,0.30647
4819880,0.00500,104.1250,107,49,0.30232
4819890,0.02000,106.0000,107,49,0.29792
4819900,0.02500,107.8125,107,49,0.28889
4819910,0.02500,107.9375,107,49,0.28425
4819920,0.03000,107.6250,107,49,0.27937
4819930,0.04000,107.0000,107,49,0.27424
4819940,0.04500,104.8750,107,49,0.26569
4819950,0.05500,103.5625,107,49,0.26325
4819960,0.06000,102.1250,107,49,0.25983
4819970,0.06500,100.6250,107,49,0.25617
4819980,0.06000,97.5625,107,49,0.24860
4819990,0.04000,95.9375,107,49,0.24444
4820000,0.02000,94.3125,107,50,0.24054
4820010,0.00000,92.6875,107,50,0.23712
4820020,-0.01500,89.5000,107,50,0.23248
4820030,-0.02000,87.8750,107,50,0.23248
4820040,-0.02000,86.1250,107,50,0.23492
4820050,-0.01500,84.1875,107,50,0.24005
4820060,-0.01500,79.7500,107,50,0.26032
4820070,-0.01000,77.5000,107,50,0.27668
4820080,-0.00500,75.4375,107,50,0.29744
4820090,0.00000,73.6875,107,50,0.32186
4820100,0.00500,70.9375,107,50,0.37924
4820110,0.01000,69.9375,107,50,0.41026
4820120,0.00500,69.1250,107,50,0.44176
4820130,-0.00500,68.4375,107,50,0.47302
4820140,-0.01500,67.3750,107,50,0.52918
4820150,-0.02000,67.0000,107,50,0.55140
4820160,-0.02500,66.6250,107,50,0.57485
4820170,-0.03500,66.3125,107,50,0.59756
4820180,-0.04000,65.6875,107,50,0.63736
4820190,-0.05000,65.3750,107,50,0.65372
4820200,-0.06500,65.0625,107,50,0.66764
4820210,-0.06500,64.7500,107,50,0.67912
4820220,-0.06000,64.0625,107,50,0.69548
4820230,-0.04500,63.6875,107,50,0.70037
4820240,-0.02500,63.2500,107,50,0.70232
4820250,-0.01000,62.8750,107,50,0.70208
4820260,-0.00500,62.0625,107,50,0.69915
4820270,-0.01500,61.6250,107,50,0.69621
4820280,-0.03500,61.1875,107,50,0.69206
4820290,-0.05000,60.8125,107,50,0.69402
4820300,-0.06500,60.0000,107,50,0.69621
4820310,-0.08500,59.5625,107,50,0.69084
4820320,-0.10500,59.1875,107,50,0.68303
4820330,-0.10500,58.8125,107,50,0.67375
4820340,-0.10500,58.0625,107,50,0.65348
4820350,-0.10500,57.6875,107,50,0.64347
4820360,-0.10000,57.3125,107,50,0.63272
4820370,-0.09500,57.0000,107,50,0.62173
4820380,-0.09000,56.4375,107,50,0.59951
4820390,-0.09000,56.1875,107,50,0.58877
4820400,-0.10500,56.0000,107,50,0.57851
4820410,-0.00500,55.8125,107,50,0.56874
4820420,0.41000,55.2500,107,50,0.55018
4820430,1.00000,55.0000,107,50,0.54139
4820440,1.00000,54.6875,107,50,0.53382
4820450,0.34500,54.3750,107,50,0.52698
4820460,-0.23000,53.6875,107,50,0.51233
4820470,-0.44000,53.3750,107,50,0.50501
4820480,-0.37500,53.0000,107,50,0.49744
4820490,-0.26500,52.6250,107,50,0.48987
4820500,-0.22000,52.0000,107,50,0.47473
4820510,-0.20000,51.6875,107,50,0.46716
4820520,-0.19000,51.3125,107,50,0.45958
4820530,-0.17500,51.0625,107,50,0.45250
4820540,-0.17000,50.4375,107,50,0.44005
4820550,-0.17000,50.1250,107,50,0.43492
4820560,-0.17000,49.8125,107,50,0.42882
4820570,-0.16000,49.5625,107,50,0.42271
4820580,-0.14500,49.5625,107,50,0.41026
4820590,-0.13500,50.1875,107,50,0.40415
4820600,-0.12500,50.9375,107,50,0.39886
4820610,-0.11500,54.6250,107,50,0.39170
4820620,-0.10500,64.0625,107,50,0.37998
4820630,-0.09000,69.6250,107,50,0.37436
4820640,-0.07500,75.3125,107,50,0.37021
4820650,-0.05500,80.9375,107,50,0.36679
4820660,-0.04500,91.4375,107,50,0.35775
4820670,-0.02500,95.9375,107,50,0.35311
4820680,-0.01000,99.8125,107,50,0.34823
4820690,0.00500,103.0000,107,50,0.34335
4820700,0.01500,107.2500,107,50,0.33358
4820710,0.02500,108.3125,107,50,0.32869
4820720,0.03000,108.8125,107,50,0.32405
4820730,0.03500,108.8125,107,50,0.31941
4820740,0.04000,107.7500,107,50,0.31184
4820750,0.05500,106.8125,107,50,0.30940
4820760,0.06000,105.6875,107,50,0.30598
4820770,0.07000,104.3750,107,50,0.30208
4820780,0.08000,101.5000,107,50,0.29402
4820790,0.07500,99.9375,107,50,0.28987
4820800,0.06000,98.3750,107,50,0.28571
4820810,0.03500,96.8125,107,50,0.28132
4820820,0.01500,93.8125,107,50,0.27326
4820830,0.00000,92.3125,107,50,0.27009
4820840,-0.01500,90.8125,107,50,0.26911
4820850,-0.02500,89.2500,107,50,0.27009
4820860,-0.02000,85.6875,107,50,0.27888
4820870,-0.01500,83.5625,107,50,0.28816
4820880,-0.01000,81.3125,107,50,0.30183
4820890,-0.00500,78.9375,107,50,0.32015
4820900,-0.00500,74.7500,107,50,0.36874
4820910,0.00000,73.0625,107,50,0.39780
4820920,0.00000,71.6875,107,50,0.42857
4820930,-0.00500,70.6250,107,50,0.46056
4820940,-0.00500,68.9375,107,50,0.52015
4820950,-0.01000,68.2500,107,50,0.54481
4820960,-0.01500,67.7500,107,50,0.57167
4820970,-0.02500,67.2500,107,50,0.59853
4820980,-0.03500,66.5625,107,50,0.64835
4820990,-0.03500,66.2500,107,50,0.67009
4821000,-0.04000,65.9375,108,50,0.68938
4821010,-0.04500,65.5625,108,50,0.70598
4821020,-0.04500,64.9375,108,50,0.73138
4821030,-0.03500,64.5625,108,50,0.74066
4821040,-0.02500,64.1875,108,50,0.74603
4821050,-0.01000,63.8125,108,50,0.74872
4821060,0.00000,63.1250,108,50,0.75263
4821070,0.01000,62.6875,108,50,0.75263
4821080,0.00500,62.3125,108,50,0.75140
4821090,-0.01500,61.9375,108,50,0.74872
4821100,-0.04500,61.1250,108,50,0.73968
4821110,-0.05500,60.6875,108,50,0.73333
4821120,-0.07500,60.2500,108,50,0.72601
4821130,-0.09500,59.8125,108,50,0.71746
4821140,-0.10500,59.0000,108,50,0.69817
4821150,-0.10500,58.6250,108,50,0.68816
4821160,-0.10500,58.2500,108,50,0.67741
4821170,-0.10500,57.8750,108,50,0.66618
4821180,-0.10500,57.1875,108,50,0.64298
4821190,-0.10500,56.8750,108,50,0.63126
4821200,-0.10500,56.6250,108,50,0.61954
4821210,-0.11000,56.3750,108,50,0.60806
4821220,-0.06500,55.9375,108,50,0.58632
4821230,0.24500,55.6875,108,50,0.57607
4821240,0.83500,55.4375,108,50,0.56703
4821250,1.08500,55.1250,108,50,0.55849
4821260,0.55500,54.4375,108,50,0.54090
4821270,-0.12500,54.0625,108,50,0.53211
4821280,-0.44000,53.7500,108,50,0.52357
4821290,-0.44000,53.3750,108,50,0.51526
4821300,-0.32000,52.6875,108,50,0.49915
4821310,-0.25000,52.3125,108,50,0.49109
4821320,-0.24000,51.9375,108,50,0.48327
4821330,-0.22500,51.6250,108,50,0.47546
4821340,-0.21500,50.9375,108,50,0.46105
4821350,-0.20500,50.6250,108,50,0.45519
4821360,-0.20000,50.3125,108,50,0.44860
4821370,-0.19500,49.9375,108,50,0.44176
4821380,-0.18000,49.3750,108,50,0.42808
4821390,-0.16000,49.3125,108,50,0.42149
4821400,-0.14000,49.5625,108,50,0.41514
4821410,-0.11500,50.5000,108,50,0.40879
4821420,-0.09500,56.1250,108,50,0.39609
4821430,-0.08000,60.8125,108,50,0.38974
4821440,-0.06500,66.3125,108,50,0.38462
4821450,-0.04500,72.0000,108,50,0.38046
4821460,-0.02500,83.3750,108,50,0.36996
4821470,-0.01500,88.6875,108,50,0.36484
4821480,0.00500,93.5625,108,50,0.35946
4821490,0.02500,97.9375,108,50,0.35409
4821500,0.04500,104.6250,108,50,0.34335
4821510,0.07000,106.9375,108,50,0.33797
4821520,0.08000,108.4375,108,50,0.33260
4821530,0.09000,109.3750,108,50,0.32747
4821540,0.09500,109.6875,108,50,0.31868
4821550,0.09500,109.2500,108,50,0.31600
4821560,0.09500,108.5000,108,50,0.31233
4821570,0.10000,107.5000,108,50,0.30818
4821580,0.10500,105.0000,108,50,0.29939
4821590,0.11000,103.6250,108,50,0.29499
4821600,0.11000,102.1250,108,50,0.29060
4821610,0.10000,100.6250,108,50,0.28596
4821620,0.08250,98.3542,108,50,0.27867
4821630,0.06000,96.0625,108,50,0.27204
4821640,0.03500,94.5000,108,50,0.26935
4821650,0.02000,93.0000,108,50,0.26789
4821660,0.00500,89.8125,108,50,0.26764
4821670,0.00000,88.0625,108,50,0.27131
4821680,0.00000,86.1250,108,50,0.27863
4821690,-0.00500,84.0000,108,50,0.28987
4821700,-0.01000,79.2500,108,50,0.32601
4821710,-0.01000,76.9375,108,50,0.34994
4821720,-0.01000,74.8750,108,50,0.37729
4821730,-0.00500,73.1875,108,50,0.40708
4821740,-0.00500,70.6250,108,50,0.46667
4821750,-0.00500,69.6875,108,50,0.49280
4821760,-0.01500,68.8750,108,50,0.52186
4821770,-0.02000,67.6875,108,50,0.55140
4821780,-0.02500,67.2500,108,50,0.60806
4821790,-0.03000,66.8750,108,50,0.63394
4821800,-0.03500,66.5625,108,50,0.65739
4821810,-0.04500,66.1875,108,50,0.67839
4821820,-0.04500,65.5625,108,50,0.71184
4821830,-0.04500,65.1875,108,50,0.72479
4821840,-0.04000,64.8750,108,50,0.73333
4821850,-0.03500,64.5625,108,50,0.73895
4821860,-0.03000,63.9375,108,50,0.74847
4821870,-0.01500,63.6250,108,50,0.75140
4821880,0.00000,63.2500,108,50,0.75287
4821890,0.00500,62.8750,108,50,0.75287
4821900,0.00000,62.0625,108,50,0.74896
4821910,-0.02500,61.6875,108,50,0.74505
4821920,-0.05000,61.3125,108,50,0.73968
4821930,-0.07000,60.5000,108,50,0.73309
4821940,-0.09000,60.0625,108,50,0.71746
4821950,-0.11000,59.6250,108,50,0.70818
4821960,-0.11500,59.2500,108,50,0.69792
4821970,-0.11500,58.8125,108,50,0.68694
4821980,-0.11500,58.0000,108,50,0.66349
4821990,-0.11000,57.6250,108,50,0.65153
4822000,-0.10500,57.2500,108,50,0.63956
4822010,-0.10000,56.9375,108,50,0.62784
4822020,-0.09500,56.4375,108,50,0.60513
4822030,-0.10500,56.2500,108,50,0.59414
4822040,-0.02000,56.0000,108,50,0.58462
4822050,0.37000,55.7500,108,50,0.57558
4822060,0.98000,55.1875,108,50,0.55702
4822070,1.06500,54.9375,108,50,0.54774
4822080,0.45500,54.6250,108,50,0.53846
4822090,-0.16500,54.3125,108,50,0.52943
4822100,-0.41500,53.6250,108,50,0.51184
4822110,-0.36500,53.3125,108,50,0.50354
4822120,-0.25000,52.9375,108,50,0.49548
4822130,-0.20000,52.5625,108,50,0.48791
4822140,-0.18500,51.9375,108,50,0.47521
4822150,-0.17000,51.6250,108,50,0.46862
4822160,-0.15500,51.3125,108,50,0.46154
4822170,-0.15000,51.0000,108,50,0.45446
4822180,-0.15000,50.3125,108,50,0.44005
4822190,-0.15000,50.0000,108,50,0.43297
4822200,-0.14000,49.8125,108,50,0.42613
4822210,-0.13000,49.7500,108,50,0.41929
4822220,-0.11500,51.1250,108,50,0.40586
4822230,-0.10500,53.5000,108,50,0.39951
4822240,-0.09500,57.3125,108,50,0.39414
4822250,-0.09000,62.2500,108,50,0.38950
4822260,-0.07500,73.7500,108,50,0.37851
4822270,-0.06000,79.5625,108,50,0.37289
4822280,-0.04500,85.2500,108,50,0.36728
4822290,-0.03500,90.6250,108,50,0.36166
4822300,-0.02000,99.8125,108,50,0.35116
4822310,-0.00500,103.4375,108,50,0.34603
4822320,0.00000,106.3750,108,50,0.34090
4822330,0.00000,108.4375,108,50,0.33578
4822340,0.00500,110.6875,108,50,0.31990
4822350,0.00000,110.9375,108,50,0.31306
4822360,0.00000,110.8125,108,50,0.30696
4822370,0.00000,110.3750,108,50,0.30159
4822380,0.00500,108.6250,108,50,0.29133
4822390,0.01000,107.4375,108,50,0.28645
4822400,0.01500,106.1250,108,50,0.28181
4822410,0.02500,104.6875,108,50,0.27717
4822420,0.03000,101.6875,108,50,0.26838
4822430,0.01500,100.1250,108,50,0.26374
4822440,-0.00500,98.6250,108,50,0.26081
4822450,-0.03000,97.0625,108,50,0.25861
4822460,-0.04500,94.1250,108,50,0.25299
4822470,-0.05500,92.6250,108,50,0.25177
4822480,-0.05500,91.1250,108,50,0.25299
4822490,-0.05500,89.4375,108,50,0.25739
4822500,-0.05500,85.5000,108,50,0.27863
4822510,-0.04500,83.1875,108,50,0.29597
4822520,-0.04000,80.7500,108,50,0.31795
4822530,-0.03500,76.1250,108,50,0.36899
4822540,-0.03500,74.2500,108,50,0.39463
4822550,-0.03500,72.7500,108,50,0.42466
4822560,-0.02500,71.5625,108,50,0.45665
4822570,-0.03000,70.5625,108,50,0.48962
4822580,-0.03500,69.1250,108,50,0.55531
4822590,-0.04500,68.6250,108,50,0.58657
4822600,-0.05500,68.1250,108,50,0.61587
4822610,-0.06000,67.6875,108,50,0.64274
4822620,-0.06500,67.0000,108,50,0.68816
4822630,-0.07500,66.6875,108,50,0.70647
4822640,-0.07500,66.3750,108,50,0.71966
4822650,-0.07417,65.8750,108,50,0.73415
4822660,-0.07000,65.3750,108,50,0.74628
4822670,-0.06000,65.0625,108,50,0.75238
4822680,-0.04500,64.6875,108,50,0.75678
4822690,-0.02500,64.3125,108,50,0.75946
4822700,-0.00500,63.5625,108,50,0.75971
4822710,-0.00500,63.1875,108,50,0.75775
4822720,-0.01500,62.7500,108,50,0.75458
4822730,-0.04500,62.3125,108,50,0.75018
4822740,-0.06500,61.5000,108,50,0.73773
4822750,-0.08500,61.1250,108,50,0.72967
4822760,-0.10500,60.6875,108,50,0.72063
4822770,-0.12500,60.2500,108,50,0.71038
4822780,-0.12500,59.4375,108,50,0.68767
4822790,-0.12500,59.0625,108,50,0.67546
4822800,-0.13000,58.6875,108,50,0.66276
4822810,-0.12500,58.3125,108,50,0.65006
4822820,-0.12000,57.6250,108,50,0.62442
4822830,-0.11500,57.2500,108,50,0.61197
4822840,-0.11500,57.0000,108,50,0.60098
4822850,-0.11500,56.7500,108,50,0.59096
4822860,0.07000,56.3125,108,50,0.56996
4822870,0.60000,56.0625,108,50,0.55971
4822880,1.13500,55.8125,108,50,0.54945
4822890,0.93000,55.5000,108,50,0.53944
4822900,0.17000,54.8750,108,50,0.52015
4822910,-0.34500,54.5625,108,50,0.51111
4822920,-0.45500,54.1875,108,50,0.50208
4822930,-0.34000,53.8750,108,50,0.49353
4822940,-0.24000,53.1875,108,50,0.47961
4822950,-0.22500,52.8750,108,50,0.47253
4822960,-0.21500,52.5625,108,50,0.46520
4822970,-0.20500,51.8750,108,50,0.45788
4822980,-0.19500,51.5625,108,50,0.44347
4822990,-0.19500,51.3125,108,50,0.43639
4823000,-0.19500,51.0000,108,50,0.42930
4823010,-0.19000,50.6875,108,50,0.42247
4823020,-0.18000,50.3750,108,50,0.40879
4823030,-0.17000,50.6875,108,50,0.40220
4823040,-0.16000,51.8125,108,50,0.39707
4823050,-0.15500,54.1875,108,50,0.39243
4823060,-0.14500,63.3125,108,50,0.38169
4823070,-0.12500,69.1875,108,50,0.37582
4823080,-0.11000,75.2500,108,50,0.36996
4823090,-0.09500,81.3125,108,50,0.36410
4823100,-0.08000,92.6250,108,50,0.35263
4823110,-0.06500,97.6250,108,50,0.34725
4823120,-0.04500,102.0625,108,50,0.34188
4823130,-0.02500,105.7500,108,50,0.33675
4823140,-0.00500,110.6875,108,50,0.32991
4823150,0.00000,112.0625,108,50,0.32576
4823160,0.01000,112.8750,108,50,0.32137
4823170,0.01500,113.1250,108,50,0.31673
4823180,0.02000,112.5625,108,50,0.30696
4823190,0.02000,111.8750,108,50,0.30232
4823200,0.03000,110.9375,108,50,0.29792
4823210,0.04500,109.8125,108,50,0.29353
4823220,0.06000,107.1250,108,50,0.28498
4823230,0.07000,105.6250,108,50,0.28059
4823240,0.07500,104.1250,108,50,0.27741
4823250,0.05500,102.5625,108,50,0.27497
4823260,0.03000,99.4375,108,50,0.26838
4823270,0.01000,97.8125,108,50,0.26520
4823280,-0.00500,96.3125,108,50,0.26300
4823290,-0.02000,94.7500,108,50,0.26276
4823300,-0.02500,91.5000,108,50,0.27033
4823310,-0.02500,89.6875,108,50,0.27961
4823320,-0.02500,87.6875,108,50,0.29328
4823330,-0.03000,85.3750,108,50,0.31184
4823340,-0.03000,80.5625,108,50,0.35311
4823350,-0.02500,78.3750,108,50,0.38022
4823360,-0.02500,76.4375,108,50,0.41099
4823370,-0.02500,74.8750,108,50,0.44396
4823380,-0.03500,72.4375,108,50,0.51355
4823390,-0.04000,71.5000,108,50,0.54847
4823400,-0.04500,70.7500,108,50,0.58242
4823410,-0.05000,70.1250,108,50,0.61490
4823420,-0.05500,69.2500,108,50,0.67277
4823430,-0.06500,68.8750,108,50,0.69768
4823440,-0.07000,68.5625,108,50,0.71648
4823450,-0.07500,68.2500,108,50,0.73089
4823460,-0.08000,67.5625,108,50,0.75800
4823470,-0.08000,67.2500,108,50,0.76850
4823480,-0.07500,66.8750,108,50,0.77680
4823490,-0.06500,66.5000,108,50,0.78315
4823500,-0.05500,65.8125,108,50,0.78999
4823510,-0.03500,65.3750,108,50,0.79072
4823520,-0.02000,65.0000,108,50,0.78974
4823530,-0.01000,64.5625,108,50,0.78755
4823540,-0.01000,63.6875,108,50,0.77827
4823550,-0.03500,63.2500,108,50,0.77265
4823560,-0.06000,62.8125,108,50,0.76606
4823570,-0.08500,62.3750,108,50,0.75824
4823580,-0.10500,61.5000,108,50,0.73944
4823590,-0.12500,61.0625,108,50,0.72869
4823600,-0.13500,60.6875,108,50,0.71746
4823610,-0.13500,60.2500,108,50,0.70549
4823620,-0.13500,59.4375,108,50,0.68083
4823630,-0.13000,59.0000,108,50,0.66838
4823640,-0.12500,58.6875,108,50,0.65665
4823650,-0.12000,58.3750,108,50,0.64542
4823660,-0.11500,57.7500,108,50,0.62149
4823670,-0.13833,57.4375,108,50,0.60773
4823680,0.00500,57.2500,108,50,0.59829
4823690,0.51000,57.0000,108,50,0.58730
4823700,1.12500,56.5000,108,50,0.56703
4823710,1.03000,56.2500,108,50,0.55727
4823720,0.26000,56.0000,108,50,0.54750
4823730,-0.33500,55.6875,108,50,0.53797
4823740,-0.49000,55.1250,108,50,0.52210
4823750,-0.37500,54.8125,108,50,0.51404
4823760,-0.26000,54.4375,108,50,0.50574
4823770,-0.23500,54.0625,108,50,0.49768
4823780,-0.22500,53.3750,108,50,0.48181
4823790,-0.22000,53.0625,108,50,0.47424
4823800,-0.20500,52.6875,108,50,0.46667
4823810,-0.04500,82.3125,108,50,0.33553
4823820,-0.04500,82.3125,108,50,0.33553
4823830,-0.04500,82.3125,108,50,0.33553
4823840,-0.04500,73.5625,108,50,0.49158
4823850,-0.04500,73.5625,108,50,0.49158
4823860,-0.05000,72.5625,108,50,0.52723
4823870,-0.05000,72.5625,108,50,0.52723
4823880,-0.05000,72.5625,108,50,0.52723
4823890,-0.05000,72.5625,108,50,0.52723
4823900,-0.05000,72.5625,108,50,0.52723
4823910,-0.05000,72.5625,108,50,0.52723
4823920,-0.05000,72.5625,108,50,0.52723
4823930,-0.05000,72.5625,108,50,0.52723
4823940,-0.05000,72.5625,108,50,0.52723
4823950,-0.05000,72.5625,108,50,0.52723
4823960,-0.05000,72.5625,108,50,0.52723
4823970,-0.05000,72.5625,108,50,0.52723
4823980,-0.05000,72.5625,108,50,0.52723
4823990,-0.05000,72.5625,108,50,0.52723
4824000,-0.05000,72.5625,108,50,0.52723
4824010,-0.05000,72.5625,108,50,0.52723
4824020,-0.05000,72.5625,108,50,0.52723
4824030,-0.05000,72.5625,108,50,0.52723
4824040,-0.05000,72.5625,108,50,0.52723
4824050,-0.05000,72.5625,108,50,0.52723
4824060,-0.05000,72.5625,108,50,0.52723
4824070,-0.05000,72.5625,108,50,0.52723
4824080,-0.05000,72.5625,108,50,0.52723
4824090,-0.05000,72.5625,108,50,0.52723
4824100,-0.05000,72.5625,108,50,0.52723
4824110,-0.05000,72.5625,108,50,0.52723
4824120,-0.05000,72.5625,108,50,0.52723
4824130,-0.05000,72.5625,108,50,0.52723
4824140,-0.05000,72.5625,108,50,0.52723
4824150,-0.05000,72.5625,108,50,0.52723
4824160,-0.05000,72.5625,108,50,0.52723
4824170,-0.05000,72.5625,108,50,0.52723
4824180,-0.05000,72.5625,108,50,0.52723
4824190,-0.05000,72.5625,108,50,0.52723
4824200,-0.05000,72.5625,108,50,0.52723
4824210,-0.05000,72.5625,108,50,0.52723
4824220,-0.05500,71.1250,108,50,0.59585
4824230,-0.06000,70.5625,108,50,0.62320
4824240,-0.06000,70.1875,108,50,0.64664
4824250,-0.06500,69.8125,108,50,0.67106
4824260,-0.07000,69.1875,108,50,0.71477
4824270,-0.07000,68.9375,108,50,0.73284
4824280,-0.07000,68.6250,108,50,0.74823
4824290,-0.07000,68.3125,108,50,0.76093
4824300,-0.07000,67.5625,108,50,0.77778
4824310,-0.07000,67.1875,108,50,0.78266
4824320,-0.06500,66.7500,108,50,0.78559
4824330,-0.06000,66.3125,108,50,0.78657
4824340,-0.04500,65.4375,108,50,0.78193
4824350,-0.03000,65.0000,108,50,0.77827
4824360,-0.01500,64.5625,108,50,0.77387
4824370,-0.01500,64.1250,108,50,0.76850
4824380,-0.03500,63.1875,108,50,0.74481
4824390,-0.05500,62.6875,108,50,0.72137
4824400,-0.06500,62.2500,108,50,0.70427
4824410,-0.09000,61.8125,108,50,0.69011
4824420,-0.11000,60.8750,108,50,0.66447
4824430,-0.11500,60.4375,108,50,0.65275
4824440,-0.11500,60.0000,108,50,0.64176
4824450,-0.12000,59.6250,108,50,0.63004
4824460,-0.12000,58.8125,108,50,0.60684
4824470,-0.11500,58.3750,108,50,0.59536
4824480,-0.11000,58.0625,108,50,0.58437
4824490,-0.10500,57.6875,108,50,0.57363
4824500,-0.11500,57.1875,108,50,0.55311
4824510,0.02000,56.9375,108,50,0.54335
4824520,0.49500,56.6875,108,50,0.53382
4824530,1.10500,56.4375,108,50,0.52479
4824540,1.06500,55.9375,108,50,0.50965
4824550,0.29500,55.6875,108,50,0.50208
4824560,-0.31500,55.3750,108,50,0.49451
4824570,-0.45000,55.1250,108,50,0.48669
4824580,-0.33000,54.4375,108,50,0.47155
4824590,-0.22500,54.1250,108,50,0.46422
4824600,-0.20000,53.8125,108,50,0.45714
4824610,-0.19500,53.4375,108,50,0.45006
4824620,-0.18500,52.6875,108,50,0.43639
4824630,-0.17000,52.3750,108,50,0.43053
4824640,-0.16000,52.0000,108,50,0.42540
4824650,-0.16000,51.6875,108,50,0.41929
4824660,-0.15500,51.0625,108,50,0.40659
4824670,-0.15500,51.0625,108,50,0.40659
4824680,-0.15500,51.0625,108,50,0.40659
4824690,-0.14400,52.9562,108,50,0.39634
4824700,-0.12850,56.4188,108,50,0.38168
4824710,-0.11500,61.1250,108,50,0.36850
4824720,-0.11000,66.7500,108,50,0.36264
4824730,-0.09500,79.1250,108,50,0.35678
4824740,-0.07500,85.2500,108,50,0.34799
4824750,-0.05500,90.9375,108,50,0.34335
4824760,-0.04000,96.1875,108,50,0.33822
4824770,-0.02000,100.8125,108,50,0.33309
4824780,0.00000,107.8750,108,50,0.32308
4824790,0.01500,110.2500,108,50,0.31795
4824800,0.03000,111.8750,108,50,0.31282
4824810,0.04000,113.2500,108,50,0.30794
4824820,0.04000,113.1250,108,50,0.29817
4824830,0.04000,112.7500,108,50,0.29475
4824840,0.04000,112.0000,108,50,0.29206
4824850,0.04500,111.0000,108,50,0.28840
4824860,0.05500,108.4375,108,50,0.28034
4824870,0.06500,107.0000,108,50,0.27619
4824880,0.07500,105.5000,108,50,0.27228
4824890,0.07000,102.4375,108,50,0.26838
4824900,0.06000,100.8750,108,50,0.26007
4824910,0.03500,99.3125,108,50,0.25592
4824920,0.02000,97.7500,108,50,0.25226
4824930,0.00000,96.1875,108,50,0.24908
4824940,-0.01000,93.0625,108,50,0.24860
4824950,-0.01500,91.3750,108,50,0.25104
4824960,-0.02000,89.5000,108,50,0.25617
4824970,-0.02500,87.3750,108,50,0.26471
4824980,-0.02000,82.6250,108,50,0.29451
4824990,-0.02000,80.1875,108,50,0.31575
4825000,-0.02000,78.0000,108,50,0.34042
4825010,-0.02000,76.0625,108,50,0.36825
4825020,-0.01500,73.0625,108,50,0.43004
4825030,-0.01500,72.0000,108,50,0.45836
4825040,-0.02000,71.1250,108,50,0.48498
4825050,-0.03000,70.4375,108,50,0.51429
4825060,-0.03500,69.4375,108,50,0.57289
4825070,-0.04500,69.0625,108,50,0.60000
4825080,-0.05500,68.7500,108,50,0.62491
4825090,-0.05500,68.5000,108,50,0.64689
4825100,-0.05500,67.8750,108,50,0.68205
4825110,-0.05500,67.5625,108,50,0.69524
4825120,-0.05500,67.1875,108,50,0.70574
4825130,-0.05000,66.8750,108,50,0.71380
4825140,-0.04000,66.1250,108,50,0.72015
4825150,-0.02500,65.6875,108,50,0.72161
4825160,-0.01000,65.2500,108,50,0.72210
4825170,0.01000,64.8125,108,50,0.72137
4825180,0.02000,63.8750,108,50,0.71624
4825190,0.01000,63.4375,108,50,0.71209
4825200,-0.01000,62.9375,108,50,0.70696
4825210,-0.03500,62.5000,108,50,0.70061
4825220,-0.05500,61.6250,108,50,0.68425
4825230,-0.07500,61.1875,108,50,0.67521
4825240,-0.09500,60.7500,108,50,0.66569
4825250,-0.10500,60.3125,108,50,0.65519
4825260,-0.10500,59.5000,108,50,0.63272
4825270,-0.10500,59.0625,108,50,0.62100
4825280,-0.09500,58.6875,108,50,0.60952
4825290,-0.09000,58.3125,108,50,0.59805
4825300,-0.08500,57.6875,108,50,0.57558
4825310,-0.08500,57.4375,108,50,0.56484
4825320,-0.09500,57.1875,108,50,0.55458
4825330,0.01000,57.0000,108,50,0.54481
4825340,0.42500,56.5625,108,50,0.52796
4825350,1.00000,56.3125,108,50,0.51941
4825360,1.00000,56.0000,108,50,0.51087
4825370,0.31000,55.6875,108,50,0.50232
4825380,-0.27000,55.1250,108,50,0.48645
4825390,-0.45000,54.8125,108,50,0.47863
4825400,-0.37500,54.4375,108,50,0.47082
4825410,-0.25500,54.0625,108,50,0.46325
4825420,-0.20500,53.3125,108,50,0.44884
4825430,-0.19500,53.0000,108,50,0.44274
4825440,-0.18000,52.6250,108,50,0.43712
4825450,-0.17000,52.3125,108,50,0.43077
4825460,-0.16000,51.6250,108,50,0.41734
4825470,-0.15500,51.2500,108,50,0.41074
4825480,-0.15000,50.9375,108,50,0.40415
4825490,-0.14500,50.6875,108,50,0.39780
4825500,-0.13000,50.6250,108,50,0.38510
4825510,-0.11500,51.3125,108,50,0.37851
4825520,-0.10500,53.1250,108,50,0.37216
4825530,-0.10500,56.3125,108,50,0.36703
4825540,-0.10500,66.2500,108,50,0.35751
4825550,-0.09500,72.0000,108,50,0.35189
4825560,-0.08000,77.8750,108,50,0.34628
4825570,-0.06500,83.5625,108,50,0.34090
4825580,-0.04500,93.8750,108,50,0.33016
4825590,-0.02500,98.1875,108,50,0.32503
4825600,-0.01000,101.8750,108,50,0.32015
4825610,0.00000,104.8125,108,50,0.31551
4825620,0.01500,108.4375,108,50,0.30623
4825630,0.02000,109.2500,108,50,0.30305
4825640,0.03500,109.3750,108,50,0.30037
4825650,0.04000,109.0625,108,50,0.29670
4825660,0.04500,107.4375,108,50,0.28816
4825670,0.06000,106.2500,108,50,0.28352
4825680,0.07000,104.8750,108,50,0.27888
4825690,0.08000,103.3750,108,50,0.27448
4825700,0.09000,100.1250,108,50,0.26545
4825710,0.08000,98.4375,108,50,0.26105
4825720,0.05917,97.0417,108,50,0.25759
4825730,0.03500,95.1250,108,50,0.25397
4825740,0.01500,91.8750,108,50,0.24908
4825750,0.00000,90.2500,108,50,0.24640
4825760,-0.01000,88.6250,108,50,0.24469
4825770,-0.02000,86.8125,108,50,0.24444
4825780,-0.02000,82.7500,108,50,0.25201
4825790,-0.02000,80.3750,108,50,0.26081
4825800,-0.02000,78.0625,108,50,0.27326
4825810,-0.01500,75.8125,108,50,0.28987
4825820,-0.01500,72.2500,108,50,0.33407
4825830,-0.01500,70.9375,108,50,0.35702
4825840,-0.01500,69.9375,108,50,0.38022
4825850,-0.02000,69.1250,108,50,0.40708
4825860,-0.02500,67.9375,108,50,0.46520
4825870,-0.03000,67.5000,108,50,0.49426
4825880,-0.03500,67.1875,108,50,0.52234
4825890,-0.04500,66.9375,108,50,0.54872
4825900,-0.04500,66.4375,108,50,0.59438
4825910,-0.04500,66.1875,108,50,0.61343
4825920,-0.04500,65.8750,108,50,0.62955
4825930,-0.05000,65.6250,108,50,0.64127
4825940,-0.05000,64.9375,108,50,0.65739
4825950,-0.05000,64.6250,108,50,0.66374
4825960,-0.04500,64.2500,108,50,0.66838
4825970,-0.03500,63.8750,108,50,0.67131
4825980,-0.02000,63.0625,108,50,0.67277
4825990,0.00000,62.6250,108,50,0.67131
4826000,0.01000,62.1875,108,50,0.66838
4826010,0.00500,61.7500,108,50,0.66422
4826020,-0.02000,60.8750,108,50,0.65275
4826030,-0.05000,60.5000,108,50,0.64567
4826040,-0.06500,60.0625,108,50,0.63810
4826050,-0.08500,59.6250,108,50,0.62955
4826060,-0.10500,58.8125,108,50,0.61001
4826070,-0.11500,58.3750,108,50,0.59927
4826080,-0.11000,57.9375,108,50,0.58828
4826090,-0.10500,57.5625,108,50,0.57729
4826100,-0.10500,56.8125,108,50,0.55531
4826110,-0.10000,56.5000,108,50,0.54481
4826120,-0.09500,56.2500,108,50,0.53455
4826130,-0.09500,56.0625,108,50,0.52552
4826140,-0.10500,55.6250,108,50,0.50867
4826150,-0.01500,55.4375,108,50,0.49988
4826160,0.51500,55.1875,108,50,0.49133
4826170,0.97500,55.0000,108,50,0.48327
4826180,0.99000,54.4375,108,50,0.46813
4826190,0.35000,54.1250,108,50,0.46105
4826200,-0.23000,53.8125,108,50,0.45397
4826210,-0.45000,53.5000,108,50,0.44713
4826220,-0.38500,52.8750,108,50,0.43321
4826230,-0.26500,52.5000,108,50,0.42735
4826240,-0.22000,52.1875,108,50,0.42198
4826250,-0.20000,51.8750,108,50,0.41587
4826260,-0.19500,51.1875,108,50,0.40391
4826270,-0.18000,50.8750,108,50,0.39780
4826280,-0.17500,50.5625,108,50,0.39194
4826290,-0.17000,50.2500,108,50,0.38584
4826300,-0.17000,49.6250,108,50,0.37411
4826310,-0.15500,49.4375,108,50,0.36825
4826320,-0.14500,49.4375,108,50,0.36239
4826330,-0.13000,50.0000,108,50,0.35800
4826340,-0.12500,54.0625,108,50,0.34945
4826350,-0.11500,58.1250,108,50,0.34432
4826360,-0.10500,63.2500,108,50,0.33895
4826370,-0.09500,68.8125,108,50,0.33382
4826380,-0.08000,80.1250,108,50,0.32405
4826390,-0.06500,85.5625,108,50,0.31941
4826400,-0.04500,90.5625,108,50,0.31477
4826410,-0.03000,95.0625,108,50,0.31038
4826420,-0.01000,102.2500,108,50,0.30159
4826430,0.00500,104.7500,108,50,0.30085
4826440,0.01500,106.4375,108,50,0.30183
4826450,0.02500,107.5000,108,50,0.30012
4826460,0.03000,107.8750,108,50,0.29377
4826470,0.04000,107.4375,108,50,0.29011
4826480,0.04000,106.6875,108,50,0.28620
4826490,0.05000,105.6250,108,50,0.28230
4826500,0.06000,103.0000,108,50,0.27424
4826510,0.07500,101.5000,108,50,0.27033
4826520,0.08000,99.8750,108,50,0.26667
4826530,0.07500,98.2500,108,50,0.26422
4826540,0.06000,95.0625,108,50,0.25934
4826550,0.04000,93.5000,108,50,0.25592
4826560,0.02000,91.9375,108,50,0.25250
4826570,0.00500,90.3750,108,50,0.24933
4826580,-0.00500,87.1250,108,50,0.24640
4826590,-0.01500,85.3125,108,50,0.24786
4826600,-0.01500,83.3125,108,50,0.25250
4826610,-0.01500,81.1250,108,50,0.26105
4826620,-0.01000,76.5625,108,50,0.29060
4826630,-0.00500,74.5000,108,50,0.30867
4826640,-0.00500,72.7500,108,50,0.32869
4826650,-0.00500,71.3125,108,50,0.35336
4826660,-0.00500,69.1250,108,50,0.41074
4826670,-0.00500,68.3750,108,50,0.44151
4826680,-0.01000,67.7500,108,50,0.47253
4826690,-0.01500,67.1875,108,50,0.50305
4826700,-0.02500,66.3750,108,50,0.55995
4826710,-0.03500,66.1250,108,50,0.58535
4826720,-0.04500,65.8125,108,50,0.60830
4826730,-0.05000,65.5625,108,50,0.62613
4826740,-0.05500,65.2062,108,50,0.64518
4826750,-0.05583,64.7938,108,50,0.66313
4826760,-0.05500,64.3750,108,50,0.67766
4826770,-0.05500,64.0000,108,50,0.68645
4826780,-0.05000,63.3750,108,50,0.69744
4826790,-0.04000,63.0000,108,50,0.69988
4826800,-0.02500,62.6250,108,50,0.70085
4826810,-0.01500,62.2500,108,50,0.70012
4826820,-0.00500,61.5000,108,50,0.69426
4826830,0.00000,61.0625,108,50,0.68962
4826840,-0.02500,60.6875,108,50,0.68400
4826850,-0.04500,60.2500,108,50,0.67741
4826860,-0.06000,59.4375,108,50,0.66081
4826870,-0.07500,59.0000,108,50,0.65128
4826880,-0.09500,58.6250,108,50,0.64127
4826890,-0.10500,58.1875,108,50,0.63053
4826900,-0.10000,57.4375,108,50,0.60830
4826910,-0.09500,57.0000,108,50,0.59707
4826920,-0.09500,56.6875,108,50,0.58584
4826930,-0.09000,56.3125,108,50,0.57582
4826940,-0.09000,55.8125,108,50,0.55678
4826950,-0.08500,55.5625,108,50,0.54676
4826960,-0.10000,55.3750,108,50,0.53724
4826970,-0.03500,55.1875,108,50,0.52796
4826980,0.32500,54.6875,108,50,0.51062
4826990,0.93000,54.4375,108,50,0.50232
4827000,1.06500,54.1875,109,50,0.49402
4827010,0.49500,53.9375,109,50,0.48620
4827020,-0.14500,53.3125,109,50,0.47106
4827030,-0.42500,52.9375,109,50,0.46471
4827040,-0.39500,52.6250,109,50,0.45910
4827050,-0.27000,52.3125,109,50,0.45299
4827060,-0.21500,51.6875,109,50,0.44005
4827070,-0.20000,51.3750,109,50,0.43346
4827080,-0.19000,51.0000,109,50,0.42711
4827090,-0.18000,50.6875,109,50,0.42100
4827100,-0.17000,50.0625,109,50,0.40855
4827110,-0.17000,49.7500,109,50,0.40244
4827120,-0.16500,49.4375,109,50,0.39634
4827130,-0.15500,49.2500,109,50,0.39121
4827140,-0.14500,49.3125,109,50,0.38169
4827150,-0.14000,50.1875,109,50,0.37607
4827160,-0.13500,52.1250,109,50,0.37045
4827170,-0.12500,55.5000,109,50,0.36484
4827180,-0.11500,65.6250,109,50,0.35433
4827190,-0.09500,71.3750,109,50,0.34921
4827200,-0.08000,77.0625,109,50,0.34408
4827210,-0.06500,87.9375,109,50,0.33455
4827220,-0.05500,92.8125,109,50,0.32991
4827230,-0.04000,97.1250,109,50,0.32625
4827240,-0.02500,100.8125,109,50,0.32332
4827250,-0.01500,103.8125,109,50,0.31966
4827260,0.00000,107.6250,109,50,0.31136
4827270,0.01000,108.5000,109,50,0.30720
4827280,0.02000,108.8125,109,50,0.30305
4827290,0.02000,108.6875,109,50,0.29890
4827300,0.02000,107.3750,109,50,0.29084
4827310,0.02500,106.3125,109,50,0.28718
4827320,0.03500,105.0625,109,50,0.28327
4827330,0.04500,103.6875,109,50,0.28083
4827340,0.05000,100.5625,109,50,0.27595
4827350,0.05500,99.0000,109,50,0.27253
4827360,0.04500,97.3750,109,50,0.26886
4827370,0.02000,95.8125,109,50,0.26520
4827380,0.00000,92.7500,109,50,0.25836
4827390,-0.01500,91.2500,109,50,0.25543
4827400,-0.02000,89.6875,109,50,0.25372
4827410,-0.02500,86.3750,109,50,0.25421
4827420,-0.02000,84.4375,109,50,0.26325
4827430,-0.01500,82.3125,109,50,0.27228
4827440,-0.01500,80.0625,109,50,0.28523
4827450,-0.01500,77.7500,109,50,0.30232
4827460,-0.01500,73.8125,109,50,0.34847
4827470,-0.01000,72.3125,109,50,0.37656
4827480,-0.01000,71.0000,109,50,0.40684
4827490,-0.01500,70.0000,109,50,0.43834
4827500,-0.02000,68.3750,109,50,0.50183
4827510,-0.02500,67.7500,109,50,0.53260
4827520,-0.04000,67.2500,109,50,0.56215
4827530,-0.04500,66.8125,109,50,0.58632
4827540,-0.04500,66.0625,109,50,0.62808
4827550,-0.05000,65.6875,109,50,0.64835
4827560,-0.05000,65.3750,109,50,0.66667
4827570,-0.05000,65.0625,109,50,0.68278
4827580,-0.05000,64.3750,109,50,0.70745
4827590,-0.04500,64.0000,109,50,0.71600
4827600,-0.03500,63.6250,109,50,0.72234
4827610,-0.02500,63.3125,109,50,0.72650
4827620,-0.00500,62.5625,109,50,0.72869
4827630,0.00500,62.1875,109,50,0.72698
4827640,0.00000,61.7500,109,50,0.72479
4827650,-0.01500,61.3125,109,50,0.72161
4827660,-0.04500,60.5000,109,50,0.71209
4827670,-0.06500,60.1250,109,50,0.70549
4827680,-0.09000,59.7500,109,50,0.69768
4827690,-0.10500,59.3750,109,50,0.68889
4827700,-0.11500,58.5000,109,50,0.66862
4827710,-0.11000,58.1250,109,50,0.65763
4827720,-0.11000,57.7500,109,50,0.64615
4827730,-0.11500,57.3750,109,50,0.63541
4827740,-0.11500,56.6875,109,50,0.61392
4827750,-0.10500,56.4375,109,50,0.60269
4827760,-0.10000,56.1875,109,50,0.59170
4827770,-0.13083,55.8750,109,50,0.57574
4827780,-0.06500,55.5625,109,50,0.56020
4827790,0.23000,55.3125,109,50,0.55043
4827800,0.83000,55.0625,109,50,0.54090
4827810,1.12500,54.8125,109,50,0.53162
4827820,0.62000,54.1250,109,50,0.51502
4827830,-0.07500,53.8125,109,50,0.50794
4827840,-0.40500,53.4375,109,50,0.50012
4827850,-0.41500,53.1250,109,50,0.49231
4827860,-0.29500,52.4375,109,50,0.47643
4827870,-0.22000,52.0625,109,50,0.46886
4827880,-0.20500,51.7500,109,50,0.46154
4827890,-0.19500,51.3750,109,50,0.45421
4827900,-0.18500,50.6875,109,50,0.44029
4827910,-0.17500,50.3750,109,50,0.43370
4827920,-0.17000,50.0625,109,50,0.42735
4827930,-0.16500,49.7500,109,50,0.42198
4827940,-0.16000,49.2500,109,50,0.41148
4827950,-0.15500,49.2500,109,50,0.40537
4827960,-0.14500,49.8125,109,50,0.39927
4827970,-0.14500,51.2500,109,50,0.39316
4827980,-0.13500,58.3125,109,50,0.38120
4827990,-0.12500,63.5000,109,50,0.37534
4828000,-0.10500,69.1875,110,50,0.36972
4828010,-0.08500,74.9375,110,50,0.36435
4828020,-0.07000,86.1250,110,50,0.35507
4828030,-0.05500,91.1875,110,50,0.35165
4828040,-0.03500,95.8125,110,50,0.34774
4828050,-0.02500,99.8125,110,50,0.34335
4828060,-0.00500,105.6875,110,50,0.33431
4828070,0.00000,107.5625,110,50,0.32991
4828080,0.01000,108.7500,110,50,0.32552
4828090,0.01000,109.3125,110,50,0.32112
4828100,0.01500,109.0625,110,50,0.31233
4828110,0.02000,108.4375,110,50,0.30794
4828120,0.02500,107.4375,110,50,0.30354
4828130,0.04000,106.3125,110,50,0.30061
4828140,0.04500,103.5000,110,50,0.29475
4828150,0.06000,101.9375,110,50,0.29084
4828160,0.06000,100.3750,110,50,0.28669
4828170,0.05500,98.7500,110,50,0.28230
4828180,0.03500,95.6250,110,50,0.27375
4828190,0.01000,94.1250,110,50,0.27009
4828200,-0.01500,92.6250,110,50,0.26667
4828210,-0.02500,91.1250,110,50,0.26447
4828220,-0.02500,87.8750,110,50,0.26593
4828230,-0.02500,86.0625,110,50,0.27057
4828240,-0.02500,84.0625,110,50,0.27839
4828250,-0.02500,81.8750,110,50,0.28962
4828260,-0.02500,77.1875,110,50,0.32430
4828270,-0.02500,75.0625,110,50,0.34774
4828280,-0.02000,73.2500,110,50,0.37436
4828290,-0.01500,71.8125,110,50,0.40342
4828300,-0.01500,69.5000,110,50,0.46545
4828310,-0.01500,68.6875,110,50,0.49744
4828320,-0.02000,68.0000,110,50,0.52869
4828330,-0.02500,67.3750,110,50,0.55507
4828340,-0.03500,66.4375,110,50,0.60244
4828350,-0.04000,66.0625,110,50,0.62637
4828360,-0.04500,65.6875,110,50,0.64860
4828370,-0.04500,65.3750,110,50,0.66862
4828380,-0.04500,64.7500,110,50,0.70110
4828390,-0.04500,64.4375,110,50,0.71355
4828400,-0.04500,64.1250,110,50,0.72332
4828410,-0.03500,63.7500,110,50,0.73065
4828420,-0.02000,63.0625,110,50,0.73748
4828430,0.00000,62.6875,110,50,0.73724
4828440,0.01000,62.2500,110,50,0.73651
4828450,0.02000,61.8750,110,50,0.73480
4828460,0.00500,61.0625,110,50,0.72869
4828470,-0.02500,60.6875,110,50,0.72405
4828480,-0.04500,60.2500,110,50,0.72015
4828490,-0.06500,59.8125,110,50,0.71600
4828500,-0.09000,59.0000,110,50,0.70085
4828510,-0.10500,58.6250,110,50,0.69109
4828520,-0.11000,58.2500,110,50,0.68010
4828530,-0.10500,57.8750,110,50,0.66935
4828540,-0.10500,57.1250,110,50,0.64713
4828550,-0.10000,56.7500,110,50,0.63541
4828560,-0.09500,56.5000,110,50,0.62369
4828570,-0.09500,56.2500,110,50,0.61197
4828580,-0.09500,55.8125,110,50,0.58974
4828590,-0.10500,55.5625,110,50,0.57924
4828600,0.03500,55.3125,110,50,0.56899
4828610,0.49500,55.0625,110,50,0.55897
4828620,1.04500,54.5625,110,50,0.54042
4828630,0.98000,54.2500,110,50,0.53260
4828640,0.28500,53.9375,110,50,0.52405
4828650,-0.27500,53.5625,110,50,0.51551
4828660,-0.44000,52.8750,110,50,0.49915
4828670,-0.36000,52.5000,110,50,0.49109
4828680,-0.25000,52.1250,110,50,0.48303
4828690,-0.21000,51.7500,110,50,0.47521
4828700,-0.19500,51.0625,110,50,0.46032
4828710,-0.18000,50.7500,110,50,0.45299
4828720,-0.17500,50.3750,110,50,0.44567
4828730,-0.17000,50.0625,110,50,0.43956
4828740,-0.17000,49.4375,110,50,0.42808
4828750,-0.16000,49.1875,110,50,0.42173
4828760,-0.15500,49.0000,110,50,0.41538
4828770,-0.14500,49.1250,110,50,0.40928
4828780,-0.13500,51.4375,110,50,0.39707
4828790,-0.12500,54.7083,110,50,0.39015
4828800,-0.12000,59.0000,110,50,0.38535
4828810,-0.10500,64.3750,110,50,0.37949
4828820,-0.09500,75.9375,110,50,0.36923
4828830,-0.07500,81.6250,110,50,0.36532
4828840,-0.06500,87.1250,110,50,0.36068
4828850,-0.04500,92.1875,110,50,0.35580
4828860,-0.02500,100.6250,110,50,0.34579
4828870,-0.01000,103.8125,110,50,0.34066
4828880,0.00000,106.2500,110,50,0.33553
4828890,0.01000,107.9375,110,50,0.33065
4828900,0.02000,109.4375,110,50,0.32112
4828910,0.02500,109.4375,110,50,0.31673
4828920,0.02500,109.0625,110,50,0.31233
4828930,0.02500,108.3750,110,50,0.30916
4828940,0.03000,106.3125,110,50,0.30330
4828950,0.04500,105.0625,110,50,0.29963
4828960,0.05500,103.6250,110,50,0.29573
4828970,0.06000,102.1250,110,50,0.29158
4828980,0.05500,99.1250,110,50,0.28352
4828990,0.04000,97.5625,110,50,0.27912
4829000,0.02000,96.0625,110,50,0.27473
4829010,0.00500,94.5625,110,50,0.27082
4829020,-0.00500,91.4375,110,50,0.26618
4829030,-0.01500,89.8750,110,50,0.26667
4829040,-0.02500,88.1875,110,50,0.26862
4829050,-0.02500,86.3750,110,50,0.27302
4829060,-0.02500,82.0625,110,50,0.29328
4829070,-0.02500,79.6875,110,50,0.30989
4829080,-0.02000,77.4375,110,50,0.33065
4829090,-0.01500,75.3125,110,50,0.35507
4829100,-0.01500,72.0625,110,50,0.41270
4829110,-0.01500,70.8125,110,50,0.44396
4829120,-0.01500,69.8125,110,50,0.47179
4829130,-0.01500,68.9375,110,50,0.49792
4829140,-0.02000,67.6250,110,50,0.55653
4829150,-0.02500,67.0625,110,50,0.58559
4829160,-0.02500,66.6250,110,50,0.61294
4829170,-0.02500,66.2500,110,50,0.63810
4829180,-0.03500,65.5000,110,50,0.68083
4829190,-0.03500,65.1875,110,50,0.69792
4829200,-0.03500,64.8125,110,50,0.71233
4829210,-0.04000,64.5000,110,50,0.72430
4829220,-0.04000,63.8125,110,50,0.73919
4829230,-0.03500,63.4375,110,50,0.74212
4829240,-0.01500,63.1250,110,50,0.74481
4829250,0.00000,62.7500,110,50,0.74628
4829260,0.01000,62.0625,110,50,0.74530
4829270,0.01000,61.6875,110,50,0.74310
4829280,-0.00500,61.2500,110,50,0.73944
4829290,-0.03500,60.8125,110,50,0.73455
4829300,-0.06000,60.0625,110,50,0.72137
4829310,-0.07500,59.6250,110,50,0.71306
4829320,-0.09500,59.2500,110,50,0.70452
4829330,-0.11000,58.8750,110,50,0.69524
4829340,-0.11500,58.0625,110,50,0.67399
4829350,-0.11500,57.6875,110,50,0.66252
4829360,-0.11500,57.3125,110,50,0.65079
4829370,-0.10500,56.9375,110,50,0.63883
4829380,-0.10000,56.3750,110,50,0.61538
4829390,-0.09500,56.1250,110,50,0.60391
4829400,-0.10500,55.8750,110,50,0.59267
4829410,-0.08000,55.6250,110,50,0.58169
4829420,0.22000,55.1875,110,50,0.56142
4829430,0.83500,54.8750,110,50,0.55263
4829440,1.15500,54.6250,110,50,0.54359
4829450,0.67500,54.3125,110,50,0.53455
4829460,-0.07500,53.6875,110,50,0.51673
4829470,-0.44000,53.3125,110,50,0.50842
4829480,-0.43500,52.9375,110,50,0.50012
4829490,-0.31000,52.6250,110,50,0.49206
4829500,-0.24000,51.9375,110,50,0.47619
4829510,-0.23000,51.6250,110,50,0.46862
4829520,-0.22000,51.2500,110,50,0.46203
4829530,-0.20500,50.9375,110,50,0.45617
4829540,-0.19500,50.3125,110,50,0.44298
4829550,-0.18500,50.0000,110,50,0.43614
4829560,-0.18000,49.7500,110,50,0.42930
4829570,-0.17500,49.5000,110,50,0.42271
4829580,-0.17000,49.5000,110,50,0.40977
4829590,-0.16500,50.3125,110,50,0.40317
4829600,-0.16000,52.2500,110,50,0.39683
4829610,-0.15500,55.6250,110,50,0.39048
4829620,-0.13500,66.0000,110,50,0.37949
4829630,-0.11500,71.9375,110,50,0.37534
4829640,-0.10500,77.8750,110,50,0.37070
4829650,-0.08500,83.6875,110,50,0.36581
4829660,-0.06500,94.1875,110,50,0.35580
4829670,-0.04500,98.6250,110,50,0.35092
4829680,-0.02500,102.4375,110,50,0.34603
4829690,-0.01500,105.4375,110,50,0.34139
4829700,-0.00500,109.1875,110,50,0.33211
4829710,0.00000,110.0000,110,50,0.32747
4829720,0.00500,110.3750,110,50,0.32405
4829730,0.01000,110.2500,110,50,0.32112
4829740,0.01000,109.0625,110,50,0.31306
4829750,0.01500,108.0625,110,50,0.30867
4829760,0.02000,106.8750,110,50,0.30452
4829770,0.03000,105.5625,110,50,0.30037
4829780,0.03500,102.6250,110,50,0.29231
4829790,0.04000,101.1250,110,50,0.28816
4829800,0.03500,99.6250,110,50,0.28400
4829810,0.02000,98.0625,110,50,0.27985
4829820,0.00250,95.7708,110,50,0.27550
4829830,-0.01500,93.5000,110,50,0.27204
4829840,-0.03000,92.0000,110,50,0.27057
4829850,-0.03500,90.5000,110,50,0.27033
4829860,-0.03500,87.0625,110,50,0.27741
4829870,-0.04000,85.1250,110,50,0.28645
4829880,-0.04500,82.8750,110,50,0.29988
4829890,-0.04000,80.5625,110,50,0.31746
4829900,-0.03500,76.0625,110,50,0.36508
4829910,-0.03500,74.2500,110,50,0.39390
4829920,-0.03000,72.7500,110,50,0.42100
4829930,-0.03000,71.4375,110,50,0.44737
4829940,-0.03000,69.5000,110,50,0.50916
4829950,-0.03500,68.7500,110,50,0.54115
4829960,-0.03500,68.0625,110,50,0.57241
4829970,-0.03500,67.5625,110,50,0.60220
4829980,-0.04500,66.7500,110,50,0.65519
4829990,-0.05000,66.3750,110,50,0.67814
4830000,-0.05000,66.0625,110,50,0.69817
4830010,-0.04500,65.6875,110,50,0.71502
4830020,-0.05500,65.0625,110,50,0.73871
4830030,-0.06000,64.7500,110,50,0.74505
4830040,-0.05500,64.4375,110,50,0.75092
4830050,-0.05000,64.1250,110,50,0.75556
4830060,-0.03500,63.4375,110,50,0.76020
4830070,-0.01500,63.0625,110,50,0.76044
4830080,-0.00500,62.6875,110,50,0.75922
