RelativeTimeMilliseconds,ECG,ART,ART (Sys),ART (Dia),PPG
4945590,-0.01500,62.8750,102,47,0.63761
4945600,-0.02000,62.5625,102,47,0.65348
4945610,-0.02500,62.2500,102,47,0.66716
4945620,-0.03000,61.6250,102,47,0.68816
4945630,-0.02500,61.2500,102,47,0.69548
4945640,-0.02500,60.8750,102,47,0.70085
4945650,-0.01500,60.5000,102,47,0.70476
4945660,0.00500,59.7500,102,47,0.70696
4945670,0.04000,59.3750,102,47,0.70549
4945680,0.06000,59.0000,102,47,0.70330
4945690,0.05500,58.5625,102,47,0.70012
4945700,0.01500,57.8125,102,47,0.69084
4945710,-0.02500,57.4375,102,47,0.68449
4945720,-0.05500,57.0625,102,47,0.67717
4945730,-0.07500,56.6250,102,47,0.66886
4945740,-0.09500,55.9375,102,47,0.64933
4945750,-0.10500,55.5625,102,47,0.63858
4945760,-0.10000,55.1875,102,47,0.62735
4945770,-0.10000,54.8125,102,47,0.61685
4945780,-0.10000,54.1250,102,47,0.59585
4945790,-0.09500,53.8125,102,47,0.58486
4945800,-0.09000,53.5000,102,47,0.57411
4945810,-0.09000,53.2500,102,47,0.56361
4945820,-0.08000,52.8750,102,47,0.54359
4945830,0.12000,52.7500,102,47,0.53407
4945840,0.65500,52.5625,102,47,0.52479
4945850,1.08500,52.4375,102,47,0.51600
4945860,0.76500,52.0000,102,47,0.49988
4945870,0.07000,51.7500,102,47,0.49280
4945880,-0.33500,51.5000,102,47,0.48547
4945890,-0.41500,51.1875,102,47,0.47790
4945900,-0.31500,50.5000,102,47,0.46276
4945910,-0.22500,50.1250,102,47,0.45519
4945920,-0.20000,49.7500,102,47,0.44786
4945930,-0.18000,49.4375,102,47,0.44054
4945940,-0.17000,48.8125,102,47,0.42662
4945950,-0.16000,48.5000,102,47,0.41978
4945960,-0.16000,48.1875,102,47,0.41294
4945970,-0.15500,47.8750,102,47,0.40733
4945980,-0.14500,47.3125,102,47,0.39609
4945990,-0.13500,47.0625,102,47,0.38974
4946000,-0.12500,47.0000,102,47,0.38339
4946010,-0.11000,47.3750,102,47,0.37680
4946020,-0.10500,50.8750,102,47,0.36386
4946030,-0.10000,54.5000,102,47,0.35751
4946040,-0.08500,59.1250,102,47,0.35140
4946050,-0.07000,64.2500,102,47,0.34530
4946060,-0.06000,74.6250,102,47,0.33504
4946070,-0.04500,79.5625,102,47,0.33114
4946080,-0.03000,84.2500,102,47,0.32650
4946090,-0.01000,88.4375,102,47,0.32161
4946100,0.01000,95.1875,102,47,0.31184
4946110,0.02500,97.5625,102,47,0.30696
4946120,0.04000,99.2500,102,47,0.30208
4946130,0.05000,100.3125,102,47,0.29744
4946140,0.05500,100.8750,102,47,0.28816
4946150,0.06500,100.5000,102,47,0.28376
4946160,0.08000,99.8125,102,47,0.27937
4946170,0.09500,98.8750,102,47,0.27643
4946180,0.10000,96.5000,102,47,0.27057
4946190,0.11000,95.0625,102,47,0.26642
4946200,0.11500,93.6250,102,47,0.26227
4946210,0.10500,92.1875,102,47,0.25812
4946220,0.08500,89.2500,102,47,0.24957
4946230,0.06000,87.8125,102,47,0.24518
4946240,0.04000,86.3750,102,47,0.24103
4946250,0.02000,84.9375,102,47,0.23712
4946260,0.00000,81.9375,102,47,0.23297
4946270,-0.00500,80.3125,102,47,0.23394
4946280,-0.00500,78.5000,102,47,0.23639
4946290,-0.01000,76.5625,102,47,0.24151
4946300,-0.01500,72.3750,102,47,0.26276
4946310,-0.01000,70.5000,102,47,0.27961
4946320,-0.00500,68.8750,102,47,0.30037
4946330,-0.00500,67.5625,102,47,0.32454
4946340,-0.00500,65.5000,102,47,0.38046
4946350,-0.00500,64.7500,102,47,0.41050
4946360,-0.00500,64.1875,102,47,0.44054
4946370,-0.01500,63.6875,102,47,0.46667
4946380,-0.01500,62.8750,102,47,0.51526
4946390,-0.02500,62.5625,102,47,0.53993
4946400,-0.02500,62.3125,102,47,0.56361
4946410,-0.03500,62.0000,102,47,0.58535
4946420,-0.04000,61.4375,102,47,0.62271
4946430,-0.04500,61.1875,102,47,0.63785
4946440,-0.05000,60.8750,102,47,0.65079
4946450,-0.05500,60.5625,102,47,0.66154
4946460,-0.05500,59.8750,102,47,0.67521
4946470,-0.05000,59.5000,102,47,0.67814
4946480,-0.04500,59.1875,102,47,0.68083
4946490,-0.02500,58.8125,102,47,0.68254
4946500,0.00500,58.1250,102,47,0.68205
4946510,0.03000,57.7500,102,47,0.67985
4946520,0.03500,57.3750,102,47,0.67643
4946530,0.00500,57.0000,102,47,0.67155
4946540,-0.03500,56.2500,102,47,0.65812
4946550,-0.06500,55.8750,102,47,0.64982
4946560,-0.09000,55.5625,102,47,0.64054
4946570,-0.10500,55.1875,102,47,0.63126
4946580,-0.10500,54.5000,102,47,0.61148
4946590,-0.11000,54.1250,102,47,0.60073
4946600,-0.11000,53.8125,102,47,0.58974
4946610,-0.10750,53.3333,102,47,0.57346
4946620,-0.10500,52.8750,102,47,0.55751
4946630,-0.10500,52.6250,102,47,0.54750
4946640,-0.10500,52.3750,102,47,0.53773
4946650,-0.11500,52.1875,102,47,0.52796
4946660,0.02000,51.8750,102,47,0.51013
4946670,0.49000,51.6875,102,47,0.50256
4946680,1.03500,51.5000,102,47,0.49475
4946690,0.91500,51.2500,102,47,0.48694
4946700,0.24500,50.8125,102,47,0.47155
4946710,-0.26000,50.5625,102,47,0.46422
4946720,-0.43500,50.2500,102,47,0.45690
4946730,-0.35500,49.6250,102,47,0.44957
4946740,-0.25000,49.3125,102,47,0.43565
4946750,-0.21000,49.0000,102,47,0.42882
4946760,-0.20000,48.7500,102,47,0.42198
4946770,-0.19000,48.4375,102,47,0.41636
4946780,-0.18000,47.8125,102,47,0.40513
4946790,-0.17500,47.5000,102,47,0.39902
4946800,-0.17000,47.2500,102,47,0.39292
4946810,-0.16000,46.6250,102,47,0.38657
4946820,-0.15000,46.4375,102,47,0.37387
4946830,-0.14000,46.5625,102,47,0.36777
4946840,-0.13500,47.1250,102,47,0.36190
4946850,-0.12500,48.6250,102,47,0.35604
4946860,-0.11500,55.3125,102,47,0.34603
4946870,-0.10000,60.1250,102,47,0.34237
4946880,-0.08500,65.1875,102,47,0.33822
4946890,-0.06500,75.4375,102,47,0.33333
4946900,-0.05500,80.3750,102,47,0.32308
4946910,-0.04500,84.8750,102,47,0.31795
4946920,-0.02500,89.0000,102,47,0.31282
4946930,-0.01500,92.5000,102,47,0.30794
4946940,0.01000,97.6875,102,47,0.29841
4946950,0.02500,99.3125,102,47,0.29402
4946960,0.03500,100.3125,102,47,0.28962
4946970,0.04000,100.8750,102,47,0.28669
4946980,0.05000,100.5625,102,47,0.28132
4946990,0.06000,99.9375,102,47,0.27766
4947000,0.07500,99.0000,102,48,0.27375
4947010,0.08500,97.9375,102,48,0.26984
4947020,0.09500,95.3750,102,48,0.26227
4947030,0.10000,93.9375,102,48,0.25836
4947040,0.09500,92.4375,102,48,0.25470
4947050,0.08500,90.9375,102,48,0.25104
4947060,0.06000,87.9375,102,48,0.24493
4947070,0.03000,86.5000,102,48,0.24322
4947080,0.01000,85.1250,102,48,0.24078
4947090,-0.00500,82.2500,102,48,0.23834
4947100,-0.01500,80.6875,102,48,0.23736
4947110,-0.02000,79.0625,102,48,0.24029
4947120,-0.02000,77.2500,102,48,0.24640
4947130,-0.02000,75.3125,102,48,0.25641
4947140,-0.02000,71.5000,102,48,0.28913
4947150,-0.02000,69.8750,102,48,0.31136
4947160,-0.01500,68.5000,102,48,0.33675
4947170,-0.01500,67.3125,102,48,0.36093
4947180,-0.01000,65.5625,102,48,0.41245
4947190,-0.01500,64.8750,102,48,0.44176
4947200,-0.01500,64.2500,102,48,0.47131
4947210,-0.02000,63.2500,102,48,0.52723
4947220,-0.02500,62.8750,102,48,0.55311
4947230,-0.03000,62.5000,102,48,0.57705
4947240,-0.03500,62.1250,102,48,0.59878
4947250,-0.04500,61.7500,102,48,0.61832
4947260,-0.04500,61.0000,102,48,0.65836
4947270,-0.04500,60.6875,102,48,0.68278
4947280,-0.04500,60.3125,102,48,0.69988
4947290,-0.04000,59.9375,102,48,0.71233
4947300,-0.03500,59.2500,102,48,0.72821
4947310,-0.03000,58.8750,102,48,0.73284
4947320,-0.01000,58.5625,102,48,0.73553
4947330,0.02000,58.1875,102,48,0.73651
4947340,0.04500,57.5000,102,48,0.73407
4947350,0.03500,57.1250,102,48,0.73065
4947360,0.00000,56.6875,102,48,0.72601
4947370,-0.03500,56.3125,102,48,0.71990
4947380,-0.06500,55.5625,102,48,0.70525
4947390,-0.09500,55.1875,102,48,0.69646
4947400,-0.11000,54.8125,102,48,0.68718
4947410,-0.11500,54.5000,102,48,0.67717
4947420,-0.11500,53.8125,102,48,0.65568
4947430,-0.11000,53.5000,102,48,0.64444
4947440,-0.11500,53.1250,102,48,0.63321
4947450,-0.11000,52.8125,102,48,0.62222
4947460,-0.10500,52.2500,102,48,0.60122
4947470,-0.11000,52.0625,102,48,0.59170
4947480,-0.12000,51.8750,102,48,0.58193
4947490,0.06500,51.6875,102,48,0.57192
4947500,0.56500,51.3750,102,48,0.55214
4947510,1.05500,51.1875,102,48,0.54286
4947520,0.89000,51.0000,102,48,0.53382
4947530,0.18500,50.7500,102,48,0.52503
4947540,-0.31000,50.1875,102,48,0.50818
4947550,-0.44500,49.9375,102,48,0.50012
4947560,-0.36000,49.6250,102,48,0.49328
4947570,-0.26000,49.3125,102,48,0.48694
4947580,-0.22000,48.7500,102,48,0.47253
4947590,-0.21000,48.4375,102,48,0.46520
4947600,-0.20000,48.0625,102,48,0.45788
4947610,-0.19000,47.7500,102,48,0.45079
4947620,-0.18000,47.1875,102,48,0.43761
4947630,-0.18000,46.8542,102,48,0.42991
4947640,-0.18000,46.6250,102,48,0.42442
4947650,-0.17000,46.3750,102,48,0.41783
4947660,-0.15500,46.5625,102,48,0.40586
4947670,-0.14500,47.5000,102,48,0.40098
4947680,-0.13500,49.5625,102,48,0.39536
4947690,-0.13000,52.9375,102,48,0.38950
4947700,-0.11500,62.3750,102,48,0.37778
4947710,-0.10500,67.5000,102,48,0.37192
4947720,-0.08500,72.6875,102,48,0.36630
4947730,-0.06500,77.6875,102,48,0.36093
4947740,-0.04500,86.8750,102,48,0.34994
4947750,-0.03000,90.8125,102,48,0.34457
4947760,-0.00500,94.1875,102,48,0.34066
4947770,0.01500,96.9375,102,48,0.33748
4947780,0.03000,100.5625,102,48,0.32918
4947790,0.03500,101.4375,102,48,0.32454
4947800,0.04000,101.8750,102,48,0.31990
4947810,0.04000,101.8125,102,48,0.31551
4947820,0.05000,100.8750,102,48,0.30672
4947830,0.05500,100.0000,102,48,0.30232
4947840,0.06000,99.0000,102,48,0.29817
4947850,0.07500,97.8750,102,48,0.29377
4947860,0.08500,95.3125,102,48,0.28669
4947870,0.08000,94.0000,102,48,0.28449
4947880,0.07000,92.6250,102,48,0.28132
4947890,0.04000,91.2500,102,48,0.27741
4947900,0.02000,88.5000,102,48,0.26935
4947910,0.00000,87.1250,102,48,0.26593
4947920,-0.01000,85.7500,102,48,0.26325
4947930,-0.01500,84.2500,102,48,0.26252
4947940,-0.02000,80.9375,102,48,0.26886
4947950,-0.02500,79.0000,102,48,0.27766
4947960,-0.02500,76.9375,102,48,0.28913
4947970,-0.02500,74.8125,102,48,0.30354
4947980,-0.02000,70.9375,102,48,0.34676
4947990,-0.01500,69.3750,102,48,0.37436
4948000,-0.01500,68.0625,103,48,0.40464
4948010,-0.01500,66.9375,103,48,0.43663
4948020,-0.01000,65.2500,103,48,0.50183
4948030,-0.01500,64.5625,103,48,0.53382
4948040,-0.02500,64.0000,103,48,0.56459
4948050,-0.03000,63.5625,103,48,0.59389
4948060,-0.03500,62.8125,103,48,0.64274
4948070,-0.04000,62.4375,103,48,0.66056
4948080,-0.04500,62.1250,103,48,0.67912
4948090,-0.04500,61.7500,103,48,0.69646
4948100,-0.04500,61.0625,103,48,0.72576
4948110,-0.04500,60.8125,103,48,0.73724
4948120,-0.04500,60.5000,103,48,0.74652
4948130,-0.03500,60.1875,103,48,0.75385
4948140,-0.03500,59.4375,103,48,0.76313
4948150,-0.04500,59.0625,103,48,0.76508
4948160,-0.04500,58.6875,103,48,0.76459
4948170,-0.01000,58.3125,103,48,0.76239
4948180,0.03000,57.5625,103,48,0.75604
4948190,0.02500,57.1875,103,48,0.75140
4948200,-0.01500,56.8125,103,48,0.74530
4948210,-0.05000,56.3750,103,48,0.73773
4948220,-0.08000,55.6250,103,48,0.71966
4948230,-0.10500,55.3125,103,48,0.70916
4948240,-0.11500,55.0000,103,48,0.69792
4948250,-0.11500,54.6875,103,48,0.68620
4948260,-0.11500,54.0000,103,48,0.66300
4948270,-0.11500,53.6875,103,48,0.65226
4948280,-0.11500,53.3750,103,48,0.64127
4948290,-0.10500,53.1250,103,48,0.63028
4948300,-0.09500,52.7500,103,48,0.60806
4948310,-0.10500,52.5000,103,48,0.59707
4948320,0.00500,52.2500,103,48,0.58657
4948330,0.42500,52.1250,103,48,0.57607
4948340,1.00000,51.8125,103,48,0.55629
4948350,1.00000,51.5625,103,48,0.54676
4948360,0.35500,51.3125,103,48,0.53871
4948370,-0.22000,51.0625,103,48,0.53138
4948380,-0.44000,50.5000,103,48,0.51526
4948390,-0.37500,50.1875,103,48,0.50720
4948400,-0.27000,49.8750,103,48,0.49915
4948410,-0.23000,49.5000,103,48,0.49109
4948420,-0.22000,48.8125,103,48,0.47546
4948430,-0.20000,48.5000,103,48,0.46789
4948440,-0.19000,48.1875,103,48,0.46056
4948450,-0.18000,47.9375,103,48,0.45324
4948460,-0.18000,47.3125,103,48,0.43980
4948470,-0.17500,47.0000,103,48,0.43443
4948480,-0.17000,46.7500,103,48,0.42833
4948490,-0.16000,46.6250,103,48,0.42173
4948500,-0.15500,47.9375,103,48,0.40879
4948510,-0.14500,50.1250,103,48,0.40220
4948520,-0.13500,53.5625,103,48,0.39585
4948530,-0.12500,63.0625,103,48,0.38950
4948540,-0.11000,68.3125,103,48,0.37729
4948550,-0.09500,73.5000,103,48,0.37118
4948560,-0.07500,78.5625,103,48,0.36630
4948570,-0.05500,83.4375,103,48,0.36239
4948580,-0.04500,91.8125,103,48,0.35263
4948590,-0.03000,95.1875,103,48,0.34750
4948600,-0.01000,97.9375,103,48,0.34237
4948610,0.00000,100.0000,103,48,0.33724
4948620,0.01500,102.5000,103,48,0.32723
4948630,0.02000,103.0000,103,48,0.32234
4948640,0.02500,103.0625,103,48,0.31770
4948650,0.03000,102.8125,103,48,0.31331
4948660,0.03417,101.8333,103,48,0.30818
4948670,0.04000,100.5625,103,48,0.30330
4948680,0.05000,99.4375,103,48,0.29963
4948690,0.06000,98.2500,103,48,0.29573
4948700,0.06000,95.6250,103,48,0.28742
4948710,0.05000,94.2500,103,48,0.28327
4948720,0.03000,92.8750,103,48,0.27912
4948730,0.00500,91.4375,103,48,0.27497
4948740,-0.01000,88.6875,103,48,0.26764
4948750,-0.02500,87.3125,103,48,0.26545
4948760,-0.03000,85.8750,103,48,0.26520
4948770,-0.02500,82.6250,103,48,0.27155
4948780,-0.02500,80.7500,103,48,0.27912
4948790,-0.02500,78.6875,103,48,0.29084
4948800,-0.03000,76.5625,103,48,0.30720
4948810,-0.03500,74.4375,103,48,0.32796
4948820,-0.03500,70.7500,103,48,0.38095
4948830,-0.03500,69.3750,103,48,0.41197
4948840,-0.03500,68.1875,103,48,0.44444
4948850,-0.04500,67.1875,103,48,0.47741
4948860,-0.05500,65.5625,103,48,0.53822
4948870,-0.06500,64.9375,103,48,0.56313
4948880,-0.07000,64.3750,103,48,0.58999
4948890,-0.07000,63.8750,103,48,0.61636
4948900,-0.07000,63.0625,103,48,0.66447
4948910,-0.06500,62.6875,103,48,0.68547
4948920,-0.06500,62.3125,103,48,0.70427
4948930,-0.06500,62.0000,103,48,0.72063
4948940,-0.07000,61.3750,103,48,0.74652
4948950,-0.07000,61.0000,103,48,0.75604
4948960,-0.06500,60.6875,103,48,0.76190
4948970,-0.06000,60.3750,103,48,0.76508
4948980,-0.04500,59.6250,103,48,0.76996
4948990,-0.02500,59.3125,103,48,0.77094
4949000,0.01500,58.9375,102,48,0.77045
4949010,0.03500,58.5625,102,48,0.76874
4949020,0.02500,57.8125,102,48,0.76117
4949030,-0.01000,57.4375,102,48,0.75580
4949040,-0.04500,57.0625,102,48,0.74896
4949050,-0.08000,56.6250,102,48,0.74090
4949060,-0.11000,55.9375,102,48,0.72210
4949070,-0.13500,55.5625,102,48,0.71209
4949080,-0.14500,55.1875,102,48,0.70134
4949090,-0.15500,54.8125,102,48,0.68987
4949100,-0.15500,54.1250,102,48,0.66618
4949110,-0.15500,53.7500,102,48,0.65421
4949120,-0.15000,53.4375,102,48,0.64225
4949130,-0.14500,53.1875,102,48,0.63028
4949140,-0.14500,52.7500,102,48,0.60733
4949150,-0.10500,52.5625,102,48,0.59609
4949160,0.18500,52.3750,102,48,0.58608
4949170,0.79000,52.1250,102,48,0.57705
4949180,1.15000,51.6875,102,48,0.55800
4949190,0.69500,51.3750,102,48,0.54847
4949200,-0.02000,51.1250,102,48,0.53895
4949210,-0.38500,50.8125,102,48,0.52967
4949220,-0.41500,50.1250,102,48,0.51136
4949230,-0.30000,49.8125,102,48,0.50281
4949240,-0.22500,49.5625,102,48,0.49451
4949250,-0.21000,49.2500,102,48,0.48669
4949260,-0.20000,48.5625,102,48,0.47228
4949270,-0.19000,48.2500,102,48,0.46642
4949280,-0.18500,47.9375,102,48,0.45983
4949290,-0.18000,47.6250,102,48,0.45299
4949300,-0.17500,47.0625,102,48,0.43883
4949310,-0.17500,46.8125,102,48,0.42808
4949320,-0.16500,46.6875,102,48,0.41538
4949330,-0.15000,47.6875,102,48,0.39731
4949340,-0.14500,49.5000,102,48,0.38999
4949350,-0.13500,52.6875,102,48,0.38315
4949360,-0.12500,57.0000,102,48,0.37778
4949370,-0.11000,62.0625,102,48,0.37289
4949380,-0.09500,72.6875,102,48,0.36142
4949390,-0.07500,77.8750,102,48,0.35556
4949400,-0.05500,82.8750,102,48,0.34969
4949410,-0.03500,87.4375,102,48,0.34408
4949420,-0.01500,95.0625,102,48,0.33309
4949430,0.00000,97.9375,102,48,0.32772
4949440,0.01500,100.1875,102,48,0.32259
4949450,0.03000,101.8125,102,48,0.31746
4949460,0.04000,103.4375,102,48,0.31087
4949470,0.04000,103.5625,102,48,0.30696
4949480,0.05000,103.3750,102,48,0.30232
4949490,0.05000,102.9375,102,48,0.29768
4949500,0.06500,101.3125,102,48,0.28840
4949510,0.07500,100.2500,102,48,0.28400
4949520,0.08500,99.0625,102,48,0.27961
4949530,0.09000,97.8125,102,48,0.27521
4949540,0.08500,95.1250,102,48,0.26667
4949550,0.07000,93.7500,102,48,0.26252
4949560,0.05500,92.3750,102,48,0.25958
4949570,0.04000,90.9375,102,48,0.25763
4949580,0.03000,88.1250,102,48,0.25226
4949590,0.02000,86.6250,102,48,0.25079
4949600,0.01500,85.0625,102,48,0.25153
4949610,0.00500,83.4375,102,48,0.25495
4949620,0.00000,79.6875,102,48,0.27326
4949630,0.00000,77.6250,102,48,0.28889
4949640,0.00500,75.5000,102,48,0.30916
4949650,0.01000,73.5000,102,48,0.33309
4949660,0.01000,70.1875,102,48,0.38095
4949670,0.01000,68.8750,102,48,0.40952
4949680,0.00917,67.8958,102,48,0.43521
4949690,0.01000,66.8750,102,48,0.47228
4949700,0.01500,65.4375,102,48,0.53504
4949710,0.02000,64.8750,102,48,0.56459
4949720,0.02000,64.3750,102,48,0.59243
4949730,0.01500,63.5625,102,48,0.61832
4949740,0.01500,63.1875,102,48,0.66300
4949750,0.02000,62.8125,102,48,0.68181
4949760,0.02500,62.4375,102,48,0.69573
4949770,0.02500,62.0625,102,48,0.70623
4949780,0.02500,61.4375,102,48,0.72650
4949790,0.02000,61.0625,102,48,0.73455
4949800,0.02000,60.7500,102,48,0.74115
4949810,0.01000,60.4375,102,48,0.74603
4949820,0.02000,59.7500,102,48,0.75067
4949830,0.04000,59.3750,102,48,0.75092
4949840,0.04500,59.0625,102,48,0.74969
4949850,0.02000,58.7500,102,48,0.74701
4949860,-0.02500,58.0000,102,48,0.73748
4949870,-0.07500,57.6250,102,48,0.73162
4949880,-0.10500,57.2500,102,48,0.72503
4949890,-0.13500,56.8750,102,48,0.71722
4949900,-0.16000,56.1250,102,48,0.69866
4949910,-0.17000,55.7500,102,48,0.68816
4949920,-0.17500,55.3125,102,48,0.67717
4949930,-0.18000,54.9375,102,48,0.66569
4949940,-0.18000,54.2500,102,48,0.64200
4949950,-0.18000,53.9375,102,48,0.63028
4949960,-0.17000,53.6250,102,48,0.61954
4949970,-0.17500,53.3750,102,48,0.60952
4949980,-0.14500,52.8750,102,48,0.58852
4949990,0.15000,52.6250,102,48,0.57827
4950000,0.78000,52.3750,102,48,0.56801
4950010,1.16000,52.1875,102,48,0.55800
4950020,0.74500,51.7500,102,48,0.53846
4950030,-0.01000,51.5000,102,48,0.52894
4950040,-0.41500,51.2500,102,48,0.51941
4950050,-0.42500,50.8750,102,48,0.51038
4950060,-0.30500,50.2500,102,48,0.49548
4950070,-0.23500,49.9375,102,48,0.48767
4950080,-0.22000,49.6250,102,48,0.47985
4950090,-0.21500,49.3125,102,48,0.47228
4950100,-0.21000,48.6250,102,48,0.45641
4950110,-0.20500,48.3125,102,48,0.44835
4950120,-0.21000,48.0625,102,48,0.44054
4950130,-0.21500,47.7500,102,48,0.43272
4950140,-0.22000,47.2500,102,48,0.41758
4950150,-0.21000,47.1875,102,48,0.41050
4950160,-0.19500,47.5625,102,48,0.40488
4950170,-0.18500,48.6250,102,48,0.39976
4950180,-0.17000,54.6250,102,48,0.38779
4950190,-0.15500,59.3750,102,48,0.38144
4950200,-0.14000,64.6875,102,48,0.37485
4950210,-0.12500,70.1875,102,48,0.36825
4950220,-0.10500,80.9375,102,48,0.35531
4950230,-0.08500,85.8750,102,48,0.34921
4950240,-0.05500,90.4375,102,48,0.34335
4950250,-0.02000,94.4375,102,48,0.33773
4950260,0.01000,100.4375,102,48,0.33016
4950270,0.04000,102.4375,102,48,0.32601
4950280,0.06000,103.8125,102,48,0.32137
4950290,0.07000,105.0000,102,48,0.31648
4950300,0.06500,105.0000,102,48,0.30696
4950310,0.05500,104.6875,102,48,0.30232
4950320,0.05000,104.0625,102,48,0.29768
4950330,0.05000,103.2500,102,48,0.29304
4950340,0.05000,101.1250,102,48,0.28425
4950350,0.05000,99.8750,102,48,0.27985
4950360,0.06000,98.5625,102,48,0.27692
4950370,0.05500,97.1875,102,48,0.27448
4950380,0.04500,94.3750,102,48,0.26691
4950390,0.02000,93.0000,102,48,0.26252
4950400,0.00000,91.6250,102,48,0.25812
4950410,-0.01500,88.9375,102,48,0.25177
4950420,-0.02500,87.6250,102,48,0.25079
4950430,-0.02500,86.1875,102,48,0.25250
4950440,-0.01500,84.6250,102,48,0.25739
4950450,-0.01000,82.8750,102,48,0.26618
4950460,-0.00500,78.8125,102,48,0.29182
4950470,-0.01500,76.6875,102,48,0.31111
4950480,-0.01500,74.6250,102,48,0.33504
4950490,-0.02500,72.8125,102,48,0.36239
4950500,-0.03500,69.8750,102,48,0.42466
4950510,-0.04500,68.7500,102,48,0.45763
4950520,-0.05500,67.8125,102,48,0.49060
4950530,-0.07000,67.0000,102,48,0.52308
4950540,-0.08500,65.8125,102,48,0.58437
4950550,-0.10500,65.3125,102,48,0.61221
4950560,-0.12500,64.8750,102,48,0.63468
4950570,-0.13500,64.5000,102,48,0.65324
4950580,-0.14500,63.7500,102,48,0.69084
4950590,-0.16000,63.4375,102,48,0.70720
4950600,-0.17500,63.0625,102,48,0.72161
4950610,-0.19500,62.7500,102,48,0.73382
4950620,-0.20000,62.0625,102,48,0.75189
4950630,-0.19500,61.7500,102,48,0.75800
4950640,-0.17000,61.3750,102,48,0.76215
4950650,-0.13500,61.0625,102,48,0.76484
4950660,-0.08500,60.4375,102,48,0.76337
4950670,-0.05500,60.0625,102,48,0.76166
4950680,-0.05000,59.7500,102,48,0.75897
4950690,-0.07000,59.3750,102,48,0.75531
4950700,-0.09500,58.8125,102,48,0.74701
4950710,-0.10500,58.2500,102,48,0.73724
4950720,-0.12500,57.8750,102,48,0.72918
4950730,-0.13500,57.4375,102,48,0.71990
4950740,-0.13500,56.6875,102,48,0.69866
4950750,-0.14000,56.2500,102,48,0.68694
4950760,-0.14500,55.8750,102,48,0.67570
4950770,-0.15000,55.5000,102,48,0.66447
4950780,-0.15000,54.8125,102,48,0.64078
4950790,-0.14500,54.5000,102,48,0.62906
4950800,-0.14500,54.1875,102,48,0.61734
4950810,-0.15500,53.9375,102,48,0.60586
4950820,0.03500,53.4375,102,48,0.58339
4950830,0.57500,53.2500,102,48,0.57289
4950840,1.14000,53.0625,102,48,0.56264
4950850,0.99000,52.8750,102,48,0.55263
4950860,0.19500,52.5625,102,48,0.53578
4950870,-0.36000,52.3750,102,48,0.52747
4950880,-0.45000,52.1250,102,48,0.51893
4950890,-0.33000,51.8125,102,48,0.51013
4950900,-0.24000,51.2500,102,48,0.49280
4950910,-0.22500,50.9375,102,48,0.48449
4950920,-0.22500,50.6250,102,48,0.47619
4950930,-0.21500,50.3750,102,48,0.46838
4950940,-0.20500,49.7500,102,48,0.45275
4950950,-0.19500,49.4375,102,48,0.44493
4950960,-0.19000,49.1875,102,48,0.43858
4950970,-0.18500,48.6875,102,48,0.43297
4950980,-0.17000,48.6875,102,48,0.42002
4950990,-0.16000,49.0625,102,48,0.41343
4951000,-0.15500,50.3125,102,48,0.40684
4951010,-0.14500,52.8750,102,48,0.40024
4951020,-0.13500,61.8750,102,48,0.38706
4951030,-0.12000,67.3750,102,48,0.38071
4951040,-0.10500,73.0625,102,48,0.37436
4951050,-0.08500,78.6250,102,48,0.36801
4951060,-0.06500,88.8125,102,48,0.35849
4951070,-0.04500,93.2500,102,48,0.35336
4951080,-0.02500,97.1250,102,48,0.34774
4951090,-0.00500,100.3125,102,48,0.34237
4951100,0.01000,104.5625,102,48,0.33162
4951110,0.02000,105.7500,102,48,0.32650
4951120,0.03000,106.3750,102,48,0.32112
4951130,0.04000,106.6250,102,48,0.31575
4951140,0.04000,106.0625,102,48,0.30549
4951150,0.04000,105.3125,102,48,0.30183
4951160,0.04500,104.4375,102,48,0.29890
4951170,0.05000,103.3750,102,48,0.29499
4951180,0.06000,100.9375,102,48,0.28669
4951190,0.07000,99.5625,102,48,0.28230
4951200,0.07000,98.1875,102,48,0.27790
4951210,0.06000,96.7500,102,48,0.27350
4951220,0.04000,93.8750,102,48,0.26471
4951230,0.02500,92.4375,102,48,0.26056
4951240,0.01000,91.0625,102,48,0.25714
4951250,-0.00500,89.6250,102,48,0.25495
4951260,-0.01500,86.6875,102,48,0.25763
4951270,-0.02000,85.0000,102,48,0.26227
4951280,-0.02000,83.1250,102,48,0.27057
4951290,-0.01500,81.0625,102,48,0.28303
4951300,-0.01500,76.6250,102,48,0.32186
4951310,-0.01000,74.5625,102,48,0.34750
4951320,-0.01000,72.7500,102,48,0.37631
4951330,-0.01500,71.1875,102,48,0.40757
4951340,-0.01500,68.8125,102,48,0.47302
4951350,-0.02000,67.9375,102,48,0.50183
4951360,-0.02500,67.2500,102,48,0.52503
4951370,-0.02500,66.6875,102,48,0.54896
4951380,-0.03000,65.8750,102,48,0.60000
4951390,-0.03500,65.5000,102,48,0.62442
4951400,-0.03500,65.1875,102,48,0.64689
4951410,-0.04000,64.8125,102,48,0.66716
4951420,-0.04500,64.1250,102,48,0.70085
4951430,-0.04500,63.7500,102,48,0.71453
4951440,-0.04500,63.4375,102,48,0.72576
4951450,-0.04500,63.0625,102,48,0.73480
4951460,-0.04500,62.3125,102,48,0.74310
4951470,-0.03500,61.8750,102,48,0.74554
4951480,-0.02500,61.4375,102,48,0.74725
4951490,0.01000,61.0000,102,48,0.74799
4951500,0.04000,60.1250,102,48,0.74579
4951510,0.05000,59.6875,102,48,0.74286
4951520,0.02000,59.2500,102,48,0.73871
4951530,-0.01500,58.8125,102,48,0.73333
4951540,-0.05500,58.0000,102,48,0.71844
4951550,-0.08500,57.6250,102,48,0.70989
4951560,-0.10000,57.1875,102,48,0.70061
4951570,-0.10500,56.8125,102,48,0.69060
4951580,-0.10500,56.0625,102,48,0.66838
4951590,-0.10500,55.6875,102,48,0.65665
4951600,-0.10500,55.3125,102,48,0.64493
4951610,-0.10000,54.9375,102,48,0.63321
4951620,-0.09500,54.3125,102,48,0.60977
4951630,-0.09000,54.0000,102,48,0.59829
4951640,-0.09500,53.7500,102,48,0.58730
4951650,0.04000,53.5000,102,48,0.57656
4951660,0.51000,53.1250,102,48,0.55824
4951670,1.08500,52.9375,102,48,0.54896
4951680,1.01500,52.7500,102,48,0.53944
4951690,0.30000,52.5000,102,48,0.52991
4951700,-0.27000,52.0625,102,48,0.51184
4951710,-0.42500,51.8125,102,48,0.50330
4951720,-0.32000,51.5000,102,48,0.49475
4951730,-0.24000,51.0625,102,48,0.48238
4951740,-0.19000,50.6250,102,48,0.47057
4951750,-0.17500,50.3125,102,48,0.46374
4951760,-0.16000,50.0000,102,48,0.45763
4951770,-0.15000,49.7500,102,48,0.45079
4951780,-0.14500,49.1250,102,48,0.43639
4951790,-0.15000,48.8750,102,48,0.42906
4951800,-0.14500,48.5625,102,48,0.42173
4951810,-0.13000,48.3125,102,48,0.41441
4951820,-0.12500,48.3750,102,48,0.40000
4951830,-0.11000,49.3750,102,48,0.39292
4951840,-0.10500,51.6250,102,48,0.38584
4951850,-0.09000,55.2500,102,48,0.37900
4951860,-0.07500,65.2500,102,48,0.36850
4951870,-0.06500,70.7500,102,48,0.36264
4951880,-0.04500,76.1875,102,48,0.35653
4951890,-0.03000,81.4375,102,48,0.35043
4951900,-0.01500,90.7500,102,48,0.33846
4951910,0.00500,94.6250,102,48,0.33260
4951920,0.03000,97.8750,102,48,0.32698
4951930,0.04500,100.4375,102,48,0.32137
4951940,0.05000,103.5000,102,48,0.31087
4951950,0.05000,104.1875,102,48,0.30720
4951960,0.04000,104.3750,102,48,0.30403
4951970,0.05000,104.1875,102,48,0.30012
4951980,0.07000,103.0000,102,48,0.29109
4951990,0.11500,102.0625,102,48,0.28645
4952000,0.15500,100.9375,102,48,0.28205
4952010,0.16500,99.6250,102,48,0.27766
4952020,0.15500,96.8750,102,48,0.26935
4952030,0.13000,95.5625,102,48,0.26496
4952040,0.10500,94.1875,102,48,0.26081
4952050,0.07500,92.8750,102,48,0.25665
4952060,0.03000,90.0625,102,48,0.25201
4952070,0.00000,88.6250,102,48,0.24933
4952080,-0.02000,87.0625,102,48,0.24713
4952090,-0.02000,85.4375,102,48,0.24615
4952100,-0.01000,81.7500,102,48,0.25104
4952110,0.00500,79.6875,102,48,0.25836
4952120,0.01500,77.5000,102,48,0.27009
4952130,0.02000,75.2500,102,48,0.28596
4952140,0.01500,71.5000,102,48,0.32991
4952150,0.01500,70.0625,102,48,0.35336
4952160,0.01000,68.8750,102,48,0.37705
4952170,0.00000,67.8750,102,48,0.40488
4952180,-0.00500,66.4375,102,48,0.46471
4952190,-0.01500,65.9375,102,48,0.49475
4952200,-0.02500,65.5000,102,48,0.52381
4952210,-0.03500,65.1250,102,48,0.55116
4952220,-0.04500,64.4375,102,48,0.60024
4952230,-0.05500,64.0625,102,48,0.62149
4952240,-0.07000,63.7500,102,48,0.64029
4952250,-0.08000,63.3750,102,48,0.65690
4952260,-0.09500,62.6250,102,48,0.67839
4952270,-0.10500,62.2500,102,48,0.68767
4952280,-0.10500,61.8750,102,48,0.69597
4952290,-0.08500,61.4375,102,48,0.70281
4952300,-0.04500,60.6875,102,48,0.71160
4952310,0.01000,60.2500,102,48,0.71380
4952320,0.06000,59.8750,102,48,0.71453
4952330,0.08000,59.5000,102,48,0.71380
4952340,0.06500,58.7500,102,48,0.70818
4952350,0.03000,58.3750,102,48,0.70354
4952360,-0.01500,58.0000,102,48,0.69768
4952370,-0.07000,57.2500,102,48,0.69084
4952380,-0.11000,56.8125,102,48,0.67424
4952390,-0.12500,56.4375,102,48,0.66471
4952400,-0.11500,56.0625,102,48,0.65446
4952410,-0.09500,55.6875,102,48,0.64371
4952420,-0.07000,54.9375,102,48,0.62076
4952430,-0.06000,54.6250,102,48,0.60952
4952440,-0.05000,54.3125,102,48,0.59829
4952450,-0.03500,54.0000,102,48,0.58730
4952460,-0.04000,53.5000,102,48,0.56850
4952470,0.03000,53.2500,102,48,0.55897
4952480,0.40500,53.1250,102,48,0.54945
4952490,1.01500,52.9375,102,48,0.53993
4952500,1.15000,52.5625,102,48,0.52137
4952510,0.59500,52.3125,102,48,0.51258
4952520,-0.10500,52.0625,102,48,0.50403
4952530,-0.27000,51.7500,102,48,0.49548
4952540,-0.21500,51.0625,102,48,0.47888
4952550,-0.10500,50.7500,102,48,0.47204
4952560,-0.07000,50.3750,102,48,0.46593
4952570,-0.07500,50.0625,102,48,0.45910
4952580,-0.07500,49.5000,102,48,0.44493
4952590,-0.06500,49.1875,102,48,0.43785
4952600,-0.07000,48.9375,102,48,0.43077
4952610,-0.09000,48.6875,102,48,0.42344
4952620,-0.11500,48.1250,102,48,0.40928
4952630,-0.12500,47.8750,102,48,0.40244
4952640,-0.14000,47.8125,102,48,0.39585
4952650,-0.14500,48.0625,102,48,0.38950
4952660,-0.15500,51.2500,102,48,0.37998
4952670,-0.16000,54.6875,102,48,0.37460
4952680,-0.16500,59.1875,102,48,0.36874
4952690,-0.16500,64.2500,102,48,0.36264
4952700,-0.15500,74.6875,102,48,0.35043
4952710,-0.15000,79.6875,102,48,0.34481
4952720,-0.14500,84.4375,102,48,0.33919
4952730,-0.14000,88.6875,102,48,0.33382
4952740,-0.13500,95.5625,102,48,0.32430
4952750,-0.11000,98.6458,102,48,0.32015
4952760,-0.08500,99.8125,102,48,0.31795
4952770,-0.05500,100.9375,102,48,0.31429
4952780,-0.02500,101.6250,102,48,0.30623
4952790,0.00000,101.3125,102,48,0.30159
4952800,0.02000,100.7500,102,48,0.29719
4952810,0.04000,99.9375,102,48,0.29255
4952820,0.05500,97.6875,102,48,0.28327
4952830,0.08000,96.3125,102,48,0.27888
4952840,0.09500,94.9375,102,48,0.27448
4952850,0.11500,93.5000,102,48,0.27009
4952860,0.14000,90.6250,102,48,0.26496
4952870,0.15500,89.1875,102,48,0.26203
4952880,0.16500,87.7500,102,48,0.25861
4952890,0.19000,86.3750,102,48,0.25495
4952900,0.20500,83.3750,102,48,0.24908
4952910,0.19500,81.8125,102,48,0.24786
4952920,0.16500,80.1250,102,48,0.24884
4952930,0.12500,78.1875,102,48,0.25250
4952940,0.06500,74.0625,102,48,0.27057
4952950,0.01000,72.0625,102,48,0.28376
4952960,-0.03500,70.3125,102,48,0.29963
4952970,-0.08500,68.8125,102,48,0.32015
4952980,-0.15000,66.6250,102,48,0.37094
4952990,-0.20000,65.8750,102,48,0.39951
4953000,-0.24000,65.1875,102,48,0.42906
4953010,-0.26500,64.6875,102,48,0.45885
4953020,-0.28000,63.9375,102,48,0.51624
4953030,-0.28000,63.6250,102,48,0.54286
4953040,-0.24500,63.3125,102,48,0.56752
4953050,-0.19000,63.0000,102,48,0.58730
4953060,-0.14500,62.2500,102,48,0.62076
4953070,-0.12500,61.8125,102,48,0.63639
4953080,-0.12000,61.4375,102,48,0.65031
4953090,-0.10500,61.0000,102,48,0.66203
4953100,-0.08500,60.2500,102,48,0.68010
4953110,-0.05500,59.8750,102,48,0.68620
4953120,-0.02000,59.5625,102,48,0.69060
4953130,0.01500,59.1875,102,48,0.69377
4953140,0.06000,58.4375,102,48,0.69524
4953150,0.10000,58.0625,102,48,0.69328
4953160,0.10000,57.6250,102,48,0.68987
4953170,0.08000,57.2500,102,48,0.68571
4953180,0.05000,56.4375,102,48,0.67399
4953190,0.05000,56.0625,102,48,0.66667
4953200,0.08500,55.6875,102,48,0.65836
4953210,0.14000,55.3125,102,48,0.64908
4953220,0.20500,54.6250,102,48,0.62833
4953230,0.23000,54.2500,102,48,0.61709
4953240,0.23500,53.9375,102,48,0.60562
4953250,0.25500,53.6250,102,48,0.59512
4953260,0.22000,53.0000,102,48,0.57460
4953270,0.14500,52.7500,102,48,0.56410
4953280,0.05500,52.5000,102,48,0.55385
4953290,-0.05000,52.2500,102,48,0.54408
4953300,-0.06000,51.9375,102,48,0.52527
4953310,0.22500,51.8125,102,48,0.51648
4953320,0.76500,51.6250,102,48,0.50794
4953330,0.88000,51.5000,102,48,0.49963
4953340,0.29500,51.1250,102,48,0.48376
4953350,-0.30000,50.8750,102,48,0.47717
4953360,-0.52500,50.5625,102,48,0.47106
4953370,-0.48000,50.3125,102,48,0.46447
4953380,-0.36500,49.6875,102,48,0.45055
4953390,-0.30500,49.3750,102,48,0.44371
4953400,-0.30500,49.0625,102,48,0.43712
4953410,-0.31000,48.6875,102,48,0.43175
4953420,-0.32500,48.0000,102,48,0.42149
4953430,-0.33000,47.6875,102,48,0.41563
4953440,-0.34000,47.3750,102,48,0.40952
4953450,-0.34500,47.1250,102,48,0.40440
4953460,-0.33500,46.7500,102,48,0.39438
4953470,-0.30500,46.8125,102,48,0.38852
4953480,-0.27500,47.3750,102,48,0.38266
4953490,-0.25000,51.5000,102,48,0.37680
4953500,-0.21000,55.3750,102,48,0.36459
4953510,-0.17000,60.1250,102,48,0.35873
4953520,-0.14000,65.2500,102,48,0.35287
4953530,-0.11500,70.4375,102,48,0.34725
4953540,-0.09000,80.3750,102,48,0.33651
4953550,-0.07500,84.9375,102,48,0.33260
4953560,-0.06000,89.0625,102,48,0.32918
4953570,-0.03500,92.6875,102,48,0.32479
4953580,-0.01000,98.0000,102,48,0.31551
4953590,0.01000,99.6875,102,48,0.31111
4953600,0.02000,100.7500,102,48,0.30672
4953610,0.02500,101.4375,102,48,0.29817
4953620,0.02500,101.1875,102,48,0.29377
4953630,0.03000,100.6250,102,48,0.28962
4953640,0.04000,99.8125,102,48,0.28547
4953650,0.05500,98.8125,102,48,0.28278
4953660,0.06500,96.3750,102,48,0.27790
4953670,0.07500,95.0000,102,48,0.27448
4953680,0.07000,93.5625,102,48,0.27082
4953690,0.06500,90.5625,102,48,0.26716
4953700,0.05000,89.1250,102,48,0.25958
4953710,0.04000,87.6250,102,48,0.25568
4953720,0.03500,86.1875,102,48,0.25201
4953730,0.03000,84.7500,102,48,0.24884
4953740,0.02500,81.6250,102,48,0.24664
4953750,0.04000,79.8750,102,48,0.24884
4953760,0.06500,77.9375,102,48,0.25348
4953770,0.09500,75.8750,102,48,0.26129
4953780,0.11500,72.9271,102,48,0.28230
4953790,0.12000,70.1875,102,48,0.30842
4953800,0.10500,68.7500,102,48,0.33162
4953810,0.08000,67.5625,102,48,0.35800
4953820,0.05000,65.7500,102,48,0.41612
4953830,0.04000,65.0625,102,48,0.44640
4953840,0.02000,64.5000,102,48,0.47643
4953850,0.00000,64.0625,102,48,0.50208
4953860,-0.03000,63.2500,102,48,0.54921
4953870,-0.04500,62.8750,102,48,0.57314
4953880,-0.06000,62.5000,102,48,0.59585
4953890,-0.07000,62.2500,102,48,0.61661
4953900,-0.08500,61.6250,102,48,0.65153
4953910,-0.11500,61.3125,102,48,0.66569
4953920,-0.15000,61.0000,102,48,0.67766
4953930,-0.17500,60.6250,102,48,0.68742
4953940,-0.19500,59.8750,102,48,0.70110
4953950,-0.21000,59.5000,102,48,0.70403
4953960,-0.22500,59.0625,102,48,0.70525
4953970,-0.20000,58.2500,102,48,0.70598
4953980,-0.14500,57.8750,102,48,0.70452
4953990,-0.11000,57.4375,102,48,0.70208
4954000,-0.11500,57.0625,103,48,0.69841
4954010,-0.13500,56.6875,103,48,0.69328
4954020,-0.15500,56.0000,103,48,0.68010
4954030,-0.16000,55.6875,103,48,0.67204
4954040,-0.16000,55.3750,103,48,0.66300
4954050,-0.15500,55.0625,103,48,0.65397
4954060,-0.13500,54.4375,103,48,0.63468
4954070,-0.11000,54.0625,103,48,0.62418
4954080,-0.09000,53.7500,103,48,0.61343
4954090,-0.06000,53.3750,103,48,0.60269
4954100,-0.03500,52.8125,103,48,0.58144
4954110,-0.00500,52.6250,103,48,0.57118
4954120,0.01000,52.3750,103,48,0.56093
4954130,0.11000,52.2500,103,48,0.55092
4954140,0.48000,51.8750,103,48,0.53187
4954150,1.08000,51.6875,103,48,0.52357
4954160,1.26000,51.5000,103,48,0.51600
4954170,0.73500,51.2500,103,48,0.50794
4954180,0.11000,50.6250,103,48,0.49206
4954190,-0.18500,50.3125,103,48,0.48449
4954200,-0.19000,50.0000,103,48,0.47741
4954210,-0.10500,49.7500,103,48,0.47033
4954220,-0.08000,49.1875,103,48,0.45641
4954230,-0.10500,48.9375,103,48,0.44957
4954240,-0.13500,48.6875,103,48,0.44274
4954250,-0.16000,48.3750,103,48,0.43687
4954260,-0.18500,47.8750,103,48,0.42540
4954270,-0.20000,47.5625,103,48,0.41905
4954280,-0.20000,47.2500,103,48,0.41245
4954290,-0.18500,46.9375,103,48,0.40586
4954300,-0.17500,46.8750,103,48,0.39365
4954310,-0.16500,47.5625,103,48,0.38755
4954320,-0.16000,49.2500,103,48,0.38169
4954330,-0.15500,52.2500,103,48,0.37607
4954340,-0.13500,61.2500,103,48,0.36508
4954350,-0.11500,66.4375,103,48,0.36068
4954360,-0.09000,71.6250,103,48,0.35678
4954370,-0.06500,76.7500,103,48,0.35214
4954380,-0.05500,86.2500,103,48,0.34188
4954390,-0.04500,90.3750,103,48,0.33675
4954400,-0.04000,93.8750,103,48,0.33162
4954410,-0.03500,96.8125,103,48,0.32674
4954420,-0.03500,100.7500,103,48,0.31746
4954430,-0.03500,101.8125,103,48,0.31282
4954440,-0.04000,102.3750,103,48,0.30842
4954450,-0.04500,102.5000,103,48,0.30549
4954460,-0.05500,101.7500,103,48,0.30012
4954470,-0.07000,101.0000,103,48,0.29646
4954480,-0.08500,100.0000,103,48,0.29255
4954490,-0.10500,98.8750,103,48,0.28864
4954500,-0.13000,96.2500,103,48,0.28083
4954510,-0.15500,94.8750,103,48,0.27692
4954520,-0.20000,93.4375,103,48,0.27302
4954530,-0.23000,91.9375,103,48,0.26911
4954540,-0.25000,88.9375,103,48,0.26129
4954550,-0.26000,87.5000,103,48,0.25885
4954560,-0.26000,86.0000,103,48,0.25739
4954570,-0.24000,84.4375,103,48,0.25617
4954580,-0.20500,81.1875,103,48,0.25836
4954590,-0.17000,79.3750,103,48,0.26374
4954600,-0.14500,77.3750,103,48,0.27277
4954610,-0.12500,75.2500,103,48,0.28620
4954620,-0.10000,71.4375,103,48,0.32503
4954630,-0.07500,69.8750,103,48,0.34994
4954640,-0.05500,68.5625,103,48,0.37753
4954650,-0.04500,67.5000,103,48,0.40317
4954660,-0.03500,65.7500,103,48,0.45641
4954670,-0.03500,65.1250,103,48,0.48596
4954680,-0.03500,64.5625,103,48,0.51575
4954690,-0.03500,64.1250,103,48,0.54457
4954700,-0.04000,63.3125,103,48,0.59731
4954710,-0.04000,62.9375,103,48,0.62076
4954720,-0.04000,62.6250,103,48,0.64176
4954730,-0.04500,62.2500,103,48,0.66056
4954740,-0.04500,61.5000,103,48,0.68962
4954750,-0.05000,61.1250,103,48,0.69890
4954760,-0.05000,60.8125,103,48,0.70794
4954770,-0.04500,60.5000,103,48,0.71624
4954780,-0.04500,59.8125,103,48,0.72821
4954790,-0.02500,59.5000,103,48,0.73187
4954800,0.00750,59.2083,103,48,0.73419
4954810,0.04000,58.7500,103,48,0.73431
4954820,0.06000,57.9375,103,48,0.73138
4954830,0.05500,57.5625,103,48,0.72796
4954840,0.06500,57.1875,103,48,0.72332
4954850,0.08000,56.7500,103,48,0.71746
4954860,0.10000,55.9375,103,48,0.70232
4954870,0.10000,55.5625,103,48,0.69353
4954880,0.10500,55.2500,103,48,0.68376
4954890,0.13000,54.8750,103,48,0.67326
4954900,0.18000,54.1875,103,48,0.65104
4954910,0.21500,53.8750,103,48,0.63956
4954920,0.21500,53.6250,103,48,0.62784
4954930,0.19500,53.3750,103,48,0.61636
4954940,0.15000,53.0000,103,48,0.59438
4954950,0.08000,52.8125,103,48,0.58462
4954960,0.07500,52.6250,103,48,0.57436
4954970,0.32000,52.4375,103,48,0.56410
4954980,0.86500,52.1250,103,48,0.54335
4954990,1.10500,51.8750,103,48,0.53309
4955000,0.42500,51.6250,103,48,0.52332
4955010,-0.13000,51.3750,103,48,0.51404
4955020,-0.47000,50.6875,103,48,0.49670
4955030,-0.51000,50.3750,103,48,0.48816
4955040,-0.42000,50.0625,103,48,0.48010
4955050,-0.37000,49.7500,103,48,0.47326
4955060,-0.37000,49.1250,103,48,0.45983
4955070,-0.37500,48.8125,103,48,0.45250
4955080,-0.37500,48.5000,103,48,0.44518
4955090,-0.37500,48.2500,103,48,0.43785
4955100,-0.37500,47.5000,103,48,0.42369
4955110,-0.37500,47.1875,103,48,0.41661
4955120,-0.37500,46.8750,103,48,0.40977
4955130,-0.35000,46.6875,103,48,0.40293
4955140,-0.31500,47.5625,103,48,0.39096
4955150,-0.28000,49.3125,103,48,0.38608
4955160,-0.23500,52.3750,103,48,0.38046
4955170,-0.18000,56.6250,103,48,0.37436
4955180,-0.12000,66.7500,103,48,0.36239
4955190,-0.03500,72.0000,103,48,0.35653
4955200,0.06500,77.1250,103,48,0.35092
4955210,0.16500,82.0625,103,48,0.34530
4955220,0.23500,90.6875,103,48,0.33480
4955230,0.26000,94.2500,103,48,0.32991
4955240,0.24500,97.1250,103,48,0.32503
4955250,0.21500,101.0000,103,48,0.32137
4955260,0.17500,102.0000,103,48,0.31502
4955270,0.13000,102.5000,103,48,0.31087
4955280,0.08500,102.6250,103,48,0.30647
4955290,0.05500,102.3125,103,48,0.30208
4955300,0.04500,101.0000,103,48,0.29328
4955310,0.04500,100.0000,103,48,0.28913
4955320,0.04000,98.8125,103,48,0.28547
4955330,0.03500,97.6250,103,48,0.28181
4955340,0.02000,95.0000,103,48,0.27570
4955350,0.00500,93.6250,103,48,0.27375
4955360,0.00500,92.2500,103,48,0.27082
4955370,0.00500,90.7500,103,48,0.26740
4955380,0.00500,87.8125,103,48,0.26032
4955390,-0.00500,86.3125,103,48,0.25739
4955400,-0.01500,84.8125,103,48,0.25568
4955410,-0.03000,83.2500,103,48,0.25592
4955420,-0.04500,79.6250,103,48,0.26471
4955430,-0.05500,77.6250,103,48,0.27473
4955440,-0.06500,75.4375,103,48,0.28913
4955450,-0.09000,73.3750,103,48,0.30501
4955460,-0.10500,69.8125,103,48,0.35018
4955470,-0.12000,68.4375,103,48,0.37802
4955480,-0.12500,67.3125,103,48,0.40781
4955490,-0.12500,66.4375,103,48,0.43858
4955500,-0.11500,65.0625,103,48,0.50061
4955510,-0.12500,64.5000,103,48,0.53065
4955520,-0.13500,64.0000,103,48,0.55946
4955530,-0.15000,63.6250,103,48,0.58657
4955540,-0.16000,62.8750,103,48,0.63175
4955550,-0.15500,62.5000,103,48,0.64835
4955560,-0.13500,62.1250,103,48,0.66520
4955570,-0.11500,61.4375,103,48,0.68107
4955580,-0.09500,61.0625,103,48,0.70794
4955590,-0.08500,60.8125,103,48,0.71844
4955600,-0.07000,60.5000,103,48,0.72674
4955610,-0.06000,60.1250,103,48,0.73333
4955620,-0.05000,59.4375,103,48,0.74164
4955630,-0.03000,59.0625,103,48,0.74335
4955640,-0.00500,58.6875,103,48,0.74335
4955650,-0.00500,58.3125,103,48,0.74139
4955660,-0.02500,57.6250,103,48,0.73431
4955670,-0.05500,57.2500,103,48,0.72943
4955680,-0.09000,56.8750,103,48,0.72357
4955690,-0.13000,56.5000,103,48,0.71624
4955700,-0.16500,55.8125,103,48,0.69890
4955710,-0.19000,55.4375,103,48,0.68889
4955720,-0.20000,55.1250,103,48,0.67790
4955730,-0.20500,54.7500,103,48,0.66642
4955740,-0.21000,54.1250,103,48,0.64322
4955750,-0.22000,53.7500,103,48,0.63248
4955760,-0.23000,53.4375,103,48,0.62149
4955770,-0.25000,52.9375,103,48,0.59927
4955780,-0.28000,52.6875,103,48,0.58828
4955790,-0.32500,52.5000,103,48,0.57753
4955800,-0.19000,52.3125,103,48,0.56679
4955810,0.29000,52.1250,103,48,0.55653
4955820,0.76000,51.8500,103,48,0.54359
4955830,0.49667,51.5250,103,48,0.53016
4955840,-0.05500,51.1875,103,48,0.51844
4955850,-0.45000,50.8750,103,48,0.51062
4955860,-0.52000,50.2500,103,48,0.49597
4955870,-0.39500,49.9375,103,48,0.48840
4955880,-0.28000,49.5625,103,48,0.48083
4955890,-0.22500,49.2500,103,48,0.47326
4955900,-0.19000,48.6250,103,48,0.45885
4955910,-0.15500,48.3125,103,48,0.45153
4955920,-0.13500,47.9375,103,48,0.44420
4955930,-0.13500,47.3125,103,48,0.43712
4955940,-0.14500,47.0625,103,48,0.42466
4955950,-0.15500,46.8750,103,48,0.41978
4955960,-0.16000,46.8125,103,48,0.41416
4955970,-0.16500,47.1250,103,48,0.40806
4955980,-0.16000,50.2500,103,48,0.39560
4955990,-0.15500,53.7500,103,48,0.38950
4956000,-0.13000,58.2500,103,48,0.38315
4956010,-0.09500,63.3750,103,48,0.37680
4956020,-0.06500,73.9375,103,48,0.36484
4956030,-0.03500,79.1250,103,48,0.35922
4956040,-0.00500,84.0000,103,48,0.35385
4956050,0.02000,88.4375,103,48,0.34994
4956060,0.05000,95.8125,103,48,0.34286
4956070,0.11000,98.5625,103,48,0.33846
4956080,0.17500,100.6875,103,48,0.33382
4956090,0.24500,102.1875,103,48,0.32918
4956100,0.28500,103.5625,103,48,0.32015
4956110,0.30000,103.6875,103,48,0.31575
4956120,0.29500,103.4375,103,48,0.31136
4956130,0.28000,102.8750,103,48,0.30696
4956140,0.26500,101.1875,103,48,0.29939
4956150,0.24500,100.0625,103,48,0.29695
4956160,0.22500,98.8750,103,48,0.29328
4956170,0.18500,97.5625,103,48,0.28913
4956180,0.13000,94.7500,103,48,0.28059
4956190,0.06000,93.3125,103,48,0.27643
4956200,0.00000,91.8750,103,48,0.27228
4956210,-0.06000,90.5000,103,48,0.26862
4956220,-0.11500,87.6250,103,48,0.26276
4956230,-0.16000,86.1875,103,48,0.26154
4956240,-0.20000,84.6250,103,48,0.26252
4956250,-0.23000,83.0000,103,48,0.26593
4956260,-0.25000,79.1250,103,48,0.28181
4956270,-0.27000,76.9375,103,48,0.29548
4956280,-0.29000,74.8125,103,48,0.31331
4956290,-0.29500,72.8750,103,48,0.33504
4956300,-0.28000,69.6875,103,48,0.38828
4956310,-0.24000,68.4375,103,48,0.41856
4956320,-0.18000,67.3750,103,48,0.44982
4956330,-0.10000,66.5000,103,48,0.48156
4956340,0.00000,65.1875,103,48,0.53968
4956350,0.09000,64.6875,103,48,0.56313
4956360,0.17500,64.1875,103,48,0.58803
4956370,0.25500,63.8125,103,48,0.61270
4956380,0.31000,63.1875,103,48,0.65739
4956390,0.32000,62.8750,103,48,0.67668
4956400,0.31000,62.5625,103,48,0.69377
4956410,0.29500,62.2500,103,48,0.70842
4956420,0.25500,61.6875,103,48,0.73114
4956430,0.15500,61.3750,103,48,0.73944
4956440,0.04000,61.0625,103,48,0.74554
4956450,-0.01500,60.7500,103,48,0.74872
4956460,0.00000,60.1250,103,48,0.75043
4956470,0.11500,59.7500,103,48,0.75018
4956480,0.26500,59.3750,103,48,0.74896
4956490,0.38500,58.9375,103,48,0.74676
4956500,0.45500,58.1875,103,48,0.73895
4956510,0.48000,57.8125,103,48,0.73333
4956520,0.51500,57.3750,103,48,0.72650
4956530,0.58000,57.0000,103,48,0.71844
4956540,0.65000,56.1875,103,48,0.70037
4956550,0.65500,55.8125,103,48,0.69084
4956560,0.57500,55.4375,103,48,0.68034
4956570,0.37500,55.1250,103,48,0.66935
4956580,0.11000,54.4375,103,48,0.64689
4956590,-0.16000,54.1875,103,48,0.63565
4956600,-0.38500,54.0000,103,48,0.62466
4956610,-0.57500,53.7500,103,48,0.61392
4956620,-0.74000,53.3125,103,48,0.59341
4956630,-0.82000,53.1875,103,48,0.58364
4956640,-0.58500,53.0000,103,48,0.57485
4956650,0.05000,52.7500,103,48,0.56654
4956660,0.43500,52.1875,103,48,0.54921
4956670,0.01000,51.8750,103,48,0.54042
4956680,-0.62500,51.5625,103,48,0.53162
4956690,-0.84500,51.2500,103,48,0.52308
4956700,-0.69500,50.5625,103,48,0.50672
4956710,-0.43500,50.1875,103,48,0.49866
4956720,-0.24000,49.8125,103,48,0.49060
4956730,-0.13500,49.5000,103,48,0.48303
4956740,-0.05000,48.8750,103,48,0.46911
4956750,-0.00500,48.5625,103,48,0.46325
4956760,0.02500,48.2500,103,48,0.45690
4956770,0.07500,47.9375,103,48,0.45031
4956780,0.14500,47.5000,103,48,0.43663
4956790,0.18000,47.3750,103,48,0.42979
4956800,0.18500,47.5000,103,48,0.42320
4956810,0.17000,49.7500,103,48,0.41661
4956820,0.15500,52.6250,103,48,0.40366
4956830,0.18500,56.8125,103,48,0.39683
4956840,0.26500,61.8125,103,48,0.39145
4956850,0.35834,69.9375,103,48,0.38344
4956860,0.43500,78.1250,103,48,0.37534
4956870,0.46500,83.3125,103,48,0.36972
4956880,0.53500,88.1250,103,48,0.36410
4956890,0.60000,92.3750,103,48,0.35873
4956900,0.62000,99.1875,103,48,0.34799
4956910,0.53500,101.6250,103,48,0.34286
4956920,0.34000,103.3750,103,48,0.33797
4956930,0.08000,104.5000,103,48,0.33309
4956940,-0.18000,105.3750,103,48,0.32503
4956950,-0.42500,105.2500,103,48,0.32210
4956960,-0.63500,104.8125,103,48,0.31844
4956970,-0.78000,104.0625,103,48,0.31477
4956980,-0.85000,102.0625,103,48,0.30720
4956990,-0.85500,100.8125,103,48,0.30330
4957000,-0.77500,99.5000,103,48,0.29939
4957010,-0.61500,98.0625,103,48,0.29548
4957020,-0.41500,95.1250,103,48,0.28767
4957030,-0.18500,93.6875,103,48,0.28376
4957040,0.05500,92.2500,103,48,0.28083
4957050,0.22000,90.8750,103,48,0.27888
4957060,0.23500,88.1875,103,48,0.27399
4957070,0.15000,86.8125,103,48,0.27326
4957080,0.08000,85.3750,103,48,0.27448
4957090,0.07000,83.7500,103,48,0.27863
4957100,0.15500,79.9375,103,48,0.29841
4957110,0.28500,77.8125,103,48,0.31477
4957120,0.50000,75.7500,103,48,0.33553
4957130,0.89500,72.1250,103,48,0.36020
4957140,1.38000,70.6250,103,48,0.41368
4957150,1.66000,69.4375,103,48,0.43883
4957160,1.61000,68.4375,103,48,0.46764
4957170,1.37500,67.5625,103,48,0.49817
4957180,1.09500,66.3125,103,48,0.55873
4957190,0.80000,65.8125,103,48,0.58755
4957200,0.53500,65.3750,103,48,0.61441
4957210,0.18500,65.0000,103,48,0.63932
4957220,-0.24500,64.3125,103,48,0.68230
4957230,-0.31500,63.9375,103,48,0.70037
4957240,-0.14500,63.5625,103,48,0.71355
4957250,-0.14500,63.2500,103,48,0.72357
4957260,-0.23000,62.5000,103,48,0.74261
4957270,-0.26000,62.1875,103,48,0.74994
4957280,-0.27500,61.8125,103,48,0.75556
4957290,-0.30000,61.3750,103,48,0.75946
4957300,-0.30000,60.6250,103,48,0.76239
4957310,-0.31000,60.1875,103,48,0.76166
4957320,-0.33500,59.8125,103,48,0.75971
4957330,-0.37000,59.3750,103,48,0.75678
4957340,-0.42000,58.5625,103,48,0.74701
4957350,-0.46500,58.1250,103,48,0.74042
4957360,-0.49500,57.7500,103,48,0.73309
4957370,-0.53000,57.3750,103,48,0.72479
4957380,-0.55500,56.6875,103,48,0.70574
4957390,-0.56500,56.3125,103,48,0.69499
4957400,-0.56500,55.9375,103,48,0.68352
4957410,-0.56000,55.5625,103,48,0.67155
4957420,-0.55500,54.9375,103,48,0.64737
4957430,-0.54500,54.6875,103,48,0.63541
4957440,-0.53000,54.4375,103,48,0.62442
4957450,-0.53500,54.2500,103,48,0.61416
4957460,-0.51000,53.8125,103,48,0.59316
4957470,-0.24000,53.5625,103,48,0.58291
4957480,0.38000,53.3125,103,48,0.57289
4957490,0.81000,53.1250,103,48,0.56313
4957500,0.43000,52.6250,103,48,0.54139
4957510,-0.35500,52.3750,103,48,0.52772
4957520,-0.78000,52.1250,103,48,0.51673
4957530,-0.79000,51.7500,103,48,0.50720
4957540,-0.65500,51.1250,103,48,0.49060
4957550,-0.59000,50.8125,103,48,0.48400
4957560,-0.57000,50.5000,103,48,0.47668
4957570,-0.57000,50.1875,103,48,0.46935
4957580,-0.58000,49.6250,103,48,0.45421
4957590,-0.59500,49.3125,103,48,0.44689
4957600,-0.62000,49.0000,103,48,0.43956
4957610,-0.66500,48.7500,103,48,0.43223
4957620,-0.71500,48.3125,103,48,0.41807
4957630,-0.75000,48.3125,103,48,0.41099
4957640,-0.74000,48.9375,103,48,0.40513
4957650,-0.67500,50.5000,103,48,0.40000
4957660,-0.59500,57.5625,103,48,0.38852
4957670,-0.61000,62.6875,103,48,0.38242
4957680,-0.71500,68.1875,103,48,0.37631
4957690,-0.80000,73.8125,103,48,0.37021
4957700,-0.64000,84.5000,103,48,0.35824
4957710,-0.39000,89.3750,103,48,0.35238
4957720,-0.28000,93.7500,103,48,0.34676
4957730,-0.16000,97.5000,103,48,0.34115
4957740,-0.02000,102.8750,103,48,0.33138
4957750,0.05000,104.5000,103,48,0.32796
4957760,0.05000,105.5625,103,48,0.32381
4957770,0.02000,106.1250,103,48,0.31941
4957780,0.02000,106.0625,103,48,0.30989
4957790,0.06000,105.5000,103,48,0.30525
4957800,0.20500,104.7500,103,48,0.30061
4957810,0.40000,103.7500,103,48,0.29621
4957820,0.49500,101.3750,103,48,0.28791
4957830,0.49000,100.0625,103,48,0.28400
4957840,0.44500,98.6875,103,48,0.28107
4957850,0.37500,97.1875,103,48,0.27888
4957860,0.32000,94.2500,103,48,0.27204
4957870,0.30000,92.6563,103,48,0.26725
4957880,0.27167,91.5000,103,48,0.26376
4957890,0.24500,89.8750,103,48,0.26081
4957900,0.23000,86.8750,103,48,0.25763
4957910,0.22000,85.2500,103,48,0.25934
4957920,0.21500,83.4375,103,48,0.26422
4957930,0.20500,81.5000,103,48,0.27277
4957940,0.19000,77.2500,103,48,0.29988
4957950,0.14500,75.1875,103,48,0.31697
4957960,0.09500,73.3750,103,48,0.33919
4957970,0.06000,71.7500,103,48,0.36532
4957980,0.03000,69.1875,103,48,0.42515
4957990,0.00000,68.1875,103,48,0.45665
4958000,-0.02500,67.3125,103,48,0.48816
4958010,-0.05500,66.6250,103,48,0.51917
4958020,-0.08500,65.5625,103,48,0.57656
4958030,-0.09000,65.1250,103,48,0.60244
4958040,-0.07000,64.6875,103,48,0.62320
4958050,-0.05000,64.3125,103,48,0.64029
4958060,-0.04000,63.6875,103,48,0.67473
4958070,-0.05500,63.3750,103,48,0.68962
4958080,-0.09000,63.0625,103,48,0.70256
4958090,-0.14000,62.7500,103,48,0.71355
4958100,-0.19000,62.1250,103,48,0.72918
4958110,-0.21500,61.8125,103,48,0.73382
4958120,-0.17000,61.5000,103,48,0.73700
4958130,-0.06000,61.1250,103,48,0.73846
4958140,0.04500,60.3125,103,48,0.73651
4958150,0.10500,59.9375,103,48,0.73309
4958160,0.11000,59.5625,103,48,0.72943
4958170,0.04500,59.3125,103,48,0.72479
4958180,-0.03500,58.7500,103,48,0.71233
4958190,-0.07500,58.4375,103,48,0.70452
4958200,-0.10500,58.0625,103,48,0.69548
4958210,-0.14000,57.5625,103,48,0.68547
4958220,-0.15500,56.3750,103,48,0.66398
4958230,-0.16000,55.7500,103,48,0.65250
4958240,-0.17500,55.1250,103,48,0.64176
4958250,-0.18000,54.6250,103,48,0.63126
4958260,-0.17500,53.7500,103,48,0.60928
4958270,-0.16000,53.3750,103,48,0.59853
4958280,-0.16000,53.1250,103,48,0.58779
4958290,-0.15500,52.8750,103,48,0.57729
4958300,0.07500,52.5000,103,48,0.55678
4958310,0.65000,52.3125,103,48,0.54652
4958320,1.10500,52.1875,103,48,0.53651
4958330,0.76500,52.0000,103,48,0.52674
4958340,-0.11500,51.6250,103,48,0.50916
4958350,-0.44500,51.3750,103,48,0.50183
4958360,-0.51000,51.1250,103,48,0.49402
4958370,-0.38500,50.8750,103,48,0.48620
4958380,-0.30000,50.2500,103,48,0.47033
4958390,-0.29000,49.9375,103,48,0.46276
4958400,-0.28000,49.5625,103,48,0.45519
4958410,-0.28000,49.2500,103,48,0.44762
4958420,-0.27000,48.5625,103,48,0.43175
4958430,-0.26500,48.2500,103,48,0.42393
4958440,-0.25000,47.9375,103,48,0.41734
4958450,-0.22000,47.6875,103,48,0.41123
4958460,-0.18000,47.3750,103,48,0.39731
4958470,-0.13500,47.8125,103,48,0.39048
4958480,-0.09500,49.1875,103,48,0.38339
4958490,-0.06000,51.8750,103,48,0.37656
4958500,-0.03000,60.9375,103,48,0.36313
4958510,-0.02000,66.3750,103,48,0.35653
4958520,-0.01500,71.8125,103,48,0.35018
4958530,0.00500,77.1875,103,48,0.34408
4958540,0.02500,87.0625,103,48,0.33504
4958550,0.03500,91.3750,103,48,0.33040
4958560,0.04000,95.0625,103,48,0.32527
4958570,0.05000,98.0625,103,48,0.31990
4958580,0.06500,102.1250,103,48,0.30940
4958590,0.08000,103.2500,103,48,0.30403
4958600,0.08500,103.8125,103,48,0.29866
4958610,0.08500,103.9375,103,48,0.29353
4958620,0.09000,103.0625,103,48,0.28376
4958630,0.09500,102.2500,103,48,0.27912
4958640,0.10500,101.1875,103,48,0.27595
4958650,0.11000,99.9375,103,48,0.27326
4958660,0.12000,97.1875,103,48,0.26593
4958670,0.12000,95.7500,103,48,0.26154
4958680,0.11000,94.2500,103,48,0.25714
4958690,0.09000,92.7500,103,48,0.25275
4958700,0.06000,89.7500,103,48,0.24396
4958710,0.03000,88.3125,103,48,0.23980
4958720,0.00500,86.8750,103,48,0.23590
4958730,-0.01000,85.4375,103,48,0.23321
4958740,-0.01500,82.1875,103,48,0.23443
4958750,-0.02500,80.3125,103,48,0.23785
4958760,-0.02500,78.2500,103,48,0.24420
4958770,-0.03000,76.1250,103,48,0.25421
4958780,-0.03500,72.1875,103,48,0.28718
4958790,-0.03000,70.6250,103,48,0.30965
4958800,-0.02500,69.1875,103,48,0.33553
4958810,-0.02500,68.0625,103,48,0.36410
4958820,-0.02500,66.2500,103,48,0.42515
4958830,-0.03500,65.5625,103,48,0.45592
4958840,-0.03500,65.0625,103,48,0.48230
4958850,-0.04500,64.5625,103,48,0.50598
4958860,-0.05500,63.8750,103,48,0.55556
4958870,-0.05500,63.5625,103,48,0.57900
4958880,-0.05500,63.2500,103,48,0.60073
4958890,-0.06000,62.9375,103,48,0.62027
4958900,-0.06333,62.4167,103,48,0.64444
4958910,-0.06500,61.8750,103,48,0.66569
4958920,-0.06500,61.5000,103,48,0.67643
4958930,-0.05500,61.1250,103,48,0.68498
4958940,-0.03500,60.3750,103,48,0.69377
4958950,-0.02500,59.9375,103,48,0.69646
4958960,-0.00500,59.5625,103,48,0.69817
4958970,0.03000,59.1250,103,48,0.69866
4958980,0.05000,58.3125,103,48,0.69548
4958990,0.03500,57.8750,103,48,0.69206
4959000,0.00000,57.5000,103,48,0.68742
4959010,-0.02500,57.1250,103,48,0.68156
4959020,-0.05000,56.3750,103,48,0.66691
4959030,-0.07500,56.0000,103,48,0.65812
4959040,-0.09000,55.6250,103,48,0.64933
4959050,-0.09500,55.3125,103,48,0.64029
4959060,-0.09500,54.5625,103,48,0.61978
4959070,-0.09500,54.2500,103,48,0.60904
4959080,-0.09000,53.9375,103,48,0.59829
4959090,-0.09000,53.6875,103,48,0.58779
4959100,-0.08000,53.1875,103,48,0.56728
4959110,-0.08500,53.0000,103,48,0.55727
4959120,-0.09500,52.8125,103,48,0.54750
4959130,0.12000,52.6250,103,48,0.53797
4959140,0.65000,52.2500,103,48,0.52210
4959150,1.06500,52.0000,103,48,0.51404
4959160,0.78500,51.6875,103,48,0.50598
4959170,0.07500,51.4375,103,48,0.49792
4959180,-0.37000,50.8750,103,48,0.48254
4959190,-0.45000,50.5000,103,48,0.47497
4959200,-0.34500,50.1875,103,48,0.46789
4959210,-0.25000,49.8125,103,48,0.46081
4959220,-0.21000,49.1250,103,48,0.44689
4959230,-0.19000,48.8125,103,48,0.43980
4959240,-0.17000,48.4375,103,48,0.43370
4959250,-0.15500,48.1250,103,48,0.42833
4959260,-0.14000,47.5000,103,48,0.41612
4959270,-0.12000,47.2500,103,48,0.40977
4959280,-0.09500,47.0000,103,48,0.40342
4959290,-0.08000,46.8125,103,48,0.39707
4959300,-0.05500,47.3750,103,48,0.38437
4959310,-0.03500,48.8750,103,48,0.37802
4959320,-0.01500,51.6875,103,48,0.37167
4959330,-0.01000,55.6875,103,48,0.36508
4959340,-0.01500,65.7500,103,48,0.35531
4959350,-0.01500,71.0625,103,48,0.35018
4959360,-0.01500,76.2500,103,48,0.34457
4959370,-0.02500,81.1875,103,48,0.33895
4959380,-0.03000,90.1250,103,48,0.32845
4959390,-0.03000,93.8750,103,48,0.32308
4959400,-0.01500,97.0000,103,48,0.31770
4959410,0.01500,99.4375,103,48,0.31258
4959420,0.05000,102.0625,103,48,0.30281
4959430,0.07000,102.5000,103,48,0.29817
4959440,0.07500,102.3750,103,48,0.29475
4959450,0.06500,101.9375,103,48,0.29206
4959460,0.05500,100.1250,103,48,0.28425
4959470,0.04500,99.0000,103,48,0.27985
4959480,0.04000,97.7500,103,48,0.27546
4959490,0.04500,96.3750,103,48,0.27106
4959500,0.04000,93.5000,103,48,0.26300
4959510,0.03500,92.0625,103,48,0.25910
4959520,0.02000,90.5625,103,48,0.25519
4959530,0.00500,89.1250,103,48,0.25128
4959540,0.00000,86.2500,103,48,0.24713
4959550,-0.00500,84.8125,103,48,0.24933
4959560,-0.00500,83.2500,103,48,0.25421
4959570,0.00000,81.6250,103,48,0.25665
4959580,0.01000,77.9375,103,48,0.26325
4959590,0.01000,75.9375,103,48,0.27033
4959600,0.01000,73.9375,103,48,0.28107
4959610,0.01500,72.0625,103,48,0.29597
4959620,0.03000,68.9375,103,48,0.33724
4959630,0.04500,67.7500,103,48,0.36288
4959640,0.05500,66.8125,103,48,0.38706
4959650,0.04000,66.0000,103,48,0.41099
4959660,0.01500,65.2917,103,48,0.43834
4959670,0.00000,64.6875,103,48,0.46740
4959680,-0.01000,64.1875,103,48,0.49646
4959690,-0.02500,63.7500,103,48,0.52479
4959700,-0.03500,62.9375,103,48,0.57705
4959710,-0.04500,62.6250,103,48,0.60024
4959720,-0.04500,62.2500,103,48,0.62149
4959730,-0.04500,61.9375,103,48,0.64029
4959740,-0.04500,61.2500,103,48,0.66911
4959750,-0.04500,60.8750,103,48,0.67839
4959760,-0.05000,60.5000,103,48,0.68718
4959770,-0.04500,60.1875,103,48,0.69475
4959780,-0.03500,59.5000,103,48,0.70501
4959790,-0.02500,59.1250,103,48,0.70769
4959800,-0.00500,58.7500,103,48,0.70891
4959810,0.01500,58.3750,103,48,0.70867
4959820,-0.01000,57.6250,103,48,0.70452
4959830,-0.11000,57.2500,103,48,0.70061
4959840,-0.22000,56.8750,103,48,0.69573
4959850,-0.18000,56.5000,103,48,0.68962
4959860,-0.04000,55.6875,103,48,0.67473
4959870,0.00500,55.3750,103,48,0.66618
4959880,-0.00500,55.0625,103,48,0.65665
4959890,0.02000,54.6875,103,48,0.64664
4959900,0.00500,54.0000,103,48,0.62564
4959910,-0.06000,53.6875,103,48,0.61490
4959920,-0.13500,53.3750,103,48,0.60415
4959930,-0.17083,53.0521,103,48,0.58852
4959940,-0.18000,52.8125,103,48,0.57363
4959950,-0.17500,52.7500,103,48,0.56508
4959960,-0.10500,52.6875,103,48,0.55580
4959970,0.21500,52.5000,103,48,0.54676
4959980,0.82000,52.0000,103,48,0.52918
4959990,1.12500,51.6875,103,48,0.52063
4960000,0.64000,51.3125,103,48,0.51233
4960010,-0.04000,50.9375,103,48,0.50403
4960020,-0.37500,50.1875,103,48,0.48816
4960030,-0.39500,49.8125,103,48,0.48083
4960040,-0.28000,49.5625,103,48,0.47350
4960050,-0.20500,49.2500,103,48,0.46740
4960060,-0.18000,48.6875,103,48,0.45568
4960070,-0.17000,48.4375,103,48,0.44933
4960080,-0.16000,48.1250,103,48,0.44298
4960090,-0.15500,47.8750,103,48,0.43639
4960100,-0.15500,47.3125,103,48,0.42393
4960110,-0.15500,47.0000,103,48,0.41783
4960120,-0.14500,46.7500,103,48,0.41148
4960130,-0.13500,46.5625,103,48,0.40537
4960140,-0.12500,46.8125,103,48,0.39463
4960150,-0.12500,48.0000,103,48,0.39048
4960160,-0.12000,50.3125,103,48,0.38559
4960170,-0.10500,53.9375,103,48,0.38046
4960180,-0.08500,63.6250,103,48,0.37021
4960190,-0.06500,68.8750,103,48,0.36508
4960200,-0.04500,74.1250,103,48,0.36020
4960210,-0.03000,79.1875,103,48,0.35531
4960220,-0.01500,88.3125,103,48,0.34603
4960230,0.00000,92.1875,103,48,0.34139
4960240,0.02000,95.5000,103,48,0.33797
4960250,0.03500,98.1875,103,48,0.33529
4960260,0.04000,101.5000,103,48,0.32845
4960270,0.05000,102.2500,103,48,0.32454
4960280,0.04500,102.5000,103,48,0.32063
4960290,0.04500,102.3750,103,48,0.31648
4960300,0.04500,101.2500,103,48,0.30818
4960310,0.05500,100.2500,103,48,0.30403
4960320,0.06500,99.1250,103,48,0.29988
4960330,0.07500,97.8750,103,48,0.29597
4960340,0.07500,95.1875,103,48,0.28962
4960350,0.07000,93.8125,103,48,0.28791
4960360,0.05500,92.3750,103,48,0.28523
4960370,0.03000,90.9375,103,48,0.28205
4960380,0.01000,88.0000,103,48,0.27546
4960390,-0.00500,86.5625,103,48,0.27253
4960400,-0.02000,85.0625,103,48,0.27033
4960410,-0.02000,83.5000,103,48,0.26911
4960420,-0.02000,80.0000,103,48,0.27326
4960430,-0.02000,78.0000,103,48,0.27985
4960440,-0.02500,75.8750,103,48,0.28889
4960450,-0.02500,73.7500,103,48,0.30085
4960460,-0.02000,70.0625,103,48,0.33773
4960470,-0.01500,68.6250,103,48,0.36166
4960480,-0.01000,67.3750,103,48,0.38852
4960490,-0.01000,66.4375,103,48,0.41734
4960500,-0.01500,64.9375,103,48,0.47717
4960510,-0.02500,64.3750,103,48,0.50696
4960520,-0.02500,63.8750,103,48,0.53602
4960530,-0.03500,63.4375,103,48,0.56361
4960540,-0.04000,62.6875,103,48,0.61050
4960550,-0.04500,62.3750,103,48,0.62784
4960560,-0.04500,62.0625,103,48,0.64542
4960570,-0.05000,61.7500,103,48,0.66227
4960580,-0.05000,61.1875,103,48,0.69060
4960590,-0.04500,60.8125,103,48,0.70183
4960600,-0.04000,60.5000,103,48,0.71087
4960610,-0.02500,60.1875,103,48,0.71795
4960620,-0.02000,59.5000,103,48,0.72698
4960630,0.00000,59.1875,103,48,0.72894
4960640,0.03000,58.8125,103,48,0.72869
4960650,0.05000,58.4375,103,48,0.72674
4960660,0.04500,57.6250,103,48,0.72161
4960670,0.01500,57.2500,103,48,0.71770
4960680,-0.02500,56.8750,103,48,0.71258
4960690,-0.06000,56.5000,103,48,0.70623
4960700,-0.08500,55.6875,103,48,0.69084
4960710,-0.10500,55.3125,103,48,0.68181
4960720,-0.11500,55.0000,103,48,0.67204
4960730,-0.11500,54.6250,103,48,0.66154
4960740,-0.12000,53.8750,103,48,0.64054
4960750,-0.12500,53.5000,103,48,0.63053
4960760,-0.12000,53.1875,103,48,0.62027
4960770,-0.11500,52.8750,103,48,0.60977
4960780,-0.11500,52.4375,103,48,0.58926
4960790,-0.09000,52.2500,103,48,0.57949
4960800,0.17000,52.0625,103,48,0.56996
4960810,0.74500,51.8750,103,48,0.56068
4960820,1.14000,51.5000,103,48,0.54335
4960830,0.79500,51.3125,103,48,0.53504
4960840,0.08500,51.0625,103,48,0.52772
4960850,-0.32500,50.7500,103,48,0.52088
4960860,-0.39500,50.1875,103,48,0.50647
4960870,-0.30500,49.8750,103,48,0.49915
4960880,-0.23000,49.6250,103,48,0.49182
4960890,-0.20500,49.3750,103,48,0.48449
4960900,-0.20500,48.8750,103,48,0.47033
4960910,-0.22000,48.5625,103,48,0.46349
4960920,-0.23000,48.2500,103,48,0.45665
4960930,-0.22000,47.9375,103,48,0.45006
4960940,-0.21500,47.2500,103,48,0.43785
4960950,-0.19250,46.8125,103,48,0.43248
4960960,-0.16000,46.6875,103,48,0.42711
4960970,-0.12500,46.9375,103,48,0.41490
4960980,-0.11500,48.1875,103,48,0.40879
4960990,-0.11500,50.6250,103,48,0.40269
4961000,-0.11500,54.3750,103,48,0.39634
4961010,-0.11500,59.0625,103,48,0.38999
4961020,-0.10000,69.5000,103,48,0.37802
4961030,-0.07500,74.7500,103,48,0.37216
4961040,-0.04500,79.8750,103,48,0.36777
4961050,-0.02500,84.6250,103,48,0.36386
4961060,-0.01000,92.8125,103,48,0.35433
4961070,0.00000,96.0625,103,48,0.34945
4961080,0.00500,98.6875,103,48,0.34457
4961090,0.01000,100.6250,103,48,0.33968
4961100,0.01500,102.6250,103,48,0.33040
4961110,0.01500,102.9375,103,48,0.32576
4961120,0.02000,102.8125,103,48,0.32112
4961130,0.03000,102.3750,103,48,0.31648
4961140,0.05000,100.7500,103,48,0.30842
4961150,0.06500,99.6875,103,48,0.30574
4961160,0.08000,98.4375,103,48,0.30208
4961170,0.09000,97.1875,103,48,0.29792
4961180,0.08000,94.4375,103,48,0.28913
4961190,0.06000,93.0625,103,48,0.28498
4961200,0.04000,91.6250,103,48,0.28083
4961210,0.02500,90.1875,103,48,0.27692
4961220,0.01000,87.3125,103,48,0.26935
4961230,0.00000,85.8750,103,48,0.26667
4961240,-0.00500,84.3750,103,48,0.26593
4961250,-0.00500,82.8125,103,48,0.26716
4961260,-0.01500,79.1250,103,48,0.27546
4961270,-0.02000,77.0000,103,48,0.28449
4961280,-0.02500,74.7500,103,48,0.29744
4961290,-0.02500,72.6875,103,48,0.31453
4961300,-0.02000,69.2500,103,48,0.35995
4961310,-0.01500,68.0000,103,48,0.38730
4961320,-0.01500,66.8750,103,48,0.41661
4961330,-0.01500,66.0000,103,48,0.44689
4961340,-0.01500,64.5625,103,48,0.50403
4961350,-0.01500,64.0000,103,48,0.52796
4961360,-0.01500,63.5000,103,48,0.55360
4961370,-0.02000,63.0625,103,48,0.57900
4961380,-0.02000,62.3750,103,48,0.62589
4961390,-0.02500,62.0000,103,48,0.64640
4961400,-0.02500,61.6875,103,48,0.66471
4961410,-0.02000,61.3750,103,48,0.68059
4961420,-0.02500,60.7500,103,48,0.70598
4961430,-0.02500,60.4375,103,48,0.71526
4961440,-0.02500,60.0625,103,48,0.72112
4961450,-0.03000,59.7500,103,48,0.72454
4961460,-0.03000,59.0625,103,48,0.72991
4961470,-0.00500,58.6875,103,48,0.73114
4961480,0.01500,58.3125,103,48,0.73114
4961490,0.00500,57.9375,103,48,0.72991
4961500,-0.04000,57.1875,103,48,0.72357
4961510,-0.09000,56.8125,103,48,0.71844
4961520,-0.12500,56.5000,103,48,0.71209
4961530,-0.15500,55.7500,103,48,0.69621
4961540,-0.16500,55.3750,103,48,0.68742
4961550,-0.17000,55.0000,103,48,0.67839
4961560,-0.17000,54.6875,103,48,0.66838
4961570,-0.17000,54.3125,103,48,0.65788
4961580,-0.16000,53.6250,103,48,0.63590
4961590,-0.14500,53.3125,103,48,0.62466
4961600,-0.12500,53.0000,103,48,0.61343
4961610,-0.12500,52.6875,103,48,0.60488
4961620,-0.11000,52.1875,103,48,0.58803
4961630,0.12000,52.0000,103,48,0.57802
4961640,0.68000,51.8125,103,48,0.56874
4961650,1.11500,51.6250,103,48,0.55995
4961660,0.78500,51.1875,103,48,0.54139
4961670,0.07500,50.8750,103,48,0.53236
4961680,-0.34000,50.5625,103,48,0.52381
4961690,-0.42000,50.2500,103,48,0.51551
4961700,-0.31500,49.6250,103,48,0.49939
4961710,-0.23500,49.3125,103,48,0.49158
4961720,-0.21500,49.0000,103,48,0.48400
4961730,-0.20000,48.6875,103,48,0.47668
4961740,-0.19000,48.1250,103,48,0.46300
4961750,-0.18000,47.8125,103,48,0.45739
4961760,-0.17500,47.5625,103,48,0.45128
4961770,-0.17000,47.2500,103,48,0.44493
4961780,-0.16000,46.7500,103,48,0.43199
4961790,-0.14500,46.5625,103,48,0.42540
4961800,-0.13500,46.6875,103,48,0.41880
4961810,-0.12500,47.2500,103,48,0.41197
4961820,-0.12000,51.6250,103,48,0.39902
4961830,-0.11500,55.6250,103,48,0.39267
4961840,-0.10500,60.4375,103,48,0.38755
4961850,-0.09000,65.5625,103,48,0.38315
4961860,-0.07500,76.0000,103,48,0.37265
4961870,-0.05500,81.0000,103,48,0.36703
4961880,-0.02500,85.6875,103,48,0.36142
4961890,0.00000,90.0000,103,48,0.35580
4961900,0.00000,96.8750,103,48,0.34481
4961910,0.00500,99.3125,103,48,0.33968
4961920,0.01000,101.1250,103,48,0.33455
4961930,0.00500,102.3125,103,48,0.32967
4961940,-0.00500,103.2500,103,48,0.32161
4961950,-0.01000,103.1250,103,48,0.31868
4961960,-0.00500,102.6875,103,48,0.31502
4961970,0.01000,102.0000,103,48,0.31087
4961980,0.02500,100.0000,103,48,0.30208
4961990,0.03500,98.8125,103,48,0.29768
4962000,0.04000,97.5000,103,48,0.29328
4962010,0.03500,96.1250,103,48,0.28889
4962020,0.01000,93.3125,103,48,0.28010
4962030,-0.01000,91.8750,103,48,0.27570
4962040,-0.03500,90.4375,103,48,0.27277
4962050,-0.05000,89.0000,103,48,0.27082
4962060,-0.06500,86.1250,103,48,0.26545
4962070,-0.06500,84.6250,103,48,0.26374
4962080,-0.06500,83.0625,103,48,0.26398
4962090,-0.06500,81.3125,103,48,0.26716
4962100,-0.06500,77.3125,103,48,0.28498
4962110,-0.07500,75.1250,103,48,0.30012
4962120,-0.08500,73.1250,103,48,0.31941
4962130,-0.09500,71.2500,103,48,0.34286
4962140,-0.12500,68.3750,103,48,0.39023
4962150,-0.15000,67.3125,103,48,0.41832
4962160,-0.10500,66.3750,103,48,0.44884
4962170,-0.02000,65.5625,103,48,0.48059
4962180,-0.00500,64.3125,103,48,0.54310
4962190,-0.02500,63.8125,103,48,0.57265
4962200,-0.04500,63.3750,103,48,0.60049
4962210,-0.06500,63.0000,103,48,0.62613
4962220,-0.06500,62.2500,103,48,0.67082
4962230,0.00000,61.9375,103,48,0.68938
4962240,0.07500,61.5625,103,48,0.70330
4962250,0.14500,61.2500,103,48,0.71380
4962260,0.15000,60.6875,103,48,0.73382
4962270,0.14000,60.3750,103,48,0.74188
4962280,0.11000,60.0000,103,48,0.74823
4962290,0.09000,59.6875,103,48,0.75263
4962300,0.09500,59.0000,103,48,0.75726
4962310,0.09500,58.6875,103,48,0.75726
4962320,0.06500,58.4375,103,48,0.75556
4962330,0.02000,58.2500,103,48,0.75263
4962340,-0.03000,57.8125,103,48,0.74261
4962350,-0.07000,57.5625,103,48,0.73602
4962360,-0.11000,57.3750,103,48,0.72821
4962370,-0.14500,57.1250,103,48,0.71941
4962380,-0.17000,56.3125,103,48,0.69939
4962390,-0.16500,55.8125,103,48,0.68840
4962400,-0.15000,55.3125,103,48,0.67692
4962410,-0.12500,54.7500,103,48,0.66496
4962420,-0.10500,53.7500,103,48,0.64103
4962430,-0.08000,53.2500,103,48,0.62930
4962440,-0.07500,52.8750,103,48,0.61856
4962450,-0.06500,52.4375,103,48,0.60830
4962460,0.14500,51.8125,103,48,0.58657
4962470,0.67500,51.5625,103,48,0.57558
4962480,1.11000,51.3750,103,48,0.56508
4962490,0.86000,51.1875,103,48,0.55482
4962500,0.14000,50.8125,103,48,0.53553
4962510,-0.32500,50.5625,103,48,0.52601
4962520,-0.41000,50.3125,103,48,0.51697
4962530,-0.30000,50.0625,103,48,0.50842
4962540,-0.20500,49.5625,103,48,0.49451
4962550,-0.18000,49.3750,103,48,0.48767
4962560,-0.17000,49.1250,103,48,0.48059
4962570,-0.14500,48.8750,103,48,0.47350
4962580,-0.12000,48.3750,103,48,0.45934
4962590,-0.11500,48.0625,103,48,0.45250
4962600,-0.12000,47.7500,103,48,0.44567
4962610,-0.11000,47.4375,103,48,0.43907
4962620,-0.10500,47.0000,103,48,0.42589
4962630,-0.09500,47.1250,103,48,0.41954
4962640,-0.10000,47.8750,103,48,0.41416
4962650,-0.10500,49.7500,103,48,0.40928
4962660,-0.10500,57.2500,103,48,0.39829
4962670,-0.09500,62.3125,103,48,0.39243
4962680,-0.08000,67.5625,103,48,0.38681
4962690,-0.05500,72.8750,103,48,0.38144
4962700,-0.03500,83.0000,103,48,0.37143
4962710,-0.02000,87.5625,103,48,0.36654
4962720,-0.00500,91.6875,103,48,0.36190
4962730,0.01000,95.2500,103,48,0.35726
4962740,0.03000,100.3750,103,48,0.35067
4962750,0.04000,102.0000,103,48,0.34676
4962760,0.04500,103.0000,103,48,0.34261
4962770,0.04500,103.5625,103,48,0.33846
4962780,0.04000,103.4375,103,48,0.33016
4962790,0.04000,102.9375,103,48,0.32576
4962800,0.04000,102.1875,103,48,0.32137
4962810,0.04000,101.2500,103,48,0.31697
4962820,0.04500,99.0000,103,48,0.30769
4962830,0.05000,97.6875,103,48,0.30330
4962840,0.05000,96.3750,103,48,0.30012
4962850,0.03500,95.0000,103,48,0.29744
4962860,0.01000,92.2500,103,48,0.28938
4962870,-0.00500,90.8750,103,48,0.28498
4962880,-0.02000,89.5000,103,48,0.28083
4962890,-0.02500,88.1250,103,48,0.27692
4962900,-0.03500,85.2500,103,48,0.27204
4962910,-0.04000,83.6250,103,48,0.27277
4962920,-0.04500,81.8750,103,48,0.27668
4962930,-0.04500,79.9375,103,48,0.28449
4962940,-0.04500,75.7500,103,48,0.30769
4962950,-0.04500,73.7500,103,48,0.32576
4962960,-0.04000,72.0000,103,48,0.34823
4962970,-0.04000,70.4375,103,48,0.37436
4962980,-0.04500,68.0625,103,48,0.43443
4962990,-0.05500,67.1250,103,48,0.46618
4963000,-0.06417,66.4375,103,48,0.49333
4963010,-0.07000,65.6875,103,48,0.52967
4963020,-0.07000,64.5625,103,48,0.58901
4963030,-0.07000,64.1250,103,48,0.61612
4963040,-0.06500,63.6875,103,48,0.63785
4963050,-0.06500,63.3125,103,48,0.65568
4963060,-0.06500,62.5625,103,48,0.69158
4963070,-0.07000,62.2500,103,48,0.70720
4963080,-0.07500,61.8750,103,48,0.72088
4963090,-0.09000,61.1875,103,48,0.73236
4963100,-0.09500,60.8750,103,48,0.74896
4963110,-0.09000,60.5000,103,48,0.75458
4963120,-0.08000,60.1875,103,48,0.75824
4963130,-0.05500,59.8750,103,48,0.76020
4963140,-0.02500,59.1875,103,48,0.75800
4963150,-0.00500,58.8750,103,48,0.75556
4963160,-0.02500,58.5000,103,48,0.75214
4963170,-0.06500,58.1250,103,48,0.74774
4963180,-0.10500,57.3125,103,48,0.73553
4963190,-0.13000,56.9375,103,48,0.72747
4963200,-0.15000,56.5625,103,48,0.71844
4963210,-0.16000,56.1875,103,48,0.70867
4963220,-0.16000,55.5000,103,48,0.68645
4963230,-0.16000,55.1250,103,48,0.67424
4963240,-0.16000,54.7500,103,48,0.66300
4963250,-0.15000,54.3750,103,48,0.65226
4963260,-0.14500,53.8125,103,48,0.62906
4963270,-0.14000,53.5000,103,48,0.61758
4963280,-0.15500,53.3125,103,48,0.60635
4963290,-0.12000,53.0625,103,48,0.59536
4963300,0.21500,52.6875,103,48,0.57436
4963310,0.83500,52.5000,103,48,0.56459
4963320,1.06000,52.3125,103,48,0.55482
4963330,0.48500,52.1250,103,48,0.54530
4963340,-0.22500,51.7500,103,48,0.52918
4963350,-0.45000,51.4375,103,48,0.52088
4963360,-0.34500,51.1875,103,48,0.51258
4963370,-0.21000,50.8750,103,48,0.50427
4963380,-0.16000,50.2500,103,48,0.48816
4963390,-0.15000,49.9375,103,48,0.48059
4963400,-0.16000,49.6250,103,48,0.47302
4963410,-0.17000,49.3125,103,48,0.46569
4963420,-0.13500,48.7500,103,48,0.45153
4963430,-0.11000,48.4375,103,48,0.44469
4963440,-0.13000,48.1250,103,48,0.43907
4963450,-0.13500,47.8750,103,48,0.43394
4963460,-0.12500,47.6875,103,48,0.42125
4963470,-0.11500,48.1250,103,48,0.41465
4963480,-0.11000,49.5000,103,48,0.40806
4963490,-0.10000,52.2500,103,48,0.40147
4963500,-0.08500,61.3750,103,48,0.38877
4963510,-0.06500,66.7500,103,48,0.38242
4963520,-0.04500,72.1875,103,48,0.37631
4963530,-0.02500,77.5625,103,48,0.37021
4963540,-0.01000,87.5625,103,48,0.36166
4963550,0.00000,92.0000,103,48,0.35702
4963560,0.00500,95.8125,103,48,0.35214
4963570,0.02000,99.0625,103,48,0.34725
4963580,0.03000,103.5625,103,48,0.33724
4963590,0.05000,104.9375,103,48,0.33236
4963600,0.05500,105.7500,103,48,0.32747
4963610,0.06000,106.1250,103,48,0.32283
4963620,0.06000,105.8750,103,48,0.31404
4963630,0.06000,105.2500,103,48,0.30965
4963640,0.06000,104.4375,103,48,0.30672
4963650,0.07000,102.3125,103,48,0.29841
4963660,0.07500,101.1250,103,48,0.29060
4963670,0.08000,99.7500,103,48,0.28474
4963680,0.07500,98.3750,103,48,0.28010
4963690,0.06000,95.5000,103,48,0.27595
4963700,0.03500,94.0000,103,48,0.26838
4963710,0.01000,92.5625,103,48,0.26471
4963720,-0.01000,91.1250,103,48,0.26129
4963730,-0.02000,89.6875,103,48,0.25885
4963740,-0.03000,86.6875,103,48,0.25934
4963750,-0.03500,85.0000,103,48,0.26227
4963760,-0.04500,83.1250,103,48,0.26789
4963770,-0.04000,81.0625,103,48,0.27766
4963780,-0.04000,76.7500,103,48,0.31038
4963790,-0.03500,74.7500,103,48,0.33333
4963800,-0.04000,73.0000,103,48,0.35995
4963810,-0.04000,71.4375,103,48,0.38974
4963820,-0.04000,69.0625,103,48,0.45421
4963830,-0.04000,68.1875,103,48,0.48278
4963840,-0.04500,67.4375,103,48,0.50916
4963850,-0.05000,66.8750,103,48,0.53822
4963860,-0.06000,65.9375,103,48,0.59634
4963870,-0.06500,65.5625,103,48,0.62320
4963880,-0.07000,65.1875,103,48,0.64811
4963890,-0.07000,64.8125,103,48,0.67057
4963900,-0.07500,64.0625,103,48,0.70769
4963910,-0.07500,63.6875,103,48,0.72259
4963920,-0.08500,63.3125,103,48,0.73504
4963930,-0.08500,62.5625,103,48,0.74554
4963940,-0.08500,62.2500,103,48,0.75604
4963950,-0.07500,61.8750,103,48,0.75971
4963960,-0.05500,61.5625,103,48,0.76239
4963970,-0.02000,61.2500,103,48,0.76410
4963980,0.00500,60.5000,103,48,0.76386
4963990,0.00500,60.1250,103,48,0.76190
4964000,-0.02500,59.6875,103,48,0.75873
4964010,-0.07000,59.3125,103,48,0.75433
4964020,-0.12000,58.6979,103,48,0.74514
4964030,-0.16500,58.0625,103,48,0.73455
4964040,-0.19500,57.6250,103,48,0.72601
4964050,-0.20000,57.1875,103,48,0.71648
4964060,-0.20000,56.3750,103,48,0.69524
4964070,-0.17000,55.9375,103,48,0.68352
4964080,-0.13500,55.5625,103,48,0.67131
4964090,-0.10500,55.1875,103,48,0.65910
4964100,-0.08500,54.5625,103,48,0.63516
4964110,-0.08500,54.2500,103,48,0.62369
4964120,-0.09000,54.0000,103,48,0.61221
4964130,0.16000,53.7500,103,48,0.60122
4964140,0.79000,53.3750,103,48,0.58242
4964150,1.27000,53.1875,103,48,0.57289
4964160,0.89000,53.0625,103,48,0.56337
4964170,-0.06000,52.6250,103,48,0.54481
4964180,-0.39500,52.3750,103,48,0.53578
4964190,-0.43500,52.1250,103,48,0.52698
4964200,-0.30500,51.8750,103,48,0.51819
4964210,-0.23500,51.5625,103,48,0.50965
4964220,-0.22000,51.0625,103,48,0.49328
4964230,-0.21000,50.8750,103,48,0.48620
4964240,-0.20500,50.6250,103,48,0.47985
4964250,-0.20000,50.3125,103,48,0.47277
4964260,-0.20000,49.7500,103,48,0.45788
4964270,-0.19000,49.4375,103,48,0.45055
4964280,-0.18000,49.1250,103,48,0.44322
4964290,-0.17500,48.8750,103,48,0.43590
4964300,-0.17000,48.9375,103,48,0.42173
4964310,-0.16500,50.0000,103,48,0.41490
4964320,-0.16000,52.3750,103,48,0.40781
4964330,-0.15000,56.2500,103,48,0.40098
4964340,-0.13500,66.7500,103,48,0.39072
4964350,-0.11500,72.5000,103,48,0.38510
4964360,-0.10000,78.1875,103,48,0.37924
4964370,-0.08000,83.6875,103,48,0.37314
4964380,-0.05500,93.3750,103,48,0.36093
4964390,-0.03500,97.3125,103,48,0.35482
4964400,-0.02500,100.5625,103,48,0.34896
4964410,-0.01000,103.0625,103,48,0.34335
4964420,0.00000,106.1250,103,48,0.33284
4964430,0.01500,106.8125,103,48,0.32918
4964440,0.03000,107.0000,103,48,0.32625
4964450,0.04000,106.7500,103,48,0.32259
4964460,0.04000,105.3750,103,48,0.31380
4964470,0.03000,104.3750,103,48,0.30916
4964480,0.02500,103.2500,103,48,0.30452
4964490,0.02000,102.0000,103,48,0.29988
4964500,0.02000,99.3125,103,48,0.29084
4964510,0.01500,97.9375,103,48,0.28645
4964520,0.00000,96.5625,103,48,0.28205
4964530,-0.01500,93.8125,103,48,0.27790
4964540,-0.03500,92.4375,103,48,0.27277
4964550,-0.04500,91.0625,103,48,0.26960
4964560,-0.04500,89.7500,103,48,0.26667
4964570,-0.04000,88.3125,103,48,0.26471
4964580,-0.03500,85.0000,103,48,0.26667
4964590,-0.03500,83.1250,103,48,0.27228
4964600,-0.02500,81.0625,103,48,0.28181
4964610,-0.01500,78.8750,103,48,0.29573
4964620,-0.00500,74.6875,103,48,0.33675
4964630,-0.00500,72.8750,103,48,0.35946
4964640,0.00000,71.3125,103,48,0.38315
4964650,0.01000,70.0000,103,48,0.41123
4964660,0.02000,68.0000,103,48,0.47424
4964670,0.01000,67.2500,103,48,0.50647
4964680,0.01500,66.6250,103,48,0.53822
4964690,0.02500,66.1875,103,48,0.56899
4964700,0.02500,65.4375,103,48,0.62515
4964710,0.01500,65.1250,103,48,0.65006
4964720,0.01500,64.8125,103,48,0.67228
4964730,0.01000,64.5000,103,48,0.69231
4964740,-0.00500,63.8125,103,48,0.71819
4964750,-0.01500,63.4375,103,48,0.72943
4964760,-0.02500,63.0625,103,48,0.73919
4964770,-0.02500,62.6250,103,48,0.74750
4964780,-0.01500,61.8750,103,48,0.75873
4964790,-0.00500,61.5000,103,48,0.76166
4964800,0.01000,61.1250,103,48,0.76288
4964810,0.03000,60.7500,103,48,0.76288
4964820,0.04000,60.0000,103,48,0.75849
4964830,0.02000,59.5625,103,48,0.75385
4964840,-0.01500,59.1875,103,48,0.74823
4964850,-0.05000,58.6875,103,48,0.74164
4964860,-0.07500,57.6875,103,48,0.72527
4964870,-0.09500,57.1875,103,48,0.71575
4964880,-0.10500,56.7500,103,48,0.70549
4964890,-0.10000,56.3125,103,48,0.69426
4964900,-0.10000,55.5625,103,48,0.67033
4964910,-0.10500,55.1875,103,48,0.65788
4964920,-0.10500,54.8750,103,48,0.64542
4964930,-0.10500,54.5625,103,48,0.63297
4964940,-0.10500,54.1875,103,48,0.61123
4964950,-0.12000,54.1250,103,48,0.60049
4964960,0.00000,54.0000,103,48,0.58950
4964970,0.45500,53.8750,103,48,0.57851
4964980,1.06500,53.5000,103,48,0.55751
4964990,1.04500,53.2500,103,48,0.54750
4965000,0.34000,53.0000,103,48,0.53797
4965010,-0.27000,52.6875,103,48,0.52869
4965020,-0.45000,52.0625,103,48,0.51038
4965030,-0.35500,51.7500,103,48,0.50256
4965040,-0.25500,51.3750,103,48,0.49548
4965050,-0.22583,50.9271,103,48,0.48356
4965060,-0.23000,50.5000,103,48,0.47131
4965070,-0.23000,50.1875,103,48,0.46325
4965080,-0.22500,49.8125,103,48,0.45495
4965090,-0.22000,49.4375,103,48,0.44689
4965100,-0.21500,48.8125,103,48,0.43101
4965110,-0.20000,48.5625,103,48,0.42344
4965120,-0.18000,48.2500,103,48,0.41612
4965130,-0.16000,48.1250,103,48,0.40904
4965140,-0.12500,49.1875,103,48,0.39805
4965150,-0.09500,51.3125,103,48,0.39219
4965160,-0.07500,54.8750,103,48,0.38632
4965170,-0.04500,59.5000,103,48,0.38022
4965180,-0.00500,70.3125,103,48,0.36850
4965190,0.03000,75.7500,103,48,0.36264
4965200,0.05500,81.0625,103,48,0.35653
4965210,0.07500,86.0000,103,48,0.35067
4965220,0.09000,94.5625,103,48,0.33944
4965230,0.08000,97.8750,103,48,0.33504
4965240,0.11000,100.5625,103,48,0.33114
4965250,0.14000,102.5000,103,48,0.32650
4965260,0.13500,104.5000,103,48,0.31648
4965270,0.10500,104.7500,103,48,0.31136
4965280,0.08500,104.5625,103,48,0.30623
4965290,0.09000,104.1250,103,48,0.30134
4965300,0.10500,102.6250,103,48,0.29182
4965310,0.11000,101.5625,103,48,0.28742
4965320,0.10500,100.3750,103,48,0.28303
4965330,0.10000,99.1250,103,48,0.27863
4965340,0.09000,96.4375,103,48,0.27326
4965350,0.07000,95.0625,103,48,0.26960
4965360,0.05000,93.5625,103,48,0.26545
4965370,0.03000,91.9375,103,48,0.26081
4965380,0.02000,88.6250,103,48,0.25177
4965390,0.01500,87.0000,103,48,0.24786
4965400,0.01500,85.4375,103,48,0.24493
4965410,0.02000,83.7500,103,48,0.24396
4965420,0.02000,80.0625,103,48,0.25006
4965430,0.01000,78.0625,103,48,0.25739
4965440,0.00000,76.0625,103,48,0.26789
4965450,-0.00500,74.1250,103,48,0.28278
4965460,-0.01500,70.8750,103,48,0.32552
4965470,-0.01500,69.6250,103,48,0.35214
4965480,-0.02000,68.6250,103,48,0.38144
4965490,-0.02500,67.8125,103,48,0.41221
4965500,-0.02500,66.5625,103,48,0.47521
4965510,-0.03000,66.0625,103,48,0.50598
4965520,-0.03500,65.6875,103,48,0.53529
4965530,-0.04000,65.2500,103,48,0.56313
4965540,-0.04500,64.3750,103,48,0.60440
4965550,-0.06000,63.9375,103,48,0.62393
4965560,-0.06500,63.5625,103,48,0.64274
4965570,-0.07500,63.1250,103,48,0.65983
4965580,-0.08500,62.4375,103,48,0.68742
4965590,-0.09000,62.0625,103,48,0.69768
4965600,-0.09000,61.6875,103,48,0.70574
4965610,-0.09000,61.0000,103,48,0.71209
4965620,-0.07000,60.6250,103,48,0.71893
4965630,-0.04000,60.1875,103,48,0.71917
4965640,-0.01500,59.8125,103,48,0.71770
4965650,-0.01500,59.3750,103,48,0.71575
4965660,-0.02500,58.5625,103,48,0.70916
4965670,-0.05000,58.1250,103,48,0.70452
4965680,-0.08000,57.7500,103,48,0.69866
4965690,-0.09500,57.3125,103,48,0.69206
4965700,-0.08500,56.5625,103,48,0.67302
4965710,-0.06500,56.1875,103,48,0.65958
4965720,-0.05500,55.8125,103,48,0.64762
4965730,-0.05000,55.5000,103,48,0.63712
4965740,-0.05500,54.7500,103,48,0.61685
4965750,-0.06500,54.4375,103,48,0.60635
4965760,-0.04000,54.1250,103,48,0.59609
4965770,-0.01000,53.8750,103,48,0.58584
4965780,-0.00500,53.5000,103,48,0.56557
4965790,0.17500,53.3125,103,48,0.55580
4965800,0.66000,53.1250,103,48,0.54628
4965810,1.10500,52.7500,103,48,0.52796
4965820,0.81500,52.5625,103,48,0.51941
4965830,0.09000,52.3125,103,48,0.51184
4965840,-0.36000,52.0625,103,48,0.50501
4965850,-0.44000,51.8125,103,48,0.49768
4965860,-0.33500,51.1875,103,48,0.48303
4965870,-0.25000,50.8750,103,48,0.47595
4965880,-0.23000,50.5625,103,48,0.46886
4965890,-0.22000,50.3125,103,48,0.46154
4965900,-0.20000,49.8125,103,48,0.44713
4965910,-0.18500,49.4375,103,48,0.44005
4965920,-0.17000,49.0625,103,48,0.43321
4965930,-0.16000,48.6250,103,48,0.42735
4965940,-0.15500,47.8750,103,48,0.41636
4965950,-0.14500,47.6875,103,48,0.41050
4965960,-0.13000,47.6250,103,48,0.40415
4965970,-0.12500,48.1250,103,48,0.39780
4965980,-0.12000,52.0625,103,48,0.38559
4965990,-0.12000,55.9375,103,48,0.37924
4966000,-0.12000,60.6875,103,48,0.37314
4966010,-0.12500,65.8125,103,48,0.36703
4966020,-0.12500,76.2500,103,48,0.35458
4966030,-0.12500,81.2500,103,48,0.34994
4966040,-0.12000,85.9375,103,48,0.34603
4966050,-0.11000,90.1250,103,48,0.34115
4966060,-0.08500,96.6875,103,48,0.33065
4966070,-0.05000,99.5313,103,48,0.32450
4966080,-0.01500,100.5000,103,48,0.32015
4966090,0.01000,101.4375,103,48,0.31502
4966100,0.03500,101.8750,103,48,0.30549
4966110,0.06000,101.5000,103,48,0.30085
4966120,0.09000,100.8750,103,48,0.29646
4966130,0.12000,99.9375,103,48,0.29353
4966140,0.14000,97.6250,103,48,0.28791
4966150,0.18000,96.2500,103,48,0.28425
4966160,0.21500,94.8750,103,48,0.28034
4966170,0.20000,93.5000,103,48,0.27643
4966180,0.17000,90.7500,103,48,0.26813
4966190,0.14000,89.3125,103,48,0.26374
4966200,0.10500,87.9375,103,48,0.25934
4966210,0.07000,86.5625,103,48,0.25543
4966220,0.04000,83.6250,103,48,0.24908
4966230,0.01000,82.0625,103,48,0.24835
4966240,-0.01500,80.2500,103,48,0.24957
4966250,-0.04500,78.2500,103,48,0.25226
4966260,-0.07500,74.0625,103,48,0.26569
4966270,-0.08000,72.1875,103,48,0.27790
4966280,-0.06500,70.5625,103,48,0.29402
4966290,-0.06000,69.2500,103,48,0.31429
4966300,-0.06500,67.3125,103,48,0.36435
4966310,-0.07500,66.5000,103,48,0.39267
4966320,-0.08500,65.8750,103,48,0.42222
4966330,-0.09500,65.3125,103,48,0.44835
4966340,-0.09500,64.3125,103,48,0.49817
4966350,-0.08500,63.8750,103,48,0.52405
4966360,-0.08000,63.4375,103,48,0.54896
4966370,-0.07000,63.0625,103,48,0.57216
4966380,-0.06000,62.4375,103,48,0.61221
4966390,-0.05500,62.1250,103,48,0.62882
4966400,-0.04500,61.8125,103,48,0.64298
4966410,-0.04500,61.5000,103,48,0.65495
4966420,-0.03500,61.0000,103,48,0.67253
4966430,-0.03000,60.7500,103,48,0.67717
4966440,-0.02500,60.4375,103,48,0.67961
4966450,-0.00500,60.1875,103,48,0.68156
4966460,0.03000,59.6250,103,48,0.68278
4966470,0.06000,59.3125,103,48,0.68156
4966480,0.05500,59.0000,103,48,0.67912
4966490,0.02000,58.6875,103,48,0.67546
4966500,-0.02500,57.9375,103,48,0.66398
4966510,-0.06000,57.5625,103,48,0.65641
4966520,-0.08000,57.2500,103,48,0.64762
4966530,-0.10000,56.4375,103,48,0.63858
4966540,-0.11000,56.0000,103,48,0.61954
4966550,-0.11500,55.5625,103,48,0.60904
4966560,-0.11500,55.1875,103,48,0.59829
4966570,-0.11500,54.7500,103,48,0.58755
4966580,-0.12000,54.0000,103,48,0.56679
4966590,-0.12500,53.6250,103,48,0.55653
4966600,-0.13500,53.3125,103,48,0.54652
4966610,-0.13500,53.0000,103,48,0.53700
4966620,0.06500,52.4375,103,48,0.51844
4966630,0.59500,52.1250,103,48,0.51038
4966640,1.04500,51.8750,103,48,0.50305
4966650,0.74500,51.6250,103,48,0.49524
4966660,0.05000,51.1250,103,48,0.47961
4966670,-0.38500,50.8750,103,48,0.47204
4966680,-0.48000,50.6250,103,48,0.46471
4966690,-0.37500,50.3750,103,48,0.45788
4966700,-0.28000,49.8750,103,48,0.44444
4966710,-0.25000,49.6250,103,48,0.43785
4966720,-0.24000,49.4375,103,48,0.43150
4966730,-0.22500,49.1875,103,48,0.42637
4966740,-0.21000,48.6250,103,48,0.41636
4966750,-0.20500,48.3125,103,48,0.41099
4966760,-0.19000,48.0625,103,48,0.40562
4966770,-0.17000,47.8125,103,48,0.40049
4966780,-0.15500,47.5000,103,48,0.38974
4966790,-0.15000,47.6875,103,48,0.38437
4966800,-0.15000,48.4375,103,48,0.37875
4966810,-0.13500,50.1875,103,48,0.37338
4966820,-0.09500,57.4375,103,48,0.36264
4966830,-0.05500,62.3125,103,48,0.35849
4966840,-0.03500,67.4375,103,48,0.35507
4966850,-0.03500,72.6875,103,48,0.35092
4966860,-0.04500,82.6875,103,48,0.34212
4966870,-0.03500,87.2500,103,48,0.33797
4966880,-0.02000,91.3125,103,48,0.33407
4966890,0.01000,94.8125,103,48,0.33016
4966900,0.03500,99.8125,103,48,0.32283
4966910,0.04500,101.3750,103,48,0.31917
4966920,0.04500,102.3125,103,48,0.31551
4966930,0.04000,102.7500,103,48,0.31306
4966940,0.04000,102.2500,103,48,0.30842
4966950,0.04000,101.5625,103,48,0.30525
4966960,0.04500,100.6875,103,48,0.30208
4966970,0.06000,99.6250,103,48,0.29841
4966980,0.07500,97.1875,103,48,0.29109
4966990,0.08000,95.8125,103,48,0.28742
4967000,0.07500,94.3750,103,48,0.28376
4967010,0.06000,92.9375,103,48,0.27985
4967020,0.04000,89.8750,103,48,0.27204
4967030,0.01000,88.3750,103,48,0.26911
4967040,-0.01500,86.8750,103,48,0.26691
4967050,-0.03000,85.4375,103,48,0.26398
4967060,-0.03500,82.4375,103,48,0.25958
4967070,-0.04000,80.7500,103,48,0.25958
4967080,-0.04000,78.8750,103,48,0.26203
4967090,-0.04500,76.8750,103,48,0.26764
4967100,-0.04667,74.1667,103,48,0.28519
4967110,-0.04500,71.6875,103,48,0.30794
4967120,-0.04000,70.3750,103,48,0.32918
4967130,-0.04000,69.2500,103,48,0.35067
4967140,-0.04000,67.5625,103,48,0.39927
4967150,-0.04500,66.8750,103,48,0.42759
4967160,-0.05000,66.3125,103,48,0.45690
4967170,-0.05500,65.7500,103,48,0.48620
4967180,-0.05500,64.6875,103,48,0.54188
4967190,-0.05500,64.1250,103,48,0.56752
4967200,-0.06500,63.6250,103,48,0.59096
4967210,-0.07500,63.1875,103,48,0.61221
4967220,-0.07500,62.3750,103,48,0.64737
4967230,-0.07500,62.0625,103,48,0.65934
4967240,-0.07500,61.6875,103,48,0.66838
4967250,-0.08000,61.3750,103,48,0.67692
4967260,-0.07500,60.8750,103,48,0.69060
4967270,-0.06000,60.5625,103,48,0.69524
4967280,-0.04000,60.3125,103,48,0.69817
4967290,-0.00500,59.6250,103,48,0.69939
4967300,0.02000,59.2500,103,48,0.69768
4967310,0.01000,58.8750,103,48,0.69499
4967320,-0.01500,58.5000,103,48,0.69109
4967330,-0.05500,58.1875,103,48,0.68620
4967340,-0.08500,57.3750,103,48,0.67424
4967350,-0.11500,57.0000,103,48,0.66691
4967360,-0.13500,56.6250,103,48,0.65861
4967370,-0.13500,56.1875,103,48,0.64957
4967380,-0.13500,55.3750,103,48,0.62955
4967390,-0.13500,55.0000,103,48,0.61905
4967400,-0.13000,54.6250,103,48,0.60830
4967410,-0.12500,54.2500,103,48,0.59780
4967420,-0.12000,53.6875,103,48,0.57705
4967430,-0.12500,53.4375,103,48,0.56801
4967440,-0.08500,53.2500,103,48,0.55971
4967450,0.21000,53.1250,103,48,0.55116
4967460,0.78500,52.8750,103,48,0.53431
4967470,1.07000,52.6875,103,48,0.52601
4967480,0.62500,52.5000,103,48,0.51795
4967490,-0.06000,52.2500,103,48,0.51013
4967500,-0.41500,51.7500,103,48,0.49499
4967510,-0.43500,51.5000,103,48,0.48767
4967520,-0.32500,51.1875,103,48,0.48034
4967530,-0.26000,50.9375,103,48,0.47424
4967540,-0.24500,50.3750,103,48,0.46178
4967550,-0.24000,50.1250,103,48,0.45519
4967560,-0.23500,49.7500,103,48,0.44860
4967570,-0.23000,49.3750,103,48,0.44225
4967580,-0.22000,48.5625,103,48,0.42955
4967590,-0.21500,48.1875,103,48,0.42344
4967600,-0.20500,47.8750,103,48,0.41758
4967610,-0.19000,47.6250,103,48,0.41172
4967620,-0.17000,48.1875,103,48,0.40098
4967630,-0.15500,49.6250,103,48,0.39658
4967640,-0.13500,52.3125,103,48,0.39145
4967650,-0.12500,56.2500,103,48,0.38608
4967660,-0.10000,66.3125,103,48,0.37485
4967670,-0.07500,71.6250,103,48,0.36947
4967680,-0.05500,76.9375,103,48,0.36410
4967690,-0.03500,82.1250,103,48,0.35897
4967700,-0.01500,91.3750,103,48,0.34921
4967710,0.00500,95.3125,103,48,0.34457
4967720,0.03000,98.5625,103,48,0.34017
4967730,0.04500,103.0000,103,48,0.33700
4967740,0.05000,104.2500,103,48,0.33114
4967750,0.05000,104.8750,103,48,0.33040
4967760,0.05500,105.0000,103,48,0.33065
4967770,0.06000,104.8125,103,48,0.32869
4967780,0.07000,103.4375,103,48,0.32161
4967790,0.07000,102.4375,103,48,0.31746
4967800,0.07500,101.2500,103,48,0.31331
4967810,0.08000,98.5625,103,48,0.30452
4967820,0.09000,97.1250,103,48,0.30159
4967830,0.08000,95.6250,103,48,0.29915
4967840,0.06000,94.1875,103,48,0.29573
4967850,0.03000,92.6875,103,48,0.29182
4967860,0.01000,89.7500,103,48,0.28352
4967870,-0.00500,88.3125,103,48,0.27961
4967880,-0.01500,86.8750,103,48,0.27668
4967890,-0.02000,85.3125,103,48,0.27497
4967900,-0.02500,81.8125,103,48,0.27790
4967910,-0.02500,79.8125,103,48,0.28425
4967920,-0.02500,77.7500,103,48,0.29475
4967930,-0.02500,75.6875,103,48,0.30769
4967940,-0.02000,72.1875,103,48,0.34457
4967950,-0.02000,70.8750,103,48,0.36996
4967960,-0.02000,69.7500,103,48,0.39878
4967970,-0.02500,68.8125,103,48,0.43028
4967980,-0.03500,67.4375,103,48,0.49646
4967990,-0.03500,66.9375,103,48,0.52967
4968000,-0.04000,66.5000,104,48,0.56190
4968010,-0.04500,66.0625,104,48,0.59243
4968020,-0.04500,65.3750,104,48,0.64396
4968030,-0.05000,65.0000,104,48,0.66349
4968040,-0.05500,64.6250,104,48,0.68400
4968050,-0.06500,64.1875,104,48,0.70354
4968060,-0.06500,63.2500,104,48,0.73651
4968070,-0.06500,62.7500,104,48,0.74945
4968080,-0.06000,62.2500,104,48,0.75995
4968090,-0.05500,61.8125,104,48,0.76825
4968100,-0.04000,60.9375,104,48,0.77851
4968110,-0.00500,60.5000,104,48,0.78095
4968120,0.02833,60.1563,104,48,0.78205
4968130,0.04000,59.7500,104,48,0.78022
4968140,0.01000,59.1250,104,48,0.77387
4968150,-0.02500,58.7500,104,48,0.76948
4968160,-0.05500,58.4375,104,48,0.76386
4968170,-0.07500,58.0625,104,48,0.75702
4968180,-0.09500,57.4375,104,48,0.74042
4968190,-0.09500,57.1250,104,48,0.73040
4968200,-0.10000,56.8125,104,48,0.71941
4968210,-0.10500,56.5625,104,48,0.70794
4968220,-0.09500,55.9375,104,48,0.68474
4968230,-0.09500,55.6875,104,48,0.67375
4968240,-0.10000,55.3750,104,48,0.66227
4968250,-0.10000,55.1875,104,48,0.65055
4968260,-0.08500,54.6875,104,48,0.62711
4968270,0.09000,54.4375,104,48,0.61563
4968280,0.58000,54.1875,104,48,0.60464
4968290,1.05500,53.9375,104,48,0.59414
4968300,0.86500,53.3125,104,48,0.57363
4968310,0.15000,52.9375,104,48,0.56410
4968320,-0.33000,52.5625,104,48,0.55482
4968330,-0.43500,52.1250,104,48,0.54676
4968340,-0.33000,51.4375,104,48,0.53162
4968350,-0.24000,51.1250,104,48,0.52381
4968360,-0.21000,50.8125,104,48,0.51575
4968370,-0.21000,50.2500,104,48,0.49988
4968380,-0.20500,49.9375,104,48,0.49231
4968390,-0.20000,49.6875,104,48,0.48498
4968400,-0.19500,49.3750,104,48,0.47790
4968410,-0.19500,49.0625,104,48,0.47106
4968420,-0.18000,48.5625,104,48,0.45836
4968430,-0.17000,48.3750,104,48,0.45324
4968440,-0.16000,48.5000,104,48,0.44737
4968450,-0.14500,49.2500,104,48,0.44127
4968460,-0.13500,53.8125,104,48,0.42857
4968470,-0.12000,57.9375,104,48,0.42198
4968480,-0.10500,62.8750,104,48,0.41538
4968490,-0.08500,68.1875,104,48,0.40879
4968500,-0.05500,78.9375,104,48,0.39609
4968510,-0.03500,84.1250,104,48,0.38999
4968520,-0.01500,89.0000,104,48,0.38388
4968530,0.00000,93.4375,104,48,0.37924
4968540,0.02000,100.5625,104,48,0.37021
4968550,0.04000,103.1250,104,48,0.36508
4968560,0.05500,105.0000,104,48,0.35971
4968570,0.06000,106.1875,104,48,0.35433
4968580,0.06000,107.0000,104,48,0.34432
4968590,0.06000,106.7500,104,48,0.33919
4968600,0.06500,106.1875,104,48,0.33431
4968610,0.07000,105.3125,104,48,0.32967
4968620,0.08000,103.0625,104,48,0.32137
4968630,0.08834,101.8125,104,48,0.31868
4968640,0.09000,100.4375,104,48,0.31526
4968650,0.08000,99.0000,104,48,0.31136
4968660,0.06500,96.1250,104,48,0.30330
4968670,0.04000,94.6250,104,48,0.29915
4968680,0.01000,93.2500,104,48,0.29475
4968690,-0.00500,91.8125,104,48,0.29060
4968700,-0.02000,88.8750,104,48,0.28352
4968710,-0.02500,87.3125,104,48,0.28205
4968720,-0.03500,85.6250,104,48,0.28278
4968730,-0.04000,83.7500,104,48,0.28596
4968740,-0.04000,79.5000,104,48,0.30232
4968750,-0.03500,77.3750,104,48,0.31673
4968760,-0.03500,75.3750,104,48,0.33553
4968770,-0.02500,73.6250,104,48,0.35849
4968780,-0.01500,70.8750,104,48,0.41490
4968790,-0.01500,69.8125,104,48,0.44689
4968800,-0.02000,68.9375,104,48,0.47985
4968810,-0.03000,68.1250,104,48,0.51331
4968820,-0.04500,66.9375,104,48,0.57411
4968830,-0.05500,66.5000,104,48,0.59853
4968840,-0.06500,66.1250,104,48,0.62466
4968850,-0.06500,65.7500,104,48,0.65055
4968860,-0.07000,65.1250,104,48,0.69744
4968870,-0.07500,64.7500,104,48,0.71770
4968880,-0.08500,64.3750,104,48,0.73553
4968890,-0.08500,63.9375,104,48,0.75092
4968900,-0.07500,63.1875,104,48,0.77436
4968910,-0.06500,62.8125,104,48,0.78266
4968920,-0.03500,62.5000,104,48,0.78877
4968930,0.00000,62.1250,104,48,0.79170
4968940,0.04000,61.4375,104,48,0.79292
4968950,0.05000,61.0625,104,48,0.79267
4968960,0.01000,60.7500,104,48,0.79121
4968970,-0.03000,60.4375,104,48,0.78828
4968980,-0.06500,59.7500,104,48,0.77851
4968990,-0.08000,59.3750,104,48,0.77143
4969000,-0.10000,59.0000,104,48,0.76313
4969010,-0.11000,58.6875,104,48,0.75360
4969020,-0.10500,57.8750,104,48,0.73284
4969030,-0.10000,57.4375,104,48,0.72210
4969040,-0.09500,57.0625,104,48,0.71038
4969050,-0.09000,56.6250,104,48,0.69817
4969060,-0.09000,55.9375,104,48,0.67326
4969070,-0.09000,55.6250,104,48,0.66056
4969080,-0.10000,55.3125,104,48,0.64811
4969090,0.03000,55.0625,104,48,0.63614
4969100,0.48500,54.5625,104,48,0.61245
4969110,1.03500,54.2500,104,48,0.60098
4969120,0.95500,54.0000,104,48,0.58999
4969130,0.29000,53.7500,104,48,0.58022
4969140,-0.25500,53.3250,104,48,0.56799
4969150,-0.41333,52.8312,104,48,0.55509
4969160,-0.35500,52.3750,104,48,0.54335
4969170,-0.25000,52.0625,104,48,0.53455
4969180,-0.22000,51.3750,104,48,0.51795
4969190,-0.21500,51.0625,104,48,0.50989
4969200,-0.20500,50.7500,104,48,0.50208
4969210,-0.19500,50.4375,104,48,0.49426
4969220,-0.19500,49.7500,104,48,0.47985
4969230,-0.19500,49.4375,104,48,0.47375
4969240,-0.18500,49.1250,104,48,0.46716
4969250,-0.17000,48.9375,104,48,0.46032
4969260,-0.16000,49.3125,104,48,0.44664
4969270,-0.15500,50.4375,104,48,0.43980
4969280,-0.14500,52.7500,104,48,0.43297
4969290,-0.13500,56.4375,104,48,0.42613
4969300,-0.12500,66.4375,104,48,0.41319
4969310,-0.10500,71.9375,104,48,0.40684
4969320,-0.09500,77.4375,104,48,0.40171
4969330,-0.07500,82.7500,104,48,0.39731
4969340,-0.06000,92.4375,104,48,0.38730
4969350,-0.04500,96.5625,104,48,0.38193
4969360,-0.03000,100.0625,104,48,0.37680
4969370,-0.01500,102.9375,104,48,0.37167
4969380,0.00000,106.5625,104,48,0.36117
4969390,0.00500,107.5000,104,48,0.35604
4969400,0.01000,107.8750,104,48,0.35092
4969410,0.01000,107.8750,104,48,0.34554
4969420,0.01500,106.8750,104,48,0.33626
4969430,0.02000,105.9375,104,48,0.33309
4969440,0.03000,104.8750,104,48,0.32918
4969450,0.05000,103.6250,104,48,0.32479
4969460,0.06500,100.9375,104,48,0.31551
4969470,0.07000,99.5000,104,48,0.31062
4969480,0.06000,98.0000,104,48,0.30598
4969490,0.03500,95.0625,104,48,0.30134
4969500,0.01000,93.6250,104,48,0.29158
4969510,-0.00500,92.1250,104,48,0.28718
4969520,-0.01500,90.6250,104,48,0.28449
4969530,-0.02500,89.0625,104,48,0.28303
4969540,-0.02500,85.6250,104,48,0.28278
4969550,-0.02500,83.6250,104,48,0.28645
4969560,-0.02500,81.5000,104,48,0.29377
4969570,-0.01500,79.2500,104,48,0.30525
4969580,-0.01500,75.1250,104,48,0.34188
4969590,-0.01500,73.4375,104,48,0.36654
4969600,-0.02000,72.0625,104,48,0.39463
4969610,-0.02000,70.8750,104,48,0.42540
4969620,-0.02000,69.0625,104,48,0.48694
4969630,-0.02500,68.3750,104,48,0.51380
4969640,-0.03500,67.8125,104,48,0.54359
4969650,-0.04000,67.3125,104,48,0.57387
4969660,-0.04500,66.5625,104,48,0.63150
4969670,-0.05500,66.1875,104,48,0.65763
4969680,-0.06000,65.8125,104,48,0.68132
4969690,-0.06000,65.4375,104,48,0.70232
4969700,-0.05500,64.7500,104,48,0.73675
4969710,-0.05500,64.4375,104,48,0.74994
4969720,-0.05500,64.0625,104,48,0.75873
4969730,-0.04500,63.7500,104,48,0.76459
4969740,-0.03500,63.0625,104,48,0.77460
4969750,0.00000,62.7500,104,48,0.77778
4969760,0.03000,62.3750,104,48,0.77949
4969770,0.05000,62.0000,104,48,0.77998
4969780,0.03000,61.1875,104,48,0.77680
4969790,-0.01000,60.8125,104,48,0.77314
4969800,-0.04500,60.3750,104,48,0.75678
4969810,-0.07500,59.9375,104,48,0.73382
4969820,-0.10000,59.1875,104,48,0.70623
4969830,-0.11500,58.7500,104,48,0.69548
4969840,-0.12000,58.3750,104,48,0.68474
4969850,-0.12000,57.9375,104,48,0.67375
4969860,-0.12000,57.1875,104,48,0.65079
4969870,-0.12000,56.8125,104,48,0.63883
4969880,-0.12000,56.5000,104,48,0.62711
4969890,-0.11500,56.1875,104,48,0.61538
4969900,-0.11500,55.6875,104,48,0.59267
4969910,-0.03000,55.4375,104,48,0.58193
4969920,0.37500,55.2500,104,48,0.57216
4969930,1.01000,55.0625,104,48,0.56313
4969940,1.10000,54.6250,104,48,0.54457
4969950,0.47000,54.3750,104,48,0.53529
4969960,-0.16000,54.1250,104,48,0.52625
4969970,-0.38500,53.8125,104,48,0.51722
4969980,-0.32000,53.1250,104,48,0.50037
4969990,-0.21000,52.7500,104,48,0.49206
4970000,-0.15500,52.4375,103,48,0.48400
4970010,-0.13000,52.1250,103,48,0.47619
4970020,-0.11000,51.5625,103,48,0.46227
4970030,-0.09500,51.3125,103,48,0.45641
4970040,-0.10500,51.0000,103,48,0.45006
4970050,-0.12000,50.6875,103,48,0.44347
4970060,-0.13000,50.1250,103,48,0.42979
4970070,-0.13500,49.9375,103,48,0.42320
4970080,-0.14000,50.0000,103,48,0.41636
4970090,-0.14500,52.0625,103,48,0.40952
4970100,-0.14500,54.8750,103,48,0.39634
4970110,-0.14000,59.0625,103,48,0.38999
4970120,-0.13000,64.2500,103,48,0.38486
4970130,-0.11500,69.8750,103,48,0.38046
4970140,-0.09500,81.2500,103,48,0.36923
4970150,-0.07500,86.7500,103,48,0.36337
4970160,-0.06000,91.8125,103,48,0.35751
4970170,-0.04167,98.1875,103,48,0.34933
4970180,-0.02500,103.7500,103,48,0.34139
4970190,-0.01500,106.3750,103,48,0.33626
4970200,-0.00500,108.3750,103,48,0.33138
4970210,0.00000,109.7500,103,48,0.32650
4970220,0.00500,110.8125,103,48,0.31868
4970230,0.01000,110.6875,103,48,0.31600
4970240,0.01500,110.2500,103,48,0.31233
4970250,0.02000,109.5000,103,48,0.30794
4970260,0.03500,107.5000,103,48,0.29915
4970270,0.05000,106.1875,103,48,0.29475
4970280,0.06500,104.8750,103,48,0.29035
4970290,0.07000,103.4375,103,48,0.28620
4970300,0.05000,100.5000,103,48,0.27766
4970310,0.02500,99.0000,103,48,0.27350
4970320,-0.00500,97.5000,103,48,0.27057
4970330,-0.03000,96.0625,103,48,0.26838
4970340,-0.04500,93.1250,103,48,0.26252
4970350,-0.06000,91.5625,103,48,0.26032
4970360,-0.07000,89.8750,103,48,0.25983
4970370,-0.07000,88.0000,103,48,0.26178
4970380,-0.06500,83.6250,103,48,0.27643
4970390,-0.05500,81.3125,103,48,0.28987
4970400,-0.05000,79.0625,103,48,0.30794
4970410,-0.04500,77.0000,103,48,0.33016
4970420,-0.04500,73.7500,103,48,0.38193
4970430,-0.04500,72.5000,103,48,0.40733
4970440,-0.04500,71.5000,103,48,0.43712
4970450,-0.04500,70.6875,103,48,0.46886
4970460,-0.04500,69.5625,103,48,0.53382
4970470,-0.05500,69.1250,103,48,0.56484
4970480,-0.06500,68.8125,103,48,0.59414
4970490,-0.07000,68.4375,103,48,0.62149
4970500,-0.07500,67.8125,103,48,0.66911
4970510,-0.08000,67.4375,103,48,0.68913
4970520,-0.08500,67.1250,103,48,0.70379
4970530,-0.09000,66.7500,103,48,0.71502
4970540,-0.09000,65.9375,103,48,0.73529
4970550,-0.08500,65.5000,103,48,0.74335
4970560,-0.07500,65.0625,103,48,0.74969
4970570,-0.05000,64.6250,103,48,0.75409
4970580,-0.02000,63.6875,103,48,0.75800
4970590,0.00000,63.1875,103,48,0.75775
4970600,-0.01000,62.7500,103,48,0.75629
4970610,-0.03500,62.3125,103,48,0.75360
4970620,-0.05500,61.3750,103,48,0.74457
4970630,-0.06500,60.9375,103,48,0.73846
4970640,-0.07500,60.5000,103,48,0.73162
4970650,-0.08500,60.1250,103,48,0.72381
4970660,-0.07500,59.4375,103,48,0.70525
4970670,-0.05500,59.0625,103,48,0.69451
4970680,-0.05000,58.7500,103,48,0.68327
4970690,-0.04500,58.3750,103,48,0.67155
4970700,-0.05500,57.7500,103,48,0.64786
4970710,-0.06000,57.5000,103,48,0.63614
4970720,-0.08500,57.1875,103,48,0.62515
4970730,-0.04000,57.0000,103,48,0.61490
4970740,0.31500,56.5625,103,48,0.59316
4970750,0.97000,56.3750,103,48,0.58242
4970760,1.18500,56.1250,103,48,0.57192
4970770,0.58500,55.9375,103,48,0.56166
4970780,-0.15500,55.5000,103,48,0.54237
4970790,-0.45500,55.2500,103,48,0.53284
4970800,-0.40500,54.9375,103,48,0.52357
4970810,-0.28000,54.6875,103,48,0.51477
4970820,-0.24000,54.0000,103,48,0.49866
4970830,-0.23000,53.6250,103,48,0.49182
4970840,-0.22500,53.2500,103,48,0.48425
4970850,-0.21500,52.9375,103,48,0.47643
4970860,-0.21000,52.3125,103,48,0.46105
4970870,-0.20000,52.0000,103,48,0.45348
4970880,-0.19500,51.6875,103,48,0.44591
4970890,-0.18500,51.3125,103,48,0.43858
4970900,-0.17000,51.5000,103,48,0.42442
4970910,-0.15500,52.3750,103,48,0.41734
4970920,-0.15000,54.4375,103,48,0.41148
4970930,-0.14000,57.9375,103,48,0.40635
4970940,-0.13500,68.1875,103,48,0.39414
4970950,-0.12000,73.9375,103,48,0.38779
4970960,-0.10500,79.8125,103,48,0.38144
4970970,-0.08500,85.5000,103,48,0.37534
4970980,-0.07000,95.9375,103,48,0.36313
4970990,-0.04500,100.3750,103,48,0.35726
4971000,-0.02500,104.1875,103,48,0.35165
4971010,-0.00500,107.1875,103,48,0.34603
4971020,0.01000,111.0625,103,48,0.33626
4971030,0.02000,112.0625,103,48,0.33260
4971040,0.03000,112.5000,103,48,0.32821
4971050,0.03500,112.5000,103,48,0.32357
4971060,0.03000,111.3750,103,48,0.31355
4971070,0.03500,110.4375,103,48,0.30867
4971080,0.04500,109.3125,103,48,0.30379
4971090,0.05500,108.1250,103,48,0.29890
4971100,0.06000,105.5000,103,48,0.28962
4971110,0.06000,104.1250,103,48,0.28523
4971120,0.05000,102.6875,103,48,0.28205
4971130,0.03000,101.2500,103,48,0.27961
4971140,0.01000,98.3750,103,48,0.27204
4971150,-0.00500,96.9375,103,48,0.26789
4971160,-0.02500,95.4375,103,48,0.26398
4971170,-0.03500,93.9375,103,48,0.26081
4971180,-0.04000,90.5625,103,48,0.25910
4971190,-0.04000,88.5313,103,48,0.25883
4971200,-0.04083,86.7500,103,48,0.26413
4971210,-0.04500,84.1250,103,48,0.27912
4971220,-0.05500,79.5625,103,48,0.30794
4971230,-0.05500,77.5625,103,48,0.32918
4971240,-0.06500,75.8125,103,48,0.35507
4971250,-0.06500,74.3750,103,48,0.38437
4971260,-0.06500,72.1250,103,48,0.44957
4971270,-0.07500,71.3125,103,48,0.48352
4971280,-0.07500,70.6875,103,48,0.51697
4971290,-0.08500,70.1250,103,48,0.54945
4971300,-0.08500,69.3125,103,48,0.60928
4971310,-0.08000,69.0000,103,48,0.63590
4971320,-0.07500,68.6875,103,48,0.65665
4971330,-0.08000,68.3750,103,48,0.67350
4971340,-0.07500,67.7500,103,48,0.70672
4971350,-0.06500,67.3750,103,48,0.72063
4971360,-0.05500,67.0000,103,48,0.73236
4971370,-0.04500,66.6250,103,48,0.74188
4971380,-0.02500,65.8750,103,48,0.75458
4971390,0.01000,65.4375,103,48,0.75800
4971400,0.04000,64.9375,103,48,0.75946
4971410,0.06000,64.5000,103,48,0.75946
4971420,0.04500,63.5625,103,48,0.75409
4971430,0.01000,63.0625,103,48,0.75043
4971440,-0.02500,62.6250,103,48,0.74579
4971450,-0.05500,62.1250,103,48,0.74017
4971460,-0.08500,61.2500,103,48,0.72601
4971470,-0.10000,60.8125,103,48,0.71722
4971480,-0.10500,60.3125,103,48,0.70745
4971490,-0.10000,59.8750,103,48,0.69670
4971500,-0.10000,59.0625,103,48,0.67375
4971510,-0.09500,58.6250,103,48,0.66178
4971520,-0.09500,58.2500,103,48,0.65031
4971530,-0.09500,57.9375,103,48,0.63956
4971540,-0.11500,57.3750,103,48,0.61661
4971550,-0.03500,57.0625,103,48,0.60488
4971560,0.35000,56.8125,103,48,0.59341
4971570,0.95500,56.3750,103,48,0.57143
4971580,1.01500,56.1875,103,48,0.56093
4971590,0.34000,55.9375,103,48,0.55116
4971600,-0.32500,55.6875,103,48,0.54164
4971610,-0.55000,55.3750,103,48,0.53236
4971620,-0.46000,54.6875,103,48,0.51648
4971630,-0.33500,54.3125,103,48,0.50842
4971640,-0.29500,53.9375,103,48,0.50012
4971650,-0.28000,53.5625,103,48,0.49206
4971660,-0.31500,52.8750,103,48,0.47546
4971670,-0.40500,52.5000,103,48,0.46740
4971680,-0.43500,52.1250,103,48,0.45934
4971690,-0.35500,51.8125,103,48,0.45153
4971700,-0.28000,51.2500,103,48,0.43565
4971710,-0.22000,51.0625,103,48,0.42784
4971720,-0.12500,51.0625,103,48,0.42125
4971730,-0.04000,51.6250,103,48,0.41514
4971740,0.01000,56.1250,103,48,0.40171
4971750,0.03000,60.5000,103,48,0.39487
4971760,0.02000,65.8750,103,48,0.38803
4971770,0.00000,71.6250,103,48,0.38144
4971780,-0.01000,83.2500,103,48,0.36825
4971790,-0.01500,88.6875,103,48,0.36166
4971800,-0.03000,93.7500,103,48,0.35531
4971810,-0.03500,98.3125,103,48,0.34921
4971820,-0.02500,105.3750,103,48,0.34017
4971830,0.00000,107.7500,103,48,0.33529
4971840,0.03000,109.4375,103,48,0.33016
4971850,0.05500,110.5000,103,48,0.32308
4971860,0.07000,111.0000,103,48,0.30867
4971870,0.09000,110.6250,103,48,0.30281
4971880,0.10000,110.0000,103,48,0.29744
4971890,0.11500,109.1250,103,48,0.29206
4971900,0.12500,107.0000,103,48,0.28230
4971910,0.14000,105.7500,103,48,0.27766
4971920,0.14500,104.4375,103,48,0.27424
4971930,0.14500,103.1250,103,48,0.27155
4971940,0.13000,100.3125,103,48,0.26422
4971950,0.11500,98.9375,103,48,0.26007
4971960,0.09000,97.5625,103,48,0.25568
4971970,0.06500,96.1250,103,48,0.25153
4971980,0.04500,93.1875,103,48,0.24371
4971990,0.03000,91.5625,103,48,0.24103
4972000,0.02000,89.7500,104,48,0.24005
4972010,0.02000,87.6875,104,48,0.24176
4972020,0.02000,82.9375,104,48,0.25299
4972030,0.02000,80.5000,104,48,0.26374
4972040,0.02000,78.2500,104,48,0.27888
4972050,0.02500,76.3125,104,48,0.29866
4972060,0.02500,73.3125,104,48,0.34945
4972070,0.02000,72.1875,104,48,0.37924
4972080,0.02000,71.2500,104,48,0.41099
4972090,0.02000,70.5000,104,48,0.44347
4972100,0.01000,69.4375,104,48,0.50818
4972110,0.00500,69.0000,104,48,0.53919
4972120,0.00000,68.6875,104,48,0.56484
4972130,0.00000,68.3750,104,48,0.58657
4972140,-0.00500,67.8125,104,48,0.63101
4972150,-0.01000,67.5000,104,48,0.65079
4972160,-0.01500,67.1250,104,48,0.66789
4972170,-0.01500,66.3125,104,48,0.68254
4972180,-0.01500,65.9375,104,48,0.70379
4972190,-0.01000,65.5000,104,48,0.71087
4972200,0.01000,65.0625,104,48,0.71600
4972210,0.04000,64.6875,104,48,0.71941
4972220,0.07250,64.0104,104,48,0.71966
4972230,0.08500,63.3125,104,48,0.71795
4972240,0.05500,62.8750,104,48,0.71551
4972250,0.01500,62.4375,104,48,0.71209
4972260,-0.02000,61.5625,104,48,0.70159
4972270,-0.04500,61.1250,104,48,0.69451
4972280,-0.06500,60.7500,104,48,0.68596
4972290,-0.07500,60.3125,104,48,0.67643
4972300,-0.07500,59.5000,104,48,0.65519
4972310,-0.06500,59.0625,104,48,0.64371
4972320,-0.06500,58.6875,104,48,0.63272
4972330,-0.06000,58.3750,104,48,0.62198
4972340,-0.05000,57.6875,104,48,0.59927
4972350,-0.04500,57.4375,104,48,0.58779
4972360,-0.04500,57.1875,104,48,0.57680
4972370,0.14000,57.0000,104,48,0.56606
4972380,0.64000,56.5625,104,48,0.54554
4972390,1.12000,56.3750,104,48,0.53602
4972400,0.88000,56.1250,104,48,0.52674
4972410,0.18500,55.8750,104,48,0.51746
4972420,-0.27500,55.1875,104,48,0.50208
4972430,-0.40500,54.8125,104,48,0.49451
4972440,-0.31500,54.4375,104,48,0.48645
4972450,-0.22500,54.0625,104,48,0.47863
4972460,-0.21000,53.3750,104,48,0.46325
4972470,-0.19500,53.0625,104,48,0.45592
4972480,-0.18000,52.6875,104,48,0.44860
4972490,-0.15000,52.3750,104,48,0.44127
4972500,-0.12500,51.7500,104,48,0.42735
4972510,-0.09500,51.4375,104,48,0.42051
4972520,-0.07500,51.2500,104,48,0.41465
4972530,-0.04500,51.1250,104,48,0.40952
4972540,0.00000,51.5625,104,48,0.39731
4972550,-0.00500,52.6875,104,48,0.39072
4972560,-0.05500,54.9375,104,48,0.38413
4972570,-0.05500,58.5000,104,48,0.37753
4972580,0.00500,68.3125,104,48,0.36459
4972590,0.08000,73.7500,104,48,0.35849
4972600,0.12000,79.1875,104,48,0.35238
4972610,0.13500,84.5625,104,48,0.34628
4972620,0.15500,94.3750,104,48,0.33773
4972630,0.17500,98.5625,104,48,0.33309
4972640,0.18000,102.1250,104,48,0.32821
4972650,0.18000,104.9375,104,48,0.32308
4972660,0.20000,108.3750,104,48,0.31282
4972670,0.25000,109.0625,104,48,0.30794
4972680,0.28500,109.1875,104,48,0.30305
4972690,0.29000,108.8750,104,48,0.29817
4972700,0.28500,107.1875,104,48,0.28864
4972710,0.26500,105.9375,104,48,0.28376
4972720,0.24500,104.5625,104,48,0.28034
4972730,0.22500,103.0625,104,48,0.27766
4972740,0.19000,99.9375,104,48,0.27009
4972750,0.14500,98.4375,104,48,0.26618
4972760,0.08500,96.9375,104,48,0.26252
4972770,0.01500,95.5000,104,48,0.25861
4972780,-0.05500,92.6250,104,48,0.25079
4972790,-0.12000,91.1250,104,48,0.24713
4972800,-0.18000,89.5625,104,48,0.24396
4972810,-0.24000,87.8125,104,48,0.24127
4972820,-0.30000,83.7500,104,48,0.24200
4972830,-0.37500,81.4375,104,48,0.24493
4972840,-0.46000,79.0000,104,48,0.25055
4972850,-0.56000,76.6875,104,48,0.26007
4972860,-0.67000,73.0625,104,48,0.29158
4972870,-0.76000,71.6250,104,48,0.31331
4972880,-0.81500,70.5000,104,48,0.33871
4972890,-0.83500,69.6250,104,48,0.36654
4972900,-0.81000,68.3125,104,48,0.42662
4972910,-0.74000,67.8125,104,48,0.45690
4972920,-0.66500,67.4375,104,48,0.48303
4972930,-0.63000,67.1250,104,48,0.50623
4972940,-0.62500,66.5000,104,48,0.55556
4972950,-0.58000,66.2500,104,48,0.57875
4972960,-0.48500,66.0000,104,48,0.60024
4972970,-0.41000,65.3750,104,48,0.61929
4972980,-0.36500,65.0625,104,48,0.64957
4972990,-0.33500,64.7500,104,48,0.66081
4973000,-0.30000,64.3750,104,48,0.66984
4973010,-0.22500,64.0625,104,48,0.67643
4973020,-0.12000,63.2500,104,48,0.68156
4973030,-0.01500,62.8750,104,48,0.68254
4973040,0.08000,62.4375,104,48,0.68254
4973050,0.13500,62.0625,104,48,0.68156
4973060,0.16000,61.2500,104,48,0.67595
4973070,0.16500,60.8750,104,48,0.67131
4973080,0.17500,60.5000,104,48,0.66545
4973090,0.19500,60.1250,104,48,0.65861
4973100,0.22000,59.3125,104,48,0.64151
4973110,0.23500,58.9375,104,48,0.63223
4973120,0.25500,58.5000,104,48,0.62295
4973130,0.26000,58.1250,104,48,0.61270
4973140,0.25500,57.3750,104,48,0.59096
4973150,0.24500,57.0625,104,48,0.57998
4973160,0.23500,56.7500,104,48,0.56899
4973170,0.21500,56.5000,104,48,0.55800
4973180,0.18500,56.1875,104,48,0.53675
4973190,0.21500,56.0625,104,48,0.52650
4973200,0.50500,55.9375,104,48,0.51673
4973210,1.08500,55.8125,104,48,0.50745
4973220,1.35500,55.5000,104,48,0.49255
4973230,0.85000,55.3125,104,48,0.48474
4973240,0.17500,55.1771,104,48,0.47818
4973250,-0.15000,54.9375,104,48,0.46935
4973260,-0.18000,54.4375,104,48,0.45470
4973270,-0.07500,54.1250,104,48,0.44762
4973280,-0.01500,53.8125,104,48,0.44078
4973290,-0.00500,53.5000,104,48,0.43370
4973300,-0.00500,52.8125,104,48,0.42002
4973310,-0.00500,52.5000,104,48,0.41441
4973320,-0.01000,52.1250,104,48,0.40952
4973330,-0.01500,51.8125,104,48,0.40391
4973340,-0.02000,51.1250,104,48,0.39145
4973350,-0.02500,50.8750,104,48,0.38510
4973360,-0.01500,50.8125,104,48,0.37875
4973370,-0.01000,51.1250,104,48,0.37265
4973380,0.00000,54.5000,104,48,0.36068
4973390,0.00000,58.1250,104,48,0.35507
4973400,0.01000,62.7500,104,48,0.34945
4973410,0.02000,73.3750,104,48,0.34408
4973420,0.03000,78.8125,104,48,0.33626
4973430,0.04000,84.1875,104,48,0.33187
4973440,0.05000,89.3125,104,48,0.32698
4973450,0.06000,94.0000,104,48,0.32210
4973460,0.06500,101.6250,104,48,0.31233
4973470,0.07000,104.5000,104,48,0.30769
4973480,0.08500,106.6250,104,48,0.30330
4973490,0.10000,108.0625,104,48,0.29890
4973500,0.11000,109.3125,104,48,0.29133
4973510,0.12000,109.1875,104,48,0.28889
4973520,0.13000,108.6875,104,48,0.28718
4973530,0.13500,107.9375,104,48,0.28474
4973540,0.14000,105.7500,104,48,0.27912
4973550,0.14500,104.4375,104,48,0.27619
4973560,0.14500,103.0000,104,48,0.27302
4973570,0.14500,101.5000,104,48,0.27009
4973580,0.13000,98.3750,104,48,0.26398
4973590,0.10000,96.8750,104,48,0.26081
4973600,0.07000,95.3125,104,48,0.25763
4973610,0.04500,93.8125,104,48,0.25470
4973620,0.03000,90.6250,104,48,0.25226
4973630,0.02000,88.9375,104,48,0.25128
4973640,0.01000,87.1250,104,48,0.25104
4973650,0.00500,85.1250,104,48,0.25226
4973660,0.00000,80.6250,104,48,0.26276
4973670,0.00500,78.3750,104,48,0.27326
4973680,0.01500,76.3750,104,48,0.28791
4973690,0.02500,74.6250,104,48,0.30696
4973700,0.03500,71.9375,104,48,0.35653
4973710,0.04000,71.0000,104,48,0.38169
4973720,0.04000,70.2500,104,48,0.40635
4973730,0.03500,69.0625,104,48,0.43468
4973740,0.03000,68.6250,104,48,0.49451
4973750,0.01500,68.1875,104,48,0.52357
4973760,0.00500,67.8125,104,48,0.55140
4973770,-0.01000,67.5000,104,48,0.57729
4973780,-0.02500,66.7500,104,48,0.62271
4973790,-0.04000,66.3750,104,48,0.64200
4973800,-0.05500,65.9375,104,48,0.65861
4973810,-0.06500,65.5000,104,48,0.67277
4973820,-0.07000,64.5000,104,48,0.68962
4973830,-0.07500,64.0625,104,48,0.69621
4973840,-0.07000,63.5625,104,48,0.70159
4973850,-0.04500,63.0000,104,48,0.70549
4973860,-0.00500,62.0000,104,48,0.70867
4973870,0.01500,61.5000,104,48,0.70794
4973880,0.01000,61.0000,104,48,0.70598
4973890,-0.02500,60.5625,104,48,0.70281
4973900,-0.05500,59.7500,104,48,0.70891
4973910,-0.07000,59.3125,104,48,0.70696
4973920,-0.07500,58.9375,104,48,0.70183
4973930,-0.06500,58.5625,104,48,0.69426
4973940,-0.04500,57.8750,104,48,0.67473
4973950,-0.04500,57.5000,104,48,0.66349
4973960,-0.05000,57.1875,104,48,0.65177
4973970,-0.02500,56.8750,104,48,0.63980
4973980,0.01000,56.3125,104,48,0.61563
4973990,0.02000,56.0625,104,48,0.60415
4974000,-0.00500,55.8750,105,48,0.59292
4974010,0.02000,55.7500,105,48,0.58217
4974020,0.31000,55.5000,105,48,0.56386
4974030,0.89500,55.3750,105,48,0.55458
4974040,1.17000,55.1875,105,48,0.54530
4974050,0.67000,54.8750,105,48,0.53602
4974060,-0.01500,54.3125,105,48,0.51770
4974070,-0.34500,53.9375,105,48,0.50891
4974080,-0.36500,53.5625,105,48,0.50037
4974090,-0.26000,53.1875,105,48,0.49182
4974100,-0.19000,52.4375,105,48,0.47473
4974110,-0.18000,52.0625,105,48,0.46740
4974120,-0.18000,51.7500,105,48,0.46056
4974130,-0.20000,51.3750,105,48,0.45275
4974140,-0.21000,50.7500,105,48,0.43663
4974150,-0.19500,50.4375,105,48,0.42857
4974160,-0.13000,50.0625,105,48,0.42100
4974170,-0.00500,49.8125,105,48,0.41343
4974180,0.13000,49.8750,105,48,0.39902
4974190,0.21000,50.7500,105,48,0.39219
4974200,0.23500,52.6875,105,48,0.38535
4974210,0.18500,55.9375,105,48,0.37851
4974220,0.09500,65.5000,105,48,0.36850
4974230,0.00000,71.0000,105,48,0.36313
4974240,0.02500,76.5625,105,48,0.35726
4974250,0.16500,82.1250,105,48,0.35140
4974260,0.25500,88.6875,105,48,0.34400
4974270,0.27250,95.1875,105,48,0.33609
4974280,0.24500,100.5625,105,48,0.32869
4974290,0.20000,103.7500,105,48,0.32283
4974300,0.15000,108.0000,105,48,0.31184
4974310,0.11000,109.1250,105,48,0.30769
4974320,0.09000,109.6875,105,48,0.30427
4974330,0.07000,109.6875,105,48,0.30012
4974340,0.05500,108.6875,105,48,0.29035
4974350,0.03500,107.7500,105,48,0.28547
4974360,-0.01500,106.6250,105,48,0.28059
4974370,-0.05500,105.3125,105,48,0.27570
4974380,-0.07500,102.5000,105,48,0.26667
4974390,-0.09500,101.0000,105,48,0.26227
4974400,-0.12500,99.5625,105,48,0.25788
4974410,-0.15500,98.0625,105,48,0.25372
4974420,-0.18000,95.1250,105,48,0.24884
4974430,-0.21000,93.6875,105,48,0.24591
4974440,-0.23000,92.2500,105,48,0.24249
4974450,-0.24000,90.6875,105,48,0.23932
4974460,-0.24000,87.1875,105,48,0.23712
4974470,-0.24500,85.1250,105,48,0.23932
4974480,-0.25000,82.8750,105,48,0.24493
4974490,-0.25000,80.5625,105,48,0.25446
4974500,-0.25000,76.0625,105,48,0.28718
4974510,-0.25500,74.2500,105,48,0.30696
4974520,-0.26000,72.7500,105,48,0.32869
4974530,-0.26000,71.5000,105,48,0.35507
4974540,-0.25500,69.6250,105,48,0.41661
4974550,-0.25000,68.9375,105,48,0.44908
4974560,-0.25500,68.3125,105,48,0.48156
4974570,-0.27000,67.8750,105,48,0.51331
4974580,-0.29500,67.1250,105,48,0.57241
4974590,-0.33000,66.7500,105,48,0.59902
4974600,-0.37500,66.4375,105,48,0.62344
4974610,-0.44000,66.1250,105,48,0.64518
4974620,-0.51000,65.4375,105,48,0.67497
4974630,-0.51000,65.1250,105,48,0.68791
4974640,-0.33500,64.7500,105,48,0.69963
4974650,-0.10500,64.4375,105,48,0.70940
4974660,0.04000,63.6875,105,48,0.72308
4974670,0.11000,63.3750,105,48,0.72698
4974680,0.17500,63.0000,105,48,0.72918
4974690,0.25500,62.6250,105,48,0.72991
4974700,0.32000,61.8125,105,48,0.72698
4974710,0.31500,61.4375,105,48,0.72332
4974720,0.23500,61.0000,105,48,0.71819
4974730,0.11500,60.6250,105,48,0.71233
4974740,0.02000,59.7500,105,48,0.69768
4974750,-0.03500,59.3125,105,48,0.68889
4974760,-0.08000,58.9375,105,48,0.67912
4974770,-0.09500,58.5000,105,48,0.66862
4974780,-0.12000,57.5625,105,48,0.64567
4974790,-0.15000,57.1875,105,48,0.63394
4974800,-0.17000,56.8125,105,48,0.62222
4974810,-0.16000,56.5625,105,48,0.61148
4974820,-0.11500,56.0000,105,48,0.59096
4974830,-0.08500,55.8125,105,48,0.58022
4974840,0.07000,55.6250,105,48,0.56972
4974850,0.54500,55.4375,105,48,0.55946
4974860,1.05500,54.9375,105,48,0.53993
4974870,0.88000,54.6250,105,48,0.53065
4974880,0.17000,54.3125,105,48,0.52161
4974890,-0.35000,53.9375,105,48,0.51282
4974900,-0.50000,53.1875,105,48,0.49548
4974910,-0.42500,52.8125,105,48,0.48816
4974920,-0.33000,52.5000,105,48,0.48156
4974930,-0.31000,52.1875,105,48,0.47448
4974940,-0.30500,51.5625,105,48,0.45983
4974950,-0.30000,51.3125,105,48,0.45250
4974960,-0.29500,51.0000,105,48,0.44542
4974970,-0.30000,50.6875,105,48,0.43834
4974980,-0.29500,50.0625,105,48,0.42466
4974990,-0.30000,49.8750,105,48,0.41807
4975000,-0.32000,49.7500,106,49,0.41148
4975010,-0.33500,49.9375,106,49,0.40586
4975020,-0.32500,52.8750,106,49,0.39560
4975030,-0.30000,56.1250,106,49,0.38974
4975040,-0.26500,60.6250,106,49,0.38388
4975050,-0.23000,65.7500,106,49,0.37778
4975060,-0.19500,76.8750,106,49,0.36606
4975070,-0.17000,82.3750,106,49,0.36020
4975080,-0.14500,87.6875,106,49,0.35458
4975090,-0.11500,92.6250,106,49,0.34921
4975100,-0.08500,100.9375,106,49,0.33895
4975110,-0.04500,104.1250,106,49,0.33529
4975120,-0.01500,106.5625,106,49,0.33211
4975130,-0.00500,108.3125,106,49,0.32845
4975140,0.00000,110.0000,106,49,0.31990
4975150,0.00000,110.0625,106,49,0.31526
4975160,0.00000,109.7500,106,49,0.31038
4975170,0.00500,109.1250,106,49,0.30598
4975180,0.01500,107.1250,106,49,0.29719
4975190,0.02500,105.8750,106,49,0.29304
4975200,0.03500,104.5000,106,49,0.28889
4975210,0.04000,103.0625,106,49,0.28596
4975220,0.03000,100.1250,106,49,0.28034
4975230,0.00500,98.6250,106,49,0.27643
4975240,-0.02000,97.1250,106,49,0.27228
4975250,-0.04500,95.6250,106,49,0.26789
4975260,-0.05500,92.6875,106,49,0.25958
4975270,-0.07000,91.1875,106,49,0.25617
4975280,-0.08000,89.5625,106,49,0.25397
4975290,-0.09500,86.7396,106,49,0.25621
4975300,-0.11000,83.6875,106,49,0.26203
4975310,-0.12000,81.3750,106,49,0.27057
4975320,-0.11500,79.0625,106,49,0.28205
4975330,-0.09500,77.0000,106,49,0.29817
4975340,-0.07500,73.5625,106,49,0.34383
4975350,-0.06500,72.2500,106,49,0.37192
4975360,-0.06500,71.1875,106,49,0.40269
4975370,-0.07500,70.2500,106,49,0.43492
4975380,-0.07500,68.8125,106,49,0.50037
4975390,-0.08500,68.1875,106,49,0.53211
4975400,-0.09500,67.6875,106,49,0.56264
4975410,-0.12000,67.2500,106,49,0.58779
4975420,-0.14000,66.4375,106,49,0.63175
4975430,-0.15500,66.0000,106,49,0.65324
4975440,-0.16000,65.6250,106,49,0.67302
4975450,-0.15000,65.3125,106,49,0.69084
4975460,-0.11500,64.5625,106,49,0.71844
4975470,-0.07500,64.1875,106,49,0.72845
4975480,-0.02500,63.8125,106,49,0.73602
4975490,0.02500,63.4375,106,49,0.74139
4975500,0.07000,62.6875,106,49,0.74701
4975510,0.10000,62.3125,106,49,0.74676
4975520,0.15500,61.8750,106,49,0.74505
4975530,0.21000,61.5000,106,49,0.74261
4975540,0.23000,60.6875,106,49,0.73480
4975550,0.21500,60.2500,106,49,0.72943
4975560,0.21500,59.8750,106,49,0.72308
4975570,0.18500,59.5000,106,49,0.71551
4975580,0.11000,58.6875,106,49,0.69719
4975590,0.04000,58.3125,106,49,0.68669
4975600,-0.02500,57.9375,106,49,0.67546
4975610,-0.07500,57.5625,106,49,0.66447
4975620,-0.11500,56.8750,106,49,0.64200
4975630,-0.16000,56.5625,106,49,0.63004
4975640,-0.21500,56.3125,106,49,0.61832
4975650,-0.29000,56.1250,106,49,0.60659
4975660,-0.25500,55.8750,106,49,0.58413
4975670,0.10500,55.7500,106,49,0.57338
4975680,0.71000,55.5625,106,49,0.56313
4975690,0.86000,55.3125,106,49,0.55311
4975700,0.33000,54.5625,106,49,0.53382
4975710,-0.24500,54.1250,106,49,0.52552
4975720,-0.46500,53.6250,106,49,0.51795
4975730,-0.39500,53.1250,106,49,0.51013
4975740,-0.27000,52.2500,106,49,0.49377
4975750,-0.22000,51.8750,106,49,0.48547
