RelativeTimeMilliseconds,ECG,ART,ART (Sys),ART (Dia),PPG
4986570,-0.19000,48.7500,109,50,0.42418
4986580,-0.19000,48.1250,109,50,0.41148
4986590,-0.18000,47.8750,109,50,0.40635
4986600,-0.17000,47.7500,109,50,0.40195
4986610,-0.16500,47.8750,109,50,0.39658
4986620,-0.15500,50.1875,109,50,0.38510
4986630,-0.14000,53.0625,109,50,0.37924
4986640,-0.12500,57.1250,109,50,0.37314
4986650,-0.11000,62.0000,109,50,0.36728
4986660,-0.09500,72.3750,109,50,0.35385
4986670,-0.07500,77.6250,109,50,0.34945
4986680,-0.06000,82.6250,109,50,0.34457
4986690,-0.04500,87.3125,109,50,0.33944
4986700,-0.02500,95.2500,109,50,0.33236
4986710,-0.01000,98.3125,109,50,0.32845
4986720,0.00000,100.6875,109,50,0.32405
4986730,0.01000,102.4375,109,50,0.31966
4986740,0.01500,104.0000,109,50,0.31062
4986750,0.02000,104.0625,109,50,0.30598
4986760,0.03000,103.7500,109,50,0.30159
4986770,0.04000,103.0625,109,50,0.29719
4986780,0.05000,100.9375,109,50,0.28864
4986790,0.06000,99.6875,109,50,0.28571
4986800,0.07500,98.3125,109,50,0.28376
4986810,0.08000,96.9375,109,50,0.28083
4986820,0.07000,94.0000,109,50,0.27375
4986830,0.05000,92.5625,109,50,0.27009
4986840,0.02000,91.1250,109,50,0.26618
4986850,0.00000,89.6875,109,50,0.26227
4986860,-0.01500,86.8125,109,50,0.25470
4986870,-0.02000,85.3125,109,50,0.25104
4986880,-0.02500,83.6250,109,50,0.24811
4986890,-0.02000,81.7500,109,50,0.24664
4986900,-0.02000,77.5625,109,50,0.25104
4986910,-0.01500,75.5000,109,50,0.25665
4986920,-0.01500,73.5000,109,50,0.26569
4986930,-0.01500,71.7500,109,50,0.27888
4986940,-0.01500,69.0625,109,50,0.31770
4986950,-0.01500,68.0625,109,50,0.34237
4986960,-0.01000,67.1875,109,50,0.36996
4986970,-0.01500,65.8125,109,50,0.42979
4986980,-0.02000,65.3125,109,50,0.46032
4986990,-0.02500,64.8750,109,50,0.48669
4987000,-0.02500,64.5000,109,50,0.51038
4987010,-0.02500,64.1250,109,50,0.53553
4987020,-0.03500,63.4375,109,50,0.58437
4987030,-0.04000,63.1250,109,50,0.60611
4987040,-0.04500,62.8125,109,50,0.62589
4987050,-0.04500,62.5000,109,50,0.64347
4987060,-0.04500,61.8125,109,50,0.67179
4987070,-0.04500,61.4375,109,50,0.68254
4987080,-0.03500,61.0625,109,50,0.69109
4987090,-0.02500,60.7500,109,50,0.69744
4987100,0.00000,60.0000,109,50,0.70208
4987110,0.03500,59.6250,109,50,0.70305
4987120,0.04500,59.2500,109,50,0.70281
4987130,0.02500,58.8750,109,50,0.70159
4987140,-0.01500,58.1250,109,50,0.69548
4987150,-0.05500,57.7500,109,50,0.69060
4987160,-0.08500,57.3750,109,50,0.68449
4987170,-0.10500,57.0000,109,50,0.67717
4987180,-0.11500,56.2500,109,50,0.65958
4987190,-0.11500,55.8750,109,50,0.65055
4987200,-0.11500,55.5000,109,50,0.64127
4987210,-0.11500,55.1250,109,50,0.63126
4987220,-0.11500,54.4375,109,50,0.61001
4987230,-0.10500,54.1875,109,50,0.59927
4987240,-0.10500,53.9375,109,50,0.58852
4987250,-0.11500,53.6875,109,50,0.57802
4987260,0.00500,53.3125,109,50,0.55775
4987270,0.42500,53.1875,109,50,0.54823
4987280,0.99000,53.0000,109,50,0.53871
4987290,1.00500,52.7500,109,50,0.52967
4987300,0.33500,52.2500,109,50,0.51429
4987310,-0.24000,51.9375,109,50,0.50647
4987320,-0.43500,51.6250,109,50,0.49866
4987330,-0.37500,51.3125,109,50,0.49084
4987340,-0.26500,50.6875,109,50,0.47595
4987350,-0.22000,50.3125,109,50,0.46911
4987360,-0.21000,50.0625,109,50,0.46227
4987370,-0.20000,49.7500,109,50,0.45568
4987380,-0.19000,49.1250,109,50,0.44249
4987390,-0.18000,48.8125,109,50,0.43687
4987400,-0.18000,48.5000,109,50,0.43175
4987410,-0.17000,48.1875,109,50,0.42589
4987420,-0.16500,47.8750,109,50,0.41270
4987430,-0.15500,48.0000,109,50,0.40635
4987440,-0.15000,48.8125,109,50,0.40000
4987450,-0.13500,50.5625,109,50,0.39390
4987460,-0.12500,57.8125,109,50,0.38193
4987470,-0.10500,62.7500,109,50,0.37631
4987480,-0.09500,68.0625,109,50,0.37070
4987490,-0.08500,73.3125,109,50,0.36532
4987500,-0.07000,83.6250,109,50,0.35775
4987510,-0.05500,88.3750,109,50,0.35336
4987520,-0.04500,92.6250,109,50,0.34750
4987530,-0.03000,96.3750,109,50,0.34212
4987540,-0.02000,101.8125,109,50,0.33431
4987550,-0.00500,103.5625,109,50,0.32967
4987560,0.01000,104.6250,109,50,0.32503
4987570,0.02500,105.1875,109,50,0.32063
4987580,0.03000,105.0500,109,50,0.31563
4987590,0.03584,104.4188,109,50,0.31062
4987600,0.04500,103.5000,109,50,0.30623
4987610,0.06000,102.5000,109,50,0.30305
4987620,0.07000,100.0000,109,50,0.29548
4987630,0.08000,98.6250,109,50,0.29158
4987640,0.08500,97.1250,109,50,0.28767
4987650,0.07500,94.2500,109,50,0.28254
4987660,0.05000,92.8750,109,50,0.27473
4987670,0.03000,91.4375,109,50,0.27106
4987680,0.01000,90.0625,109,50,0.26789
4987690,0.00000,88.6250,109,50,0.26520
4987700,-0.01000,85.5625,109,50,0.26154
4987710,-0.01000,83.8750,109,50,0.26032
4987720,-0.00500,81.8750,109,50,0.26056
4987730,-0.00500,79.7500,109,50,0.26325
4987740,-0.00500,75.4375,109,50,0.27863
4987750,0.00000,73.4375,109,50,0.29255
4987760,-0.00500,71.7500,109,50,0.31062
4987770,-0.01000,70.3125,109,50,0.33284
4987780,-0.01500,68.1875,109,50,0.39878
4987790,-0.01500,67.3125,109,50,0.41905
4987800,-0.02500,66.6250,109,50,0.44933
4987810,-0.02500,66.0625,109,50,0.48010
4987820,-0.03000,65.1250,109,50,0.52894
4987830,-0.03000,64.7500,109,50,0.56166
4987840,-0.03500,64.3750,109,50,0.59048
4987850,-0.03500,64.0625,109,50,0.61026
4987860,-0.04500,63.3750,109,50,0.65324
4987870,-0.04500,63.0625,109,50,0.67253
4987880,-0.05500,62.6875,109,50,0.68523
4987890,-0.05500,62.3750,109,50,0.69499
4987900,-0.05500,61.6250,109,50,0.71111
4987910,-0.05000,61.3125,109,50,0.71941
4987920,-0.03500,60.9375,109,50,0.72479
4987930,0.00000,60.5625,109,50,0.72772
4987940,0.02000,59.7500,109,50,0.72796
4987950,0.01500,59.3125,109,50,0.72698
4987960,-0.02000,58.9375,109,50,0.72405
4987970,-0.06000,58.5000,109,50,0.71893
4987980,-0.09000,57.7500,109,50,0.70794
4987990,-0.11000,57.3750,109,50,0.70134
4988000,-0.12500,57.0000,109,50,0.69133
4988010,-0.12500,56.6250,109,50,0.68107
4988020,-0.13000,55.9375,109,50,0.65958
4988030,-0.13000,55.5625,109,50,0.64835
4988040,-0.12500,55.2500,109,50,0.63687
4988050,-0.12500,54.8750,109,50,0.62540
4988060,-0.12000,54.3125,109,50,0.60269
4988070,-0.12000,54.1250,109,50,0.59170
4988080,-0.09000,53.9375,109,50,0.58169
4988090,0.16500,53.7500,109,50,0.57265
4988100,0.73000,53.4375,109,50,0.55751
4988110,1.11000,53.1875,109,50,0.54652
4988120,0.72000,52.9375,109,50,0.53651
4988130,0.02500,52.6250,109,50,0.52723
4988140,-0.35000,52.0625,109,50,0.50940
4988150,-0.40000,51.7500,109,50,0.50085
4988160,-0.29500,51.3750,109,50,0.49255
4988170,-0.22000,51.0625,109,50,0.48474
4988180,-0.20000,50.3125,109,50,0.47082
4988190,-0.19000,50.0000,109,50,0.46496
4988200,-0.18500,49.6875,109,50,0.45836
4988210,-0.18000,49.3125,109,50,0.45177
4988220,-0.17500,48.6875,109,50,0.43858
4988230,-0.17000,48.4375,109,50,0.43468
4988240,-0.17000,48.1875,109,50,0.43175
4988250,-0.16000,48.0625,109,50,0.42711
4988260,-0.15500,48.8750,109,50,0.41514
4988270,-0.14500,50.5625,109,50,0.40879
4988280,-0.13000,53.5625,109,50,0.40342
4988290,-0.11500,57.7500,109,50,0.39878
4988300,-0.10000,68.0625,109,50,0.38803
4988310,-0.08500,73.4375,109,50,0.38242
4988320,-0.07000,78.7500,109,50,0.37656
4988330,-0.05500,83.8750,109,50,0.37070
4988340,-0.04500,93.0625,109,50,0.35922
4988350,-0.02500,96.8750,109,50,0.35385
4988360,-0.01000,100.0625,109,50,0.34872
4988370,0.00500,102.5000,109,50,0.34383
4988380,0.02000,105.3750,109,50,0.33578
4988390,0.03000,106.0000,109,50,0.33284
4988400,0.03000,106.1875,109,50,0.32918
4988410,0.04000,106.0625,109,50,0.32503
4988420,0.04500,104.9375,109,50,0.31648
4988430,0.05500,104.0625,109,50,0.31209
4988440,0.06000,103.0000,109,50,0.30769
4988450,0.07000,101.8125,109,50,0.30330
4988460,0.07000,99.1250,109,50,0.29451
4988470,0.06000,97.6875,109,50,0.29035
4988480,0.04000,96.1875,109,50,0.28742
4988490,0.01000,94.6250,109,50,0.28498
4988500,-0.01000,91.5625,109,50,0.27766
4988510,-0.01500,90.0000,109,50,0.27375
4988520,-0.01500,88.5000,109,50,0.27057
4988530,-0.01500,86.8750,109,50,0.26838
4988540,-0.01500,83.1875,109,50,0.27057
4988550,-0.01000,81.1250,109,50,0.27668
4988560,-0.00500,78.8750,109,50,0.28694
4988570,0.00000,76.6250,109,50,0.30134
4988580,0.00500,72.8125,109,50,0.33993
4988590,0.00000,71.3125,109,50,0.36142
4988600,0.00000,70.0000,109,50,0.38755
4988610,0.00083,68.5417,109,50,0.43289
4988620,0.00000,67.3125,109,50,0.48010
4988630,-0.00500,66.6875,109,50,0.51184
4988640,-0.01000,66.1875,109,50,0.54286
4988650,-0.01500,65.7500,109,50,0.57265
4988660,-0.01500,64.9375,109,50,0.62662
4988670,-0.01500,64.5000,109,50,0.65031
4988680,-0.02000,64.1250,109,50,0.66886
4988690,-0.02000,63.7500,109,50,0.68376
4988700,-0.02500,63.0625,109,50,0.71331
4988710,-0.02500,62.6875,109,50,0.72552
4988720,-0.02500,62.3750,109,50,0.73553
4988730,-0.02500,62.0625,109,50,0.74359
4988740,-0.01000,61.3750,109,50,0.75409
4988750,0.02000,61.0000,109,50,0.75678
4988760,0.05000,60.6250,109,50,0.75751
4988770,0.05500,60.2500,109,50,0.75702
4988780,0.03000,59.4375,109,50,0.75140
4988790,-0.00500,59.0000,109,50,0.74652
4988800,-0.04500,58.6250,109,50,0.74090
4988810,-0.07500,58.1875,109,50,0.73431
4988820,-0.10000,57.3125,109,50,0.71795
4988830,-0.11000,56.9375,109,50,0.70818
4988840,-0.11500,56.5625,109,50,0.69768
4988850,-0.11000,56.1875,109,50,0.68645
4988860,-0.11000,55.5000,109,50,0.66300
4988870,-0.11000,55.1250,109,50,0.65104
4988880,-0.11000,54.8125,109,50,0.64005
4988890,-0.10500,54.5625,109,50,0.62955
4988900,-0.11500,54.1250,109,50,0.60781
4988910,-0.01000,53.9375,109,50,0.59683
4988920,0.40000,53.7500,109,50,0.58584
4988930,0.98000,53.6250,109,50,0.57509
4988940,1.02000,53.1875,109,50,0.55482
4988950,0.39500,52.9375,109,50,0.54505
4988960,-0.20000,52.6250,109,50,0.53553
4988970,-0.43500,52.3125,109,50,0.52650
4988980,-0.38500,51.6875,109,50,0.50989
4988990,-0.28000,51.3125,109,50,0.50281
4989000,-0.24000,51.0000,108,50,0.49524
4989010,-0.23000,50.6875,108,50,0.48767
4989020,-0.23000,50.0000,108,50,0.47253
4989030,-0.23000,49.6875,108,50,0.46496
4989040,-0.22500,49.3750,108,50,0.45763
4989050,-0.22000,49.0625,108,50,0.45031
4989060,-0.20500,48.4375,108,50,0.43614
4989070,-0.19000,48.2500,108,50,0.42930
4989080,-0.18000,48.3125,108,50,0.42369
4989090,-0.17000,48.8125,108,50,0.41880
4989100,-0.16000,53.1250,108,50,0.40684
4989110,-0.15000,57.1875,108,50,0.40073
4989120,-0.14000,62.0625,108,50,0.39463
4989130,-0.13000,67.3125,108,50,0.38852
4989140,-0.11500,78.0000,108,50,0.37656
4989150,-0.09500,83.1875,108,50,0.37070
4989160,-0.08500,88.0000,108,50,0.36484
4989170,-0.06500,96.3125,108,50,0.35922
4989180,-0.04500,99.6250,108,50,0.34969
4989190,-0.02000,102.1875,108,50,0.34628
4989200,-0.00500,104.1250,108,50,0.34212
4989210,0.01000,105.4375,108,50,0.33748
4989220,0.01000,106.4375,108,50,0.32845
4989230,0.01000,106.3125,108,50,0.32405
4989240,0.01000,105.8750,108,50,0.31966
4989250,0.01500,105.1875,108,50,0.31526
4989260,0.02500,103.1250,108,50,0.30623
4989270,0.03500,101.8750,108,50,0.30183
4989280,0.04500,100.5000,108,50,0.29890
4989290,0.05000,99.0625,108,50,0.29646
4989300,0.04000,96.0625,108,50,0.28938
4989310,0.02000,94.6250,108,50,0.28523
4989320,0.00000,93.1875,108,50,0.28107
4989330,-0.01000,91.8125,108,50,0.27692
4989340,-0.02000,88.9375,108,50,0.26984
4989350,-0.02500,87.4375,108,50,0.26764
4989360,-0.03000,85.8125,108,50,0.26740
4989370,-0.02500,84.0000,108,50,0.26960
4989380,-0.03000,79.8750,108,50,0.28254
4989390,-0.02500,77.6875,108,50,0.29451
4989400,-0.02500,75.5625,108,50,0.31087
4989410,-0.01500,73.6875,108,50,0.33138
4989420,-0.00500,70.6875,108,50,0.38413
4989430,0.00000,69.5625,108,50,0.41441
4989440,0.01000,68.6250,108,50,0.44591
4989450,0.03000,67.8125,108,50,0.47790
4989460,0.04500,66.5000,108,50,0.54115
4989470,0.06500,65.9375,108,50,0.57094
4989480,0.08500,65.5000,108,50,0.59560
4989490,0.11000,65.0625,108,50,0.61661
4989500,0.15500,64.3750,108,50,0.65983
4989510,0.21500,64.0000,108,50,0.67961
4989520,0.25500,63.6250,108,50,0.69695
4989530,0.26500,63.2500,108,50,0.71209
4989540,0.24500,62.5000,108,50,0.73529
4989550,0.21000,62.1250,108,50,0.74359
4989560,0.17500,61.7500,108,50,0.74994
4989570,0.15500,61.3750,108,50,0.75433
4989580,0.15000,60.6250,108,50,0.75580
4989590,0.14000,60.2500,108,50,0.75531
4989600,0.09500,59.8750,108,50,0.75385
4989610,0.03000,59.5000,108,50,0.75165
4989620,-0.03500,58.7500,108,50,0.74359
4989630,-0.08500,58.2917,108,50,0.73724
4989640,-0.12500,57.9375,108,50,0.73089
4989650,-0.15500,57.5000,108,50,0.72283
4989660,-0.17000,56.6875,108,50,0.70354
4989670,-0.17500,56.2500,108,50,0.69280
4989680,-0.18000,55.8750,108,50,0.68205
4989690,-0.18000,55.5000,108,50,0.67131
4989700,-0.17500,54.8125,108,50,0.64811
4989710,-0.17500,54.5625,108,50,0.63639
4989720,-0.19000,54.3125,108,50,0.62491
4989730,-0.15500,54.1250,108,50,0.61368
4989740,0.16500,53.7500,108,50,0.59194
4989750,0.77500,53.5625,108,50,0.58169
4989760,1.04500,53.3125,108,50,0.57192
4989770,0.56000,53.1250,108,50,0.56239
4989780,-0.15500,52.6250,108,50,0.54603
4989790,-0.50000,52.3750,108,50,0.53773
4989800,-0.48500,52.0625,108,50,0.52943
4989810,-0.36500,51.6875,108,50,0.52112
4989820,-0.30500,51.0625,108,50,0.50501
4989830,-0.29000,50.8125,108,50,0.49670
4989840,-0.28000,50.5625,108,50,0.48889
4989850,-0.27000,50.2500,108,50,0.48107
4989860,-0.27000,49.6250,108,50,0.46569
4989870,-0.26000,49.2500,108,50,0.45812
4989880,-0.26000,48.9375,108,50,0.45177
4989890,-0.25000,48.6875,108,50,0.44591
4989900,-0.24000,48.6250,108,50,0.43321
4989910,-0.23000,49.3125,108,50,0.42662
4989920,-0.22000,51.0625,108,50,0.42002
4989930,-0.21000,58.5000,108,50,0.41343
4989940,-0.20000,63.6250,108,50,0.40024
4989950,-0.18000,69.1250,108,50,0.39365
4989960,-0.16000,74.6875,108,50,0.38706
4989970,-0.13500,80.1250,108,50,0.38071
4989980,-0.11500,90.1875,108,50,0.37118
4989990,-0.10000,94.5625,108,50,0.36606
4990000,-0.08500,98.3750,108,50,0.36068
4990010,-0.07000,101.5000,108,50,0.35531
4990020,-0.05500,105.5625,108,50,0.34481
4990030,-0.04000,106.6875,108,50,0.33968
4990040,-0.03500,107.1875,108,50,0.33480
4990050,-0.02500,107.3125,108,50,0.32991
4990060,-0.02000,106.5625,108,50,0.32063
4990070,-0.01500,105.7500,108,50,0.31624
4990080,-0.00500,104.8125,108,50,0.31306
4990090,0.01000,103.6875,108,50,0.31062
4990100,0.01500,101.0625,108,50,0.30354
4990110,0.02500,99.7500,108,50,0.29963
4990120,0.02000,98.3750,108,50,0.29573
4990130,0.01000,96.9375,108,50,0.29158
4990140,-0.00500,94.1875,108,50,0.28327
4990150,-0.02500,92.7500,108,50,0.27912
4990160,-0.04000,91.3750,108,50,0.27497
4990170,-0.05500,90.0000,108,50,0.27179
4990180,-0.06500,86.9375,108,50,0.27131
4990190,-0.07000,85.1875,108,50,0.27350
4990200,-0.06500,83.1875,108,50,0.27839
4990210,-0.06000,81.0625,108,50,0.28718
4990220,-0.05500,76.7500,108,50,0.31770
4990230,-0.05500,74.8750,108,50,0.33993
4990240,-0.05500,73.2500,108,50,0.36581
4990250,-0.05500,71.9375,108,50,0.39463
4990260,-0.05500,69.8125,108,50,0.45812
4990270,-0.05500,69.0625,108,50,0.49084
4990280,-0.06000,68.4375,108,50,0.51600
4990290,-0.06500,67.8750,108,50,0.53724
4990300,-0.07000,66.9375,108,50,0.58974
4990310,-0.07000,66.5000,108,50,0.61587
4990320,-0.07000,66.0625,108,50,0.64029
4990330,-0.06500,65.6875,108,50,0.66252
4990340,-0.06500,64.9375,108,50,0.69963
4990350,-0.06500,64.5625,108,50,0.71453
4990360,-0.06500,64.1875,108,50,0.72723
4990370,-0.05500,63.8125,108,50,0.73773
4990380,-0.05500,63.0000,108,50,0.74823
4990390,-0.05000,62.6250,108,50,0.75189
4990400,-0.02500,62.1875,108,50,0.75482
4990410,0.00500,61.8125,108,50,0.75629
4990420,0.01500,60.9375,108,50,0.75507
4990430,-0.00500,60.5000,108,50,0.75238
4990440,-0.04500,60.1250,108,50,0.74847
4990450,-0.07500,59.6875,108,50,0.74335
4990460,-0.10000,58.8750,108,50,0.72991
4990470,-0.12500,58.4375,108,50,0.72161
4990480,-0.13500,58.0625,108,50,0.71282
4990490,-0.13500,57.6250,108,50,0.70330
4990500,-0.13500,56.8750,108,50,0.68205
4990510,-0.13500,56.5000,108,50,0.67057
4990520,-0.13000,56.1875,108,50,0.65861
4990530,-0.12500,55.8750,108,50,0.64664
4990540,-0.12500,55.3750,108,50,0.62344
4990550,-0.14000,55.1250,108,50,0.61197
4990560,-0.04500,54.9375,108,50,0.60073
4990570,0.35500,54.7500,108,50,0.58999
4990580,0.98500,54.3125,108,50,0.57143
4990590,1.11000,54.1250,108,50,0.56215
4990600,0.42500,53.8750,108,50,0.55263
4990610,-0.26000,53.6250,108,50,0.54335
4990620,-0.48000,53.1250,108,50,0.52503
4990630,-0.41500,52.8750,108,50,0.51624
4990640,-0.30000,52.5625,108,50,0.50769
4990650,-0.26500,52.1875,108,50,0.49963
4990660,-0.25750,51.7083,108,50,0.48767
4990670,-0.26000,51.2500,108,50,0.47619
4990680,-0.25500,50.9375,108,50,0.46960
4990690,-0.24500,50.5625,108,50,0.46349
4990700,-0.24500,49.9375,108,50,0.44982
4990710,-0.23500,49.6250,108,50,0.44249
4990720,-0.23000,49.3750,108,50,0.43516
4990730,-0.22000,49.7500,108,50,0.42808
4990740,-0.22000,51.0625,108,50,0.41416
4990750,-0.22000,53.7500,108,50,0.40733
4990760,-0.22000,57.6875,108,50,0.40049
4990770,-0.21500,62.6875,108,50,0.39365
4990780,-0.20000,73.8750,108,50,0.38315
4990790,-0.18000,79.5000,108,50,0.37753
4990800,-0.16000,84.9375,108,50,0.37143
4990810,-0.14000,94.5625,108,50,0.36532
4990820,-0.12000,98.5625,108,50,0.35360
4990830,-0.09500,101.9375,108,50,0.34774
4990840,-0.08000,104.5625,108,50,0.34212
4990850,-0.06000,106.4375,108,50,0.33651
4990860,-0.04500,108.3125,108,50,0.32601
4990870,-0.03000,108.5625,108,50,0.32112
4990880,-0.02500,108.4375,108,50,0.31746
4990890,-0.01500,108.0000,108,50,0.31453
4990900,0.00000,106.4375,108,50,0.30647
4990910,0.01500,105.3750,108,50,0.30208
4990920,0.03000,104.1875,108,50,0.29768
4990930,0.04000,102.9375,108,50,0.29328
4990940,0.04000,100.1250,108,50,0.28498
4990950,0.04000,98.6250,108,50,0.28083
4990960,0.03000,97.0625,108,50,0.27668
4990970,0.01000,95.5000,108,50,0.27253
4990980,-0.00500,92.4375,108,50,0.26789
4990990,-0.02000,90.9375,108,50,0.26520
4991000,-0.03000,89.3750,107,49,0.26276
4991010,-0.03500,87.7500,107,49,0.26154
4991020,-0.03500,83.9375,107,49,0.26642
4991030,-0.03500,81.8125,107,49,0.27424
4991040,-0.02500,79.5000,107,49,0.28669
4991050,-0.02500,77.3750,107,49,0.30379
4991060,-0.02500,73.7500,107,49,0.35092
4991070,-0.02500,72.2500,107,49,0.37998
4991080,-0.03000,71.0000,107,49,0.40708
4991090,-0.03500,69.9375,107,49,0.43346
4991100,-0.03500,68.4375,107,49,0.49548
4991110,-0.04000,68.0000,107,49,0.52747
4991120,-0.04500,67.6250,107,49,0.55873
4991130,-0.05000,67.3125,107,49,0.58852
4991140,-0.05500,66.7500,107,49,0.64249
4991150,-0.05500,66.5000,107,49,0.66593
4991160,-0.05500,66.1875,107,49,0.68694
4991170,-0.05500,65.8125,107,49,0.70525
4991180,-0.05500,65.0000,107,49,0.72821
4991190,-0.05500,64.5625,107,49,0.73797
4991200,-0.04500,64.1250,107,49,0.74652
4991210,-0.03500,63.7500,107,49,0.75360
4991220,-0.01500,62.9375,107,49,0.76215
4991230,0.01000,62.5000,107,49,0.76410
4991240,0.04000,62.0000,107,49,0.76459
4991250,0.04000,61.5000,107,49,0.76361
4991260,0.01000,60.5625,107,49,0.75800
4991270,-0.03500,60.1250,107,49,0.75287
4991280,-0.06500,59.7500,107,49,0.74676
4991290,-0.09500,59.3750,107,49,0.73993
4991300,-0.12500,58.5000,107,49,0.72357
4991310,-0.13500,58.0000,107,49,0.71380
4991320,-0.13500,57.6250,107,49,0.70330
4991330,-0.13500,57.1875,107,49,0.69231
4991340,-0.13500,56.3750,107,49,0.66862
4991350,-0.13000,56.0000,107,49,0.65641
4991360,-0.12000,55.6875,107,49,0.64420
4991370,-0.12500,55.3750,107,49,0.63223
4991380,-0.12500,54.9375,107,49,0.61074
4991390,0.08000,54.6875,107,49,0.60000
4991400,0.62000,54.5000,107,49,0.58926
4991410,1.14000,54.2500,107,49,0.57875
4991420,0.93000,53.8125,107,49,0.55849
4991430,0.13000,53.5625,107,49,0.54872
4991440,-0.39000,53.3125,107,49,0.53919
4991450,-0.44500,53.0000,107,49,0.52991
4991460,-0.31500,52.5000,107,49,0.51160
4991470,-0.23500,52.1875,107,49,0.50379
4991480,-0.21500,51.8125,107,49,0.49646
4991490,-0.21000,51.5000,107,49,0.48864
4991500,-0.20000,50.8125,107,49,0.47253
4991510,-0.19500,50.4375,107,49,0.46422
4991520,-0.19000,50.1250,107,49,0.45617
4991530,-0.18500,49.7500,107,49,0.44835
4991540,-0.18000,49.2500,107,49,0.43346
4991550,-0.17000,49.1875,107,49,0.42613
4991560,-0.15500,49.5625,107,49,0.41880
4991570,-0.14000,50.7500,107,49,0.41172
4991580,-0.12500,57.1250,107,49,0.40073
4991590,-0.11500,62.1250,107,49,0.39487
4991600,-0.09500,67.6875,107,49,0.38852
4991610,-0.08000,73.4375,107,49,0.38193
4991620,-0.06000,84.5625,107,49,0.36899
4991630,-0.04500,89.6875,107,49,0.36264
4991640,-0.02500,94.2500,107,49,0.35629
4991650,-0.01000,98.2500,107,49,0.35018
4991660,0.00500,104.0000,107,49,0.33871
4991670,0.02000,105.7500,107,49,0.33455
4991680,0.03500,106.8958,107,49,0.33142
4991690,0.04000,107.4375,107,49,0.32625
4991700,0.04000,107.3750,107,49,0.31600
4991710,0.04000,106.8750,107,49,0.31087
4991720,0.05000,106.1250,107,49,0.30574
4991730,0.05000,105.1250,107,49,0.30085
4991740,0.06000,102.8125,107,49,0.29133
4991750,0.07000,101.5000,107,49,0.28669
4991760,0.08000,100.1875,107,49,0.28205
4991770,0.08500,98.8125,107,49,0.27741
4991780,0.07500,95.9375,107,49,0.27155
4991790,0.04500,94.5000,107,49,0.26764
4991800,0.03000,93.0625,107,49,0.26349
4991810,0.02000,91.6250,107,49,0.25934
4991820,0.01000,88.6875,107,49,0.25250
4991830,0.00000,87.0625,107,49,0.25079
4991840,0.00000,85.2500,107,49,0.25128
4991850,0.00000,83.1875,107,49,0.25470
4991860,0.00000,78.6875,107,49,0.27375
4991870,0.00500,76.4375,107,49,0.28767
4991880,0.00500,74.5000,107,49,0.30427
4991890,0.00000,72.7500,107,49,0.32625
4991900,-0.00500,70.0625,107,49,0.38169
4991910,-0.00500,69.0625,107,49,0.41343
4991920,-0.00500,68.3125,107,49,0.44615
4991930,-0.00500,67.6875,107,49,0.47912
4991940,-0.01000,66.8125,107,49,0.54310
4991950,-0.02000,66.4375,107,49,0.57314
4991960,-0.02500,66.1875,107,49,0.60122
4991970,-0.02500,65.8750,107,49,0.62686
4991980,-0.02500,65.2500,107,49,0.66325
4991990,-0.02500,64.9375,107,49,0.67985
4992000,-0.03000,64.5625,107,49,0.69524
4992010,-0.03500,64.1875,107,49,0.70867
4992020,-0.03000,63.3750,107,49,0.72894
4992030,-0.02500,63.0000,107,49,0.73602
4992040,-0.01000,62.5625,107,49,0.74139
4992050,0.02000,62.1250,107,49,0.74481
4992060,0.05500,61.1875,107,49,0.74701
4992070,0.06500,60.7500,107,49,0.74530
4992080,0.04500,60.3125,107,49,0.74237
4992090,0.01000,59.8750,107,49,0.73895
4992100,-0.02500,59.0000,107,49,0.72894
4992110,-0.05500,58.5625,107,49,0.72210
4992120,-0.08500,58.1875,107,49,0.71404
4992130,-0.09500,57.7500,107,49,0.70501
4992140,-0.10000,56.9375,107,49,0.68425
4992150,-0.10500,56.5625,107,49,0.67277
4992160,-0.10000,56.2500,107,49,0.66081
4992170,-0.10000,55.8750,107,49,0.64835
4992180,-0.09500,55.2500,107,49,0.62637
4992190,-0.09500,55.0000,107,49,0.61514
4992200,-0.10500,54.7500,107,49,0.60391
4992210,0.02000,54.5625,107,49,0.59267
4992220,0.45500,54.2500,107,49,0.57118
4992230,0.99000,54.0625,107,49,0.56068
4992240,0.94000,53.8750,107,49,0.55067
4992250,0.26500,53.6250,107,49,0.54090
4992260,-0.28000,53.0625,107,49,0.52210
4992270,-0.43500,52.7500,107,49,0.51429
4992280,-0.35500,52.4375,107,49,0.50720
4992290,-0.24000,52.0625,107,49,0.49939
4992300,-0.20000,51.3125,107,49,0.48327
4992310,-0.19000,51.0000,107,49,0.47546
4992320,-0.18000,50.6875,107,49,0.46789
4992330,-0.17000,50.3125,107,49,0.45885
4992340,-0.16000,49.6875,107,49,0.44103
4992350,-0.16000,49.3750,107,49,0.43321
4992360,-0.15500,49.0625,107,49,0.42589
4992370,-0.13500,48.8125,107,49,0.41905
4992380,-0.12000,49.1250,107,49,0.40806
4992390,-0.10500,50.3125,107,49,0.40195
4992400,-0.09000,52.6250,107,49,0.39560
4992410,-0.08000,56.3125,107,49,0.38926
4992420,-0.06500,66.1875,107,49,0.37656
4992430,-0.05000,71.6250,107,49,0.36996
4992440,-0.03500,77.0625,107,49,0.36361
4992450,-0.02000,82.3125,107,49,0.35726
4992460,-0.01000,91.5625,107,49,0.34505
4992470,0.00000,95.3750,107,49,0.34042
4992480,0.01500,98.5625,107,49,0.33675
4992490,0.03000,100.9375,107,49,0.33236
4992500,0.04000,103.7500,107,49,0.32234
4992510,0.05000,104.2500,107,49,0.31722
4992520,0.06000,104.2500,107,49,0.31209
4992530,0.06000,103.8125,107,49,0.30696
4992540,0.07000,102.1875,107,49,0.29719
4992550,0.08000,101.0625,107,49,0.29255
4992560,0.09500,99.7500,107,49,0.28791
4992570,0.10500,98.4375,107,49,0.28327
4992580,0.11500,95.5625,107,49,0.27790
4992590,0.11000,94.1250,107,49,0.27448
4992600,0.09000,92.6875,107,49,0.27057
4992610,0.06000,91.2500,107,49,0.26667
4992620,0.04000,88.4375,107,49,0.25836
4992630,0.02000,86.9375,107,49,0.25421
4992640,0.00500,85.4375,107,49,0.25031
4992650,-0.01000,83.7500,107,49,0.24713
4992660,-0.01500,79.8750,107,49,0.24591
4992670,-0.01500,77.6250,107,49,0.24884
4992680,-0.02000,75.4375,107,49,0.25470
4992690,-0.01500,73.3125,107,49,0.26398
4992700,-0.00500,71.1125,107,49,0.28449
4992710,-0.00250,69.1063,107,49,0.31172
4992720,-0.00500,67.5625,107,49,0.34115
4992730,-0.01000,66.7500,107,49,0.36825
4992740,-0.01500,65.5625,107,49,0.42735
4992750,-0.02000,65.1875,107,49,0.45739
4992760,-0.02500,64.8750,107,49,0.48694
4992770,-0.02500,64.5625,107,49,0.51526
4992780,-0.02500,64.0625,107,49,0.55873
4992790,-0.03000,63.8125,107,49,0.57998
4992800,-0.03500,63.5000,107,49,0.60049
4992810,-0.04000,63.1250,107,49,0.61929
4992820,-0.04000,62.4375,107,49,0.65079
4992830,-0.04000,62.0625,107,49,0.66300
4992840,-0.03500,61.6875,107,49,0.67302
4992850,-0.03000,61.3125,107,49,0.68107
4992860,-0.01500,60.5000,107,49,0.69133
4992870,0.00500,60.1250,107,49,0.69304
4992880,0.04000,59.6875,107,49,0.69280
4992890,0.06500,59.3125,107,49,0.69206
4992900,0.06000,58.4375,107,49,0.68767
4992910,0.02000,58.0625,107,49,0.68376
4992920,-0.02000,57.6875,107,49,0.67863
4992930,-0.05500,57.3125,107,49,0.67228
4992940,-0.07500,56.5000,107,49,0.65641
4992950,-0.09500,56.1875,107,49,0.64689
4992960,-0.09500,55.8125,107,49,0.63663
4992970,-0.09500,55.5000,107,49,0.62662
4992980,-0.09000,54.8750,107,49,0.60635
4992990,-0.08500,54.5000,107,49,0.59536
4993000,-0.07500,54.1875,107,49,0.58437
4993010,-0.08000,53.9375,107,49,0.57363
4993020,-0.09500,53.5625,107,49,0.55287
4993030,-0.07000,53.3750,107,49,0.54310
4993040,0.20500,53.2500,107,49,0.53358
4993050,0.77500,53.0625,107,49,0.52430
4993060,1.08500,52.6875,107,49,0.50696
4993070,0.64000,52.4375,107,49,0.49963
4993080,-0.02500,52.1250,107,49,0.49280
4993090,-0.36500,51.8125,107,49,0.48547
4993100,-0.40500,51.1250,107,49,0.47106
4993110,-0.29000,50.8125,107,49,0.46398
4993120,-0.21000,50.5000,107,49,0.45690
4993130,-0.19500,50.1875,107,49,0.44982
4993140,-0.18500,49.5625,107,49,0.43590
4993150,-0.18000,49.2500,107,49,0.42882
4993160,-0.17000,48.9375,107,49,0.42198
4993170,-0.16500,48.6250,107,49,0.41636
4993180,-0.15500,47.9375,107,49,0.40562
4993190,-0.15000,47.6875,107,49,0.39976
4993200,-0.13500,47.6250,107,49,0.39365
4993210,-0.13500,47.9375,107,49,0.38755
4993220,-0.12500,51.0625,107,49,0.37534
4993230,-0.11500,54.5000,107,49,0.36923
4993240,-0.10000,58.9375,107,49,0.36313
4993250,-0.08500,64.0000,107,49,0.35702
4993260,-0.06500,74.5000,107,49,0.34530
4993270,-0.05500,79.6875,107,49,0.34090
4993280,-0.04000,84.5625,107,49,0.33724
4993290,-0.02500,89.0625,107,49,0.33284
4993300,-0.00500,96.1875,107,49,0.32308
4993310,0.01500,98.8125,107,49,0.31819
4993320,0.03000,100.6875,107,49,0.31306
4993330,0.03500,101.9375,107,49,0.30818
4993340,0.04000,102.8750,107,49,0.29866
4993350,0.05000,102.6250,107,49,0.29426
4993360,0.06000,102.0625,107,49,0.29011
4993370,0.07000,101.1875,107,49,0.28718
4993380,0.08500,98.8750,107,49,0.28156
4993390,0.09500,97.5625,107,49,0.27790
4993400,0.10000,96.1250,107,49,0.27424
4993410,0.10000,93.1875,107,49,0.26642
4993420,0.09000,91.7500,107,49,0.26252
4993430,0.07000,90.3125,107,49,0.25861
4993440,0.05000,88.8750,107,49,0.25470
4993450,0.03000,87.4375,107,49,0.25055
4993460,0.01500,84.5625,107,49,0.24298
4993470,0.00000,82.9375,107,49,0.24103
4993480,-0.00500,81.1875,107,49,0.24054
4993490,-0.00500,79.3125,107,49,0.24054
4993500,-0.01000,75.1875,107,49,0.24762
4993510,-0.01500,73.2500,107,49,0.25641
4993520,-0.01500,71.5000,107,49,0.26911
4993530,-0.01500,70.0000,107,49,0.28620
4993540,-0.02000,67.7500,107,49,0.33187
4993550,-0.02500,66.9375,107,49,0.35922
4993560,-0.04000,66.2500,107,49,0.38852
4993570,-0.05000,65.6875,107,49,0.41514
4993580,-0.05500,64.7500,107,49,0.46740
4993590,-0.07000,64.3750,107,49,0.49548
4993600,-0.08500,64.0000,107,49,0.52283
4993610,-0.10500,63.6250,107,49,0.54872
4993620,-0.12500,62.9375,107,49,0.59512
4993630,-0.13500,62.5625,107,49,0.61490
4993640,-0.14500,62.1875,107,49,0.63223
4993650,-0.14500,61.8125,107,49,0.64713
4993660,-0.14000,61.1250,107,49,0.67033
4993670,-0.12000,60.7500,107,49,0.67717
4993680,-0.09500,60.3750,107,49,0.68181
4993690,-0.06500,59.6250,107,49,0.68596
4993700,-0.02500,59.2500,107,49,0.69109
4993710,0.02000,58.8125,107,49,0.69158
4993720,0.04000,58.4375,107,49,0.69084
4993730,0.02000,57.9375,107,49,0.68657
4993740,-0.02000,57.4375,107,49,0.68059
4993750,-0.06000,57.0625,107,49,0.67473
4993760,-0.08500,56.6875,107,49,0.66789
4993770,-0.10500,56.3125,107,49,0.66032
4993780,-0.10000,55.5625,107,49,0.64274
4993790,-0.08500,55.1875,107,49,0.63297
4993800,-0.06500,54.8125,107,49,0.62247
4993810,-0.05500,54.5000,107,49,0.61172
4993820,-0.04000,53.8125,107,49,0.58999
4993830,-0.03000,53.5625,107,49,0.57924
4993840,-0.02500,53.3125,107,49,0.56874
4993850,-0.04500,53.1250,107,49,0.55873
4993860,0.05000,52.8125,107,49,0.53944
4993870,0.46500,52.6875,107,49,0.53114
4993880,1.02000,52.5000,107,49,0.52357
4993890,0.98000,52.3750,107,49,0.51551
4993900,0.33500,51.9375,107,49,0.49915
4993910,-0.30500,51.6875,107,49,0.49109
4993920,-0.44500,51.3750,107,49,0.48327
4993930,-0.38500,51.0625,107,49,0.47546
4993940,-0.27000,50.3125,107,49,0.46056
4993950,-0.22500,49.9375,107,49,0.45348
4993960,-0.20500,49.6250,107,49,0.44664
4993970,-0.19000,49.2500,107,49,0.44078
4993980,-0.17000,48.5625,107,49,0.42930
4993990,-0.16500,48.2500,107,49,0.42295
4994000,-0.15500,47.8750,107,49,0.41636
4994010,-0.14500,47.5625,107,49,0.41001
4994020,-0.13500,47.1875,107,49,0.39707
4994030,-0.12500,47.4375,107,49,0.39072
4994040,-0.11500,48.3750,107,49,0.38437
4994050,-0.11000,50.5000,107,49,0.37827
4994060,-0.10500,58.3750,107,49,0.36606
4994070,-0.10000,63.5625,107,49,0.36117
4994080,-0.08500,68.8750,107,49,0.35702
4994090,-0.07500,74.3125,107,49,0.35214
4994100,-0.06500,84.5000,107,49,0.34164
4994110,-0.04500,89.1250,107,49,0.33626
4994120,-0.03000,93.1250,107,49,0.33089
4994130,-0.01500,96.6250,107,49,0.32576
4994140,0.00000,101.4375,107,49,0.31575
4994150,0.01000,102.8750,107,49,0.31087
4994160,0.02000,103.7500,107,49,0.30623
4994170,0.02500,104.0625,107,49,0.30305
4994180,0.03000,103.5625,107,49,0.29744
4994190,0.03000,102.8125,107,49,0.29377
4994200,0.04000,101.8750,107,49,0.28987
4994210,0.05000,100.7500,107,49,0.28596
4994220,0.05500,98.1875,107,49,0.27814
4994230,0.06000,96.8750,107,49,0.27424
4994240,0.06000,95.4375,107,49,0.27033
4994250,0.05000,94.0625,107,49,0.26642
4994260,0.03000,91.2500,107,49,0.25885
4994270,0.01000,89.8750,107,49,0.25641
4994280,0.00000,88.4375,107,49,0.25446
4994290,-0.00500,87.0625,107,49,0.25177
4994300,-0.01500,83.9375,107,49,0.24737
4994310,-0.01500,82.1250,107,49,0.24689
4994320,-0.01500,80.1250,107,49,0.24884
4994330,-0.01500,78.0000,107,49,0.25397
4994340,-0.01000,73.6250,107,49,0.27619
4994350,-0.00500,71.7500,107,49,0.29377
4994360,0.00000,70.0625,107,49,0.31551
4994370,0.00000,68.7500,107,49,0.33724
4994380,0.00000,66.8125,107,49,0.40440
4994390,-0.00500,66.0625,107,49,0.44078
4994400,-0.01500,65.5000,107,49,0.47619
4994410,-0.02000,65.0000,107,49,0.51087
4994420,-0.02500,64.2500,107,49,0.57631
4994430,-0.02500,63.9375,107,49,0.60635
4994440,-0.03000,63.6250,107,49,0.63419
4994450,-0.03000,63.3125,107,49,0.65958
4994460,-0.02500,62.6875,107,49,0.70281
4994470,-0.02500,62.3750,107,49,0.71795
4994480,-0.03000,62.0625,107,49,0.72967
4994490,-0.03000,61.6875,107,49,0.74115
4994500,-0.02500,60.9375,107,49,0.76044
4994510,-0.02000,60.5625,107,49,0.76752
4994520,0.00000,60.1875,107,49,0.77289
4994530,0.03000,59.7500,107,49,0.77631
4994540,0.04500,58.9375,107,49,0.77851
4994550,0.02500,58.5000,107,49,0.77729
4994560,-0.01500,58.1250,107,49,0.77436
4994570,-0.05500,57.6875,107,49,0.76948
4994580,-0.08000,56.8750,107,49,0.75653
4994590,-0.10500,56.5000,107,49,0.74847
4994600,-0.12000,56.1250,107,49,0.73919
4994610,-0.12000,55.7500,107,49,0.72918
4994620,-0.12000,55.0625,107,49,0.70672
4994630,-0.12000,54.8125,107,49,0.69451
4994640,-0.12000,54.5625,107,49,0.68205
4994650,-0.11500,54.3750,107,49,0.66984
4994660,-0.11500,53.9375,107,49,0.64542
4994670,-0.12500,53.7500,107,49,0.63419
4994680,-0.03500,53.5000,107,49,0.62393
4994690,0.36000,53.2500,107,49,0.61319
4994700,0.96000,52.8125,107,49,0.59219
4994710,1.02500,52.5625,107,49,0.58193
4994720,0.42000,52.3125,107,49,0.57216
4994730,-0.17500,52.0000,107,49,0.56239
4994740,-0.42000,51.3750,107,49,0.54359
4994750,-0.37500,51.0500,107,49,0.53311
4994760,-0.29333,50.8250,107,49,0.52611
4994770,-0.22000,50.5000,107,49,0.51770
4994780,-0.20000,49.8750,107,49,0.50305
4994790,-0.19000,49.5625,107,49,0.49524
4994800,-0.18000,49.2500,107,49,0.48742
4994810,-0.17500,48.9375,107,49,0.47961
4994820,-0.18000,48.3125,107,49,0.46471
4994830,-0.17500,48.0000,107,49,0.45714
4994840,-0.17000,47.8125,107,49,0.44982
4994850,-0.16500,47.7500,107,49,0.44274
4994860,-0.15500,49.6250,107,49,0.42979
4994870,-0.14500,52.2500,107,49,0.42466
4994880,-0.12500,56.1250,107,49,0.41856
4994890,-0.11000,60.9375,107,49,0.41221
4994900,-0.08500,71.5000,107,49,0.39927
4994910,-0.07500,76.8125,107,49,0.39267
4994920,-0.06000,82.0000,107,49,0.38608
4994930,-0.04500,86.8750,107,49,0.37973
4994940,-0.02500,95.1875,107,49,0.36728
4994950,-0.01500,98.5000,107,49,0.36117
4994960,0.00000,101.0625,107,49,0.35556
4994970,0.00500,102.8750,107,49,0.35140
4994980,0.01000,104.7500,107,49,0.34408
4994990,0.01000,104.9375,107,49,0.33944
4995000,0.01000,104.7500,107,49,0.33455
4995010,0.01000,104.2500,107,49,0.32967
4995020,0.02000,102.6875,107,49,0.31941
4995030,0.03500,101.5625,107,49,0.31453
4995040,0.05000,100.3750,107,49,0.30965
4995050,0.06000,99.0625,107,49,0.30476
4995060,0.06500,96.2500,107,49,0.29670
4995070,0.05000,94.8750,107,49,0.29426
4995080,0.03000,93.4375,107,49,0.29060
4995090,0.00000,92.0625,107,49,0.28645
4995100,-0.01500,89.3750,107,49,0.27766
4995110,-0.03500,88.0000,107,49,0.27375
4995120,-0.04500,86.5625,107,49,0.27057
4995130,-0.05000,84.9375,107,49,0.26886
4995140,-0.04500,81.1875,107,49,0.27302
4995150,-0.03500,79.0000,107,49,0.28059
4995160,-0.02000,76.8125,107,49,0.29231
4995170,-0.01000,74.6875,107,49,0.30647
4995180,-0.00500,71.1250,107,49,0.34603
4995190,0.00000,69.6875,107,49,0.37265
4995200,0.00500,68.5000,107,49,0.40269
4995210,0.00000,67.5625,107,49,0.43492
4995220,-0.01000,66.0000,107,49,0.50208
4995230,-0.01500,65.3750,107,49,0.53553
4995240,-0.01500,64.8125,107,49,0.56801
4995250,-0.02000,64.4375,107,49,0.59902
4995260,-0.02500,64.0521,107,49,0.62719
4995270,-0.03500,63.6875,107,49,0.65153
4995280,-0.04000,63.3750,107,49,0.67106
4995290,-0.04500,63.0000,107,49,0.69133
4995300,-0.05000,62.3750,107,49,0.72821
4995310,-0.05000,62.0625,107,49,0.74359
4995320,-0.04500,61.7500,107,49,0.75653
4995330,-0.03500,61.4375,107,49,0.76703
4995340,-0.01500,60.6875,107,49,0.78193
4995350,0.03000,60.3125,107,49,0.78632
4995360,0.05500,59.9375,107,49,0.78877
4995370,0.05500,59.5000,107,49,0.78950
4995380,0.03000,58.6875,107,49,0.78462
4995390,-0.01000,58.2500,107,49,0.78095
4995400,-0.04500,57.8750,107,49,0.77656
4995410,-0.07500,57.5000,107,49,0.77094
4995420,-0.09500,56.8125,107,49,0.75629
4995430,-0.10500,56.4375,107,49,0.74725
4995440,-0.10500,56.1250,107,49,0.73724
4995450,-0.10500,55.7500,107,49,0.72625
4995460,-0.10500,55.1250,107,49,0.70256
4995470,-0.10000,54.8125,107,49,0.69109
4995480,-0.09500,54.5000,107,49,0.67985
4995490,-0.10500,54.3125,107,49,0.66789
4995500,-0.09000,53.9375,107,49,0.64322
4995510,0.13000,53.7500,107,49,0.63101
4995520,0.68000,53.5625,107,49,0.61880
4995530,1.09500,53.3750,107,49,0.60708
4995540,0.75500,52.9375,107,49,0.58486
4995550,-0.06000,52.6250,107,49,0.57436
4995560,-0.35500,52.3125,107,49,0.56386
4995570,-0.42500,52.0000,107,49,0.55385
4995580,-0.31500,51.2500,107,49,0.53700
4995590,-0.23000,50.8750,107,49,0.52845
4995600,-0.21500,50.5000,107,49,0.51966
4995610,-0.21000,50.1875,107,49,0.51087
4995620,-0.20000,49.5625,107,49,0.49426
4995630,-0.19000,49.2500,107,49,0.48620
4995640,-0.19000,48.9375,107,49,0.47790
4995650,-0.19000,48.5625,107,49,0.46984
4995660,-0.18500,48.0000,107,49,0.45446
4995670,-0.17500,47.8125,107,49,0.44811
4995680,-0.16000,47.8750,107,49,0.44225
4995690,-0.15000,48.5000,107,49,0.43565
4995700,-0.14000,52.9375,107,49,0.42125
4995710,-0.13000,57.0625,107,49,0.41392
4995720,-0.11500,62.0000,107,49,0.40684
4995730,-0.10000,67.3125,107,49,0.39976
4995740,-0.08500,78.0000,107,49,0.38632
4995750,-0.06500,83.1250,107,49,0.37973
4995760,-0.04500,87.9375,107,49,0.37338
4995770,-0.02500,92.3125,107,49,0.36728
4995780,-0.00917,97.4375,107,49,0.36015
4995790,0.00500,101.6875,107,49,0.35336
4995800,0.02000,103.4375,107,49,0.34823
4995810,0.03000,104.5625,107,49,0.34310
4995820,0.04000,105.3125,107,49,0.33260
4995830,0.04000,105.0625,107,49,0.32723
4995840,0.04000,104.5625,107,49,0.32210
4995850,0.04500,103.8125,107,49,0.31697
4995860,0.04500,101.8125,107,49,0.30672
4995870,0.05500,100.5625,107,49,0.30330
4995880,0.06000,99.3125,107,49,0.30061
4995890,0.06000,98.0000,107,49,0.29695
4995900,0.04500,95.3750,107,49,0.28816
4995910,0.02500,94.0000,107,49,0.28376
4995920,0.00000,92.6250,107,49,0.27912
4995930,-0.01500,91.1875,107,49,0.27473
4995940,-0.03500,88.2500,107,49,0.26667
4995950,-0.04500,86.6875,107,49,0.26374
4995960,-0.05000,85.0000,107,49,0.26252
4995970,-0.05000,83.1250,107,49,0.26349
4995980,-0.05000,78.7500,107,49,0.27448
4995990,-0.05000,76.5000,107,49,0.28571
4996000,-0.05000,74.4375,107,49,0.30159
4996010,-0.05000,72.5625,107,49,0.32234
4996020,-0.05500,69.6250,107,49,0.37582
4996030,-0.05500,68.5000,107,49,0.40708
4996040,-0.06000,67.5625,107,49,0.44029
4996050,-0.06500,66.7500,107,49,0.47399
4996060,-0.07000,65.5625,107,49,0.54066
4996070,-0.07500,65.0625,107,49,0.56825
4996080,-0.07500,64.6875,107,49,0.59267
4996090,-0.08000,64.3125,107,49,0.61832
4996100,-0.07500,63.5625,107,49,0.66740
4996110,-0.07000,63.3125,107,49,0.68913
4996120,-0.06500,63.0000,107,49,0.70842
4996130,-0.05000,62.6250,107,49,0.72527
4996140,-0.04500,62.0000,107,49,0.75165
4996150,-0.03000,61.7500,107,49,0.76142
4996160,-0.01500,61.4375,107,49,0.76899
4996170,0.01500,61.1250,107,49,0.77460
4996180,0.04000,60.4375,107,49,0.77753
4996190,0.03500,60.0625,107,49,0.77753
4996200,0.00000,59.6875,107,49,0.77680
4996210,-0.04000,59.3125,107,49,0.77485
4996220,-0.07000,58.5625,107,49,0.76728
4996230,-0.10000,58.1250,107,49,0.76166
4996240,-0.12500,57.7500,107,49,0.75458
4996250,-0.13000,57.3125,107,49,0.74628
4996260,-0.12500,56.5000,107,49,0.72625
4996270,-0.12500,56.1250,107,49,0.71551
4996280,-0.12000,55.6875,107,49,0.70476
4996290,-0.11000,55.3125,107,49,0.69304
4996300,-0.11000,54.6875,107,49,0.66862
4996310,-0.11500,54.4375,107,49,0.65665
4996320,-0.10500,54.1875,107,49,0.64444
4996330,0.13000,54.0000,107,49,0.63248
4996340,0.69000,53.6250,107,49,0.60977
4996350,1.12000,53.4375,107,49,0.59878
4996360,0.78500,53.1875,107,49,0.58803
4996370,0.04500,52.8750,107,49,0.57729
4996380,-0.39000,52.3125,107,49,0.55922
4996390,-0.46000,52.0000,107,49,0.54994
4996400,-0.35000,51.6875,107,49,0.54066
4996410,-0.27000,51.3750,107,49,0.53138
4996420,-0.25000,50.7500,107,49,0.51331
4996430,-0.23500,50.4375,107,49,0.49866
4996440,-0.22500,50.1250,107,49,0.48132
4996450,-0.21500,49.8125,107,49,0.46886
4996460,-0.21000,49.1250,107,49,0.45006
4996470,-0.21000,48.8750,107,49,0.44298
4996480,-0.20000,48.6250,107,49,0.43687
4996490,-0.19000,48.3750,107,49,0.43053
4996500,-0.18000,48.6250,107,49,0.41685
4996510,-0.17000,49.7500,107,49,0.41001
4996520,-0.16000,52.1250,107,49,0.40317
4996530,-0.15000,55.8750,107,49,0.39658
4996540,-0.13500,66.0625,107,49,0.38388
4996550,-0.12000,71.6250,107,49,0.37729
4996560,-0.10500,77.1875,107,49,0.37118
4996570,-0.08500,82.5625,107,49,0.36508
4996580,-0.06500,92.3125,107,49,0.35629
4996590,-0.04500,96.3750,107,49,0.35140
4996600,-0.03000,99.7500,107,49,0.34603
4996610,-0.01500,104.3750,107,49,0.33553
4996620,-0.01000,105.6875,107,49,0.33040
4996630,-0.00500,106.4375,107,49,0.32527
4996640,0.00000,106.6875,107,49,0.32039
4996650,0.00000,106.6250,107,49,0.31551
4996660,0.00000,105.5625,107,49,0.30574
4996670,0.00000,104.6875,107,49,0.30232
4996680,0.01000,103.6250,107,49,0.29963
4996690,0.02500,102.4375,107,49,0.29621
4996700,0.03000,99.8750,107,49,0.28840
4996710,0.02500,98.5000,107,49,0.28449
4996720,0.01000,97.1250,107,49,0.28059
4996730,-0.00500,95.7500,107,49,0.27668
4996740,-0.03000,92.9375,107,49,0.26886
4996750,-0.04500,91.5625,107,49,0.26496
4996760,-0.05000,90.1250,107,49,0.26129
4996770,-0.05000,88.6875,107,49,0.25934
4996780,-0.05000,85.4375,107,49,0.25885
4996790,-0.05500,83.5625,107,49,0.26056
4996800,-0.05500,81.4375,107,49,0.26545
4996810,-0.05500,78.1563,107,49,0.28246
4996820,-0.05500,75.0000,107,49,0.30525
4996830,-0.05500,73.2500,107,49,0.32747
4996840,-0.05500,71.7500,107,49,0.35360
4996850,-0.06000,70.5000,107,49,0.38266
4996860,-0.06500,68.6250,107,49,0.44567
4996870,-0.07000,67.9375,107,49,0.47399
4996880,-0.08000,67.3750,107,49,0.50012
4996890,-0.08500,66.8750,107,49,0.52869
4996900,-0.09000,66.1250,107,49,0.58584
4996910,-0.09500,65.7500,107,49,0.61245
4996920,-0.09000,65.3750,107,49,0.63712
4996930,-0.08500,65.0000,107,49,0.65934
4996940,-0.08500,64.3125,107,49,0.69621
4996950,-0.08000,63.9375,107,49,0.71111
4996960,-0.07500,63.6250,107,49,0.72332
4996970,-0.05500,63.2500,107,49,0.73162
4996980,-0.03500,62.4375,107,49,0.74212
4996990,-0.00500,62.0000,107,49,0.74628
4997000,0.02000,61.6250,106,49,0.74896
4997010,0.02500,61.1875,106,49,0.75043
4997020,-0.00500,60.3750,106,49,0.74921
4997030,-0.04000,59.9375,106,49,0.74676
4997040,-0.07500,59.5625,106,49,0.74310
4997050,-0.10500,59.1875,106,49,0.73822
4997060,-0.12500,58.4375,106,49,0.72430
4997070,-0.14000,58.0625,106,49,0.71624
4997080,-0.14500,57.6875,106,49,0.70769
4997090,-0.14500,57.3125,106,49,0.69817
4997100,-0.14000,56.5625,106,49,0.67668
4997110,-0.13500,56.1875,106,49,0.66520
4997120,-0.13500,55.8750,106,49,0.65348
4997130,-0.14000,55.2500,106,49,0.64151
4997140,-0.14500,55.0625,106,49,0.61783
4997150,0.04000,54.8125,106,49,0.60635
4997160,0.58000,54.5000,106,49,0.59512
4997170,1.12500,54.3125,106,49,0.58510
4997180,0.92000,53.9375,106,49,0.56654
4997190,0.14500,53.6875,106,49,0.55727
4997200,-0.37500,53.4375,106,49,0.54799
4997210,-0.48000,53.1250,106,49,0.53919
4997220,-0.36500,52.5000,106,49,0.52161
4997230,-0.27500,52.1875,106,49,0.51306
4997240,-0.26000,51.8125,106,49,0.50476
4997250,-0.26000,51.5000,106,49,0.49670
4997260,-0.25000,50.8750,106,49,0.48059
4997270,-0.24000,50.6250,106,49,0.47375
4997280,-0.23500,50.3750,106,49,0.46764
4997290,-0.23000,50.1250,106,49,0.46105
4997300,-0.22000,49.6250,106,49,0.44737
4997310,-0.20500,49.5625,106,49,0.44054
4997320,-0.19500,49.6875,106,49,0.43346
4997330,-0.18500,50.3125,106,49,0.42662
4997340,-0.17000,55.0000,106,49,0.41319
4997350,-0.15500,59.3125,106,49,0.40659
4997360,-0.14000,64.5625,106,49,0.40000
4997370,-0.12500,70.2500,106,49,0.39463
4997380,-0.10500,81.6875,106,49,0.38462
4997390,-0.09500,87.1250,106,49,0.37875
4997400,-0.08500,92.0625,106,49,0.37289
4997410,-0.07000,96.5625,106,49,0.36703
4997420,-0.06000,103.3750,106,49,0.35531
4997430,-0.05000,105.6875,106,49,0.34969
4997440,-0.04500,107.3125,106,49,0.34432
4997450,-0.03500,108.3125,106,49,0.33919
4997460,-0.04500,108.8125,106,49,0.32918
4997470,-0.04500,108.5000,106,49,0.32552
4997480,-0.04500,107.9375,106,49,0.32283
4997490,-0.04000,107.1875,106,49,0.31917
4997500,-0.03500,105.1875,106,49,0.31062
4997510,-0.02000,104.0625,106,49,0.30598
4997520,-0.00500,102.8750,106,49,0.30134
4997530,0.00500,101.6250,106,49,0.29695
4997540,0.00000,99.1250,106,49,0.28816
4997550,-0.01500,97.8750,106,49,0.28376
4997560,-0.03500,96.6875,106,49,0.27961
4997570,-0.05000,95.4375,106,49,0.27692
4997580,-0.05500,92.9375,106,49,0.27179
4997590,-0.05500,91.6250,106,49,0.26911
4997600,-0.05500,90.1250,106,49,0.26740
4997610,-0.05500,88.5000,106,49,0.26764
4997620,-0.05500,84.5625,106,49,0.27692
4997630,-0.05500,82.3750,106,49,0.28742
4997640,-0.06500,80.2500,106,49,0.30256
4997650,-0.07500,78.3125,106,49,0.32234
4997660,-0.08500,75.1875,106,49,0.37363
4997670,-0.09000,74.0000,106,49,0.39976
4997680,-0.09500,73.0000,106,49,0.42564
4997690,-0.07500,72.1250,106,49,0.45519
4997700,-0.04500,70.8125,106,49,0.51819
4997710,-0.02500,70.2500,106,49,0.54945
4997720,-0.00500,69.7500,106,49,0.57949
4997730,0.02000,69.2500,106,49,0.60781
4997740,0.04000,68.3125,106,49,0.65812
4997750,0.06000,67.8125,106,49,0.67985
4997760,0.06500,67.2500,106,49,0.69866
4997770,0.07000,66.7500,106,49,0.71258
4997780,0.07000,65.7500,106,49,0.73284
4997790,0.07000,65.2500,106,49,0.74164
4997800,0.08000,64.6875,106,49,0.74872
4997810,0.11500,64.1250,106,49,0.75409
4997820,0.15000,63.0625,106,49,0.75971
4997830,0.14500,62.4063,106,49,0.76085
4997840,0.10500,61.9375,106,49,0.75946
4997850,0.03500,61.4375,106,49,0.75751
4997860,-0.03500,60.4375,106,49,0.74994
4997870,-0.09000,59.9375,106,49,0.74408
4997880,-0.13500,59.3750,106,49,0.73724
4997890,-0.14000,58.9375,106,49,0.72991
4997900,-0.11000,58.0625,106,49,0.71233
4997910,-0.07500,57.6250,106,49,0.70232
4997920,-0.05500,57.1875,106,49,0.69133
4997930,-0.04000,56.7500,106,49,0.67985
4997940,-0.03500,56.0000,106,49,0.65568
4997950,-0.04500,55.6250,106,49,0.64347
4997960,-0.07500,55.3125,106,49,0.63150
4997970,0.01500,55.0000,106,49,0.62051
4997980,0.46500,54.5000,106,49,0.59976
4997990,1.09500,54.3125,106,49,0.58926
4998000,1.08500,54.0625,106,49,0.57900
4998010,0.35500,53.8125,106,49,0.56899
4998020,-0.28000,53.3750,106,49,0.54994
4998030,-0.47000,53.0625,106,49,0.54090
4998040,-0.37500,52.7500,106,49,0.53187
4998050,-0.27000,52.4375,106,49,0.52308
4998060,-0.25000,51.6875,106,49,0.50598
4998070,-0.25500,51.3125,106,49,0.49866
4998080,-0.25000,51.0000,106,49,0.49182
4998090,-0.24000,50.6250,106,49,0.48425
4998100,-0.23500,50.0000,106,49,0.46911
4998110,-0.23000,49.6875,106,49,0.46178
4998120,-0.22500,49.3750,106,49,0.45446
4998130,-0.21500,49.1250,106,49,0.44737
4998140,-0.20000,49.1250,106,49,0.43321
4998150,-0.18000,49.8750,106,49,0.42637
4998160,-0.16500,51.6250,106,49,0.41929
4998170,-0.15500,54.7500,106,49,0.41343
4998180,-0.14500,64.4375,106,49,0.40244
4998190,-0.13000,70.0625,106,49,0.39634
4998200,-0.11500,75.7500,106,49,0.38999
4998210,-0.09500,81.3125,106,49,0.38364
4998220,-0.07000,91.3750,106,49,0.37143
4998230,-0.04500,95.6875,106,49,0.36557
4998240,-0.02500,99.2500,106,49,0.35971
4998250,-0.01500,102.1875,106,49,0.35385
4998260,0.00000,106.0000,106,49,0.34261
4998270,0.01000,107.0000,106,49,0.33846
4998280,0.01500,107.4375,106,49,0.33480
4998290,0.02000,107.5000,106,49,0.33016
4998300,0.03000,106.6875,106,49,0.32039
4998310,0.04000,105.8750,106,49,0.31551
4998320,0.04500,104.8750,106,49,0.31062
4998330,0.05500,103.7500,106,49,0.30574
4998340,0.06000,101.1250,106,49,0.29646
4998350,0.06500,99.7500,106,49,0.29182
4998360,0.06000,98.3750,106,49,0.28718
4998370,0.04500,97.0000,106,49,0.28376
4998380,0.02500,94.3750,106,49,0.27692
4998390,0.01000,93.0000,106,49,0.27253
4998400,-0.00500,91.6875,106,49,0.26789
4998410,-0.01000,90.2500,106,49,0.26325
4998420,-0.01500,87.0625,106,49,0.25714
4998430,-0.01000,85.1250,106,49,0.25714
4998440,-0.01000,83.0000,106,49,0.26007
4998450,0.00000,80.7500,106,49,0.26667
4998460,0.01000,76.3750,106,49,0.29133
4998470,0.03000,74.5000,106,49,0.30769
4998480,0.04000,72.9375,106,49,0.32772
4998490,0.04500,71.5625,106,49,0.35116
4998500,0.04500,69.6250,106,49,0.40904
4998510,0.04000,68.8750,106,49,0.44054
4998520,0.03000,68.2500,106,49,0.47253
4998530,0.03000,67.7500,106,49,0.50403
4998540,0.04000,67.0625,106,49,0.56386
4998550,0.06000,66.6875,106,49,0.59096
4998560,0.08000,66.3750,106,49,0.61587
4998570,0.10000,66.0000,106,49,0.63541
4998580,0.11000,65.2500,106,49,0.66740
4998590,0.11000,64.8125,106,49,0.68254
4998600,0.09500,64.3125,106,49,0.69597
4998610,0.07000,63.8125,106,49,0.70720
4998620,0.05500,62.8125,106,49,0.72332
4998630,0.06500,62.3125,106,49,0.72821
4998640,0.08000,61.6875,106,49,0.73162
4998650,0.07500,61.1250,106,49,0.73333
4998660,0.04000,60.0000,106,49,0.73211
4998670,-0.01000,59.4375,106,49,0.72894
4998680,-0.05500,58.9375,106,49,0.72527
4998690,-0.08000,58.3750,106,49,0.72088
4998700,-0.10500,57.5000,106,49,0.70867
4998710,-0.10500,57.0625,106,49,0.70085
4998720,-0.10500,56.6875,106,49,0.69206
4998730,-0.10500,56.3125,106,49,0.68230
4998740,-0.10500,55.6875,106,49,0.66105
4998750,-0.09500,55.3750,106,49,0.64982
4998760,-0.08000,55.0625,106,49,0.63810
4998770,-0.07500,54.7500,106,49,0.62735
4998780,-0.08500,54.3125,106,49,0.60611
4998790,0.06000,54.1250,106,49,0.59512
4998800,0.54500,54.0000,106,49,0.58388
4998810,1.07000,53.8125,106,49,0.57289
4998820,0.90500,53.3125,106,49,0.55189
4998830,0.20500,53.0625,106,49,0.54188
4998840,-0.30000,52.8125,106,49,0.53236
4998850,-0.43500,52.4375,106,49,0.52308
4998860,-0.36333,51.9896,106,49,0.51074
4998870,-0.23500,51.5625,106,49,0.49890
4998880,-0.20000,51.2500,106,49,0.49109
4998890,-0.18500,51.0000,106,49,0.48327
4998900,-0.17000,50.3750,106,49,0.46740
4998910,-0.16000,50.0625,106,49,0.45983
4998920,-0.15500,49.6875,106,49,0.45226
4998930,-0.15500,49.3750,106,49,0.44469
4998940,-0.15000,48.6875,106,49,0.43004
4998950,-0.14500,48.3750,106,49,0.42295
4998960,-0.13500,48.3125,106,49,0.41563
4998970,-0.12000,48.5625,106,49,0.40977
4998980,-0.11500,51.7500,106,49,0.39853
4998990,-0.10500,55.2500,106,49,0.39243
4999000,-0.09000,59.8125,106,49,0.38608
4999010,-0.07500,65.0000,106,49,0.37949
4999020,-0.05500,75.8125,106,49,0.36654
4999030,-0.03500,81.0000,106,49,0.36020
4999040,-0.01500,85.8750,106,49,0.35385
4999050,0.00000,90.3750,106,49,0.34750
4999060,0.01500,97.5000,106,49,0.33651
4999070,0.03000,100.0625,106,49,0.33236
4999080,0.04500,101.8750,106,49,0.32747
4999090,0.05500,103.0000,106,49,0.32234
4999100,0.06000,103.7500,106,49,0.31209
4999110,0.06500,103.5625,106,49,0.30696
4999120,0.07000,103.0000,106,49,0.30208
4999130,0.08000,102.2500,106,49,0.29719
4999140,0.09500,100.2500,106,49,0.28718
4999150,0.11500,98.9375,106,49,0.28230
4999160,0.12000,97.5000,106,49,0.27741
4999170,0.11500,94.4375,106,49,0.27399
4999180,0.09000,92.8750,106,49,0.26813
4999190,0.06500,91.3125,106,49,0.26422
4999200,0.03500,89.8125,106,49,0.26007
4999210,0.02000,88.3125,106,49,0.25592
4999220,0.00000,85.3125,106,49,0.24786
4999230,0.00000,83.7500,106,49,0.24420
4999240,-0.00500,82.0000,106,49,0.24151
4999250,-0.00500,80.0625,106,49,0.24054
4999260,0.00000,75.9375,106,49,0.24615
4999270,0.00500,73.9375,106,49,0.25324
4999280,0.00500,72.1875,106,49,0.26398
4999290,0.00500,70.6875,106,49,0.27888
4999300,0.00500,68.5000,106,49,0.32112
4999310,0.00500,67.6250,106,49,0.34750
4999320,0.00500,66.9375,106,49,0.37607
4999330,0.00500,65.8125,106,49,0.40610
4999340,0.00000,65.3750,106,49,0.46691
4999350,0.00000,64.9375,106,49,0.49597
4999360,-0.01500,64.5625,106,49,0.52357
4999370,-0.03000,64.1875,106,49,0.54628
4999380,-0.04000,63.5625,106,49,0.58608
4999390,-0.05000,63.1875,106,49,0.60537
4999400,-0.05500,62.8750,106,49,0.62295
4999410,-0.04500,62.5625,106,49,0.63858
4999420,-0.03500,61.9375,106,49,0.66325
4999430,-0.02500,61.5625,106,49,0.67228
4999440,-0.01000,61.2500,106,49,0.67937
4999450,0.02000,60.8750,106,49,0.68449
4999460,0.04000,60.0000,106,49,0.68889
4999470,0.04500,59.5625,106,49,0.68840
4999480,0.01500,59.0625,106,49,0.68767
4999490,-0.02500,58.6250,106,49,0.68596
4999500,-0.05500,57.6875,106,49,0.67937
4999510,-0.08500,57.2500,106,49,0.67399
4999520,-0.10500,56.8750,106,49,0.66764
4999530,-0.11500,56.5000,106,49,0.66007
4999540,-0.11500,55.6875,106,49,0.64200
4999550,-0.11000,55.3125,106,49,0.63175
4999560,-0.10500,55.0000,106,49,0.62100
4999570,-0.09500,54.6875,106,49,0.61074
4999580,-0.09000,54.0625,106,49,0.59048
4999590,-0.08500,53.8750,106,49,0.57973
4999600,-0.09500,53.6875,106,49,0.56899
4999610,0.05000,53.5625,106,49,0.55873
4999620,0.52500,53.1875,106,49,0.53944
4999630,1.05500,53.0000,106,49,0.53016
4999640,0.93000,52.8125,106,49,0.52112
4999650,0.26500,52.5625,106,49,0.51233
4999660,-0.24500,52.0625,106,49,0.49597
4999670,-0.41000,51.6875,106,49,0.48913
4999680,-0.33000,51.3750,106,49,0.48181
4999690,-0.23000,51.0625,106,49,0.47424
4999700,-0.19500,50.3750,106,49,0.45983
4999710,-0.19000,50.0000,106,49,0.45275
4999720,-0.19000,49.6875,106,49,0.44567
4999730,-0.17500,49.3750,106,49,0.43858
4999740,-0.14500,48.6875,106,49,0.42540
4999750,-0.11000,48.3750,106,49,0.41905
4999760,-0.09500,48.0625,106,49,0.41270
4999770,-0.11500,47.8125,106,49,0.40757
4999780,-0.18000,47.7500,106,49,0.39805
4999790,-0.20500,48.3750,106,49,0.39267
4999800,-0.17000,49.9375,106,49,0.38706
4999810,-0.12500,56.8125,106,49,0.38144
4999820,-0.10500,61.6250,106,49,0.37070
4999830,-0.09500,66.8125,106,49,0.36557
4999840,-0.08500,72.0000,106,49,0.36068
4999850,-0.07500,77.1875,106,49,0.35580
4999860,-0.06500,86.8750,106,49,0.34725
4999870,-0.04500,91.1250,106,49,0.34432
4999880,-0.02583,94.5208,106,49,0.34139
4999890,-0.00500,97.8125,106,49,0.33651
4999900,0.02000,101.7500,106,49,0.32772
4999910,0.04000,102.7500,106,49,0.32332
4999920,0.05000,103.3125,106,49,0.31893
4999930,0.06000,103.3750,106,49,0.31453
4999940,0.06500,102.4375,106,49,0.30549
4999950,0.07500,101.5000,106,49,0.30061
4999960,0.08500,100.4375,106,49,0.29573
4999970,0.10000,99.1875,106,49,0.29206
4999980,0.11000,96.3750,106,49,0.28523
4999990,0.11000,94.9375,106,49,0.28083
5000000,0.09000,93.4375,106,49,0.27619
5000010,0.06500,91.9375,106,49,0.27155
5000020,0.04000,89.0625,106,49,0.26227
5000030,0.01500,87.6875,106,49,0.25763
5000040,-0.00500,86.1875,106,49,0.25348
5000050,-0.03000,84.6875,106,49,0.24957
5000060,-0.04500,81.1250,106,49,0.24567
5000070,-0.05500,79.1250,106,49,0.24640
5000080,-0.06000,76.9375,106,49,0.24884
5000090,-0.06500,74.7500,106,49,0.25397
5000100,-0.06500,71.0000,106,49,0.27521
5000110,-0.04500,69.5000,106,49,0.29206
5000120,-0.02000,68.2500,106,49,0.31306
5000130,-0.01000,67.2500,106,49,0.33748
5000140,-0.01500,65.7500,106,49,0.39414
5000150,-0.01500,65.1875,106,49,0.42466
5000160,-0.01000,64.7500,106,49,0.45519
5000170,-0.00500,64.3125,106,49,0.48156
5000180,-0.00500,63.6250,106,49,0.53089
5000190,-0.00500,63.3125,106,49,0.55629
5000200,-0.01000,63.0000,106,49,0.58022
5000210,-0.02000,62.6875,106,49,0.60244
5000220,-0.03000,62.0625,106,49,0.64005
5000230,-0.04500,61.7500,106,49,0.65519
5000240,-0.06500,61.4375,106,49,0.66789
5000250,-0.06500,61.1250,106,49,0.67814
5000260,-0.05500,60.5000,106,49,0.69109
5000270,-0.01500,60.1250,106,49,0.69377
5000280,0.04500,59.7500,106,49,0.69597
5000290,0.09500,59.3125,106,49,0.69719
5000300,0.11500,58.5000,106,49,0.69621
5000310,0.09000,58.1250,106,49,0.69377
5000320,0.04000,57.6875,106,49,0.69011
5000330,-0.00500,57.3125,106,49,0.68523
5000340,-0.04500,56.4375,106,49,0.67204
5000350,-0.08000,56.0000,106,49,0.66374
5000360,-0.09500,55.5625,106,49,0.65519
5000370,-0.10000,55.1250,106,49,0.64640
5000380,-0.10500,54.3750,106,49,0.62564
5000390,-0.10000,54.0625,106,49,0.61465
5000400,-0.09000,53.7500,106,49,0.60342
5000410,-0.07500,53.2500,106,49,0.59219
5000420,-0.07500,53.0625,106,49,0.57094
5000430,-0.01500,52.8750,106,49,0.56068
5000440,0.31500,52.6250,106,49,0.55043
5000450,0.90500,52.4375,106,49,0.54066
5000460,1.10500,52.0625,106,49,0.52259
5000470,0.54500,51.8750,106,49,0.51502
5000480,-0.12000,51.6250,106,49,0.50696
5000490,-0.42000,51.3125,106,49,0.49890
5000500,-0.41500,50.7500,106,49,0.48327
5000510,-0.30500,50.3750,106,49,0.47546
5000520,-0.25000,50.0625,106,49,0.46764
5000530,-0.24000,49.7500,106,49,0.46325
5000540,-0.23000,49.0625,106,49,0.45617
5000550,-0.22500,48.7500,106,49,0.45031
5000560,-0.22000,48.4375,106,49,0.44469
5000570,-0.22500,48.1250,106,49,0.43956
5000580,-0.22000,47.5000,106,49,0.42686
5000590,-0.21000,47.3125,106,49,0.42002
5000600,-0.20000,47.1875,106,49,0.41319
5000610,-0.18500,47.4375,106,49,0.40659
5000620,-0.17500,50.2500,106,49,0.39365
5000630,-0.17000,53.5000,106,49,0.38730
5000640,-0.15500,57.8750,106,49,0.38095
5000650,-0.14500,63.0000,106,49,0.37460
5000660,-0.12500,73.6250,106,49,0.36386
5000670,-0.10500,78.8750,106,49,0.35995
5000680,-0.08500,83.9375,106,49,0.35507
5000690,-0.06500,88.5625,106,49,0.34994
5000700,-0.04000,96.3125,106,49,0.33968
5000710,-0.02000,99.1250,106,49,0.33480
5000720,0.00000,101.3125,106,49,0.32991
5000730,0.01000,102.8125,106,49,0.32503
5000740,0.01000,104.2500,106,49,0.31600
5000750,0.01000,104.2500,106,49,0.31136
5000760,0.02000,103.9375,106,49,0.30818
5000770,0.02000,103.3125,106,49,0.30549
5000780,0.03500,101.3750,106,49,0.29792
5000790,0.05000,100.1875,106,49,0.29377
5000800,0.06000,98.8750,106,49,0.28962
5000810,0.07000,97.5000,106,49,0.28523
5000820,0.07000,94.6875,106,49,0.27692
5000830,0.05000,93.2500,106,49,0.27277
5000840,0.03000,91.8125,106,49,0.26886
5000850,0.01000,90.4375,106,49,0.26471
5000860,-0.00500,87.6875,106,49,0.25788
5000870,-0.02000,86.2500,106,49,0.25617
5000880,-0.03500,84.6875,106,49,0.25421
5000890,-0.03500,81.0000,106,49,0.25348
5000900,-0.03500,78.6146,106,49,0.25665
5000910,-0.03500,76.7500,106,49,0.26374
5000920,-0.03500,74.6250,106,49,0.27473
5000930,-0.03500,72.6875,106,49,0.29011
5000940,-0.03000,69.6875,106,49,0.33382
5000950,-0.03500,68.5625,106,49,0.36093
5000960,-0.04000,67.5625,106,49,0.38681
5000970,-0.05000,66.8125,106,49,0.41221
5000980,-0.05500,65.5000,106,49,0.47131
5000990,-0.06500,65.0000,106,49,0.50183
5001000,-0.06500,64.5625,106,49,0.53187
5001010,-0.06500,64.1875,106,49,0.56044
5001020,-0.06500,63.4375,106,49,0.61172
5001030,-0.06500,63.1250,106,49,0.63419
5001040,-0.06500,62.7500,106,49,0.65421
5001050,-0.07500,62.4375,106,49,0.67204
5001060,-0.07500,61.7500,106,49,0.69817
5001070,-0.07500,61.3750,106,49,0.70623
5001080,-0.07000,61.0625,106,49,0.71404
5001090,-0.05500,60.6875,106,49,0.72063
5001100,-0.03000,60.0000,106,49,0.72918
5001110,-0.02000,59.6250,106,49,0.73138
5001120,-0.02000,59.1875,106,49,0.73211
5001130,-0.03500,58.8125,106,49,0.73138
5001140,-0.06500,58.0625,106,49,0.72625
5001150,-0.09000,57.6875,106,49,0.72186
5001160,-0.11500,57.2500,106,49,0.71624
5001170,-0.13000,56.8750,106,49,0.70965
5001180,-0.13000,56.1250,106,49,0.69353
5001190,-0.12500,55.8125,106,49,0.68400
5001200,-0.12000,55.4375,106,49,0.67375
5001210,-0.11500,55.1250,106,49,0.66276
5001220,-0.11000,54.5000,106,49,0.63980
5001230,-0.10500,54.1875,106,49,0.62857
5001240,-0.11500,54.0000,106,49,0.61734
5001250,-0.08000,53.7500,106,49,0.60611
5001260,0.21000,53.3750,106,49,0.58535
5001270,0.80000,53.1250,106,49,0.57607
5001280,1.09500,52.9375,106,49,0.56630
5001290,0.60000,52.6875,106,49,0.55653
5001300,-0.08500,52.1250,106,49,0.53773
5001310,-0.40500,51.7500,106,49,0.52869
5001320,-0.41500,51.4375,106,49,0.51990
5001330,-0.30000,51.0625,106,49,0.51160
5001340,-0.22500,50.3750,106,49,0.49548
5001350,-0.21000,50.0625,106,49,0.48767
5001360,-0.20000,49.6875,106,49,0.48107
5001370,-0.19000,49.3750,106,49,0.47497
5001380,-0.18000,48.7500,106,49,0.46129
5001390,-0.18000,48.4375,106,49,0.45421
5001400,-0.17000,48.1875,106,49,0.44713
5001410,-0.17000,47.9375,106,49,0.44005
5001420,-0.16500,47.7500,106,49,0.42662
5001430,-0.15500,48.1875,106,49,0.42027
5001440,-0.14500,49.4375,106,49,0.41392
5001450,-0.13500,52.0000,106,49,0.40757
5001460,-0.12500,60.8125,106,49,0.39609
5001470,-0.11000,66.1250,106,49,0.39145
5001480,-0.09500,71.6250,106,49,0.38584
5001490,-0.08000,82.3750,106,49,0.38022
5001500,-0.06000,87.3125,106,49,0.36874
5001510,-0.04500,91.7500,106,49,0.36313
5001520,-0.02500,95.6250,106,49,0.35775
5001530,-0.00500,98.8125,106,49,0.35238
5001540,0.01000,103.2500,106,49,0.34212
5001550,0.01500,104.5000,106,49,0.33700
5001560,0.02000,105.1875,106,49,0.33333
5001570,0.02500,105.4375,106,49,0.33016
5001580,0.02500,104.8750,106,49,0.32186
5001590,0.02500,104.1875,106,49,0.31746
5001600,0.03500,103.2500,106,49,0.31306
5001610,0.05000,102.1875,106,49,0.30867
5001620,0.06000,99.6875,106,49,0.29963
5001630,0.06500,98.2500,106,49,0.29524
5001640,0.06000,96.8125,106,49,0.29109
5001650,0.04000,95.4375,106,49,0.28694
5001660,0.02000,92.5625,106,49,0.27985
5001670,-0.00500,91.1875,106,49,0.27766
5001680,-0.01500,89.8750,106,49,0.27448
5001690,-0.02500,88.5625,106,49,0.27106
5001700,-0.03500,85.6250,106,49,0.26569
5001710,-0.03500,83.9375,106,49,0.26520
5001720,-0.03500,82.0000,106,49,0.26691
5001730,-0.03500,79.9375,106,49,0.27179
5001740,-0.03500,75.6875,106,49,0.29353
5001750,-0.03500,73.8125,106,49,0.31087
5001760,-0.04000,72.1875,106,49,0.32943
5001770,-0.04000,70.8750,106,49,0.34994
5001780,-0.04500,68.6875,106,49,0.40415
5001790,-0.05500,67.8750,106,49,0.43492
5001800,-0.05500,67.1875,106,49,0.46667
5001810,-0.06500,66.5625,106,49,0.49841
5001820,-0.06500,65.5000,106,49,0.55922
5001830,-0.07000,65.0000,106,49,0.58730
5001840,-0.07000,64.5000,106,49,0.61319
5001850,-0.07000,64.0625,106,49,0.63712
5001860,-0.07000,63.2500,106,49,0.67497
5001870,-0.07000,62.8750,106,49,0.68791
5001880,-0.06500,62.4375,106,49,0.70134
5001890,-0.05000,62.0625,106,49,0.71355
5001900,-0.02500,61.3125,106,49,0.73309
5001910,0.00000,61.0000,106,49,0.73993
5001920,0.05000,60.6250,106,49,0.74505
5001930,0.08750,60.0833,106,49,0.74876
5001940,0.10000,59.5625,106,49,0.75043
5001950,0.07500,59.2500,106,49,0.74945
5001960,0.04500,58.8750,106,49,0.74676
5001970,0.02000,58.5000,106,49,0.74261
5001980,-0.00500,57.8750,106,49,0.73260
5001990,-0.02500,57.5000,106,49,0.72576
5002000,-0.02500,57.1875,106,49,0.71795
5002010,-0.03000,56.8125,106,49,0.70891
5002020,-0.04500,56.0625,106,49,0.68889
5002030,-0.05500,55.7500,106,49,0.67814
5002040,-0.06500,55.4375,106,49,0.66691
5002050,-0.08000,55.1250,106,49,0.65543
5002060,-0.09500,54.5625,106,49,0.63346
5002070,-0.10500,54.3750,106,49,0.62344
5002080,0.06500,54.1875,106,49,0.61319
5002090,0.57500,54.0000,106,49,0.60293
5002100,1.07000,53.5625,106,49,0.58242
5002110,0.85500,53.3125,106,49,0.57241
5002120,0.16000,53.0000,106,49,0.56239
5002130,-0.30500,52.3125,106,49,0.55263
5002140,-0.42500,51.9375,106,49,0.53382
5002150,-0.33500,51.5625,106,49,0.52503
5002160,-0.24500,51.1875,106,49,0.51746
5002170,-0.23000,50.8125,106,49,0.51038
5002180,-0.23000,50.1250,106,49,0.49573
5002190,-0.23000,49.8125,106,49,0.48840
5002200,-0.23000,49.5000,106,49,0.48107
5002210,-0.23000,48.8750,106,49,0.47375
5002220,-0.23000,48.5625,106,49,0.45983
5002230,-0.23000,48.3125,106,49,0.45299
5002240,-0.23000,48.1250,106,49,0.44615
5002250,-0.21000,48.1250,106,49,0.43956
5002260,-0.15500,50.0625,106,49,0.42882
5002270,-0.05500,52.7500,106,49,0.42295
5002280,0.08500,56.8125,106,49,0.41661
5002290,0.17000,61.6875,106,49,0.41001
5002300,0.16500,72.5000,106,49,0.39683
5002310,0.12000,77.8750,106,49,0.39048
5002320,0.07000,83.1250,106,49,0.38413
5002330,0.03000,88.0000,106,49,0.37802
5002340,0.00000,96.3125,106,49,0.36654
5002350,-0.00500,99.5625,106,49,0.36117
5002360,-0.00500,102.1250,106,49,0.35702
5002370,0.00000,105.3125,106,49,0.35360
5002380,0.00000,106.0625,106,49,0.34457
5002390,0.00000,106.3750,106,49,0.33968
5002400,-0.00500,106.3125,106,49,0.33480
5002410,-0.01000,105.9375,106,49,0.32991
5002420,-0.01500,104.2500,106,49,0.32063
5002430,-0.01500,103.1250,106,49,0.31600
5002440,-0.01000,101.9375,106,49,0.31136
5002450,-0.01000,100.5625,106,49,0.30672
5002460,-0.01000,97.6875,106,49,0.30085
5002470,-0.02000,96.1250,106,49,0.29744
5002480,-0.03500,94.6250,106,49,0.29353
5002490,-0.06500,93.1250,106,49,0.28962
5002500,-0.08500,90.2500,106,49,0.28181
5002510,-0.09500,88.8125,106,49,0.27814
5002520,-0.09500,87.3750,106,49,0.27473
5002530,-0.09500,85.8125,106,49,0.27253
5002540,-0.08500,82.2500,106,49,0.27448
5002550,-0.08000,80.1250,106,49,0.28010
5002560,-0.07500,77.9375,106,49,0.28840
5002570,-0.07000,75.8125,106,49,0.29963
5002580,-0.06500,72.2500,106,49,0.33529
5002590,-0.06500,70.8125,106,49,0.35922
5002600,-0.06500,69.6250,106,49,0.38657
5002610,-0.06500,68.6875,106,49,0.41587
5002620,-0.07000,67.3125,106,49,0.47766
5002630,-0.07500,66.7500,106,49,0.50867
5002640,-0.07500,66.2500,106,49,0.53895
5002650,-0.07000,65.8125,106,49,0.56801
5002660,-0.08500,65.0625,106,49,0.61197
5002670,-0.10500,64.6875,106,49,0.63321
5002680,-0.11000,64.3125,106,49,0.65372
5002690,-0.11500,63.9375,106,49,0.67302
5002700,-0.11000,63.1875,106,49,0.70525
5002710,-0.09500,62.8125,106,49,0.71819
5002720,-0.07500,62.4375,106,49,0.72869
5002730,-0.04500,62.1250,106,49,0.73700
5002740,-0.00500,61.3750,106,49,0.74750
5002750,0.03000,61.0000,106,49,0.75018
5002760,0.03000,60.6250,106,49,0.75043
5002770,0.00000,60.1875,106,49,0.74921
5002780,-0.03500,59.4375,106,49,0.74554
5002790,-0.06500,59.1250,106,49,0.74212
5002800,-0.09500,58.7500,106,49,0.73773
5002810,-0.11500,58.3125,106,49,0.73236
5002820,-0.12500,57.5625,106,49,0.71795
5002830,-0.12000,57.1875,106,49,0.70891
5002840,-0.11500,56.8125,106,49,0.69890
5002850,-0.11500,56.3750,106,49,0.68791
5002860,-0.11500,55.5625,106,49,0.66642
5002870,-0.12000,55.1875,106,49,0.65470
5002880,-0.13000,54.8125,106,49,0.64274
5002890,-0.14500,54.4375,106,49,0.63053
5002900,-0.03500,53.8750,106,49,0.60659
5002910,0.41000,53.6250,106,49,0.59487
5002920,1.01500,53.4375,106,49,0.58364
5002930,1.01000,53.2500,106,49,0.57314
5002940,0.33000,52.7500,106,49,0.55287
5002950,-0.20250,52.4375,106,49,0.54168
5002960,-0.49000,52.1875,106,49,0.53455
5002970,-0.43500,51.8750,106,49,0.52650
5002980,-0.32500,51.2500,106,49,0.50940
5002990,-0.30500,50.9375,106,49,0.50085
5003000,-0.30500,50.6250,106,49,0.49255
5003010,-0.28500,50.3125,106,49,0.48474
5003020,-0.22500,49.6875,106,49,0.46911
5003030,-0.16000,49.4375,106,49,0.46154
5003040,-0.14500,49.1250,106,49,0.45397
5003050,-0.15500,48.8125,106,49,0.44664
5003060,-0.15500,48.3750,106,49,0.43516
5003070,-0.13500,48.5000,106,49,0.42930
5003080,-0.07500,49.1875,106,49,0.42295
5003090,-0.00500,50.9375,106,49,0.41661
5003100,0.04000,58.1875,106,49,0.40391
5003110,0.02500,63.3750,106,49,0.39756
5003120,-0.01000,68.8750,106,49,0.39145
5003130,-0.03500,74.5625,106,49,0.38510
5003140,-0.03000,85.5625,106,49,0.37265
5003150,-0.00500,90.5000,106,49,0.36679
5003160,0.00500,94.9375,106,49,0.36215
5003170,0.00500,98.6875,106,49,0.35824
5003180,0.01000,104.1250,106,49,0.34823
5003190,0.02000,105.8125,106,49,0.34310
5003200,0.03000,106.8750,106,49,0.33797
5003210,0.03500,107.3750,106,49,0.33309
5003220,0.03500,107.1875,106,49,0.32332
5003230,0.04000,106.6250,106,49,0.31844
5003240,0.05000,105.8125,106,49,0.31355
5003250,0.05000,104.8750,106,49,0.30867
5003260,0.04500,102.5000,106,49,0.30256
5003270,0.04000,101.1250,106,49,0.29915
5003280,0.03500,99.6875,106,49,0.29524
5003290,0.02500,98.3125,106,49,0.29109
5003300,0.02000,95.5000,106,49,0.28278
5003310,0.00000,94.0625,106,49,0.27839
5003320,-0.02000,92.6875,106,49,0.27399
5003330,-0.03000,91.3125,106,49,0.26984
5003340,-0.03000,88.3750,106,49,0.26276
5003350,-0.02500,86.8125,106,49,0.26105
5003360,-0.01500,85.0000,106,49,0.26178
5003370,-0.01500,83.0625,106,49,0.26471
5003380,-0.01500,78.6250,106,49,0.27912
5003390,-0.01500,76.5000,106,49,0.29206
5003400,-0.02000,74.5625,106,49,0.30965
5003410,-0.02500,72.9375,106,49,0.33138
5003420,-0.02500,70.3750,106,49,0.38559
5003430,-0.02500,69.3750,106,49,0.41636
5003440,-0.02500,68.6250,106,49,0.44811
5003450,-0.03000,68.0000,106,49,0.48034
5003460,-0.04000,66.9375,106,49,0.53333
5003470,-0.04500,66.5625,106,49,0.56044
5003480,-0.04500,66.1250,106,49,0.58730
5003490,-0.04500,65.7500,106,49,0.61319
5003500,-0.03000,64.9375,106,49,0.65934
5003510,-0.02000,64.5625,106,49,0.67888
5003520,-0.00500,64.1875,106,49,0.69597
5003530,0.00500,63.8125,106,49,0.71062
5003540,0.02000,63.0000,106,49,0.73309
5003550,0.03000,62.6250,106,49,0.74090
5003560,0.05000,62.2500,106,49,0.74554
5003570,0.06000,61.8750,106,49,0.74774
5003580,0.07000,61.1250,106,49,0.75116
5003590,0.05000,60.6875,106,49,0.75140
5003600,0.01000,60.2500,106,49,0.75067
5003610,-0.04500,59.8750,106,49,0.74872
5003620,-0.09000,59.0000,106,49,0.74066
5003630,-0.11500,58.5625,106,49,0.73480
5003640,-0.12500,58.1875,106,49,0.72772
5003650,-0.13000,57.7500,106,49,0.71941
5003660,-0.14000,56.9375,106,49,0.70110
5003670,-0.15500,56.5625,106,49,0.69060
5003680,-0.17000,56.1875,106,49,0.67937
5003690,-0.16500,55.8125,106,49,0.66789
5003700,-0.15500,55.1875,106,49,0.64396
5003710,-0.15500,54.9375,106,49,0.63223
5003720,-0.14000,54.6250,106,49,0.62076
5003730,0.12000,54.3750,106,49,0.60952
5003740,0.72500,54.0000,106,49,0.58803
5003750,1.16500,53.8125,106,49,0.57778
5003760,0.80500,53.6250,106,49,0.56850
5003770,0.00000,53.3750,106,49,0.55995
5003780,-0.44500,52.8125,106,49,0.54212
5003790,-0.46500,52.5625,106,49,0.53333
5003800,-0.34000,52.2500,106,49,0.52454
5003810,-0.27500,52.0000,106,49,0.51575
5003820,-0.27000,51.3750,106,49,0.49890
5003830,-0.26000,51.0000,106,49,0.49060
5003840,-0.22500,50.6875,106,49,0.48278
5003850,-0.20000,50.3750,106,49,0.47521
5003860,-0.18000,49.8125,106,49,0.46276
5003870,-0.17500,49.5000,106,49,0.45617
5003880,-0.17500,49.2500,106,49,0.44908
5003890,-0.17500,49.0625,106,49,0.44200
5003900,-0.17500,49.7500,106,49,0.42759
5003910,-0.16500,51.3125,106,49,0.42051
5003920,-0.13500,54.1875,106,49,0.41343
5003930,-0.10500,58.3750,106,49,0.40684
5003940,-0.09000,69.1875,106,49,0.39341
5003950,-0.08500,74.9375,106,49,0.38803
5003960,-0.08500,80.6250,106,49,0.38315
5003970,-0.07500,86.0625,106,49,0.37753
5003980,-0.06667,93.1042,106,49,0.36891
5003990,-0.06000,99.3750,106,49,0.36020
5004000,-0.05500,102.5000,106,49,0.35433
5004010,-0.07000,104.9375,106,49,0.34872
5004020,-0.07500,107.7500,106,49,0.33822
5004030,-0.03500,108.3125,106,49,0.33284
5004040,-0.00500,108.5000,106,49,0.32747
5004050,0.01000,108.3125,106,49,0.32234
5004060,0.03500,107.1250,106,49,0.31575
5004070,0.06000,106.1875,106,49,0.31209
5004080,0.07000,105.1250,106,49,0.30794
5004090,0.07500,103.9375,106,49,0.30354
5004100,0.08000,101.3750,106,49,0.29475
5004110,0.08500,100.0000,106,49,0.29060
5004120,0.08000,98.6250,106,49,0.28645
5004130,0.06000,97.1875,106,49,0.28230
5004140,0.03500,94.3750,106,49,0.27375
5004150,0.01000,92.9375,106,49,0.27082
5004160,0.00000,91.5000,106,49,0.26862
5004170,-0.01000,90.0000,106,49,0.26593
5004180,-0.01500,86.6875,106,49,0.26227
5004190,-0.02500,84.6875,106,49,0.26349
5004200,-0.03500,82.5000,106,49,0.26813
5004210,-0.05500,80.1875,106,49,0.27643
5004220,-0.06500,75.7500,106,49,0.30696
5004230,-0.07167,73.9375,106,49,0.32894
5004240,-0.07500,72.4375,106,49,0.35458
5004250,-0.07500,71.2500,106,49,0.38364
5004260,-0.07500,69.4375,106,49,0.43712
5004270,-0.08000,68.7500,106,49,0.46691
5004280,-0.08500,68.2500,106,49,0.49841
5004290,-0.08500,67.8125,106,49,0.52991
5004300,-0.08500,67.0625,106,49,0.58999
5004310,-0.08500,66.6875,106,49,0.61709
5004320,-0.08500,66.3125,106,49,0.64176
5004330,-0.08000,66.0000,106,49,0.66398
5004340,-0.08000,65.2500,106,49,0.70110
5004350,-0.07500,64.8750,106,49,0.71355
5004360,-0.07500,64.4375,106,49,0.72308
5004370,-0.07000,64.0000,106,49,0.73236
5004380,-0.06500,63.1875,106,49,0.74750
5004390,-0.06000,62.8125,106,49,0.75238
5004400,-0.03000,62.3750,106,49,0.75556
5004410,0.00500,62.0000,106,49,0.75726
5004420,0.02000,61.1875,106,49,0.75604
5004430,0.00500,60.7500,106,49,0.75360
5004440,-0.03000,60.3125,106,49,0.75018
5004450,-0.06500,59.9375,106,49,0.74554
5004460,-0.09000,59.1250,106,49,0.73260
5004470,-0.10500,58.7500,106,49,0.72454
5004480,-0.10500,58.3750,106,49,0.71526
5004490,-0.11000,58.0000,106,49,0.70549
5004500,-0.11500,57.1875,106,49,0.68376
5004510,-0.11500,56.7500,106,49,0.67204
5004520,-0.11500,56.3750,106,49,0.66007
5004530,-0.11500,56.0625,106,49,0.64811
5004540,-0.12000,55.4375,106,49,0.62418
5004550,-0.14500,55.1250,106,49,0.61319
5004560,-0.04500,54.8750,106,49,0.60317
5004570,0.38500,54.5625,106,49,0.59267
5004580,1.02500,54.1250,106,49,0.57192
5004590,1.09000,53.8750,106,49,0.56190
5004600,0.34000,53.6250,106,49,0.55238
5004610,-0.34500,53.3750,106,49,0.54310
5004620,-0.53500,52.8125,106,49,0.52308
5004630,-0.43500,52.5000,106,49,0.51111
5004640,-0.31500,52.1875,106,49,0.50110
5004650,-0.27000,51.8750,106,49,0.49206
5004660,-0.25000,51.2500,106,49,0.47766
5004670,-0.22000,50.8750,106,49,0.47057
5004680,-0.20500,50.5000,106,49,0.46325
5004690,-0.19000,50.1875,106,49,0.45592
5004700,-0.18000,49.6250,106,49,0.44103
5004710,-0.17000,49.3125,106,49,0.43370
5004720,-0.16000,49.0625,106,49,0.42662
5004730,-0.15500,49.0625,106,49,0.41954
5004740,-0.15500,50.8750,106,49,0.40513
5004750,-0.15500,53.5000,106,49,0.39951
5004760,-0.15500,57.5625,106,49,0.39438
5004770,-0.14500,62.6250,106,49,0.38877
5004780,-0.13500,74.0625,106,49,0.37680
5004790,-0.11500,79.8750,106,49,0.37045
5004800,-0.09500,85.3750,106,49,0.36435
5004810,-0.06500,90.5000,106,49,0.35824
5004820,-0.03500,99.1250,106,49,0.34652
5004830,-0.01000,102.3750,106,49,0.34066
5004840,0.01000,104.8750,106,49,0.33504
5004850,0.03000,106.6875,106,49,0.32967
5004860,0.04000,108.4375,106,49,0.32210
5004870,0.04000,108.6250,106,49,0.31795
5004880,0.03500,108.3750,106,49,0.31331
5004890,0.03500,107.8750,106,49,0.30867
5004900,0.03500,106.1250,106,49,0.29939
5004910,0.03500,105.0000,106,49,0.29475
5004920,0.04000,103.8125,106,49,0.29011
5004930,0.04000,102.5000,106,49,0.28571
5004940,0.03000,99.7500,106,49,0.27741
5004950,0.02000,98.3125,106,49,0.27473
5004960,-0.00500,96.8125,106,49,0.27253
5004970,-0.02500,95.3750,106,49,0.26935
5004980,-0.04500,92.5000,106,49,0.26154
5004990,-0.06000,91.1250,106,49,0.25763
5005000,-0.06500,89.9688,105,49,0.25368
5005010,-0.06500,88.0000,105,49,0.25104
5005020,-0.06500,84.1875,105,49,0.25104
5005030,-0.07500,82.0000,105,49,0.25568
5005040,-0.08500,79.6875,105,49,0.26398
5005050,-0.07500,77.5000,105,49,0.27668
5005060,-0.05500,73.6250,105,49,0.30891
5005070,-0.04500,72.1250,105,49,0.33162
5005080,-0.04500,70.8125,105,49,0.35849
5005090,-0.04500,69.8125,105,49,0.38828
5005100,-0.04500,68.2500,105,49,0.45275
5005110,-0.03500,67.6875,105,49,0.48523
5005120,-0.02000,67.2500,105,49,0.51722
5005130,-0.01500,66.9375,105,49,0.54799
5005140,-0.01500,66.2500,105,49,0.60440
5005150,-0.02500,65.9375,105,49,0.62613
5005160,-0.04000,65.6250,105,49,0.64420
5005170,-0.04500,65.2500,105,49,0.66276
5005180,-0.05000,64.5000,105,49,0.69548
5005190,-0.05000,64.0625,105,49,0.70867
5005200,-0.04000,63.6250,105,49,0.71966
5005210,-0.01000,63.1875,105,49,0.72845
5005220,0.04000,62.3125,105,49,0.73968
5005230,0.08000,61.8750,105,49,0.74261
5005240,0.07000,61.4375,105,49,0.74408
5005250,0.03000,61.0000,105,49,0.74408
5005260,-0.02000,60.1250,105,49,0.73871
5005270,-0.05500,59.6875,105,49,0.73480
5005280,-0.08000,59.2500,105,49,0.72991
5005290,-0.10500,58.3750,105,49,0.72405
5005300,-0.11000,57.9375,105,49,0.70867
5005310,-0.11000,57.5625,105,49,0.69915
5005320,-0.11000,57.1875,105,49,0.68889
5005330,-0.10500,56.7500,105,49,0.67766
5005340,-0.09500,56.0625,105,49,0.65397
5005350,-0.08500,55.7500,105,49,0.64274
5005360,-0.09500,55.5000,105,49,0.63199
5005370,-0.09000,55.2500,105,49,0.62076
5005380,0.14000,54.8125,105,49,0.59829
5005390,0.69500,54.6250,105,49,0.58730
5005400,1.10500,54.3750,105,49,0.57656
5005410,0.78500,54.1875,105,49,0.56606
5005420,0.04000,53.6875,105,49,0.54554
5005430,-0.39500,53.3750,105,49,0.53578
5005440,-0.44000,53.0625,105,49,0.52650
5005450,-0.31500,52.7500,105,49,0.51746
5005460,-0.23000,52.0000,105,49,0.50232
5005470,-0.20500,51.5625,105,49,0.49451
5005480,-0.19500,51.1875,105,49,0.48645
5005490,-0.18000,50.8750,105,49,0.47839
5005500,-0.16500,50.1875,105,49,0.46300
5005510,-0.15500,49.8125,105,49,0.45568
5005520,-0.15000,49.5000,105,49,0.44811
5005530,-0.14000,49.1875,105,49,0.44078
5005540,-0.12500,48.9375,105,49,0.42613
5005550,-0.11000,49.1875,105,49,0.42002
5005560,-0.10000,50.3125,105,49,0.41441
5005570,-0.09500,52.5625,105,49,0.40830
5005580,-0.09000,60.8750,105,49,0.39536
5005590,-0.08000,66.1875,105,49,0.38852
5005600,-0.07000,71.6875,105,49,0.38193
5005610,-0.05000,77.1875,105,49,0.37509
5005620,-0.03000,87.5000,105,49,0.36166
5005630,-0.01000,92.0625,105,49,0.35507
5005640,0.00500,96.0000,105,49,0.34872
5005650,0.03000,99.2500,105,49,0.34383
5005660,0.05000,103.6250,105,49,0.33529
5005670,0.06000,104.8125,105,49,0.33040
5005680,0.07000,105.4375,105,49,0.32527
5005690,0.07000,105.5625,105,49,0.31990
5005700,0.07000,104.6875,105,49,0.30965
5005710,0.08000,103.8125,105,49,0.30427
5005720,0.09000,102.7500,105,49,0.29890
5005730,0.10000,101.5000,105,49,0.29377
5005740,0.10500,98.8125,105,49,0.28376
5005750,0.11000,97.3750,105,49,0.28034
5005760,0.10000,95.9375,105,49,0.27790
5005770,0.08000,94.5625,105,49,0.27448
5005780,0.05000,91.7500,105,49,0.26642
5005790,0.03000,90.3750,105,49,0.26227
5005800,0.01000,89.0000,105,49,0.25812
5005810,-0.00500,87.5625,105,49,0.25421
5005820,-0.00500,84.2500,105,49,0.24713
5005830,-0.00500,82.3125,105,49,0.24542
5005840,0.00000,80.1875,105,49,0.24591
5005850,0.00000,78.0000,105,49,0.24884
5005860,-0.00500,73.8125,105,49,0.26398
5005870,-0.00500,72.1250,105,49,0.27766
5005880,-0.00500,70.6875,105,49,0.29548
5005890,0.00000,69.5000,105,49,0.31722
5005900,0.00000,67.6875,105,49,0.37070
5005910,-0.00500,67.0000,105,49,0.40073
5005920,-0.01500,66.4375,105,49,0.43150
5005930,-0.02500,65.9375,105,49,0.46227
5005940,-0.03500,65.1875,105,49,0.52161
5005950,-0.04000,64.8125,105,49,0.54579
5005960,-0.04000,64.5000,105,49,0.56679
5005970,-0.04000,64.1875,105,49,0.58852
5005980,-0.04000,63.5000,105,49,0.62833
5005990,-0.03500,63.1875,105,49,0.64542
5006000,-0.02500,62.8750,105,49,0.66007
5006010,-0.01500,62.6250,105,49,0.67228
5006020,-0.00500,62.2125,105,49,0.68400
5006030,0.01417,61.7250,105,49,0.69377
5006040,0.04000,61.2500,105,49,0.70012
5006050,0.07000,60.8750,105,49,0.70159
5006060,0.07000,60.0625,105,49,0.70061
5006070,0.03500,59.6875,105,49,0.69915
5006080,-0.01000,59.1875,105,49,0.69646
5006090,-0.04000,58.7500,105,49,0.69255
5006100,-0.07000,57.8750,105,49,0.68132
5006110,-0.09000,57.4375,105,49,0.67399
5006120,-0.09500,57.0000,105,49,0.66569
5006130,-0.09000,56.6250,105,49,0.65641
5006140,-0.08500,55.8750,105,49,0.63590
5006150,-0.08500,55.5625,105,49,0.62564
5006160,-0.08500,55.1875,105,49,0.61563
5006170,-0.08500,54.8750,105,49,0.60513
5006180,-0.09000,54.2500,105,49,0.58315
5006190,-0.10000,54.0625,105,49,0.57241
5006200,0.07000,53.8750,105,49,0.56190
5006210,0.54500,53.7500,105,49,0.55189
5006220,1.02500,53.3125,105,49,0.53260
5006230,0.87000,53.0625,105,49,0.52332
5006240,0.16500,52.7500,105,49,0.51453
5006250,-0.32500,52.4375,105,49,0.50696
5006260,-0.45500,51.8125,105,49,0.49255
5006270,-0.36500,51.4375,105,49,0.48474
5006280,-0.26500,51.0625,105,49,0.47692
5006290,-0.23000,50.6875,105,49,0.46935
5006300,-0.21500,50.0625,105,49,0.45470
5006310,-0.20000,49.7500,105,49,0.44762
5006320,-0.18000,49.3750,105,49,0.44054
5006330,-0.17000,49.0625,105,49,0.43346
5006340,-0.16000,48.5000,105,49,0.41978
5006350,-0.15000,48.2500,105,49,0.41416
5006360,-0.13500,48.0625,105,49,0.40904
5006370,-0.12000,48.1250,105,49,0.40317
5006380,-0.10500,49.8750,105,49,0.39072
5006390,-0.10000,52.4375,105,49,0.38437
5006400,-0.10000,56.3125,105,49,0.37827
5006410,-0.09500,61.1250,105,49,0.37216
5006420,-0.08500,71.7500,105,49,0.36020
5006430,-0.07500,77.1250,105,49,0.35458
5006440,-0.05500,82.2500,105,49,0.34896
5006450,-0.03500,87.0625,105,49,0.34457
5006460,-0.01500,95.1250,105,49,0.33651
5006470,0.00500,98.2500,105,49,0.33187
5006480,0.02000,100.6250,105,49,0.32698
5006490,0.03000,102.3125,105,49,0.32210
5006500,0.03000,103.9375,105,49,0.31306
5006510,0.03000,104.0000,105,49,0.30867
5006520,0.03500,103.6875,105,49,0.30427
5006530,0.04000,103.0625,105,49,0.30012
5006540,0.05000,101.1875,105,49,0.29182
5006550,0.06500,100.0000,105,49,0.28864
5006560,0.08000,98.6875,105,49,0.28620
5006570,0.09000,97.3125,105,49,0.28278
5006580,0.08000,94.5000,105,49,0.27497
5006590,0.07000,93.0625,105,49,0.27082
5006600,0.04000,91.6250,105,49,0.26642
5006610,0.02000,90.1875,105,49,0.26227
5006620,0.00000,87.3125,105,49,0.25372
5006630,-0.00500,85.7500,105,49,0.24982
5006640,-0.01000,84.1250,105,49,0.24615
5006650,-0.01500,82.3750,105,49,0.24444
5006660,-0.01500,78.2500,105,49,0.24542
5006670,-0.01500,76.0000,105,49,0.25079
5006680,-0.01500,73.8750,105,49,0.26032
5006690,-0.01500,72.0000,105,49,0.27204
5006700,-0.01500,69.1250,105,49,0.30598
5006710,-0.01500,68.0625,105,49,0.32869
5006720,-0.02500,67.1875,105,49,0.35458
5006730,-0.02500,66.4375,105,49,0.38291
5006740,-0.03000,65.4375,105,49,0.44322
5006750,-0.03500,65.0625,105,49,0.46984
5006760,-0.04000,64.7500,105,49,0.49402
5006770,-0.04000,64.4375,105,49,0.52015
5006780,-0.04500,63.8125,105,49,0.57143
5006790,-0.05500,63.4375,105,49,0.59487
5006800,-0.06000,63.1250,105,49,0.61636
5006810,-0.06000,62.7500,105,49,0.63541
5006820,-0.06000,62.0625,105,49,0.66618
5006830,-0.05500,61.6875,105,49,0.67790
5006840,-0.04500,61.3125,105,49,0.68718
5006850,-0.02500,60.9375,105,49,0.69304
5006860,0.00500,60.1250,105,49,0.69988
5006870,0.04000,59.6875,105,49,0.70208
5006880,0.04000,59.2500,105,49,0.70281
5006890,0.01000,58.8125,105,49,0.70232
5006900,-0.03500,57.9375,105,49,0.69695
5006910,-0.06500,57.5625,105,49,0.69231
5006920,-0.10000,57.1875,105,49,0.68645
5006930,-0.11500,56.8125,105,49,0.67961
5006940,-0.12000,56.1250,105,49,0.66252
5006950,-0.11500,55.8125,105,49,0.65348
5006960,-0.11500,55.5000,105,49,0.64420
5006970,-0.11000,55.1875,105,49,0.63419
5006980,-0.10500,54.6875,105,49,0.61221
5006990,-0.09000,54.4375,105,49,0.60098
5007000,-0.09000,54.1875,106,49,0.58974
5007010,-0.10000,54.0000,106,49,0.57875
5007020,0.04000,53.6250,106,49,0.55800
5007030,0.50000,53.4375,106,49,0.54799
5007040,1.04000,53.2500,106,49,0.53846
5007050,0.83834,52.9271,106,49,0.52633
5007060,0.27500,52.5625,106,49,0.51477
5007070,-0.27000,52.2500,106,49,0.50696
5007080,-0.42500,51.9375,106,49,0.49915
5007090,-0.34500,51.5625,106,49,0.49133
5007100,-0.24000,50.9375,106,49,0.47619
5007110,-0.20000,50.6250,106,49,0.46886
5007120,-0.19500,50.3125,106,49,0.46178
5007130,-0.18000,50.0000,106,49,0.45470
5007140,-0.17000,49.3750,106,49,0.44103
5007150,-0.16000,49.0625,106,49,0.43516
5007160,-0.15500,48.7500,106,49,0.42979
5007170,-0.15500,48.4375,106,49,0.42393
5007180,-0.14500,48.0000,106,49,0.41172
5007190,-0.14500,48.1250,106,49,0.40562
5007200,-0.14000,48.8125,106,49,0.39976
5007210,-0.13000,50.5000,106,49,0.39390
5007220,-0.12500,57.6250,106,49,0.38217
5007230,-0.11500,62.5625,106,49,0.37631
5007240,-0.10000,67.8125,106,49,0.37070
5007250,-0.08500,73.1250,106,49,0.36606
5007260,-0.07000,83.4375,106,49,0.35726
5007270,-0.05500,88.1250,106,49,0.35214
5007280,-0.04000,92.3125,106,49,0.34676
5007290,-0.01500,96.0000,106,49,0.34139
5007300,0.00000,101.3125,106,49,0.33138
5007310,0.01500,103.0000,106,49,0.32650
5007320,0.02000,104.0000,106,49,0.32186
5007330,0.03000,104.5000,106,49,0.31722
5007340,0.03500,104.1875,106,49,0.30867
5007350,0.04000,103.5000,106,49,0.30574
5007360,0.04500,102.6250,106,49,0.30354
5007370,0.06000,101.5000,106,49,0.30061
5007380,0.07000,98.8750,106,49,0.29353
5007390,0.08000,97.4375,106,49,0.28987
5007400,0.08000,96.0000,106,49,0.28620
5007410,0.07500,94.5000,106,49,0.28278
5007420,0.05000,91.5625,106,49,0.27546
5007430,0.03000,90.1875,106,49,0.27179
5007440,0.01000,88.8125,106,49,0.26813
5007450,0.00000,87.4375,106,49,0.26569
5007460,-0.00500,84.3750,106,49,0.26154
5007470,-0.00500,82.6250,106,49,0.25983
5007480,-0.00500,80.6875,106,49,0.25934
5007490,-0.00500,78.5625,106,49,0.26129
5007500,-0.01500,74.3750,106,49,0.27473
5007510,-0.02500,72.5625,106,49,0.28742
5007520,-0.03500,71.0625,106,49,0.30452
5007530,-0.03500,69.8125,106,49,0.32552
5007540,-0.04000,67.8125,106,49,0.37411
5007550,-0.04500,67.1250,106,49,0.39805
5007560,-0.06000,66.5000,106,49,0.42613
5007570,-0.06500,65.9375,106,49,0.45592
5007580,-0.07000,65.1250,106,49,0.51575
5007590,-0.07500,64.7500,106,49,0.54408
5007600,-0.08500,64.3750,106,49,0.57070
5007610,-0.08500,63.9375,106,49,0.59536
5007620,-0.08500,63.1875,106,49,0.63810
5007630,-0.08500,62.7500,106,49,0.65617
5007640,-0.08000,62.3750,106,49,0.67204
5007650,-0.07000,62.0000,106,49,0.68352
5007660,-0.06000,61.1875,106,49,0.70012
5007670,-0.03500,60.8125,106,49,0.70720
5007680,-0.00500,60.4375,106,49,0.71282
5007690,0.03000,60.0000,106,49,0.71697
5007700,0.03000,59.1250,106,49,0.72088
5007710,-0.01000,58.6875,106,49,0.72088
5007720,-0.04500,58.1875,106,49,0.71941
5007730,-0.07500,57.7500,106,49,0.71648
5007740,-0.10000,57.0000,106,49,0.70672
5007750,-0.11500,56.6250,106,49,0.70012
5007760,-0.12000,56.2500,106,49,0.69280
5007770,-0.11500,55.9375,106,49,0.68449
5007780,-0.10500,55.3125,106,49,0.66520
5007790,-0.10000,55.0000,106,49,0.65470
5007800,-0.09500,54.7500,106,49,0.64396
5007810,-0.08500,54.5000,106,49,0.63297
5007820,-0.08500,54.1875,106,49,0.61074
5007830,-0.09000,54.1250,106,49,0.59976
5007840,0.09500,54.0000,106,49,0.58926
5007850,0.60000,53.8750,106,49,0.57973
5007860,1.08500,53.5625,106,49,0.56190
5007870,0.89000,53.3125,106,49,0.55287
5007880,0.15500,53.0000,106,49,0.54383
5007890,-0.34000,52.6250,106,49,0.53504
5007900,-0.45500,51.8125,106,49,0.51819
5007910,-0.36500,51.3750,106,49,0.50989
5007920,-0.28000,50.9375,106,49,0.50183
5007930,-0.25000,50.5000,106,49,0.49402
5007940,-0.23500,49.6250,106,49,0.47985
5007950,-0.22000,49.2500,106,49,0.47399
5007960,-0.20500,48.8750,106,49,0.46764
5007970,-0.19000,48.5000,106,49,0.46129
5007980,-0.18500,47.8125,106,49,0.44835
5007990,-0.16500,47.5000,106,49,0.44176
5008000,-0.14500,47.3125,106,49,0.43492
5008010,-0.12000,47.3750,106,49,0.42808
5008020,-0.11000,49.6875,106,49,0.41441
5008030,-0.10500,52.6250,106,49,0.40757
5008040,-0.10000,56.8125,106,49,0.40098
5008050,-0.08500,61.8750,106,49,0.39560
5008060,-0.07000,72.7500,106,49,0.38559
5008070,-0.05500,79.0563,106,49,0.37946
5008080,-0.04250,83.3812,106,49,0.37438
5008090,-0.03000,88.3125,106,49,0.36752
5008100,-0.01500,96.4375,106,49,0.35604
5008110,0.01000,99.5625,106,49,0.35043
5008120,0.02000,102.0625,106,49,0.34505
5008130,0.03500,103.8125,106,49,0.33993
5008140,0.04000,105.5625,106,49,0.33138
5008150,0.04000,105.6875,106,49,0.32845
5008160,0.04000,105.4375,106,49,0.32454
5008170,0.04500,104.8750,106,49,0.32039
5008180,0.04500,103.0625,106,49,0.31136
5008190,0.05000,101.9375,106,49,0.30696
5008200,0.06000,100.6875,106,49,0.30256
5008210,0.07000,99.3750,106,49,0.29841
5008220,0.07500,96.5625,106,49,0.29035
5008230,0.06500,95.1875,106,49,0.28645
5008240,0.04500,93.7500,106,49,0.28254
5008250,0.02500,92.3750,106,49,0.27985
5008260,0.01000,89.5625,106,49,0.27497
5008270,-0.00500,88.0625,106,49,0.27155
5008280,-0.01500,86.5625,106,49,0.26838
5008290,-0.01500,84.8750,106,49,0.26593
5008300,-0.01500,80.9375,106,49,0.26593
5008310,-0.01500,78.7500,106,49,0.26984
5008320,-0.01500,76.5000,106,49,0.27741
5008330,-0.01500,74.4375,106,49,0.28938
5008340,-0.01500,71.0000,106,49,0.32283
5008350,-0.00500,69.6875,106,49,0.34212
5008360,-0.00500,68.6250,106,49,0.36630
5008370,-0.00500,67.6875,106,49,0.39365
5008380,-0.00500,66.3125,106,49,0.45372
5008390,-0.01000,65.7500,106,49,0.48449
5008400,-0.02000,65.3125,106,49,0.51477
5008410,-0.02500,64.8750,106,49,0.54408
5008420,-0.03500,64.1875,106,49,0.59780
5008430,-0.03500,63.8125,106,49,0.62149
5008440,-0.03500,63.5000,106,49,0.64322
5008450,-0.03500,63.1250,106,49,0.65983
5008460,-0.03500,62.5000,106,49,0.68620
5008470,-0.02500,62.1875,106,49,0.69841
5008480,-0.01500,61.8125,106,49,0.70891
5008490,0.00000,61.5000,106,49,0.71746
5008500,0.02500,60.7500,106,49,0.72918
5008510,0.04500,60.3750,106,49,0.73236
5008520,0.03000,59.9375,106,49,0.73382
5008530,-0.00500,59.5000,106,49,0.73382
5008540,-0.04500,58.6875,106,49,0.72967
5008550,-0.07500,58.2500,106,49,0.72552
5008560,-0.09500,57.8750,106,49,0.72063
5008570,-0.10500,57.4375,106,49,0.71477
5008580,-0.11000,56.5625,106,49,0.70037
5008590,-0.11000,56.1875,106,49,0.69133
5008600,-0.10500,55.7500,106,49,0.68156
5008610,-0.10000,55.3750,106,49,0.67106
5008620,-0.09500,54.7500,106,49,0.64835
5008630,-0.09500,54.4375,106,49,0.63663
5008640,-0.10500,54.2500,106,49,0.62466
5008650,-0.11500,54.0625,106,49,0.61392
5008660,0.04000,53.6875,106,49,0.59316
5008670,0.52500,53.5000,106,49,0.58266
5008680,1.04500,53.2500,106,49,0.57216
5008690,0.90000,53.0625,106,49,0.56190
5008700,0.21000,52.4375,106,49,0.54212
5008710,-0.30000,52.1250,106,49,0.53260
5008720,-0.44000,51.7500,106,49,0.52405
5008730,-0.34500,51.3750,106,49,0.51624
5008740,-0.24500,50.5625,106,49,0.50061
5008750,-0.22000,50.1875,106,49,0.49377
5008760,-0.21000,49.8750,106,49,0.48596
5008770,-0.19000,49.1250,106,49,0.46960
5008780,-0.17500,48.8125,106,49,0.46154
5008790,-0.15500,48.5000,106,49,0.45348
5008800,-0.14500,48.1875,106,49,0.44567
5008810,-0.13500,47.9375,106,49,0.43810
5008820,-0.11000,47.7500,106,49,0.42369
5008830,-0.08500,48.2500,106,49,0.41685
5008840,-0.06500,49.5625,106,49,0.41026
5008850,-0.04500,56.0625,106,49,0.40464
5008860,-0.02500,60.8750,106,49,0.39414
5008870,0.00000,66.2500,106,49,0.38803
5008880,0.02500,71.7500,106,49,0.38193
5008890,0.03000,77.1875,106,49,0.37582
5008900,0.03000,87.4375,106,49,0.36386
5008910,0.03000,91.9375,106,49,0.35775
5008920,0.02000,95.9375,106,49,0.35189
5008930,-0.01000,99.2500,106,49,0.34603
5008940,-0.04500,103.8750,106,49,0.33626
5008950,-0.09000,105.1875,106,49,0.33284
5008960,-0.13000,105.9375,106,49,0.32845
5008970,-0.16500,106.1875,106,49,0.32381
5008980,-0.19000,105.6875,106,49,0.31380
5008990,-0.19500,105.0000,106,49,0.30867
5009000,-0.18500,104.1875,106,49,0.30379
5009010,-0.16000,102.0000,106,49,0.29451
5009020,-0.14500,100.7500,106,49,0.29011
5009030,-0.12000,99.4375,106,49,0.28571
5009040,-0.10500,98.0625,106,49,0.28132
5009050,-0.09500,96.6875,106,49,0.27839
5009060,-0.09500,93.8125,106,49,0.27277
5009070,-0.09500,92.4375,106,49,0.26886
5009080,-0.09000,91.0625,106,49,0.26471
5009090,-0.08500,89.6250,106,49,0.26056
5009100,-0.07917,87.2813,106,49,0.25539
5009110,-0.07000,84.7500,106,49,0.25177
5009120,-0.05500,82.7500,106,49,0.25226
5009130,-0.04500,80.5625,106,49,0.25592
5009140,-0.04500,76.0625,106,49,0.27375
5009150,-0.04000,74.0000,106,49,0.28694
5009160,-0.03000,72.1875,106,49,0.30501
5009170,-0.02500,70.6875,106,49,0.32772
5009180,-0.02000,68.3750,106,49,0.38364
5009190,-0.02500,67.4375,106,49,0.41514
5009200,-0.03500,66.6250,106,49,0.44762
5009210,-0.04500,66.0000,106,49,0.48034
5009220,-0.05000,64.9375,106,49,0.54432
5009230,-0.05500,64.5000,106,49,0.57436
5009240,-0.06000,64.1250,106,49,0.60220
5009250,-0.06000,63.7500,106,49,0.62466
5009260,-0.06000,63.0625,106,49,0.66252
5009270,-0.06000,62.6875,106,49,0.68083
5009280,-0.05500,62.3750,106,49,0.69744
5009290,-0.04500,61.6875,106,49,0.72381
5009300,-0.03500,61.3750,106,49,0.73358
5009310,-0.01500,61.1250,106,49,0.74139
5009320,0.02000,60.8125,106,49,0.74701
5009330,0.05000,60.4375,106,49,0.75092
5009340,0.05500,59.8125,106,49,0.75360
5009350,0.03000,59.4375,106,49,0.75189
5009360,-0.01000,59.1250,106,49,0.74969
5009370,-0.04000,58.7500,106,49,0.74701
5009380,-0.05500,58.0625,106,49,0.73797
5009390,-0.07500,57.6875,106,49,0.73162
5009400,-0.08500,57.3125,106,49,0.72405
5009410,-0.08000,56.9375,106,49,0.71526
5009420,-0.07500,56.2500,106,49,0.69475
5009430,-0.07000,55.8750,106,49,0.68352
5009440,-0.06500,55.5625,106,49,0.67277
5009450,-0.06000,55.1875,106,49,0.66203
5009460,-0.05500,54.6250,106,49,0.63858
5009470,-0.05500,54.3750,106,49,0.62662
5009480,0.13000,54.1250,106,49,0.61490
5009490,0.66000,53.8750,106,49,0.60342
5009500,1.16500,53.3750,106,49,0.58144
5009510,0.91500,53.0625,106,49,0.57094
5009520,0.17000,52.6875,106,49,0.56068
5009530,-0.32000,52.3125,106,49,0.55067
5009540,-0.43500,51.5625,106,49,0.53211
5009550,-0.33000,51.1875,106,49,0.52430
5009560,-0.24000,50.7500,106,49,0.51575
5009570,-0.22000,50.3750,106,49,0.50720
5009580,-0.20500,49.6875,106,49,0.48987
5009590,-0.19000,49.3750,106,49,0.48132
5009600,-0.17500,49.0625,106,49,0.47302
5009610,-0.17000,48.7500,106,49,0.46471
5009620,-0.17000,48.1250,106,49,0.44884
5009630,-0.16000,47.9375,106,49,0.44103
5009640,-0.15000,47.8125,106,49,0.43443
5009650,-0.13500,48.0625,106,49,0.42857
5009660,-0.12500,51.1250,106,49,0.41465
5009670,-0.11500,54.5625,106,49,0.40733
5009680,-0.10500,59.1875,106,49,0.40000
5009690,-0.09000,64.5000,106,49,0.39267
5009700,-0.07500,75.6875,106,49,0.37875
5009710,-0.06500,81.1875,106,49,0.37216
5009720,-0.04500,86.3750,106,49,0.36581
5009730,-0.02500,91.1250,106,49,0.35922
5009740,-0.00500,98.8750,106,49,0.34823
5009750,0.01500,101.7500,106,49,0.34408
5009760,0.04000,103.9375,106,49,0.33919
5009770,0.06000,105.4375,106,49,0.33407
5009780,0.06500,106.7500,106,49,0.32357
5009790,0.07000,106.7500,106,49,0.31844
5009800,0.07000,106.3750,106,49,0.31306
5009810,0.07000,105.6875,106,49,0.30794
5009820,0.07000,103.6875,106,49,0.29817
5009830,0.07500,102.5000,106,49,0.29353
5009840,0.08000,101.1875,106,49,0.29035
5009850,0.08000,99.8750,106,49,0.28791
5009860,0.08000,97.1250,106,49,0.28059
5009870,0.06000,95.7500,106,49,0.27643
5009880,0.04000,94.3750,106,49,0.27228
5009890,0.01500,91.6250,106,49,0.26813
5009900,0.00000,90.2500,106,49,0.25958
5009910,-0.01000,88.8125,106,49,0.25568
5009920,-0.01000,87.2500,106,49,0.25250
5009930,-0.00500,85.6250,106,49,0.25055
5009940,0.00000,81.6875,106,49,0.25250
5009950,0.00000,79.4375,106,49,0.25788
5009960,-0.00500,77.2500,106,49,0.26667
5009970,-0.00500,75.1250,106,49,0.27985
5009980,-0.00500,71.7500,106,49,0.31941
5009990,-0.00500,70.4375,106,49,0.34554
5010000,-0.00500,69.3750,106,49,0.37485
5010010,-0.01500,68.4375,106,49,0.40635
5010020,-0.02500,67.0625,106,49,0.47228
5010030,-0.03500,66.5625,106,49,0.50525
5010040,-0.04500,66.0625,106,49,0.53309
5010050,-0.05500,65.6875,106,49,0.55800
5010060,-0.06000,64.8750,106,49,0.61050
5010070,-0.06000,64.5000,106,49,0.63541
5010080,-0.05500,64.1250,106,49,0.65812
5010090,-0.05500,63.7500,106,49,0.67863
5010100,-0.04500,63.0000,106,49,0.71209
5010110,-0.04000,62.6250,106,49,0.72527
5010120,-0.02500,62.3125,106,49,0.73553
5010130,0.00000,61.8750,106,49,0.74457
5010140,0.04000,61.1250,106,49,0.75409
5010150,0.04500,60.6875,106,49,0.75531
5010160,0.02000,60.3125,106,49,0.75629
5010170,-0.02500,59.8750,106,49,0.75629
5010180,-0.06000,59.0625,106,49,0.75311
5010190,-0.09000,58.6875,106,49,0.74969
5010200,-0.11500,58.2500,106,49,0.74481
5010210,-0.13500,57.8125,106,49,0.73871
5010220,-0.13500,57.0000,106,49,0.72234
5010230,-0.13500,56.6250,106,49,0.71258
5010240,-0.13000,56.2500,106,49,0.70281
5010250,-0.12000,55.8750,106,49,0.69255
5010260,-0.10500,55.2500,106,49,0.66984
5010270,-0.10000,55.0000,106,49,0.65763
5010280,-0.11000,54.7500,106,49,0.64542
5010290,-0.01000,54.5000,106,49,0.63321
5010300,0.39500,54.0625,106,49,0.60952
5010310,1.02000,53.8750,106,49,0.59805
5010320,1.13000,53.6875,106,49,0.58681
5010330,0.43000,53.4375,106,49,0.57607
5010340,-0.25000,52.9375,106,49,0.55653
5010350,-0.47000,52.6875,106,49,0.54799
5010360,-0.39500,52.3125,106,49,0.53895
5010370,-0.28000,52.0000,106,49,0.52991
5010380,-0.24000,51.3125,106,49,0.51184
5010390,-0.23500,50.9375,106,49,0.50305
5010400,-0.22000,50.6250,106,49,0.49451
5010410,-0.20500,50.2500,106,49,0.48596
5010420,-0.19000,49.6250,106,49,0.46984
5010430,-0.18500,49.3125,106,49,0.46178
5010440,-0.18000,49.0625,106,49,0.45495
5010450,-0.17500,48.8750,106,49,0.44860
5010460,-0.16500,49.3125,106,49,0.43492
5010470,-0.15500,50.6250,106,49,0.42784
5010480,-0.15500,53.2500,106,49,0.42051
5010490,-0.15000,57.1875,106,49,0.41343
5010500,-0.14500,67.6250,106,49,0.39927
5010510,-0.13000,73.3750,106,49,0.39243
5010520,-0.11500,79.0625,106,49,0.38559
5010530,-0.09500,84.5000,106,49,0.37900
5010540,-0.07500,94.2500,106,49,0.36752
5010550,-0.05000,98.1875,106,49,0.36313
5010560,-0.02500,101.4375,106,49,0.35800
5010570,0.00000,104.0000,106,49,0.35238
5010580,0.01500,107.0000,106,49,0.34115
5010590,0.02500,107.6250,106,49,0.33553
5010600,0.03000,107.8125,106,49,0.32991
5010610,0.03000,107.6250,106,49,0.32430
5010620,0.03500,106.3125,106,49,0.31404
5010630,0.04000,105.4375,106,49,0.30891
5010640,0.04500,104.3750,106,49,0.30525
5010650,0.05000,103.1875,106,49,0.30232
5010660,0.06000,100.6875,106,49,0.29426
5010670,0.05500,99.3125,106,49,0.28987
5010680,0.04000,98.0000,106,49,0.28547
5010690,0.02500,96.6250,106,49,0.28083
5010700,0.01000,93.8125,106,49,0.27155
5010710,0.00000,92.5000,106,49,0.26716
5010720,-0.00500,91.0625,106,49,0.26276
5010730,-0.00500,89.6250,106,49,0.25885
5010740,-0.00500,86.2500,106,49,0.25519
5010750,0.00000,84.3125,106,49,0.25641
5010760,0.01000,82.1250,106,49,0.25958
5010770,0.00500,77.6250,106,49,0.26618
5010780,-0.00500,75.5625,106,49,0.29158
5010790,-0.01500,73.8125,106,49,0.31087
5010800,-0.02500,72.3125,106,49,0.33431
5010810,-0.03000,71.0000,106,49,0.36142
5010820,-0.03500,69.0625,106,49,0.42295
5010830,-0.05000,68.3125,106,49,0.45543
5010840,-0.06000,67.7500,106,49,0.48400
5010850,-0.06500,67.2500,106,49,0.51038
5010860,-0.07000,66.4375,106,49,0.56801
5010870,-0.07500,66.0625,106,49,0.59609
5010880,-0.07500,65.6875,106,49,0.62247
5010890,-0.07000,65.3125,106,49,0.64689
5010900,-0.07000,64.6250,106,49,0.68816
5010910,-0.06500,64.2500,106,49,0.70501
5010920,-0.06500,64.2500,106,49,0.70501
5010930,-0.06500,64.2500,106,49,0.70501
5010940,-0.00500,62.6250,106,49,0.74505
5010950,0.01000,62.2500,106,49,0.74799
5010960,0.02500,61.8125,106,49,0.75092
5010970,0.01000,61.3750,106,49,0.75287
5010980,-0.03000,60.5000,106,49,0.75360
5010990,-0.07500,60.1250,106,49,0.75189
5011000,-0.11000,59.6875,106,49,0.74896
5011010,-0.13500,59.2500,106,49,0.74505
5011020,-0.15500,58.3750,106,49,0.73358
5011030,-0.15500,58.0000,106,49,0.72601
5011040,-0.15500,57.5625,106,49,0.71770
5011050,-0.16000,57.1875,106,49,0.70891
5011060,-0.15500,56.4375,106,49,0.68816
5011070,-0.14500,56.1250,106,49,0.67692
5011080,-0.13500,55.8750,106,49,0.66520
5011090,-0.13500,55.5625,106,49,0.65324
5011100,-0.10500,55.0625,106,49,0.62906
5011110,0.21000,54.8125,106,49,0.61709
5011120,0.87500,54.6250,106,49,0.60537
5011130,1.24500,54.3750,106,49,0.59389
5011140,0.77500,54.0688,106,49,0.58049
5011150,0.08583,53.7437,106,49,0.56676
5011160,-0.44500,53.4375,106,49,0.55433
5011170,-0.44000,53.1875,106,49,0.54481
5011180,-0.31000,52.5625,106,49,0.52625
5011190,-0.25500,52.1875,106,49,0.51722
5011200,-0.24500,51.8750,106,49,0.50818
5011210,-0.23000,51.5625,106,49,0.49963
5011220,-0.21000,50.8750,106,49,0.48278
5011230,-0.19000,50.5000,106,49,0.47448
5011240,-0.17000,50.1875,106,49,0.46716
5011250,-0.16500,49.8750,106,49,0.46081
5011260,-0.17000,49.4375,106,49,0.44640
5011270,-0.17000,49.5625,106,49,0.43907
5011280,-0.17000,50.2500,106,49,0.43175
5011290,-0.17000,51.9375,106,49,0.42442
5011300,-0.17000,59.4375,106,49,0.41001
5011310,-0.16000,64.6875,106,49,0.40293
5011320,-0.13500,70.3750,106,49,0.39585
5011330,-0.10500,76.1875,106,49,0.38901
5011340,-0.08500,87.1875,106,49,0.37851
5011350,-0.06500,92.1250,106,49,0.37289
5011360,-0.04500,96.5000,106,49,0.36679
5011370,-0.02500,100.1875,106,49,0.36068
5011380,-0.00500,105.3125,106,49,0.34872
5011390,0.00000,106.8125,106,49,0.34310
5011400,0.00500,107.6875,106,49,0.33773
5011410,0.01000,108.0000,106,49,0.33211
5011420,0.01000,107.6250,106,49,0.32137
5011430,0.00500,107.0000,106,49,0.31624
5011440,0.00000,106.1250,106,49,0.31233
5011450,0.01000,105.1250,106,49,0.30916
5011460,0.02000,102.7500,106,49,0.30085
5011470,0.03000,101.4375,106,49,0.29621
5011480,0.03000,100.0625,106,49,0.29182
5011490,0.02500,98.6875,106,49,0.28718
5011500,0.00500,95.9375,106,49,0.27790
5011510,-0.01500,94.5000,106,49,0.27350
5011520,-0.03000,93.1250,106,49,0.26911
5011530,-0.03500,91.6875,106,49,0.26471
5011540,-0.04000,88.6250,106,49,0.26007
5011550,-0.03500,86.9375,106,49,0.25788
5011560,-0.02500,85.0625,106,49,0.25665
5011570,-0.01500,82.9375,106,49,0.25714
5011580,-0.01000,78.3750,106,49,0.26789
5011590,-0.01500,76.2500,106,49,0.27937
5011600,-0.01500,74.3125,106,49,0.29548
5011610,-0.01500,72.6875,106,49,0.31624
5011620,-0.02000,70.1250,106,49,0.36899
5011630,-0.03000,69.1875,106,49,0.39976
5011640,-0.03500,68.4375,106,49,0.42784
5011650,-0.04500,67.8125,106,49,0.45446
5011660,-0.05500,66.9375,106,49,0.51575
5011670,-0.05500,66.6250,106,49,0.54676
5011680,-0.04500,66.3750,106,49,0.57656
5011690,-0.03500,66.0625,106,49,0.60464
5011700,-0.02000,65.4375,106,49,0.65397
5011710,-0.00500,65.0625,106,49,0.67497
5011720,0.01000,64.7500,106,49,0.69328
5011730,0.02000,64.3750,106,49,0.70916
5011740,0.03000,63.5625,106,49,0.72821
5011750,0.04000,63.1250,106,49,0.73578
5011760,0.07000,62.6875,106,49,0.74212
5011770,0.08500,62.2500,106,49,0.74676
5011780,0.06500,61.3125,106,49,0.75214
5011790,0.02000,60.8125,106,49,0.75287
5011800,-0.02500,60.3750,106,49,0.75214
5011810,-0.05500,59.9375,106,49,0.75043
5011820,-0.07500,59.0000,106,49,0.74335
5011830,-0.09500,58.5625,106,49,0.73797
5011840,-0.09500,58.1875,106,49,0.73138
5011850,-0.09500,57.7500,106,49,0.72381
5011860,-0.09500,56.8750,106,49,0.70525
5011870,-0.09500,56.5000,106,49,0.69475
5011880,-0.09500,56.1875,106,49,0.68376
5011890,-0.08500,55.8750,106,49,0.67228
5011900,-0.08500,55.3125,106,49,0.64835
5011910,-0.07500,55.1250,106,49,0.63663
5011920,0.15000,54.8750,106,49,0.62515
5011930,0.71000,54.6250,106,49,0.61392
5011940,1.13000,54.1250,106,49,0.59414
5011950,0.76500,53.8750,106,49,0.58413
5011960,0.02000,53.6250,106,49,0.57387
5011970,-0.40500,53.3750,106,49,0.56386
5011980,-0.45500,52.6250,106,49,0.54432
5011990,-0.32500,52.2500,106,49,0.53504
5012000,-0.23500,51.8125,106,49,0.52601
5012010,-0.20500,51.0000,106,49,0.50891
5012020,-0.19000,50.5625,106,49,0.50085
5012030,-0.16000,50.1875,106,49,0.49280
5012040,-0.14000,49.8125,106,49,0.48571
5012050,-0.13000,49.5000,106,49,0.47912
5012060,-0.12000,48.8750,106,49,0.46447
5012070,-0.11500,48.6250,106,49,0.45690
5012080,-0.09500,48.5625,106,49,0.44933
5012090,-0.08000,48.8125,106,49,0.44200
5012100,-0.06500,51.8125,106,49,0.42759
5012110,-0.06500,55.2500,106,49,0.42076
5012120,-0.06000,59.8125,106,49,0.41416
5012130,-0.05500,65.1250,106,49,0.40757
5012140,-0.04500,76.3125,106,49,0.39707
5012150,-0.03500,81.6875,106,49,0.39145
5012160,-0.02500,86.8125,106,49,0.38535
5012170,-0.01250,93.2292,106,49,0.37688
5012180,0.00000,98.8125,106,49,0.36874
5012190,0.01000,101.4375,106,49,0.36361
5012200,0.02500,103.3750,106,49,0.35824
5012210,0.04000,104.5625,106,49,0.35311
5012220,0.05000,105.3750,106,49,0.34261
5012230,0.06000,105.1250,106,49,0.33748
5012240,0.07000,104.5625,106,49,0.33333
5012250,0.08000,103.6875,106,49,0.32991
5012260,0.09500,101.3750,106,49,0.32039
5012270,0.10000,100.0000,106,49,0.31551
5012280,0.10000,98.5625,106,49,0.31062
5012290,0.10000,97.0625,106,49,0.30574
5012300,0.09000,94.0625,106,49,0.29548
5012310,0.07000,92.5625,106,49,0.29011
5012320,0.04500,91.0625,106,49,0.28449
5012330,0.02500,89.6250,106,49,0.27863
5012340,0.01000,86.6875,106,49,0.27009
5012350,0.00500,85.1875,106,49,0.26520
5012360,0.01000,83.5000,106,49,0.26032
5012370,0.02000,81.6875,106,49,0.25592
5012380,0.03000,77.6875,106,49,0.25250
5012390,0.03000,75.6875,106,49,0.25495
5012400,0.02000,73.8750,106,49,0.26154
5012410,0.00000,72.3125,106,49,0.27228
5012420,-0.01000,69.8125,106,49,0.30720
5012430,-0.02000,68.8750,106,49,0.33089
5012440,-0.02500,68.0625,106,49,0.35409
5012450,-0.03500,67.3750,106,49,0.37802
5012460,-0.04000,66.3125,106,49,0.43565
5012470,-0.04500,65.8125,106,49,0.46618
5012480,-0.05500,65.3750,106,49,0.49621
5012490,-0.06000,64.9375,106,49,0.52503
5012500,-0.06500,64.1875,106,49,0.57729
5012510,-0.06500,63.7500,106,49,0.60024
5012520,-0.07000,63.3125,106,49,0.62100
5012530,-0.07500,62.9375,106,49,0.63907
5012540,-0.06500,62.0625,106,49,0.66300
5012550,-0.05000,61.6875,106,49,0.67326
5012560,-0.03000,61.3125,106,49,0.68254
5012570,0.00000,60.9375,106,49,0.68987
5012580,0.04000,60.1875,106,49,0.69915
5012590,0.05000,59.7500,106,49,0.70110
5012600,0.03000,59.3125,106,49,0.70110
5012610,-0.01000,58.9375,106,49,0.69939
5012620,-0.05000,58.1250,106,49,0.69133
5012630,-0.08000,57.7500,106,49,0.68547
5012640,-0.10500,57.3125,106,49,0.67888
5012650,-0.11500,56.9375,106,49,0.67179
5012660,-0.12000,56.1875,106,49,0.65470
5012670,-0.12000,55.8125,106,49,0.64518
5012680,-0.12000,55.5000,106,49,0.63516
5012690,-0.11500,55.1250,106,49,0.62466
5012700,-0.10500,54.5000,106,49,0.60317
5012710,-0.10500,54.2500,106,49,0.59243
5012720,-0.11500,54.0000,106,49,0.58193
5012730,-0.03500,53.8125,106,49,0.57192
5012740,0.31500,53.4375,106,49,0.55507
5012750,0.91500,53.2500,106,49,0.54701
5012760,1.06500,53.0625,106,49,0.53919
5012770,0.46500,52.8125,106,49,0.53162
5012780,-0.17000,52.2500,106,49,0.51648
5012790,-0.42500,52.0000,106,49,0.50940
5012800,-0.40000,51.6250,106,49,0.50232
5012810,-0.28500,51.2500,106,49,0.49499
5012820,-0.22500,50.5625,106,49,0.47937
5012830,-0.20500,50.1875,106,49,0.47204
5012840,-0.19000,49.8750,106,49,0.46593
5012850,-0.18000,49.5000,106,49,0.46056
5012860,-0.17000,48.7500,106,49,0.44860
5012870,-0.16500,48.4375,106,49,0.44249
5012880,-0.15500,48.0625,106,49,0.43639
5012890,-0.14500,47.8125,106,49,0.43053
5012900,-0.13500,47.7500,106,49,0.41856
5012910,-0.13000,48.5000,106,49,0.41245
5012920,-0.13000,50.3750,106,49,0.40610
5012930,-0.13000,53.6250,106,49,0.39976
5012940,-0.12000,63.2500,106,49,0.38974
5012950,-0.10500,68.6250,106,49,0.38437
5012960,-0.09000,74.0000,106,49,0.37851
5012970,-0.07000,79.3125,106,49,0.37289
5012980,-0.04500,89.0000,106,49,0.36288
5012990,-0.02000,93.0625,106,49,0.35849
5013000,0.00000,96.5000,106,49,0.35409
5013010,0.02000,99.1875,106,49,0.34969
5013020,0.03000,102.5625,106,49,0.34042
5013030,0.04000,103.3125,106,49,0.33675
5013040,0.05500,103.5000,106,49,0.33358
5013050,0.06000,103.3125,106,49,0.32943
5013060,0.07000,101.9375,106,49,0.32015
5013070,0.07000,100.8750,106,49,0.31526
5013080,0.08500,99.6250,106,49,0.31038
5013090,0.09500,98.3125,106,49,0.30549
5013100,0.10500,95.4375,106,49,0.29597
5013110,0.10000,94.0000,106,49,0.29133
5013120,0.09000,92.5000,106,49,0.28694
5013130,0.07000,91.0625,106,49,0.28254
5013140,0.05000,88.2500,106,49,0.27766
5013150,0.02500,86.8125,106,49,0.27473
5013160,0.01000,85.2500,106,49,0.27106
5013170,0.00000,83.6875,106,49,0.26740
5013180,-0.00500,79.9375,106,49,0.26105
5013190,-0.00500,78.3250,106,49,0.25683
5013200,-0.00833,77.3937,106,49,0.25612
5013210,-0.01500,75.6875,106,49,0.26032
5013220,-0.02500,71.7500,106,49,0.27082
5013230,-0.02500,70.1250,106,49,0.28205
5013240,-0.03500,68.7500,106,49,0.29548
5013250,-0.04000,67.6250,106,49,0.31136
5013260,-0.04500,66.0000,106,49,0.35653
5013270,-0.04500,65.4375,106,49,0.38364
5013280,-0.04500,64.9375,106,49,0.41270
5013290,-0.05000,64.5000,106,49,0.44274
5013300,-0.05000,63.8125,106,49,0.50232
5013310,-0.05000,63.5000,106,49,0.53065
5013320,-0.05500,63.2500,106,49,0.55727
5013330,-0.05500,62.9375,106,49,0.58217
5013340,-0.05500,62.4375,106,49,0.62295
5013350,-0.05000,62.1875,106,49,0.63761
5013360,-0.05000,61.9375,106,49,0.65226
5013370,-0.04500,61.6875,106,49,0.66593
5013380,-0.02000,61.0625,106,49,0.68816
5013390,0.02000,60.6875,106,49,0.69621
5013400,0.04000,60.3125,106,49,0.70232
5013410,0.03500,59.9375,106,49,0.70647
5013420,0.00000,59.1250,106,49,0.70989
5013430,-0.04000,58.6875,106,49,0.70965
5013440,-0.07500,58.3125,106,49,0.70794
5013450,-0.09500,57.8750,106,49,0.70501
5013460,-0.11500,57.0625,106,49,0.69719
5013470,-0.12000,56.6875,106,49,0.69158
5013480,-0.12000,56.3125,106,49,0.68523
5013490,-0.11500,55.9375,106,49,0.67766
5013500,-0.11000,55.0625,106,49,0.66056
5013510,-0.10500,54.6875,106,49,0.65104
5013520,-0.10500,54.3750,106,49,0.64103
5013530,-0.10500,54.0625,106,49,0.63077
5013540,-0.10500,53.5000,106,49,0.61099
5013550,0.07000,53.2500,106,49,0.60220
5013560,0.58000,53.0625,106,49,0.59341
5013570,1.06500,52.8750,106,49,0.58462
5013580,0.83500,52.3750,106,49,0.56703
5013590,0.13500,52.1250,106,49,0.55849
5013600,-0.33500,51.8750,106,49,0.54994
5013610,-0.46000,51.5625,106,49,0.54139
5013620,-0.36500,50.9375,106,49,0.52479
5013630,-0.26000,50.6250,106,49,0.51673
5013640,-0.23000,50.3125,106,49,0.50965
5013650,-0.21000,50.0625,106,49,0.50330
5013660,-0.19000,49.4375,106,49,0.48962
5013670,-0.17000,49.1875,106,49,0.48254
5013680,-0.16000,48.8750,106,49,0.47546
5013690,-0.15500,48.5625,106,49,0.46838
5013700,-0.14500,48.0000,106,49,0.45372
5013710,-0.12500,47.7500,106,49,0.44640
5013720,-0.11500,47.7500,106,49,0.43907
5013730,-0.11500,48.1875,106,49,0.43199
5013740,-0.11500,51.8750,106,49,0.41978
5013750,-0.11000,55.6250,106,49,0.41490
5013760,-0.10000,60.3125,106,49,0.40928
5013770,-0.08500,70.8750,106,49,0.40342
5013780,-0.06500,76.2500,106,49,0.39170
5013790,-0.05500,81.4375,106,49,0.38584
5013800,-0.03500,86.2500,106,49,0.38022
5013810,-0.02500,90.6250,106,49,0.37485
5013820,-0.01000,97.6875,106,49,0.36435
5013830,0.00000,100.1250,106,49,0.35946
5013840,0.01000,101.9375,106,49,0.35580
5013850,0.02000,103.1875,106,49,0.35287
5013860,0.02000,104.0000,106,49,0.34481
5013870,0.02000,103.8125,106,49,0.34017
5013880,0.03000,103.2500,106,49,0.33553
5013890,0.04000,102.4375,106,49,0.33114
5013900,0.05000,100.2500,106,49,0.32259
5013910,0.06000,98.9375,106,49,0.31844
5013920,0.07000,97.5000,106,49,0.31429
5013930,0.07000,96.0625,106,49,0.31013
5013940,0.05500,93.1875,106,49,0.30330
5013950,0.03500,91.7500,106,49,0.30110
5013960,0.01000,90.3125,106,49,0.29792
5013970,0.00000,88.9375,106,49,0.29426
5013980,-0.00500,86.0625,106,49,0.28645
5013990,-0.00500,84.5625,106,49,0.28278
5014000,0.01000,82.8750,106,49,0.27961
5014010,0.02500,81.0000,106,49,0.27766
5014020,0.03000,76.8125,106,49,0.27985
5014030,0.02000,74.7500,106,49,0.28547
5014040,0.01500,72.8125,106,49,0.29353
5014050,0.00500,71.1875,106,49,0.30452
5014060,0.00000,68.6250,106,49,0.33968
5014070,0.00000,67.7500,106,49,0.36313
5014080,-0.01000,67.0000,106,49,0.38974
5014090,-0.01500,66.3750,106,49,0.41880
5014100,-0.03000,65.4375,106,49,0.47961
5014110,-0.04000,65.1250,106,49,0.50965
5014120,-0.05500,64.7500,106,49,0.53871
5014130,-0.06000,64.4375,106,49,0.56654
5014140,-0.07000,63.6875,106,49,0.61294
5014150,-0.07500,63.2500,106,49,0.63004
5014160,-0.07500,62.8750,106,49,0.64786
5014170,-0.07000,62.4375,106,49,0.66471
5014180,-0.06500,61.5625,106,49,0.69353
5014190,-0.05500,61.1250,106,49,0.70501
5014200,-0.03000,60.7500,106,49,0.71453
5014210,0.00500,60.3125,106,49,0.72186
5014220,0.02250,59.7188,106,49,0.72873
5014230,0.01500,59.1250,106,49,0.73309
5014240,-0.02500,58.6875,106,49,0.73284
5014250,-0.06500,58.2500,106,49,0.73089
5014260,-0.09500,57.4375,106,49,0.72527
5014270,-0.11500,57.1250,106,49,0.72112
5014280,-0.13000,56.7500,106,49,0.71575
5014290,-0.13500,56.4375,106,49,0.70916
5014300,-0.13000,55.8750,106,49,0.69255
5014310,-0.13000,55.5625,106,49,0.68303
5014320,-0.13000,55.3125,106,49,0.67277
5014330,-0.12500,55.0625,106,49,0.66203
5014340,-0.11500,54.5625,106,49,0.64078
5014350,-0.11500,54.3750,106,49,0.63053
5014360,-0.09000,54.1875,106,49,0.62002
5014370,0.15500,54.0000,106,49,0.60952
5014380,0.73500,53.5625,106,49,0.58901
5014390,1.12500,53.3125,106,49,0.57900
5014400,0.73500,53.0625,106,49,0.56947
5014410,0.02500,52.8125,106,49,0.56020
5014420,-0.36500,52.1250,106,49,0.54237
5014430,-0.43000,51.8125,106,49,0.53382
5014440,-0.32500,51.4375,106,49,0.52650
5014450,-0.24000,51.0625,106,49,0.51990
5014460,-0.22000,50.3750,106,49,0.50598
5014470,-0.21000,50.0000,106,49,0.49890
5014480,-0.19500,49.6875,106,49,0.49231
5014490,-0.18500,49.3750,106,49,0.48571
5014500,-0.18000,48.7500,106,49,0.47277
5014510,-0.17000,48.5000,106,49,0.46642
5014520,-0.17000,48.1875,106,49,0.46032
5014530,-0.15500,48.0000,106,49,0.45421
5014540,-0.14500,48.3125,106,49,0.44298
5014550,-0.14000,49.4375,106,49,0.43834
5014560,-0.14000,51.8125,106,49,0.43272
5014570,-0.13500,55.4375,106,49,0.42662
5014580,-0.12500,65.3125,106,49,0.41416
5014590,-0.11000,70.6875,106,49,0.40781
5014600,-0.09500,76.1250,106,49,0.40171
5014610,-0.07500,81.3750,106,49,0.39560
5014620,-0.06000,90.8125,106,49,0.38413
5014630,-0.04500,94.7500,106,49,0.37851
5014640,-0.04000,98.0000,106,49,0.37411
5014650,-0.03500,100.6250,106,49,0.37045
5014660,-0.03500,103.8125,106,49,0.36142
5014670,-0.02500,104.5000,106,49,0.35678
5014680,-0.01500,104.6875,106,49,0.35189
5014690,-0.00500,104.5625,106,49,0.34701
5014700,0.00000,103.5000,106,49,0.33724
5014710,0.01000,102.6875,106,49,0.33236
5014720,0.03000,101.7500,106,49,0.32747
5014730,0.05500,100.6875,106,49,0.32259
5014740,0.07000,98.1875,106,49,0.31404
5014750,0.07000,96.8125,106,49,0.31111
5014760,0.06000,95.4375,106,49,0.30745
5014770,0.03500,94.0625,106,49,0.30330
5014780,0.01000,91.2500,106,49,0.29451
5014790,-0.01000,89.8125,106,49,0.29011
5014800,-0.02500,88.3125,106,49,0.28571
5014810,-0.03500,86.7500,106,49,0.28132
5014820,-0.03500,83.2500,106,49,0.27497
5014830,-0.03000,81.2500,106,49,0.27424
5014840,-0.03500,79.0000,106,49,0.27570
5014850,-0.03500,76.6250,106,49,0.27985
5014860,-0.03500,72.3125,106,49,0.29792
5014870,-0.03500,70.5625,106,49,0.31209
5014880,-0.03500,69.1250,106,49,0.33016
5014890,-0.04000,68.0000,106,49,0.35311
5014900,-0.04500,66.2500,106,49,0.41001
5014910,-0.05000,65.6250,106,49,0.44151
5014920,-0.05500,65.1250,106,49,0.47375
5014930,-0.05500,64.6875,106,49,0.50549
5014940,-0.06500,64.0000,106,49,0.55653
5014950,-0.06500,63.6875,106,49,0.58217
5014960,-0.07000,63.3750,106,49,0.60733
5014970,-0.07000,63.0625,106,49,0.63126
5014980,-0.06500,62.4375,106,49,0.67277
5014990,-0.06500,62.1250,106,49,0.68987
5015000,-0.06500,61.7500,106,49,0.70452
5015010,-0.05500,61.4375,106,49,0.71673
5015020,-0.02500,60.7500,106,49,0.73431
5015030,0.01000,60.3750,106,49,0.74017
5015040,0.04000,60.0625,106,49,0.74310
5015050,0.04000,59.6875,106,49,0.74408
5015060,0.00000,58.8750,106,49,0.74457
5015070,-0.03500,58.4375,106,49,0.74310
5015080,-0.06500,58.0625,106,49,0.74066
5015090,-0.09000,57.6250,106,49,0.73675
5015100,-0.11500,56.8750,106,49,0.72527
5015110,-0.12000,56.5000,106,49,0.71795
5015120,-0.12000,56.0625,106,49,0.70965
5015130,-0.12000,55.6875,106,49,0.70012
5015140,-0.11500,54.9375,106,49,0.67985
5015150,-0.11500,54.5625,106,49,0.66862
5015160,-0.10500,54.2500,106,49,0.65665
5015170,-0.10500,53.9375,106,49,0.64444
5015180,-0.10500,53.4375,106,49,0.62027
5015190,0.06000,53.2500,106,49,0.60855
5015200,0.56500,53.0625,106,49,0.59731
5015210,1.08500,52.8125,106,49,0.58632
5015220,0.90000,52.3750,106,49,0.56532
5015230,0.07500,52.1250,106,49,0.55507
5015240,-0.29000,51.8125,106,49,0.54603
5015250,-0.38917,51.3229,106,49,0.53305
5015260,-0.33500,50.8125,106,49,0.52015
5015270,-0.24000,50.4375,106,49,0.51136
5015280,-0.22000,50.1250,106,49,0.50281
5015290,-0.20500,49.8125,106,49,0.49451
5015300,-0.19000,49.1875,106,49,0.47863
5015310,-0.18000,48.8750,106,49,0.47082
5015320,-0.17500,48.5625,106,49,0.46325
5015330,-0.17000,48.2500,106,49,0.45568
5015340,-0.17000,47.6250,106,49,0.44347
5015350,-0.15500,47.4375,106,49,0.43663
5015360,-0.14500,47.4375,106,49,0.42955
5015370,-0.14000,48.0000,106,49,0.42271
5015380,-0.13500,52.0625,106,49,0.40904
5015390,-0.13500,56.0000,106,49,0.40220
5015400,-0.12000,60.8125,106,49,0.39536
5015410,-0.10000,66.1250,106,49,0.38877
5015420,-0.07500,76.9375,106,49,0.37582
5015430,-0.05500,82.2500,106,49,0.36947
5015440,-0.04000,87.1250,106,49,0.36459
5015450,-0.01500,91.6250,106,49,0.36020
5015460,0.00000,98.7500,106,49,0.34945
5015470,0.01500,101.3125,106,49,0.34408
5015480,0.02000,103.1875,106,49,0.33871
5015490,0.02000,104.4375,106,49,0.33358
5015500,0.02000,105.5000,106,49,0.32381
5015510,0.02000,105.3750,106,49,0.31893
5015520,0.02000,105.0000,106,49,0.31404
5015530,0.02500,104.3125,106,49,0.30940
5015540,0.04000,102.3125,106,49,0.30305
5015550,0.05500,101.1250,106,49,0.29939
5015560,0.06000,99.8750,106,49,0.29499
5015570,0.06000,98.5625,106,49,0.29060
5015580,0.05000,95.8125,106,49,0.28156
5015590,0.02500,94.4375,106,49,0.27717
5015600,0.00000,93.0625,106,49,0.27302
5015610,-0.01500,91.6875,106,49,0.26886
5015620,-0.03000,88.9375,106,49,0.26081
5015630,-0.03000,87.3750,106,49,0.25690
5015640,-0.03000,85.7500,106,49,0.25470
5015650,-0.03000,83.9375,106,49,0.25421
5015660,-0.03000,79.7500,106,49,0.25885
5015670,-0.03000,77.5000,106,49,0.26593
5015680,-0.02500,75.2500,106,49,0.27692
5015690,-0.02500,73.1875,106,49,0.30085
5015700,-0.02500,70.0625,106,49,0.34799
5015710,-0.03000,68.8750,106,49,0.37656
5015720,-0.03500,67.8750,106,49,0.40708
5015730,-0.04000,67.0625,106,49,0.43468
5015740,-0.05000,65.8750,106,49,0.49011
5015750,-0.05500,65.3125,106,49,0.51990
5015760,-0.05000,64.8750,106,49,0.54921
5015770,-0.05000,64.4375,106,49,0.57729
5015780,-0.05500,63.6875,106,49,0.62808
5015790,-0.06000,63.3125,106,49,0.65006
5015800,-0.06000,63.0000,106,49,0.66984
5015810,-0.05500,62.6250,106,49,0.68718
5015820,-0.04500,61.9375,106,49,0.71477
5015830,-0.03500,61.5625,106,49,0.72332
5015840,-0.01500,61.2500,106,49,0.72894
5015850,0.02500,60.8750,106,49,0.73407
5015860,0.05000,60.1250,106,49,0.74164
5015870,0.04000,59.7500,106,49,0.74359
5015880,0.00000,59.3125,106,49,0.74408
5015890,-0.04000,58.9375,106,49,0.74335
5015900,-0.07500,58.1250,106,49,0.73773
5015910,-0.09500,57.7500,106,49,0.73284
5015920,-0.11500,57.3125,106,49,0.72674
5015930,-0.11500,56.9375,106,49,0.71966
5015940,-0.11500,56.1875,106,49,0.70208
5015950,-0.11000,55.7500,106,49,0.69206
5015960,-0.11000,55.3750,106,49,0.68107
5015970,-0.10500,55.0625,106,49,0.66960
5015980,-0.10000,54.4375,106,49,0.64518
5015990,-0.10500,54.1875,106,49,0.63297
5016000,-0.09000,54.0000,106,49,0.62076
5016010,0.13500,53.8125,106,49,0.60879
5016020,0.68500,53.4375,106,49,0.58608
5016030,1.11500,53.1875,106,49,0.57607
5016040,0.79500,52.9375,106,49,0.56679
5016050,0.07500,52.6875,106,49,0.55727
5016060,-0.35500,52.0625,106,49,0.53846
5016070,-0.42500,51.7500,106,49,0.52918
5016080,-0.31500,51.3750,106,49,0.52015
5016090,-0.23000,51.0625,106,49,0.51087
5016100,-0.21500,50.3750,106,49,0.49304
5016110,-0.20500,50.0625,106,49,0.48449
5016120,-0.19500,49.6875,106,49,0.47619
5016130,-0.18500,49.3750,106,49,0.46911
5016140,-0.18000,48.7500,106,49,0.45568
5016150,-0.18000,48.4375,106,49,0.44860
5016160,-0.17000,48.1250,106,49,0.44151
5016170,-0.15500,47.9375,106,49,0.43443
5016180,-0.14500,48.2500,106,49,0.42027
5016190,-0.13500,49.3125,106,49,0.41319
5016200,-0.12500,51.6875,106,49,0.40610
5016210,-0.12000,55.3125,106,49,0.39902
5016220,-0.10500,65.3125,106,49,0.38559
5016230,-0.08500,70.8125,106,49,0.38022
5016240,-0.07000,76.2500,106,49,0.37558
5016250,-0.04500,81.6250,106,49,0.37021
5016260,-0.02500,91.3750,106,49,0.35849
5016270,-0.00750,96.3021,106,49,0.35153
5016280,0.01000,98.8750,106,49,0.34652
5016290,0.03000,101.5625,106,49,0.34066
5016300,0.04000,104.8750,106,49,0.32967
5016310,0.04500,105.6875,106,49,0.32430
5016320,0.04000,106.0625,106,49,0.31917
5016330,0.04000,106.1250,106,49,0.31526
5016340,0.04000,105.1875,106,49,0.30818
5016350,0.04000,104.3125,106,49,0.30379
5016360,0.05000,103.3125,106,49,0.29939
5016370,0.05500,102.1875,106,49,0.29475
5016380,0.06000,99.5625,106,49,0.28523
5016390,0.05500,98.1875,106,49,0.28059
5016400,0.04000,96.7500,106,49,0.27619
5016410,0.02500,95.3750,106,49,0.27179
5016420,0.01000,92.5000,106,49,0.26325
5016430,-0.00500,91.1250,106,49,0.26032
5016440,-0.02500,89.6875,106,49,0.25812
5016450,-0.03000,88.1875,106,49,0.25519
5016460,-0.03000,84.8750,106,49,0.25128
5016470,-0.02500,82.9375,106,49,0.25226
5016480,-0.02000,80.7500,106,49,0.25641
5016490,-0.02500,78.5000,106,49,0.26422
5016500,-0.02500,74.1250,106,49,0.29377
5016510,-0.03000,72.3125,106,49,0.31526
5016520,-0.03000,70.8125,106,49,0.34090
5016530,-0.02500,69.5625,106,49,0.36606
5016540,-0.02500,67.7500,106,49,0.42076
5016550,-0.02500,67.0625,106,49,0.46813
5016560,-0.03500,66.5000,106,49,0.49963
5016570,-0.03500,66.0000,106,49,0.53016
5016580,-0.04000,65.1875,106,49,0.60098
5016590,-0.04500,64.8750,106,49,0.62564
5016600,-0.04500,64.5625,106,49,0.64811
5016610,-0.05500,64.2500,106,49,0.66838
5016620,-0.05500,63.5000,106,49,0.69915
5016630,-0.05500,63.1875,106,49,0.70891
5016640,-0.05000,62.8125,106,49,0.72308
5016650,-0.04000,62.4375,106,49,0.73089
5016660,-0.01500,61.6875,106,49,0.74481
5016670,0.01500,61.3125,106,49,0.74603
5016680,0.03500,60.9375,106,49,0.74579
