RelativeTimeMilliseconds,ECG,ART,ART (Sys),ART (Dia),PPG
5794980,0.09500,96.9375,141,64,0.56703
5794990,0.08000,96.5000,141,64,0.57998
5795000,0.04000,96.0625,142,65,0.59096
5795010,-0.04500,94.8750,142,65,0.60781
5795020,-0.09500,94.2500,142,65,0.61416
5795030,-0.14500,93.5625,142,65,0.61905
5795040,-0.16500,92.8750,142,65,0.62271
5795050,-0.17500,92.1875,142,65,0.62564
5795060,-0.18000,90.8125,142,65,0.62857
5795070,-0.17500,90.1250,142,65,0.62833
5795080,-0.17500,89.4375,142,65,0.62711
5795090,-0.17000,88.7500,142,65,0.62564
5795100,-0.16500,87.4375,142,65,0.62418
5795110,-0.17000,86.7500,142,65,0.62540
5795120,-0.17000,86.0625,142,65,0.62295
5795130,0.06000,85.3125,142,65,0.61783
5795140,0.63500,83.8125,142,65,0.60000
5795150,1.10500,83.0625,142,65,0.58803
5795160,0.79500,82.3125,142,65,0.57460
5795170,-0.01500,81.5000,142,65,0.56166
5795180,-0.49000,79.9375,142,65,0.53553
5795190,-0.54500,79.1875,142,65,0.52186
5795200,-0.42000,78.4375,142,65,0.50867
5795210,-0.30500,77.7500,142,65,0.49646
5795220,-0.27000,76.3750,142,65,0.47570
5795230,-0.26000,75.6875,142,65,0.46740
5795240,-0.25000,75.0625,142,65,0.46032
5795250,-0.24500,74.4375,142,65,0.45421
5795260,-0.23500,73.3750,142,65,0.44249
5795270,-0.22500,73.0625,142,65,0.43761
5795280,-0.21500,73.0625,142,65,0.43346
5795290,-0.21000,73.8750,142,65,0.42882
5795300,-0.19500,81.0625,142,65,0.41807
5795310,-0.17500,88.5000,142,65,0.41270
5795320,-0.15500,98.1250,142,65,0.40757
5795330,-0.13000,108.8125,142,65,0.40244
5795340,-0.09500,129.4375,142,65,0.39267
5795350,-0.06500,138.3125,142,65,0.38779
5795360,-0.03500,146.0000,142,65,0.38315
5795370,-0.01000,152.4375,142,65,0.37973
5795380,0.01500,161.1250,142,65,0.37314
5795390,0.03000,163.5625,142,65,0.36923
5795400,0.03500,164.8750,142,65,0.36508
5795410,0.03000,165.3750,142,65,0.36093
5795420,0.03000,164.6875,142,65,0.35189
5795430,0.03000,163.8125,142,65,0.34725
5795440,0.03000,162.6875,142,65,0.34237
5795450,0.03000,161.4375,142,65,0.33748
5795460,0.04000,158.6875,142,65,0.32796
5795470,0.03000,157.2500,142,65,0.32479
5795480,0.02000,155.6875,142,65,0.32283
5795490,0.00000,154.1250,142,65,0.31990
5795500,-0.03000,150.7500,142,65,0.31233
5795510,-0.06000,148.8750,142,65,0.30818
5795520,-0.07500,146.8750,142,65,0.30379
5795530,-0.08500,144.5625,142,65,0.29939
5795540,-0.08500,138.4375,142,65,0.29451
5795550,-0.08000,134.3125,142,65,0.29744
5795560,-0.06500,129.5625,142,65,0.30623
5795570,-0.05000,124.3125,142,65,0.31893
5795580,-0.03000,114.3750,142,65,0.36117
5795590,-0.00500,110.3750,142,65,0.39170
5795600,0.03000,107.2500,142,65,0.42564
5795610,0.06500,104.8750,142,65,0.46056
5795620,0.10000,102.0625,142,65,0.52454
5795630,0.14000,101.1875,142,65,0.55116
5795640,0.15500,100.5625,142,65,0.57363
5795650,0.14000,100.0000,142,65,0.59219
5795660,0.12500,98.9375,142,65,0.61978
5795670,0.07500,98.4375,142,65,0.62857
5795680,0.00000,97.8125,142,65,0.63516
5795690,-0.06500,97.1875,142,65,0.64151
5795700,-0.10000,95.7500,142,65,0.65226
5795710,-0.12500,95.0000,142,65,0.65641
5795720,-0.13500,94.1875,142,65,0.65983
5795730,-0.13500,93.4375,142,65,0.66252
5795740,-0.13500,91.8750,142,65,0.66618
5795750,-0.14000,91.0625,142,65,0.66642
5795760,-0.13500,90.3125,142,65,0.66593
5795770,-0.13500,89.6250,142,65,0.66447
5795780,-0.14500,88.1875,142,65,0.65812
5795790,-0.10500,87.4375,142,65,0.65299
5795800,0.19500,86.7500,142,65,0.64615
5795810,0.79500,86.0000,142,65,0.63736
5795820,1.08500,84.4375,142,65,0.61416
5795830,0.56000,83.6250,142,65,0.60024
5795840,-0.16500,82.8750,142,65,0.58559
5795850,-0.47000,82.0625,142,65,0.57094
5795860,-0.43500,80.5625,142,65,0.54432
5795870,-0.29500,79.8125,142,65,0.53382
5795880,-0.23000,78.8875,142,65,0.52139
5795890,-0.20833,77.9250,142,65,0.50889
5795900,-0.20500,77.0625,142,65,0.49817
5795910,-0.19500,76.4375,142,65,0.49109
5795920,-0.18000,75.8125,142,65,0.48474
5795930,-0.18000,75.2500,142,65,0.47863
5795940,-0.17500,74.7500,142,65,0.46618
5795950,-0.17000,75.3750,142,65,0.45983
5795960,-0.16000,77.3750,142,65,0.45348
5795970,-0.14500,81.6875,142,65,0.44811
5795980,-0.12500,98.0000,142,65,0.43761
5795990,-0.10000,108.6875,142,65,0.43199
5796000,-0.06500,119.5625,144,66,0.42662
5796010,-0.03500,129.8750,144,66,0.42149
5796020,-0.00500,147.2500,144,66,0.41123
5796030,0.03000,154.0000,144,66,0.40610
5796040,0.06000,159.3750,144,66,0.40098
5796050,0.08000,163.3750,144,66,0.39609
5796060,0.10000,167.6250,144,66,0.38657
5796070,0.11000,168.3125,144,66,0.38266
5796080,0.11500,168.3125,144,66,0.37827
5796090,0.11000,167.8750,144,66,0.37338
5796100,0.11000,166.0000,144,66,0.36337
5796110,0.10500,164.7500,144,66,0.35849
5796120,0.10000,163.4375,144,66,0.35385
5796130,0.10000,162.0000,144,66,0.34921
5796140,0.08500,159.1250,144,66,0.34090
5796150,0.06000,157.6250,144,66,0.33675
5796160,0.04000,156.1250,144,66,0.33260
5796170,0.01500,154.5625,144,66,0.32967
5796180,-0.00500,151.0000,144,66,0.32332
5796190,-0.02000,148.8750,144,66,0.31917
5796200,-0.03000,146.2500,144,66,0.31551
5796210,-0.03500,143.0625,144,66,0.31355
5796220,-0.03500,134.5000,144,66,0.32063
5796230,-0.03000,129.2500,144,66,0.33309
5796240,-0.02500,123.6875,144,66,0.35214
5796250,-0.01000,118.2500,144,66,0.37778
5796260,0.01000,109.6250,144,66,0.43785
5796270,0.04500,106.6250,144,66,0.46618
5796280,0.08000,104.4375,144,66,0.49719
5796290,0.11000,102.8125,144,66,0.52747
5796300,0.15000,100.9375,144,66,0.57973
5796310,0.16000,100.3750,144,66,0.60073
5796320,0.15500,99.9375,144,66,0.61905
5796330,0.13000,99.5625,144,66,0.63492
5796340,0.08000,98.6250,144,66,0.66056
5796350,0.01000,98.0000,144,66,0.67082
5796360,-0.05500,97.3750,144,66,0.67961
5796370,-0.09500,95.9375,144,66,0.69011
5796380,-0.11500,95.1250,144,66,0.69499
5796390,-0.11500,94.3750,144,66,0.69939
5796400,-0.12500,93.5625,144,66,0.70330
5796410,-0.13000,92.8125,144,66,0.70647
5796420,-0.13500,91.3125,144,66,0.71111
5796430,-0.13000,90.6250,144,66,0.71184
5796440,-0.13500,89.8750,144,66,0.71136
5796450,-0.14500,89.1250,144,66,0.70891
5796460,-0.09000,87.5000,144,66,0.69890
5796470,0.24500,86.6250,144,66,0.69182
5796480,0.83500,85.8125,144,66,0.68230
5796490,1.00000,84.9375,144,66,0.67057
5796500,0.45000,83.1875,144,66,0.64103
5796510,-0.19500,82.3125,144,66,0.62442
5796520,-0.47000,81.5000,144,66,0.60733
5796530,-0.42500,80.6875,144,66,0.59096
5796540,-0.30000,79.1250,144,66,0.56166
5796550,-0.24500,78.3125,144,66,0.54896
5796560,-0.23000,77.5625,144,66,0.53773
5796570,-0.22000,76.8125,144,66,0.52894
5796580,-0.21000,75.4375,144,66,0.51453
5796590,-0.20500,74.8125,144,66,0.50745
5796600,-0.20000,74.2500,144,66,0.50037
5796610,-0.20000,73.9375,144,66,0.49353
5796620,-0.19000,74.6875,144,66,0.48034
5796630,-0.17500,76.9375,144,66,0.47326
5796640,-0.16000,81.5625,144,66,0.46618
5796650,-0.14000,88.9375,144,66,0.45910
5796660,-0.11500,109.1875,144,66,0.44615
5796670,-0.08500,119.8125,144,66,0.44103
5796680,-0.05500,129.8125,144,66,0.43516
5796690,-0.02500,138.8125,144,66,0.42930
5796700,0.00000,152.9375,144,66,0.41758
5796710,0.02000,157.8750,144,66,0.41172
5796720,0.05000,161.4375,144,66,0.40562
5796730,0.06000,163.7500,144,66,0.39976
5796740,0.06500,165.4375,144,66,0.38730
5796750,0.06500,165.1875,144,66,0.38120
5796760,0.06000,164.4375,144,66,0.37680
5796770,0.06000,163.3750,144,66,0.37338
5796780,0.06000,160.6875,144,66,0.36532
5796790,0.06500,159.1250,144,66,0.36020
5796800,0.06000,157.5625,144,66,0.35458
5796810,0.04500,155.9375,144,66,0.34921
5796820,0.02000,152.7500,144,66,0.33846
5796830,-0.00500,151.1250,144,66,0.33309
5796840,-0.03000,149.3750,144,66,0.32772
5796850,-0.05500,147.5625,144,66,0.32210
5796860,-0.07000,143.0000,144,66,0.31282
5796870,-0.08000,140.0000,144,66,0.31038
5796880,-0.08500,136.3750,144,66,0.30891
5796890,-0.08000,131.9375,144,66,0.31013
5796900,-0.07000,125.4063,144,66,0.32269
5796910,-0.05916,118.3125,144,66,0.34398
5796920,-0.04000,112.1875,144,66,0.37143
5796930,-0.00500,108.5625,144,66,0.40244
5796940,0.03000,103.6875,144,66,0.47228
5796950,0.06500,102.1875,144,66,0.50696
5796960,0.10000,101.0625,144,66,0.53944
5796970,0.12000,100.2500,144,66,0.56508
5796980,0.12000,99.1250,144,66,0.60611
5796990,0.10500,98.6250,144,66,0.62491
5797000,0.07000,98.1250,146,66,0.64200
5797010,0.00000,97.5625,146,66,0.65739
5797020,-0.06500,96.3125,146,66,0.68352
5797030,-0.11500,95.6250,146,66,0.69451
5797040,-0.14000,94.8750,146,66,0.70403
5797050,-0.15500,94.1250,146,66,0.71184
5797060,-0.16000,92.6250,146,66,0.72186
5797070,-0.16000,91.9375,146,66,0.72357
5797080,-0.15500,91.1875,146,66,0.72527
5797090,-0.15000,90.5000,146,66,0.72625
5797100,-0.14500,89.0625,146,66,0.72552
5797110,-0.14500,88.3125,146,66,0.72332
5797120,-0.13500,87.5625,146,66,0.71917
5797130,0.04500,86.8125,146,66,0.71306
5797140,0.54000,85.1875,146,66,0.69426
5797150,1.01000,84.3750,146,66,0.68498
5797160,0.80000,84.0938,146,66,0.68307
5797170,0.21500,83.5625,146,66,0.67497
5797180,-0.31000,82.0000,146,66,0.64713
5797190,-0.47000,81.2500,146,66,0.62955
5797200,-0.39000,80.4375,146,66,0.61123
5797210,-0.27500,79.6875,146,66,0.59341
5797220,-0.24000,78.2500,146,66,0.56117
5797230,-0.22500,77.6250,146,66,0.54701
5797240,-0.21500,76.9375,146,66,0.53407
5797250,-0.21000,76.2500,146,66,0.52210
5797260,-0.20000,75.0625,146,66,0.50085
5797270,-0.19000,74.6250,146,66,0.49231
5797280,-0.19000,74.3125,146,66,0.48474
5797290,-0.18500,74.3750,146,66,0.47668
5797300,-0.17500,77.3750,146,66,0.45983
5797310,-0.16000,81.8125,146,66,0.45104
5797320,-0.13500,88.8750,146,66,0.44249
5797330,-0.10500,98.1250,146,66,0.43443
5797340,-0.08500,118.8750,146,66,0.41807
5797350,-0.05500,128.8125,146,66,0.41001
5797360,-0.02500,137.6875,146,66,0.40220
5797370,-0.00500,145.4375,146,66,0.39463
5797380,0.02000,156.9375,146,66,0.38291
5797390,0.03000,160.5625,146,66,0.37656
5797400,0.04000,162.8750,146,66,0.37021
5797410,0.04500,164.0625,146,66,0.36361
5797420,0.04000,164.1250,146,66,0.34945
5797430,0.04000,163.3125,146,66,0.34212
5797440,0.04000,162.2500,146,66,0.33504
5797450,0.04000,160.8750,146,66,0.32845
5797460,0.04500,157.9375,146,66,0.31624
5797470,0.04500,156.4375,146,66,0.31233
5797480,0.02500,154.8750,146,66,0.30891
5797490,0.00000,153.3750,146,66,0.30452
5797500,-0.02500,150.3125,146,66,0.29451
5797510,-0.05000,148.7500,146,66,0.28913
5797520,-0.07000,147.0000,146,66,0.28352
5797530,-0.07500,145.0625,146,66,0.27741
5797540,-0.08000,139.7500,146,66,0.26618
5797550,-0.07500,136.1250,146,66,0.26325
5797560,-0.06500,131.6250,146,66,0.26447
5797570,-0.05500,126.5625,146,66,0.27009
5797580,-0.03500,116.1875,146,66,0.29988
5797590,-0.01500,111.7500,146,66,0.32698
5797600,0.02000,108.1250,146,66,0.36117
5797610,0.05000,105.3750,146,66,0.40073
5797620,0.09000,101.8125,146,66,0.48547
5797630,0.13000,100.6875,146,66,0.52650
5797640,0.14000,99.8125,146,66,0.56435
5797650,0.13000,99.1875,146,66,0.59853
5797660,0.10000,98.0000,146,66,0.65641
5797670,0.05000,97.4375,146,66,0.67692
5797680,-0.02500,96.8125,146,66,0.69304
5797690,-0.08500,96.1250,146,66,0.70916
5797700,-0.12500,94.6250,146,66,0.73724
5797710,-0.14500,93.8125,146,66,0.74872
5797720,-0.15500,93.0000,146,66,0.75849
5797730,-0.15500,92.1875,146,66,0.76630
5797740,-0.16000,90.6250,146,66,0.77656
5797750,-0.16000,89.8750,146,66,0.77973
5797760,-0.15500,89.1250,146,66,0.78144
5797770,-0.14500,88.3125,146,66,0.78095
5797780,-0.15500,86.7500,146,66,0.77411
5797790,-0.08500,85.9375,146,66,0.77021
5797800,0.26500,85.1875,146,66,0.76361
5797810,0.85000,84.3750,146,66,0.75409
5797820,0.97500,82.7500,146,66,0.72552
5797830,0.41000,81.8750,146,66,0.70720
5797840,-0.21000,81.1250,146,66,0.68694
5797850,-0.46000,80.3125,146,66,0.66520
5797860,-0.41500,78.8125,146,66,0.62125
5797870,-0.30000,78.1250,146,66,0.60244
5797880,-0.24000,77.4375,146,66,0.58584
5797890,-0.22500,76.6875,146,66,0.56899
5797900,-0.22000,75.3750,146,66,0.53846
5797910,-0.20000,74.6875,146,66,0.52503
5797920,-0.19500,74.0625,146,66,0.51282
5797930,-0.18500,73.5000,146,66,0.50110
5797940,-0.17750,72.9479,146,66,0.48490
5797950,-0.17000,72.8750,146,66,0.46935
5797960,-0.16000,73.7500,146,66,0.45958
5797970,-0.14000,76.1875,146,66,0.45104
5797980,-0.12000,88.2500,146,66,0.43443
5797990,-0.09500,97.6250,146,66,0.42540
5798000,-0.07500,108.0000,149,68,0.41636
5798010,-0.05000,118.4375,149,68,0.40708
5798020,-0.02500,137.0000,149,68,0.38901
5798030,0.00500,144.5625,149,68,0.38046
5798040,0.03000,150.8125,149,68,0.37216
5798050,0.05500,155.5625,149,68,0.36386
5798060,0.06500,161.1250,149,68,0.34847
5798070,0.07000,162.1875,149,68,0.34261
5798080,0.06500,162.5000,149,68,0.33748
5798090,0.06000,162.1250,149,68,0.33114
5798100,0.06000,160.3750,149,68,0.31746
5798110,0.06000,159.1250,149,68,0.31062
5798120,0.06000,157.7500,149,68,0.30403
5798130,0.06000,156.3125,149,68,0.29744
5798140,0.04500,153.2500,149,68,0.28498
5798150,0.02000,151.7500,149,68,0.27912
5798160,-0.00500,150.1875,149,68,0.27350
5798170,-0.03500,148.6250,149,68,0.26960
5798180,-0.05500,145.1875,149,68,0.26203
5798190,-0.06500,143.1875,149,68,0.25690
5798200,-0.07500,140.7500,149,68,0.25153
5798210,-0.07500,137.8125,149,68,0.24664
5798220,-0.06500,129.6875,149,68,0.24493
5798230,-0.05500,124.5625,149,68,0.25177
5798240,-0.04500,119.1875,149,68,0.26593
5798250,-0.02000,113.9375,149,68,0.28840
5798260,0.01000,105.5625,149,68,0.35629
5798270,0.04500,102.7500,149,68,0.39292
5798280,0.08000,100.7500,149,68,0.42930
5798290,0.11500,99.3750,149,68,0.47082
5798300,0.12500,97.7500,149,68,0.55458
5798310,0.12000,97.2500,149,68,0.59267
5798320,0.10000,96.8125,149,68,0.62711
5798330,0.06000,96.3750,149,68,0.65788
5798340,-0.01500,95.3125,149,68,0.70818
5798350,-0.08000,94.7500,149,68,0.72869
5798360,-0.12500,94.0625,149,68,0.74603
5798370,-0.15000,93.3125,149,68,0.75800
5798380,-0.16000,91.8750,149,68,0.77534
5798390,-0.16000,91.1250,149,68,0.78266
5798400,-0.17000,90.3125,149,68,0.78828
5798410,-0.17000,89.5625,149,68,0.79243
5798420,-0.17000,88.1250,149,68,0.79560
5798430,-0.16000,87.4375,149,68,0.79463
5798440,-0.16000,86.6875,149,68,0.79145
5798450,-0.14500,86.0000,149,68,0.78632
5798460,0.13000,84.5000,149,68,0.76899
5798470,0.72500,83.6875,149,68,0.75726
5798480,1.10500,82.9375,149,68,0.74383
5798490,0.68500,82.1250,149,68,0.72698
5798500,-0.09500,80.5625,149,68,0.68498
5798510,-0.50000,79.7500,149,68,0.66154
5798520,-0.52000,78.9375,149,68,0.63785
5798530,-0.38500,78.2500,149,68,0.61416
5798540,-0.29000,76.8750,149,68,0.56947
5798550,-0.26500,76.1875,149,68,0.54994
5798560,-0.26000,75.5625,149,68,0.53236
5798570,-0.24500,74.9375,149,68,0.51819
5798580,-0.24000,73.6875,149,68,0.49402
5798590,-0.23000,73.1250,149,68,0.48254
5798600,-0.22000,72.7500,149,68,0.47155
5798610,-0.20000,72.5000,149,68,0.46056
5798620,-0.18500,73.6250,149,68,0.43932
5798630,-0.17000,76.3750,149,68,0.42906
5798640,-0.15500,81.6875,149,68,0.41905
5798650,-0.13500,89.6875,149,68,0.40952
5798660,-0.10500,110.5000,149,68,0.39096
5798670,-0.07500,121.1250,149,68,0.38315
5798680,-0.04500,130.8750,149,68,0.37656
5798690,-0.01500,139.5000,149,68,0.36899
5798700,0.01000,152.6250,149,68,0.35287
5798710,0.03000,156.9375,149,68,0.34505
5798720,0.04500,159.8750,149,68,0.33748
5798730,0.05000,161.5625,149,68,0.33040
5798740,0.04500,162.2500,149,68,0.31575
5798750,0.04500,161.7500,149,68,0.30842
5798760,0.04000,160.9375,149,68,0.30110
5798770,0.04000,159.8750,149,68,0.29524
5798780,0.04500,157.3750,149,68,0.28523
5798790,0.05000,156.0625,149,68,0.27985
5798800,0.04000,154.7500,149,68,0.27302
5798810,0.02000,153.4375,149,68,0.26716
5798820,-0.01500,150.7500,149,68,0.25788
5798830,-0.04500,149.2500,149,68,0.25299
5798840,-0.06500,147.6875,149,68,0.24786
5798850,-0.08500,145.9375,149,68,0.24225
5798860,-0.10500,141.5000,149,68,0.23077
5798870,-0.10500,138.5625,149,68,0.22759
5798880,-0.09500,135.0000,149,68,0.22686
5798890,-0.08000,130.6875,149,68,0.22833
5798900,-0.06500,120.6250,149,68,0.24982
5798910,-0.05000,115.6250,149,68,0.27350
5798920,-0.02000,111.2500,149,68,0.30623
5798930,0.02000,107.6250,149,68,0.34652
5798940,0.05000,102.8750,149,68,0.44103
5798950,0.09000,101.4375,149,68,0.49035
5798960,0.11834,100.4896,149,68,0.53097
5798970,0.13000,99.6250,149,68,0.57753
5798980,0.12000,98.4375,149,68,0.64469
5798990,0.10000,97.9375,149,68,0.67619
5799000,0.04000,97.3125,151,69,0.70427
5799010,-0.03500,96.6250,151,69,0.72869
5799020,-0.09500,95.1875,151,69,0.76679
5799030,-0.13000,94.3750,151,69,0.78120
5799040,-0.15500,93.6250,151,69,0.79292
5799050,-0.16000,92.8125,151,69,0.80220
5799060,-0.16500,91.2500,151,69,0.81441
5799070,-0.17000,90.4375,151,69,0.81661
5799080,-0.17000,89.6875,151,69,0.81636
5799090,-0.16000,88.9375,151,69,0.81563
5799100,-0.15500,87.5000,151,69,0.81026
5799110,-0.16000,86.7500,151,69,0.80488
5799120,-0.08000,86.0000,151,69,0.79707
5799130,0.28500,85.3125,151,69,0.78632
5799140,0.89500,83.8750,151,69,0.75629
5799150,1.04000,83.1250,151,69,0.73651
5799160,0.39500,82.3750,151,69,0.71429
5799170,-0.28000,81.6250,151,69,0.69280
5799180,-0.51000,80.1250,151,69,0.64811
5799190,-0.43500,79.3750,151,69,0.62393
5799200,-0.30500,78.6875,151,69,0.60024
5799210,-0.25000,77.2500,151,69,0.57118
5799220,-0.24000,76.6250,151,69,0.51990
5799230,-0.23000,76.0000,151,69,0.50305
5799240,-0.23000,75.3750,151,69,0.48913
5799250,-0.22000,74.7500,151,69,0.47717
5799260,-0.22000,73.6875,151,69,0.45617
5799270,-0.21000,73.3750,151,69,0.44737
5799280,-0.21000,73.4375,151,69,0.43932
5799290,-0.19000,74.3125,151,69,0.43053
5799300,-0.17500,82.0000,151,69,0.41221
5799310,-0.15500,89.9375,151,69,0.40342
5799320,-0.12500,100.0000,151,69,0.39487
5799330,-0.09000,111.0000,151,69,0.38681
5799340,-0.05500,131.9375,151,69,0.37216
5799350,-0.02000,140.7500,151,69,0.36508
5799360,0.01000,148.1250,151,69,0.35849
5799370,0.04000,153.9375,151,69,0.35311
5799380,0.06000,161.0625,151,69,0.34310
5799390,0.08000,162.6875,151,69,0.33748
5799400,0.08000,163.4375,151,69,0.33162
5799410,0.08500,163.1250,151,69,0.32552
5799420,0.08000,162.5000,151,69,0.31380
5799430,0.07500,161.6250,151,69,0.30794
5799440,0.07500,160.6875,151,69,0.30232
5799450,0.08000,159.6875,151,69,0.29670
5799460,0.08000,157.5000,151,69,0.28767
5799470,0.07000,156.3750,151,69,0.28498
5799480,0.04500,155.1250,151,69,0.28132
5799490,0.02500,153.8125,151,69,0.27692
5799500,0.00000,150.8750,151,69,0.26789
5799510,-0.01500,149.1875,151,69,0.26325
5799520,-0.02500,147.2500,151,69,0.25861
5799530,-0.03500,144.9375,151,69,0.25421
5799540,-0.03500,138.6875,151,69,0.24884
5799550,-0.02500,134.5000,151,69,0.25079
5799560,-0.02000,129.6250,151,69,0.25836
5799570,-0.01500,124.2500,151,69,0.27009
5799580,-0.00500,113.7500,151,69,0.31282
5799590,0.01500,109.4375,151,69,0.34603
5799600,0.05000,106.0625,151,69,0.38486
5799610,0.08000,103.4375,151,69,0.42711
5799620,0.10500,100.1875,151,69,0.51355
5799630,0.13000,99.2500,151,69,0.55360
5799640,0.12500,98.5000,151,69,0.58999
5799650,0.11000,97.9375,151,69,0.62247
5799660,0.09000,96.9375,151,69,0.67204
5799670,0.04000,96.3750,151,69,0.68913
5799680,-0.02500,95.7500,151,69,0.70574
5799690,-0.08500,95.0625,151,69,0.72063
5799700,-0.11500,93.5625,151,69,0.74383
5799710,-0.12500,92.8125,151,69,0.75189
5799720,-0.13500,92.0625,151,69,0.75824
5799730,-0.14000,91.3125,151,69,0.76288
5799740,-0.14500,89.8125,151,69,0.76752
5799750,-0.14500,89.1250,151,69,0.76752
5799760,-0.14500,88.4375,151,69,0.76581
5799770,-0.13500,87.7500,151,69,0.76190
5799780,-0.14500,86.3125,151,69,0.74921
5799790,-0.09000,85.5625,151,69,0.74042
5799800,0.23000,84.7500,151,69,0.72943
5799810,0.80500,84.0000,151,69,0.71600
5799820,0.99000,82.3125,151,69,0.67521
5799830,0.46500,81.5000,151,69,0.65104
5799840,-0.19500,80.6250,151,69,0.63272
5799850,-0.48000,79.7500,151,69,0.61172
5799860,-0.43500,78.1250,151,69,0.56972
5799870,-0.30500,77.3750,151,69,0.55165
5799880,-0.24000,76.6250,151,69,0.53333
5799890,-0.22500,75.8750,151,69,0.51600
5799900,-0.21500,74.4375,151,69,0.48523
5799910,-0.20500,73.7500,151,69,0.47228
5799920,-0.20000,73.1250,151,69,0.46056
5799930,-0.20000,72.5625,151,69,0.44957
5799940,-0.19500,71.8750,151,69,0.42930
5799950,-0.19000,71.9375,151,69,0.41954
5799960,-0.17500,72.8750,151,69,0.40977
5799970,-0.16000,75.4375,151,69,0.40171
5799980,-0.14450,83.9125,151,69,0.39172
5799990,-0.12550,95.6813,151,69,0.38117
5800000,-0.10000,108.1250,154,70,0.37143
5800010,-0.06500,118.6250,154,70,0.36386
5800020,-0.03000,137.0000,154,70,0.35018
5800030,0.00000,144.2500,154,70,0.34359
5800040,0.03000,150.0625,154,70,0.33700
5800050,0.05000,154.3750,154,70,0.33065
5800060,0.06000,159.0625,154,70,0.31966
5800070,0.06500,159.7500,154,70,0.31551
5800080,0.06000,159.7500,154,70,0.31062
5800090,0.06000,159.1875,154,70,0.30525
5800100,0.05500,157.2500,154,70,0.29451
5800110,0.06000,156.0625,154,70,0.28913
5800120,0.06000,154.8125,154,70,0.28352
5800130,0.06500,153.5000,154,70,0.27790
5800140,0.05500,150.6875,154,70,0.26691
5800150,0.03000,149.2500,154,70,0.26178
5800160,0.00000,147.7500,154,70,0.25690
5800170,-0.02500,144.5000,154,70,0.25348
5800180,-0.04500,142.6875,154,70,0.24689
5800190,-0.06000,140.6250,154,70,0.24249
5800200,-0.07000,138.1875,154,70,0.23785
5800210,-0.06500,135.1875,154,70,0.23370
5800220,-0.06500,127.0000,154,70,0.23248
5800230,-0.05500,122.0000,154,70,0.23858
5800240,-0.04500,116.7500,154,70,0.25128
5800250,-0.02500,111.8125,154,70,0.27179
5800260,0.00000,104.0625,154,70,0.33065
5800270,0.04000,101.4375,154,70,0.36337
5800280,0.07000,99.5000,154,70,0.40293
5800290,0.11000,98.1250,154,70,0.44567
5800300,0.14000,96.3750,154,70,0.52943
5800310,0.14500,95.6875,154,70,0.56703
5800320,0.13500,95.1250,154,70,0.60073
5800330,0.11500,94.5625,154,70,0.63053
5800340,0.06000,93.2500,154,70,0.67814
5800350,-0.01000,92.5625,154,70,0.69621
5800360,-0.07000,91.8125,154,70,0.71087
5800370,-0.11000,91.0625,154,70,0.72088
5800380,-0.13000,89.5000,154,70,0.73309
5800390,-0.13500,88.7500,154,70,0.73773
5800400,-0.14500,88.0000,154,70,0.74090
5800410,-0.14500,87.2500,154,70,0.74212
5800420,-0.13500,85.8125,154,70,0.73968
5800430,-0.13500,85.1875,154,70,0.73602
5800440,-0.12500,84.4375,154,70,0.73114
5800450,-0.13500,83.8125,154,70,0.72430
5800460,-0.09500,82.3750,154,70,0.70598
5800470,0.20500,81.6875,154,70,0.69475
5800480,0.79000,80.9375,154,70,0.68083
5800490,1.05500,80.2500,154,70,0.66422
5800500,0.54000,78.6875,154,70,0.62393
5800510,-0.15000,77.8750,154,70,0.60171
5800520,-0.46000,77.1250,154,70,0.57900
5800530,-0.46000,76.3750,154,70,0.55678
5800540,-0.33500,74.9375,154,70,0.51600
5800550,-0.25500,74.2500,154,70,0.49817
5800560,-0.23000,73.6250,154,70,0.48230
5800570,-0.21500,72.9375,154,70,0.46960
5800580,-0.21000,71.6875,154,70,0.44811
5800590,-0.20500,71.1250,154,70,0.43712
5800600,-0.20000,70.5625,154,70,0.42686
5800610,-0.19000,70.1250,154,70,0.41709
5800620,-0.18000,69.8750,154,70,0.39878
5800630,-0.16000,70.7500,154,70,0.39023
5800640,-0.14500,73.1875,154,70,0.38193
5800650,-0.12500,77.9375,154,70,0.37387
5800660,-0.10500,94.8125,154,70,0.35995
5800670,-0.08500,105.2500,154,70,0.35433
5800680,-0.05500,115.6250,154,70,0.34774
5800690,-0.02500,125.2500,154,70,0.34090
5800700,0.00000,141.0625,154,70,0.32723
5800710,0.02000,146.8750,154,70,0.32063
5800720,0.04000,151.1250,154,70,0.31429
5800730,0.05000,154.0000,154,70,0.30818
5800740,0.04500,156.3125,154,70,0.29597
5800750,0.04000,156.3750,154,70,0.28987
5800760,0.03000,155.8750,154,70,0.28400
5800770,0.02500,155.1250,154,70,0.27985
5800780,0.03000,152.9375,154,70,0.27228
5800790,0.03500,151.6250,154,70,0.26764
5800800,0.04000,150.2500,154,70,0.26300
5800810,0.03000,148.8750,154,70,0.25861
5800820,0.01500,146.0625,154,70,0.25031
5800830,-0.01000,144.5625,154,70,0.24615
5800840,-0.04000,143.0625,154,70,0.24151
5800850,-0.06500,141.3750,154,70,0.23590
5800860,-0.07500,137.3750,154,70,0.22882
5800870,-0.07500,134.7500,154,70,0.22686
5800880,-0.07000,131.5625,154,70,0.22393
5800890,-0.05500,127.6250,154,70,0.22173
5800900,-0.03500,118.0625,154,70,0.22662
5800910,-0.02000,113.0625,154,70,0.23761
5800920,-0.00500,108.4375,154,70,0.25665
5800930,0.02000,104.6250,154,70,0.28352
5800940,0.04000,99.3750,154,70,0.35824
5800950,0.06500,97.8125,154,70,0.40220
5800960,0.09000,96.6875,154,70,0.44737
5800970,0.12000,95.8750,154,70,0.48645
5800980,0.13000,94.6875,154,70,0.55604
5800990,0.12000,94.1875,154,70,0.58950
5801000,0.10000,93.6250,156,71,0.61954
5801010,0.04250,92.6875,156,71,0.65588
5801020,-0.03000,91.6875,156,71,0.68742
5801030,-0.09500,90.9375,156,71,0.70305
5801040,-0.13500,90.1875,156,71,0.71575
5801050,-0.16000,89.3750,156,71,0.72552
5801060,-0.17000,87.8125,156,71,0.73651
5801070,-0.17500,86.9375,156,71,0.73773
5801080,-0.17500,86.1875,156,71,0.73822
5801090,-0.17500,84.6875,156,71,0.73748
5801100,-0.17000,84.0000,156,71,0.73236
5801110,-0.16500,83.3125,156,71,0.72747
5801120,-0.18000,82.6250,156,71,0.72063
5801130,-0.16000,82.0000,156,71,0.71184
5801140,0.13000,80.6875,156,71,0.68791
5801150,0.75500,80.0000,156,71,0.67204
5801160,1.10500,79.3750,156,71,0.65372
5801170,0.64500,78.6875,156,71,0.63565
5801180,-0.11500,77.3125,156,71,0.59683
5801190,-0.51500,76.6250,156,71,0.57509
5801200,-0.50500,75.8750,156,71,0.55360
5801210,-0.37500,75.1875,156,71,0.53309
5801220,-0.28000,73.9375,156,71,0.49768
5801230,-0.25500,73.3125,156,71,0.48278
5801240,-0.24500,72.6875,156,71,0.46935
5801250,-0.23500,72.0625,156,71,0.45739
5801260,-0.23000,70.9375,156,71,0.44420
5801270,-0.21500,70.4375,156,71,0.43858
5801280,-0.21000,70.0000,156,71,0.43175
5801290,-0.20000,69.6875,156,71,0.42418
5801300,-0.18500,71.1250,156,71,0.40855
5801310,-0.17000,74.3125,156,71,0.40049
5801320,-0.16000,80.2500,156,71,0.39267
5801330,-0.13500,88.8750,156,71,0.38510
5801340,-0.10500,110.3750,156,71,0.37094
5801350,-0.07500,121.0000,156,71,0.36435
5801360,-0.04500,130.6250,156,71,0.35922
5801370,-0.01500,138.9375,156,71,0.35482
5801380,0.01000,150.8750,156,71,0.34432
5801390,0.03500,154.4375,156,71,0.33895
5801400,0.05000,156.6875,156,71,0.33358
5801410,0.05500,157.8750,156,71,0.32845
5801420,0.05500,158.1250,156,71,0.31844
5801430,0.05000,157.6250,156,71,0.31355
5801440,0.05000,156.8750,156,71,0.30891
5801450,0.05500,155.9375,156,71,0.30427
5801460,0.06500,153.7500,156,71,0.29646
5801470,0.07000,152.5000,156,71,0.29426
5801480,0.06000,151.1875,156,71,0.29109
5801490,0.04500,149.8750,156,71,0.28742
5801500,0.01500,147.0625,156,71,0.28010
5801510,-0.00500,145.5625,156,71,0.27643
5801520,-0.03000,143.9375,156,71,0.27228
5801530,-0.04500,142.1250,156,71,0.26813
5801540,-0.05500,137.5625,156,71,0.26007
5801550,-0.05500,134.5625,156,71,0.25714
5801560,-0.04500,130.8750,156,71,0.25690
5801570,-0.03500,126.3750,156,71,0.25958
5801580,-0.02000,116.1250,156,71,0.27863
5801590,-0.00500,111.1875,156,71,0.29817
5801600,0.01000,106.9375,156,71,0.32527
5801610,0.03000,103.5000,156,71,0.35897
5801620,0.06000,99.1250,156,71,0.43956
5801630,0.09000,97.8750,156,71,0.48205
5801640,0.12000,97.0000,156,71,0.52357
5801650,0.14500,96.3750,156,71,0.56239
5801660,0.15000,95.3750,156,71,0.62515
5801670,0.14500,94.8750,156,71,0.64713
5801680,0.11000,94.3125,156,71,0.66838
5801690,0.04500,93.6875,156,71,0.68767
5801700,-0.02500,92.3125,156,71,0.71819
5801710,-0.08000,91.5000,156,71,0.72918
5801720,-0.11500,90.6875,156,71,0.73773
5801730,-0.12500,89.8750,156,71,0.74432
5801740,-0.13500,88.3125,156,71,0.75165
5801750,-0.13500,87.5000,156,71,0.75263
5801760,-0.14000,86.7500,156,71,0.75140
5801770,-0.14000,85.9375,156,71,0.74847
5801780,-0.14000,84.5625,156,71,0.74066
5801790,-0.13500,83.8750,156,71,0.73480
5801800,-0.14500,83.1875,156,71,0.72698
5801810,-0.07500,82.5000,156,71,0.71746
5801820,0.27500,81.1250,156,71,0.69182
5801830,0.88000,80.3750,156,71,0.67521
5801840,1.04500,79.6875,156,71,0.65641
5801850,0.43000,78.9375,156,71,0.63614
5801860,-0.23000,77.4375,156,71,0.59560
5801870,-0.46000,76.6875,156,71,0.57289
5801880,-0.39500,76.0000,156,71,0.55165
5801890,-0.27000,75.3125,156,71,0.53675
5801900,-0.21500,74.0625,156,71,0.50720
5801910,-0.21000,73.5000,156,71,0.49402
5801920,-0.19500,72.8750,156,71,0.48230
5801930,-0.18500,72.2500,156,71,0.47155
5801940,-0.17500,71.1250,156,71,0.45275
5801950,-0.17000,70.6250,156,71,0.44396
5801960,-0.17000,70.3125,156,71,0.43663
5801970,-0.17000,70.3750,156,71,0.43004
5801980,-0.16000,73.5625,156,71,0.41514
5801990,-0.15000,78.2500,156,71,0.40733
5802000,-0.13500,85.7500,157,71,0.39927
5802010,-0.11500,95.3125,157,71,0.39145
5802020,-0.08500,116.6250,157,71,0.37729
5802030,-0.05350,128.8125,157,71,0.36928
5802040,-0.02150,136.0625,157,71,0.36393
5802050,0.01000,142.5625,157,71,0.35775
5802060,0.04000,152.5000,157,71,0.34725
5802070,0.05500,155.2500,157,71,0.34359
5802080,0.06500,156.8750,157,71,0.33919
5802090,0.07000,157.6250,157,71,0.33431
5802100,0.07000,157.3750,157,71,0.32405
5802110,0.06000,156.7500,157,71,0.31917
5802120,0.06000,155.8750,157,71,0.31404
5802130,0.06500,154.8750,157,71,0.30891
5802140,0.07000,152.5625,157,71,0.29915
5802150,0.07000,151.3750,157,71,0.29475
5802160,0.06500,150.1875,157,71,0.29182
5802170,0.04000,148.9375,157,71,0.28962
5802180,0.01500,146.1875,157,71,0.28303
5802190,-0.01500,144.6875,157,71,0.27937
5802200,-0.03500,143.0625,157,71,0.27570
5802210,-0.05000,141.1875,157,71,0.27155
5802220,-0.05500,136.1875,157,71,0.26349
5802230,-0.05500,132.8125,157,71,0.26129
5802240,-0.04500,128.6250,157,71,0.26203
5802250,-0.04500,123.7500,157,71,0.26764
5802260,-0.03500,112.5625,157,71,0.29499
5802270,-0.02000,107.3125,157,71,0.31575
5802280,0.01000,102.9375,157,71,0.34481
5802290,0.04000,99.6250,157,71,0.38022
5802300,0.07000,95.8750,157,71,0.46252
5802310,0.09500,94.9375,157,71,0.50452
5802320,0.12500,94.3750,157,71,0.54457
5802330,0.14000,94.0000,157,71,0.58169
5802340,0.14000,93.3750,157,71,0.64371
5802350,0.12000,93.0000,157,71,0.66862
5802360,0.07000,92.5625,157,71,0.68669
5802370,0.00000,92.0625,157,71,0.70037
5802380,-0.06500,90.7500,157,71,0.72454
5802390,-0.10500,90.0000,157,71,0.73382
5802400,-0.13000,89.2500,157,71,0.74090
5802410,-0.14000,88.4375,157,71,0.74628
5802420,-0.14500,86.9375,157,71,0.75140
5802430,-0.15000,86.1875,157,71,0.75165
5802440,-0.14500,85.5000,157,71,0.75043
5802450,-0.14500,84.8125,157,71,0.74774
5802460,-0.14500,83.5000,157,71,0.73797
5802470,-0.13500,82.7500,157,71,0.73089
5802480,-0.13500,82.0000,157,71,0.72210
5802490,0.06500,81.2500,157,71,0.71136
5802500,0.57000,79.7500,157,71,0.68278
5802510,1.02000,78.9375,157,71,0.66471
5802520,0.78000,78.1250,157,71,0.64444
5802530,0.06000,77.3125,157,71,0.62271
5802540,-0.38500,75.7500,157,71,0.57656
5802550,-0.46000,75.0000,157,71,0.55433
5802560,-0.34500,74.3125,157,71,0.53578
5802570,-0.24500,73.6250,157,71,0.52015
5802580,-0.21500,72.2500,157,71,0.48987
5802590,-0.20500,71.5625,157,71,0.47692
5802600,-0.20000,71.0000,157,71,0.46520
5802610,-0.19500,70.3750,157,71,0.45470
5802620,-0.19000,69.1875,157,71,0.43565
5802630,-0.19000,68.7500,157,71,0.42686
5802640,-0.18000,68.5625,157,71,0.41856
5802650,-0.17000,68.8125,157,71,0.41074
5802660,-0.15500,73.4375,157,71,0.39683
5802670,-0.13500,79.2500,157,71,0.39145
5802680,-0.11000,87.5000,157,71,0.38510
5802690,-0.09000,97.5000,157,71,0.37875
5802700,-0.06500,118.1250,157,71,0.36654
5802710,-0.04500,127.3750,157,71,0.36068
5802720,-0.02000,135.3750,157,71,0.35482
5802730,0.00000,142.0000,157,71,0.34896
5802740,0.02000,150.6875,157,71,0.33529
5802750,0.04000,152.9375,157,71,0.33065
5802760,0.05000,154.1250,157,71,0.32674
5802770,0.05000,154.5625,157,71,0.32357
5802780,0.05000,153.8125,157,71,0.31429
5802790,0.04500,152.9375,157,71,0.30940
5802800,0.04000,151.9375,157,71,0.30476
5802810,0.04000,150.8125,157,71,0.29988
5802820,0.05000,148.3750,157,71,0.29060
5802830,0.05000,148.3750,157,71,0.29060
5802840,0.05000,148.3750,157,71,0.29060
5802850,-0.01000,142.8125,157,71,0.27350
5802860,-0.01500,141.3125,157,71,0.26960
5802870,-0.03500,139.6250,157,71,0.26667
5802880,-0.05500,137.7500,157,71,0.26398
5802890,-0.07000,135.5625,157,71,0.25910
5802900,-0.07500,129.5625,157,71,0.25104
5802910,-0.07000,125.5625,157,71,0.24982
5802920,-0.06500,120.8750,157,71,0.25543
5802930,-0.05500,115.8750,157,71,0.26422
5802940,-0.04000,106.3750,157,71,0.29353
5802950,-0.01500,102.6250,157,71,0.32674
5802960,0.02000,99.7500,157,71,0.35897
5802970,0.05000,97.6250,157,71,0.38632
5802980,0.07500,95.0000,157,71,0.48962
5802990,0.11000,94.1875,157,71,0.53651
5803000,0.13000,93.5625,157,71,0.57656
5803010,0.12000,93.0000,157,71,0.61050
5803020,0.11000,91.8750,157,71,0.66349
5803030,0.06500,91.3125,157,71,0.68327
5803040,0.00000,90.6875,157,71,0.69670
5803050,-0.07500,90.0000,157,71,0.70647
5803060,-0.12500,88.9167,157,71,0.71909
5803070,-0.15500,87.8125,157,71,0.72991
5803080,-0.17000,87.0625,157,71,0.73431
5803090,-0.18000,86.3125,157,71,0.73797
5803100,-0.18000,84.9375,157,71,0.73968
5803110,-0.18000,84.2500,157,71,0.73773
5803120,-0.18000,83.6875,157,71,0.73431
5803130,-0.17500,83.0625,157,71,0.72918
5803140,-0.17000,81.8125,157,71,0.71331
5803150,-0.18000,81.1875,157,71,0.70305
5803160,-0.04500,80.5000,157,71,0.69133
5803170,0.44000,79.8125,157,71,0.67668
5803180,1.02500,78.4375,157,71,0.64005
5803190,0.91000,77.7500,157,71,0.61954
5803200,0.17500,77.0000,157,71,0.59805
5803210,-0.38500,76.2500,157,71,0.57656
5803220,-0.55500,74.8750,157,71,0.53651
5803230,-0.46000,74.2500,157,71,0.51868
5803240,-0.32000,73.5625,157,71,0.50232
5803250,-0.27000,72.8750,157,71,0.48913
5803260,-0.25500,71.5625,157,71,0.46764
5803270,-0.25000,70.9375,157,71,0.45714
5803280,-0.24000,70.3125,157,71,0.44713
5803290,-0.23000,69.7500,157,71,0.43761
5803300,-0.21000,68.7500,157,71,0.41929
5803310,-0.20500,68.5000,157,71,0.41050
5803320,-0.19500,68.7500,157,71,0.40220
5803330,-0.19000,70.0000,157,71,0.39438
5803340,-0.17500,79.1250,157,71,0.37998
5803350,-0.15500,87.6250,157,71,0.37460
5803360,-0.13500,97.9375,157,71,0.36972
5803370,-0.11500,108.6875,157,71,0.36435
5803380,-0.09000,128.4375,157,71,0.35263
5803390,-0.06500,136.5000,157,71,0.34676
5803400,-0.04000,143.0000,157,71,0.34139
5803410,-0.02000,151.3750,157,71,0.33602
5803420,0.00000,153.5000,157,71,0.32552
5803430,0.00500,154.6250,157,71,0.32039
5803440,0.01000,154.9375,157,71,0.31551
5803450,0.00000,154.6875,157,71,0.31209
5803460,0.00000,153.2500,157,71,0.30501
5803470,0.00000,152.3125,157,71,0.30037
5803480,0.00000,151.2500,157,71,0.29573
5803490,0.01000,150.1250,157,71,0.29109
5803500,0.01500,147.6875,157,71,0.28303
5803510,0.00500,146.3750,157,71,0.27937
5803520,-0.01000,145.0625,157,71,0.27570
5803530,-0.03500,143.6250,157,71,0.27204
5803540,-0.05000,140.5000,157,71,0.26422
5803550,-0.06500,138.6250,157,71,0.26154
5803560,-0.07500,136.4375,157,71,0.25958
5803570,-0.07500,133.7500,157,71,0.25690
5803580,-0.06500,126.3750,157,71,0.25592
5803590,-0.06000,121.7500,157,71,0.26154
5803600,-0.04500,116.8750,157,71,0.27350
5803610,-0.03500,112.0625,157,71,0.29280
5803620,-0.01500,104.3125,157,71,0.35360
5803630,0.01500,101.6250,157,71,0.39243
5803640,0.04500,99.6875,157,71,0.43419
5803650,0.07500,98.3750,157,71,0.47155
5803660,0.10500,96.6875,157,71,0.54164
5803670,0.13000,96.1250,157,71,0.57631
5803680,0.13000,95.5625,157,71,0.60781
5803690,0.12000,95.0000,157,71,0.63565
5803700,0.08500,93.6875,157,71,0.67912
5803710,0.02000,92.9375,157,71,0.69548
5803720,-0.05000,92.1250,157,71,0.70867
5803730,-0.10500,91.3125,157,71,0.71917
5803740,-0.13500,89.6250,157,71,0.73260
5803750,-0.15000,88.7500,157,71,0.73529
5803760,-0.15500,87.8750,157,71,0.73578
5803770,-0.16000,87.0000,157,71,0.73578
5803780,-0.16000,85.4375,157,71,0.73333
5803790,-0.16000,84.6875,157,71,0.73040
5803800,-0.15500,84.0000,157,71,0.72625
5803810,-0.15500,83.3125,157,71,0.72015
5803820,-0.17000,82.0625,157,71,0.70183
5803830,-0.05000,81.4375,157,71,0.68913
5803840,0.40500,80.8750,157,71,0.67399
5803850,1.01500,80.2500,157,71,0.65861
5803860,1.01500,79.0000,157,71,0.62393
5803870,0.26500,78.3750,157,71,0.60415
5803880,-0.35500,77.6250,157,71,0.58388
5803890,-0.52000,76.9375,157,71,0.56386
5803900,-0.42000,75.5625,157,71,0.52674
5803910,-0.29500,74.9375,157,71,0.51062
5803920,-0.24000,74.2500,157,71,0.49621
5803930,-0.22000,73.6250,157,71,0.48376
5803940,-0.20500,72.4375,157,71,0.46300
5803950,-0.19500,71.8750,157,71,0.45519
5803960,-0.19000,71.3750,157,71,0.44786
5803970,-0.18000,70.8750,157,71,0.43980
5803980,-0.17000,70.4375,157,71,0.42344
5803990,-0.16500,71.0000,157,71,0.41490
5804000,-0.15500,73.0000,158,72,0.40635
5804010,-0.14500,77.3125,158,72,0.39805
5804020,-0.12500,94.1250,158,72,0.38266
5804030,-0.10500,105.0625,158,72,0.37558
5804040,-0.07500,116.0625,158,72,0.36874
5804050,-0.05500,126.3125,158,72,0.36361
5804060,-0.02500,142.9375,158,72,0.35409
5804070,0.00500,148.9375,158,72,0.34896
5804080,0.03100,153.6250,158,72,0.34247
5804090,0.05150,156.9063,158,72,0.33556
5804100,0.06500,158.6875,158,72,0.32918
5804110,0.07000,158.8750,158,72,0.32430
5804120,0.07000,158.6875,158,72,0.31941
5804130,0.07000,158.2500,158,72,0.31477
5804140,0.07000,156.8125,158,72,0.30574
5804150,0.07000,156.0000,158,72,0.30256
5804160,0.07500,155.0625,158,72,0.29988
5804170,0.07000,154.0625,158,72,0.29695
5804180,0.06000,151.8750,158,72,0.29011
5804190,0.03500,150.6875,158,72,0.28645
5804200,0.01000,149.3750,158,72,0.28278
5804210,-0.01000,148.0000,158,72,0.27912
5804220,-0.02500,144.6875,158,72,0.27082
5804230,-0.03500,142.6250,158,72,0.26716
5804240,-0.03500,140.0625,158,72,0.26496
5804250,-0.03500,136.9375,158,72,0.26520
5804260,-0.03500,128.4375,158,72,0.27717
5804270,-0.02500,123.3125,158,72,0.29182
5804280,-0.01500,117.9375,158,72,0.31404
5804290,0.00000,112.9375,158,72,0.34383
5804300,0.02000,105.0625,158,72,0.42002
5804310,0.05000,102.5000,158,72,0.46252
5804320,0.08500,100.6875,158,72,0.50476
5804330,0.11500,99.3750,158,72,0.54554
5804340,0.14500,97.9375,158,72,0.61661
5804350,0.14500,97.4375,158,72,0.64249
5804360,0.13500,97.0000,158,72,0.66300
5804370,0.10500,96.5625,158,72,0.68327
5804380,0.05000,95.5625,158,72,0.71746
5804390,-0.02500,94.9375,158,72,0.73040
5804400,-0.08500,94.2500,158,72,0.74090
5804410,-0.12000,93.5625,158,72,0.74945
5804420,-0.13500,92.0000,158,72,0.75971
5804430,-0.13500,91.1875,158,72,0.76215
5804440,-0.13500,90.3750,158,72,0.76288
5804450,-0.13500,89.6250,158,72,0.76142
5804460,-0.13500,88.1250,158,72,0.75482
5804470,-0.13000,87.4375,158,72,0.75018
5804480,-0.12500,86.6875,158,72,0.74408
5804490,-0.13500,85.9375,158,72,0.73602
5804500,-0.03500,84.4375,158,72,0.71453
5804510,0.37000,83.6875,158,72,0.70012
5804520,0.96000,82.8750,158,72,0.68352
5804530,0.99000,82.1250,158,72,0.66471
5804540,0.33000,80.6250,158,72,0.62247
5804550,-0.27000,79.8125,158,72,0.60269
5804560,-0.47000,79.1250,158,72,0.58462
5804570,-0.39500,78.3750,158,72,0.56557
5804580,-0.27500,76.9375,158,72,0.52991
5804590,-0.23000,76.2500,158,72,0.51404
5804600,-0.21500,75.6250,158,72,0.50012
5804610,-0.20500,75.0000,158,72,0.48791
5804620,-0.19500,73.8125,158,72,0.46716
5804630,-0.19000,73.2500,158,72,0.45788
5804640,-0.18500,72.6875,158,72,0.44884
5804650,-0.18000,72.3750,158,72,0.44127
5804660,-0.16500,73.1875,158,72,0.42711
5804670,-0.15000,75.4375,158,72,0.41954
5804680,-0.12500,80.0625,158,72,0.41221
5804690,-0.10500,87.3125,158,72,0.40488
5804700,-0.07500,107.5000,158,72,0.39048
5804710,-0.05500,118.2500,158,72,0.38339
5804720,-0.02500,128.3125,158,72,0.37680
5804730,0.00500,137.1875,158,72,0.37021
5804740,0.03000,150.5000,158,72,0.35751
5804750,0.05000,154.7500,158,72,0.35263
5804760,0.07000,157.5625,158,72,0.34872
5804770,0.07500,159.1875,158,72,0.34383
5804780,0.07000,159.8750,158,72,0.33309
5804790,0.06500,159.4375,158,72,0.32747
5804800,0.06000,158.8125,158,72,0.32210
5804810,0.05000,157.0625,158,72,0.31233
5804820,0.05000,156.1250,158,72,0.30769
5804830,0.05000,155.0625,158,72,0.30305
5804840,0.05500,154.0625,158,72,0.29841
5804850,0.04000,152.9375,158,72,0.29548
5804860,0.02500,150.5625,158,72,0.28987
5804870,0.00000,149.2500,158,72,0.28596
5804880,-0.02000,147.8125,158,72,0.28181
5804890,-0.03500,146.1875,158,72,0.27741
5804900,-0.04500,142.0625,158,72,0.26911
5804910,-0.05500,139.2500,158,72,0.26642
5804920,-0.05500,135.6875,158,72,0.26618
5804930,-0.04500,131.4375,158,72,0.27033
5804940,-0.04000,121.1250,158,72,0.29499
5804950,-0.02500,115.8750,158,72,0.31429
5804960,-0.00500,111.1875,158,72,0.34212
5804970,0.02000,107.3750,158,72,0.37656
5804980,0.05500,102.3750,158,72,0.45690
5804990,0.08500,100.8750,158,72,0.49817
5805000,0.12500,99.8125,157,72,0.53748
5805010,0.14500,99.0625,157,72,0.57338
5805020,0.14000,98.0000,157,72,0.63272
5805030,0.12500,97.5000,157,72,0.65617
5805040,0.09000,97.0000,157,72,0.67570
5805050,0.01500,96.3750,157,72,0.68962
5805060,-0.05500,95.0625,157,72,0.70965
5805070,-0.10500,94.3125,157,72,0.71819
5805080,-0.12500,93.5625,157,72,0.72503
5805090,-0.14000,92.8125,157,72,0.73016
5805100,-0.14500,91.8063,157,72,0.73350
5805110,-0.14583,90.7250,157,72,0.73499
5805120,-0.14500,89.7500,157,72,0.73455
5805130,-0.14500,89.0625,157,72,0.73211
5805140,-0.13500,87.5625,157,72,0.72357
5805150,-0.14000,86.8125,157,72,0.71697
5805160,-0.13500,86.0625,157,72,0.70916
5805170,0.08000,85.3125,157,72,0.69915
5805180,0.60000,83.7500,157,72,0.67204
5805190,1.00500,82.9375,157,72,0.65495
5805200,0.72000,82.1250,157,72,0.63590
5805210,0.02000,81.3125,157,72,0.61563
5805220,-0.40000,79.7500,157,72,0.57411
5805230,-0.45000,79.0000,157,72,0.55433
5805240,-0.34500,78.2500,157,72,0.53578
5805250,-0.25500,77.5625,157,72,0.52015
5805260,-0.23000,76.1875,157,72,0.49402
5805270,-0.22500,75.5000,157,72,0.48205
5805280,-0.21000,74.8750,157,72,0.47106
5805290,-0.20500,74.2500,157,72,0.46081
5805300,-0.20000,73.1250,157,72,0.44200
5805310,-0.19000,72.8125,157,72,0.43321
5805320,-0.18500,72.6875,157,72,0.42491
5805330,-0.18000,73.2500,157,72,0.41636
5805340,-0.17000,78.8125,157,72,0.39927
5805350,-0.15500,85.3125,157,72,0.39096
5805360,-0.12500,94.1875,157,72,0.38315
5805370,-0.09500,115.3125,157,72,0.36899
5805380,-0.07500,125.5625,157,72,0.36239
5805390,-0.05500,134.8750,157,72,0.35629
5805400,-0.02500,142.8125,157,72,0.35043
5805410,-0.00500,149.2500,157,72,0.34481
5805420,0.02000,157.4375,157,72,0.33382
5805430,0.03500,159.5625,157,72,0.32845
5805440,0.04500,160.5625,157,72,0.32308
5805450,0.04500,160.8125,157,72,0.31893
5805460,0.05000,159.8750,157,72,0.31062
5805470,0.04500,159.0000,157,72,0.30525
5805480,0.04500,158.0000,157,72,0.29988
5805490,0.04000,155.6875,157,72,0.29475
5805500,0.05000,154.5000,157,72,0.28474
5805510,0.04000,153.2500,157,72,0.28034
5805520,0.02500,152.0000,157,72,0.27643
5805530,0.00000,150.6875,157,72,0.27277
5805540,-0.02500,147.7500,157,72,0.26667
5805550,-0.05500,146.0625,157,72,0.26471
5805560,-0.07000,144.1250,157,72,0.26178
5805570,-0.07500,138.7500,157,72,0.25836
5805580,-0.07000,135.1250,157,72,0.25372
5805590,-0.06500,130.6875,157,72,0.25568
5805600,-0.05000,125.6250,157,72,0.26252
5805610,-0.03500,120.3125,157,72,0.27570
5805620,-0.01500,110.7500,157,72,0.32308
5805630,0.01000,107.1250,157,72,0.35580
5805640,0.04500,104.4375,157,72,0.39243
5805650,0.08000,102.4375,157,72,0.42589
5805660,0.11000,100.0625,157,72,0.49084
5805670,0.14000,99.3125,157,72,0.52405
5805680,0.14500,98.7500,157,72,0.55458
5805690,0.13500,98.1875,157,72,0.58169
5805700,0.11000,97.0625,157,72,0.62515
5805710,0.06000,96.4375,157,72,0.64176
5805720,-0.02000,95.7500,157,72,0.65495
5805730,-0.08500,94.9375,157,72,0.66545
5805740,-0.12500,93.3125,157,72,0.67937
5805750,-0.14500,92.5000,157,72,0.68254
5805760,-0.14500,91.6875,157,72,0.68523
5805770,-0.15000,90.8750,157,72,0.68694
5805780,-0.15000,89.3125,157,72,0.68742
5805790,-0.15000,88.5625,157,72,0.68596
5805800,-0.14500,87.8750,157,72,0.68303
5805810,-0.14500,87.1250,157,72,0.67888
5805820,-0.14500,85.6875,157,72,0.66520
5805830,-0.10500,84.9375,157,72,0.65568
5805840,0.19000,84.1875,157,72,0.64371
5805850,0.77000,83.4375,157,72,0.63101
5805860,1.04500,81.8125,157,72,0.60122
5805870,0.54500,81.0000,157,72,0.58315
5805880,-0.13500,80.2500,157,72,0.56435
5805890,-0.44500,79.4375,157,72,0.54554
5805900,-0.44500,77.9375,157,72,0.51013
5805910,-0.32500,77.2500,157,72,0.49475
5805920,-0.24000,76.5625,157,72,0.48059
5805930,-0.22000,75.9375,157,72,0.46813
5805940,-0.21000,74.6250,157,72,0.44860
5805950,-0.20000,74.0625,157,72,0.44127
5805960,-0.19500,73.5000,157,72,0.43370
5805970,-0.19000,72.9375,157,72,0.42613
5805980,-0.18000,72.3125,157,72,0.41050
5805990,-0.17500,72.5000,157,72,0.40293
5806000,-0.16500,73.5000,157,72,0.39536
5806010,-0.15000,76.2500,157,72,0.38755
5806020,-0.13500,89.5625,157,72,0.37265
5806030,-0.11500,99.6250,157,72,0.36557
5806040,-0.09500,110.5625,157,72,0.35897
5806050,-0.07000,121.3750,157,72,0.35409
5806060,-0.03500,140.1250,157,72,0.34505
5806070,-0.00500,147.5000,157,72,0.33993
5806080,0.01500,153.3125,157,72,0.33455
5806090,0.03000,157.5625,157,72,0.32894
5806100,0.04500,161.8750,157,72,0.31844
5806110,0.05000,162.5625,157,72,0.31331
5806120,0.04500,162.6250,157,72,0.30818
5806130,0.04167,161.6979,157,72,0.30118
5806140,0.04000,160.3750,157,72,0.29499
5806150,0.04000,159.2500,157,72,0.29231
5806160,0.05000,158.0625,157,72,0.28889
5806170,0.06000,156.8125,157,72,0.28474
5806180,0.06000,154.1875,157,72,0.27595
5806190,0.04000,152.9375,157,72,0.27179
5806200,0.01000,151.5625,157,72,0.26789
5806210,-0.02000,150.2500,157,72,0.26398
5806220,-0.04500,147.0000,157,72,0.25617
5806230,-0.06500,144.9375,157,72,0.25250
5806240,-0.07500,142.3750,157,72,0.24982
5806250,-0.07500,139.1875,157,72,0.24908
5806260,-0.06500,130.4375,157,72,0.25543
5806270,-0.05500,125.1250,157,72,0.26496
5806280,-0.04000,119.7500,157,72,0.28059
5806290,-0.02500,114.7500,157,72,0.30305
5806300,0.00000,107.1875,157,72,0.36581
5806310,0.03500,104.8125,157,72,0.40269
5806320,0.06000,103.1250,157,72,0.44029
5806330,0.08500,102.0000,157,72,0.47692
5806340,0.11000,100.5000,157,72,0.53797
5806350,0.13000,100.0000,157,72,0.56020
5806360,0.11500,99.5000,157,72,0.58193
5806370,0.09500,98.9375,157,72,0.60147
5806380,0.03500,97.6875,157,72,0.63321
5806390,-0.04000,96.9375,157,72,0.64567
5806400,-0.10500,96.1250,157,72,0.65617
5806410,-0.14500,95.3125,157,72,0.66471
5806420,-0.17000,93.6875,157,72,0.67570
5806430,-0.18000,92.8750,157,72,0.67888
5806440,-0.18500,92.0625,157,72,0.68083
5806450,-0.19000,91.2500,157,72,0.68083
5806460,-0.18500,89.6875,157,72,0.67717
5806470,-0.18000,89.0000,157,72,0.67424
5806480,-0.17000,88.2500,157,72,0.67033
5806490,-0.18500,87.5000,157,72,0.66496
5806500,-0.13500,86.0625,157,72,0.64835
5806510,0.20500,85.3125,157,72,0.63687
5806520,0.86000,84.5625,157,72,0.62295
5806530,1.12000,83.8125,157,72,0.60708
5806540,0.51000,82.2500,157,72,0.57363
5806550,-0.23500,81.5000,157,72,0.55824
5806560,-0.53000,80.7500,157,72,0.54188
5806570,-0.51000,80.0000,157,72,0.52576
5806580,-0.37500,78.6250,157,72,0.49621
5806590,-0.29000,77.9375,157,72,0.48352
5806600,-0.27500,77.2500,157,72,0.47228
5806610,-0.26500,76.5625,157,72,0.46203
5806620,-0.25500,75.4375,157,72,0.44420
5806630,-0.24000,74.8750,157,72,0.43590
5806640,-0.23500,74.4375,157,72,0.42808
5806650,-0.22000,74.0625,157,72,0.42173
5806660,-0.21500,74.7500,157,72,0.41001
5806670,-0.20000,77.0625,157,72,0.40342
5806680,-0.19000,81.7500,157,72,0.39683
5806690,-0.17000,89.3125,157,72,0.39023
5806700,-0.15000,110.5625,157,72,0.37705
5806710,-0.12500,121.8750,157,72,0.37070
5806720,-0.09000,132.5625,157,72,0.36484
5806730,-0.05500,142.0000,157,72,0.35922
5806740,-0.02000,156.3125,157,72,0.34945
5806750,0.01000,161.0000,157,72,0.34579
5806760,0.03000,164.1875,157,72,0.34139
5806770,0.04000,166.0000,157,72,0.33651
5806780,0.04500,167.0000,157,72,0.32698
5806790,0.04500,166.6875,157,72,0.32210
5806800,0.04000,166.0000,157,72,0.31722
5806810,0.04000,165.1250,157,72,0.31258
5806820,0.04000,163.1875,157,72,0.30354
5806830,0.04500,162.0625,157,72,0.29915
5806840,0.05000,160.9375,157,72,0.29621
5806850,0.04000,159.8125,157,72,0.29377
5806860,0.02000,157.3750,157,72,0.28742
5806870,0.00000,156.0625,157,72,0.28400
5806880,-0.02500,154.6250,157,72,0.28059
5806890,-0.04000,153.0000,157,72,0.27692
5806900,-0.05500,148.8125,157,72,0.26984
5806910,-0.06500,146.0000,157,72,0.26740
5806920,-0.06500,142.5625,157,72,0.26716
5806930,-0.05500,138.3125,157,72,0.27106
5806940,-0.04000,127.6875,157,72,0.29353
5806950,-0.02500,122.0625,157,72,0.31111
5806960,-0.00500,116.8750,157,72,0.33626
5806970,0.02000,112.5000,157,72,0.36777
5806980,0.05000,106.6875,157,72,0.44078
5806990,0.08500,105.0000,157,72,0.47790
5807000,0.12000,103.8125,157,71,0.51306
5807010,0.15000,103.0000,157,71,0.54530
5807020,0.15500,101.9375,157,71,0.59902
5807030,0.15000,101.4375,157,71,0.62027
5807040,0.13000,100.8750,157,71,0.63590
5807050,0.08000,100.3125,157,71,0.64811
5807060,0.01000,98.9375,157,71,0.67033
5807070,-0.04500,98.1250,157,71,0.67937
5807080,-0.08500,97.2500,157,71,0.68669
5807090,-0.11000,96.3750,157,71,0.69231
5807100,-0.12000,94.5625,157,71,0.69915
5807110,-0.12500,93.7500,157,71,0.70061
5807120,-0.13500,92.8750,157,71,0.70085
5807130,-0.13500,92.0625,157,71,0.70037
5807140,-0.13000,90.4375,157,71,0.69524
5807150,-0.12500,89.5563,157,71,0.69267
5807160,-0.15417,88.9437,157,71,0.68816
5807170,-0.06500,88.1250,157,71,0.67717
5807180,0.29500,86.6250,157,71,0.65519
5807190,0.91000,85.8750,157,71,0.64078
5807200,1.08000,85.1250,157,71,0.62418
5807210,0.48500,84.3125,157,71,0.60635
5807220,-0.20000,82.7500,157,71,0.56923
5807230,-0.46000,82.0000,157,71,0.55116
5807240,-0.39500,81.2500,157,71,0.53602
5807250,-0.26500,80.5625,157,71,0.52283
5807260,-0.21000,79.1875,157,71,0.49768
5807270,-0.19500,78.5625,157,71,0.48645
5807280,-0.18500,77.9375,157,71,0.47643
5807290,-0.17500,77.3125,157,71,0.46716
5807300,-0.17000,76.1875,157,71,0.45055
5807310,-0.16500,75.7500,157,71,0.44249
5807320,-0.16500,75.5000,157,71,0.43492
5807330,-0.16000,75.8125,157,71,0.42759
5807340,-0.15000,80.6250,157,71,0.41441
5807350,-0.13500,86.7500,157,71,0.40904
5807360,-0.11500,95.6250,157,71,0.40317
5807370,-0.09500,106.5000,157,71,0.39707
5807380,-0.06500,129.3125,157,71,0.38437
5807390,-0.03500,139.5625,157,71,0.38193
5807400,0.00000,148.4375,157,71,0.38169
5807410,0.03000,155.6875,157,71,0.37875
5807420,0.06000,165.1875,157,71,0.36947
5807430,0.08000,167.7500,157,71,0.36435
5807440,0.09000,169.0625,157,71,0.36020
5807450,0.09500,169.5625,157,71,0.35629
5807460,0.09000,169.0625,157,71,0.34652
5807470,0.08500,168.4375,157,71,0.34139
5807480,0.08000,167.6875,157,71,0.33626
5807490,0.08500,166.8125,157,71,0.33089
5807500,0.08500,164.9375,157,71,0.32039
5807510,0.08000,164.0000,157,71,0.31575
5807520,0.07500,163.0000,157,71,0.31136
5807530,0.05500,161.9375,157,71,0.30720
5807540,0.02500,159.5625,157,71,0.30037
5807550,-0.00500,158.1875,157,71,0.29817
5807560,-0.02500,156.6250,157,71,0.29499
5807570,-0.04000,154.7500,157,71,0.29133
5807580,-0.05000,149.4375,157,71,0.28571
5807590,-0.05500,145.7500,157,71,0.28694
5807600,-0.05000,141.1875,157,71,0.29304
5807610,-0.04000,130.0625,157,71,0.30598
5807620,-0.03500,124.2500,157,71,0.35433
5807630,-0.01500,118.8750,157,71,0.38828
5807640,0.01500,114.4375,157,71,0.42149
5807650,0.05000,110.9375,157,71,0.45421
5807660,0.08500,106.5000,157,71,0.52845
5807670,0.13000,105.1875,157,71,0.56410
5807680,0.15000,104.3125,157,71,0.59707
5807690,0.14500,103.6875,157,71,0.62637
5807700,0.13000,102.6875,157,71,0.67424
5807710,0.09000,102.1875,157,71,0.69304
5807720,0.02000,101.6875,157,71,0.70940
5807730,-0.05000,101.0625,157,71,0.72332
5807740,-0.09500,99.5625,157,71,0.74237
5807750,-0.12500,98.7500,157,71,0.74725
5807760,-0.13500,97.8750,157,71,0.75189
5807770,-0.13500,97.0625,157,71,0.75580
5807780,-0.14000,95.3750,157,71,0.76093
5807790,-0.14000,94.5625,157,71,0.76190
5807800,-0.14000,93.7500,157,71,0.76142
5807810,-0.14000,92.9375,157,71,0.75946
5807820,-0.14500,91.2500,157,71,0.75067
5807830,-0.11500,90.4375,157,71,0.74335
5807840,0.13000,89.5625,157,71,0.73480
5807850,0.67000,88.6250,157,71,0.72430
5807860,1.02500,86.8125,157,71,0.69475
5807870,0.66000,85.9375,157,71,0.67643
5807880,-0.04500,85.0625,157,71,0.65665
5807890,-0.42000,84.2500,157,71,0.63565
5807900,-0.44500,82.6250,157,71,0.59365
5807910,-0.33500,81.8750,157,71,0.57436
5807920,-0.25000,81.1250,157,71,0.55653
5807930,-0.22500,80.3750,157,71,0.54042
5807940,-0.22000,78.9375,157,71,0.51429
5807950,-0.20500,78.2500,157,71,0.50452
5807960,-0.19500,77.6250,157,71,0.49499
5807970,-0.19000,77.0625,157,71,0.48571
5807980,-0.18500,76.3750,157,71,0.46862
5807990,-0.17500,76.6250,157,71,0.46032
5808000,-0.16500,77.9375,157,71,0.45226
5808010,-0.15500,81.1250,157,71,0.44420
5808020,-0.13500,95.6875,157,71,0.42906
5808030,-0.11500,106.2500,157,71,0.42149
5808040,-0.09500,117.5000,157,71,0.41563
5808050,-0.06000,128.5000,157,71,0.41026
5808060,-0.02500,147.1875,157,71,0.39805
5808070,0.00000,154.3750,157,71,0.39194
5808080,0.02000,159.8750,157,71,0.38559
5808090,0.04000,163.8125,157,71,0.37900
5808100,0.05500,167.5625,157,71,0.36606
5808110,0.06500,167.9375,157,71,0.36020
5808120,0.06000,167.7500,157,71,0.35433
5808130,0.06000,167.1875,157,71,0.34872
5808140,0.05500,165.2500,157,71,0.33846
5808150,0.05500,164.1250,157,71,0.33504
5808160,0.06000,162.9375,157,71,0.33065
5808170,0.06500,161.7500,157,71,0.32576
5808180,0.05833,160.0104,157,71,0.31872
5808190,0.04000,158.2500,157,71,0.31184
5808200,0.01000,157.0000,157,71,0.30745
5808210,-0.01500,155.6875,157,71,0.30305
5808220,-0.03500,152.3750,157,71,0.29426
5808230,-0.05000,150.2500,157,71,0.28987
5808240,-0.05500,147.6250,157,71,0.28718
5808250,-0.06000,144.2500,157,71,0.28620
5808260,-0.06500,135.1250,157,71,0.29158
5808270,-0.05500,129.5000,157,71,0.30208
5808280,-0.04000,123.6875,157,71,0.31966
5808290,-0.02500,118.1875,157,71,0.34457
5808300,0.00500,109.8125,157,71,0.41294
5808310,0.04000,107.0625,157,71,0.45226
5808320,0.07000,105.0625,157,71,0.49182
5808330,0.10500,103.7500,157,71,0.52991
5808340,0.13000,102.2500,157,71,0.59341
5808350,0.13500,101.6875,157,71,0.61612
5808360,0.12500,101.1875,157,71,0.63858
5808370,0.10000,100.6875,157,71,0.65910
5808380,0.04000,99.5000,157,71,0.69231
5808390,-0.03500,98.7500,157,71,0.70574
5808400,-0.09500,97.9375,157,71,0.71697
5808410,-0.13500,97.1250,157,71,0.72601
5808420,-0.15500,95.3750,157,71,0.73846
5808430,-0.16000,94.4375,157,71,0.74237
5808440,-0.16000,93.6250,157,71,0.74383
5808450,-0.16000,92.7500,157,71,0.74359
5808460,-0.16000,91.1250,157,71,0.74188
5808470,-0.16000,90.3125,157,71,0.73944
5808480,-0.15500,89.4375,157,71,0.73578
5808490,-0.16000,88.6250,157,71,0.73016
5808500,-0.04500,86.8750,157,71,0.71209
5808510,0.35000,85.9375,157,71,0.69939
5808520,0.90000,85.0625,157,71,0.68400
5808530,0.91500,84.1875,157,71,0.66618
5808540,0.25500,82.5000,157,71,0.63077
5808550,-0.31500,81.6875,157,71,0.61123
5808560,-0.49000,80.8750,157,71,0.59121
5808570,-0.42000,80.1250,157,71,0.57143
5808580,-0.30500,78.6875,157,71,0.53626
5808590,-0.25000,78.0625,157,71,0.52137
5808600,-0.24000,77.3750,157,71,0.50818
5808610,-0.23000,76.6875,157,71,0.49646
5808620,-0.22000,75.4375,157,71,0.47643
5808630,-0.21500,74.9375,157,71,0.46740
5808640,-0.21000,74.5000,157,71,0.45983
5808650,-0.20500,74.2500,157,71,0.45299
5808660,-0.19500,75.6875,157,71,0.43761
5808670,-0.18000,78.6250,157,71,0.42979
5808680,-0.16000,84.1250,157,71,0.42173
5808690,-0.14500,92.3125,157,71,0.41368
5808700,-0.12000,113.5000,157,71,0.39878
5808710,-0.09500,124.3750,157,71,0.39170
5808720,-0.06000,134.5625,157,71,0.38510
5808730,-0.02500,143.5000,157,71,0.37851
5808740,0.00000,156.9375,157,71,0.36899
5808750,0.02000,161.1875,157,71,0.36386
5808760,0.03000,163.9375,157,71,0.35824
5808770,0.04500,165.5000,157,71,0.35238
5808780,0.05000,166.0625,157,71,0.34090
5808790,0.04000,165.5000,157,71,0.33529
5808800,0.03500,164.6250,157,71,0.32991
5808810,0.04000,163.6250,157,71,0.32454
5808820,0.04000,161.3125,157,71,0.31477
5808830,0.05000,160.1250,157,71,0.30989
5808840,0.05000,158.8750,157,71,0.30623
5808850,0.03500,157.6875,157,71,0.30379
5808860,0.01000,155.1250,157,71,0.29768
5808870,-0.02000,153.6875,157,71,0.29402
5808880,-0.04500,152.1875,157,71,0.29011
5808890,-0.06500,150.4375,157,71,0.28596
5808900,-0.07500,145.8125,157,71,0.27717
5808910,-0.07500,142.6250,157,71,0.27448
5808920,-0.07500,138.6250,157,71,0.27473
5808930,-0.06500,133.8750,157,71,0.28010
5808940,-0.06000,122.6875,157,71,0.30403
5808950,-0.04500,117.2500,157,71,0.32650
5808960,-0.02000,112.6250,157,71,0.35629
5808970,0.01500,106.1875,157,71,0.39194
5808980,0.04000,104.1875,157,71,0.47228
5808990,0.07000,102.8125,157,71,0.51258
5809000,0.11000,101.8750,157,72,0.55067
5809010,0.13000,101.1875,157,72,0.58559
5809020,0.12000,100.1250,157,72,0.64347
5809030,0.10000,99.6250,157,72,0.66691
5809040,0.05000,99.0625,157,72,0.68425
5809050,-0.01500,98.3750,157,72,0.69744
5809060,-0.09000,96.8125,157,72,0.72161
5809070,-0.14000,95.9375,157,72,0.73162
5809080,-0.16000,95.0625,157,72,0.73993
5809090,-0.17000,94.2500,157,72,0.74603
5809100,-0.18000,92.6250,157,72,0.75336
5809110,-0.19000,91.8125,157,72,0.75482
5809120,-0.19500,91.0625,157,72,0.75482
5809130,-0.19000,90.3125,157,72,0.75336
5809140,-0.18000,88.8125,157,72,0.74554
5809150,-0.18000,88.0625,157,72,0.73968
5809160,-0.17000,87.2500,157,72,0.73211
5809170,0.06000,86.5000,157,72,0.72234
5809180,0.64000,84.8750,157,72,0.69524
5809190,1.07500,84.0625,157,72,0.67790
5809200,0.74600,83.0313,157,72,0.65204
5809210,0.08150,81.9375,157,72,0.62293
5809220,-0.49000,80.9375,157,72,0.59585
5809230,-0.54000,80.1875,157,72,0.57607
5809240,-0.41500,79.4375,157,72,0.55946
5809250,-0.30500,78.7500,157,72,0.54505
5809260,-0.28000,77.3750,157,72,0.51746
5809270,-0.27000,76.7500,157,72,0.50525
5809280,-0.26500,76.1250,157,72,0.49402
5809290,-0.26000,75.5000,157,72,0.48376
5809300,-0.25000,74.5000,157,72,0.46496
5809310,-0.24500,74.1875,157,72,0.45617
5809320,-0.23500,74.2500,157,72,0.44762
5809330,-0.22000,75.1875,157,72,0.43907
5809340,-0.21000,82.9375,157,72,0.42613
5809350,-0.19500,91.0000,157,72,0.41905
5809360,-0.18000,101.2500,157,72,0.41172
5809370,-0.15500,112.6875,157,72,0.40415
5809380,-0.13000,134.5000,157,72,0.38999
5809390,-0.09500,143.6875,157,72,0.38315
5809400,-0.06000,151.3750,157,72,0.37680
5809410,-0.03000,157.4375,157,72,0.37070
5809420,-0.01000,164.5000,157,72,0.35897
5809430,0.00000,165.9375,157,72,0.35336
5809440,0.00000,166.4375,157,72,0.34408
5809450,0.00500,166.2500,157,72,0.33284
5809460,0.00000,164.8125,157,72,0.31722
5809470,-0.00500,163.8125,157,72,0.31111
5809480,0.00000,162.7500,157,72,0.30525
5809490,0.01000,161.6875,157,72,0.29988
5809500,0.01500,159.5000,157,72,0.28962
5809510,0.01500,158.4375,157,72,0.28474
5809520,-0.00500,157.3750,157,72,0.27985
5809530,-0.02500,156.1875,157,72,0.27521
5809540,-0.05000,153.6250,157,72,0.26960
5809550,-0.07500,152.0625,157,72,0.26618
5809560,-0.09500,150.2500,157,72,0.26227
5809570,-0.10000,147.9375,157,72,0.25861
5809580,-0.10000,141.4375,157,72,0.25519
5809590,-0.09500,136.9375,157,72,0.25885
5809600,-0.08500,131.6875,157,72,0.26838
5809610,-0.06500,126.0625,157,72,0.28547
5809620,-0.04500,115.5000,157,72,0.34335
5809630,-0.01500,111.3750,157,72,0.38217
5809640,0.02000,108.3125,157,72,0.41905
5809650,0.06500,104.5625,157,72,0.49402
5809660,0.09000,103.5000,157,72,0.53358
5809670,0.12500,102.7500,157,72,0.57118
5809680,0.14000,102.1250,157,72,0.60513
5809690,0.13500,101.6250,157,72,0.63492
5809700,0.12000,100.4375,157,72,0.68352
5809710,0.07500,99.7500,157,72,0.70281
5809720,0.00000,99.0000,157,72,0.71868
5809730,-0.06500,98.1875,157,72,0.73162
5809740,-0.10500,96.5000,157,72,0.74579
5809750,-0.12500,95.6250,157,72,0.75116
5809760,-0.13500,94.6875,157,72,0.75556
5809770,-0.13500,93.8125,157,72,0.75873
5809780,-0.13500,92.0000,157,72,0.76142
5809790,-0.13500,91.1250,157,72,0.76093
5809800,-0.13500,90.3125,157,72,0.75897
5809810,-0.13000,89.5625,157,72,0.75531
5809820,-0.13500,88.0000,157,72,0.74237
5809830,-0.10500,87.2500,157,72,0.73260
5809840,0.19000,86.5625,157,72,0.72137
5809850,0.79500,85.8125,157,72,0.70818
5809860,1.10500,84.3125,157,72,0.67302
5809870,0.63000,83.5625,157,72,0.65226
5809880,-0.10000,82.7500,157,72,0.63004
5809890,-0.44500,82.0000,157,72,0.60781
5809900,-0.42000,80.5625,157,72,0.56532
5809910,-0.29000,79.8125,157,72,0.54579
5809920,-0.22000,79.1875,157,72,0.52821
5809930,-0.20500,78.5000,157,72,0.51258
5809940,-0.20000,77.2500,157,72,0.48938
5809950,-0.18500,76.5625,157,72,0.47888
5809960,-0.18000,75.9375,157,72,0.46886
5809970,-0.17000,75.4375,157,72,0.45934
5809980,-0.17000,74.8750,157,72,0.44054
5809990,-0.16000,75.3750,157,72,0.43150
5810000,-0.15500,77.2500,157,72,0.42271
5810010,-0.14500,81.4375,157,72,0.41392
5810020,-0.12500,98.4375,157,72,0.39683
5810030,-0.10500,109.8750,157,72,0.38901
5810040,-0.07500,121.6250,157,72,0.38291
5810050,-0.04500,132.6875,157,72,0.37729
5810060,-0.01000,150.6875,157,72,0.36410
5810070,0.02000,157.1250,157,72,0.35726
5810080,0.04000,161.8125,157,72,0.35067
5810090,0.06500,166.5625,157,72,0.34408
5810100,0.07500,167.3125,157,72,0.33138
5810110,0.08000,167.3125,157,72,0.32527
5810120,0.08500,166.9375,157,72,0.31966
5810130,0.08000,166.2500,157,72,0.31429
5810140,0.08000,164.5625,157,72,0.30745
5810150,0.08000,163.6250,157,72,0.30354
5810160,0.09000,162.6875,157,72,0.29890
5810170,0.09000,161.6875,157,72,0.29426
5810180,0.08000,159.7500,157,72,0.28523
5810190,0.06000,158.7500,157,72,0.28083
5810200,0.03000,157.6250,157,72,0.27643
5810210,0.00500,156.4375,157,72,0.27228
5810220,-0.01500,154.3875,157,72,0.26618
5810230,-0.03000,151.7063,157,72,0.26007
5810240,-0.04000,148.6250,157,72,0.25592
5810250,-0.04500,145.3750,157,72,0.25568
5810260,-0.04500,136.4375,157,72,0.26471
5810270,-0.04500,130.9375,157,72,0.27863
5810280,-0.03500,125.1250,157,72,0.30037
5810290,-0.01500,119.4375,157,72,0.33016
5810300,0.01000,110.3750,157,72,0.40928
5810310,0.04000,107.2500,157,72,0.45421
5810320,0.07000,104.9375,157,72,0.49939
5810330,0.11000,103.3750,157,72,0.54286
5810340,0.14500,101.5000,157,72,0.60830
5810350,0.16000,100.9375,157,72,0.63785
5810360,0.15500,100.4375,157,72,0.66496
5810370,0.13000,99.9375,157,72,0.68889
5810380,0.06500,98.6875,157,72,0.72625
5810390,-0.00500,97.9375,157,72,0.74066
5810400,-0.07500,97.1250,157,72,0.75263
5810410,-0.11500,96.3125,157,72,0.76215
5810420,-0.13500,94.5000,157,72,0.77485
5810430,-0.14500,93.5625,157,72,0.77729
5810440,-0.14500,92.6875,157,72,0.77778
5810450,-0.14500,91.8125,157,72,0.77802
5810460,-0.14500,90.2500,157,72,0.77582
5810470,-0.14000,89.5000,157,72,0.77265
5810480,-0.13500,88.8125,157,72,0.76777
5810490,-0.14500,88.0625,157,72,0.76142
5810500,-0.07500,86.5000,157,72,0.74139
5810510,0.25500,85.6875,157,72,0.72723
5810520,0.84500,84.8750,157,72,0.71038
5810530,1.03500,84.0625,157,72,0.69084
5810540,0.45000,82.4375,157,72,0.65153
5810550,-0.21000,81.6875,157,72,0.62930
5810560,-0.46000,80.9375,157,72,0.60611
5810570,-0.41500,80.1875,157,72,0.58315
5810580,-0.29500,78.6875,157,72,0.54139
5810590,-0.23000,78.0000,157,72,0.52332
5810600,-0.22000,77.3125,157,72,0.50720
5810610,-0.20500,76.6875,157,72,0.49255
5810620,-0.19500,75.3750,157,72,0.46764
5810630,-0.19000,74.8125,157,72,0.45812
5810640,-0.19000,74.3125,157,72,0.44982
5810650,-0.18000,74.0625,157,72,0.44078
5810660,-0.17500,75.1250,157,72,0.42173
5810670,-0.16000,77.7500,157,72,0.41221
5810680,-0.15500,82.8750,157,72,0.40269
5810690,-0.13500,90.8750,157,72,0.39341
5810700,-0.11500,112.2500,157,72,0.37656
5810710,-0.08500,123.4375,157,72,0.36874
5810720,-0.05500,133.7500,157,72,0.36142
5810730,-0.02000,142.7500,157,72,0.35433
5810740,0.00500,155.8125,157,72,0.34432
5810750,0.03500,159.8750,157,72,0.33895
5810760,0.05500,162.3750,157,72,0.33309
5810770,0.06500,163.6875,157,72,0.32698
5810780,0.07000,163.8750,157,72,0.31404
5810790,0.07000,163.3125,157,72,0.30745
5810800,0.06500,162.5000,157,72,0.30110
5810810,0.06000,161.5625,157,72,0.29524
5810820,0.06000,159.5625,157,72,0.28425
5810830,0.06500,158.5625,157,72,0.28059
5810840,0.06500,157.5000,157,72,0.27814
5810850,0.05500,156.4375,157,72,0.27473
5810860,0.04000,154.2500,157,72,0.26667
5810870,0.01500,153.0625,157,72,0.26276
5810880,-0.00500,151.6250,157,72,0.25836
5810890,-0.02500,150.0000,157,72,0.25372
5810900,-0.03500,145.4375,157,72,0.24542
5810910,-0.04500,142.2500,157,72,0.24274
5810920,-0.04500,138.2500,157,72,0.24298
5810930,-0.03500,133.4375,157,72,0.24762
5810940,-0.02500,122.3750,157,72,0.27033
5810950,-0.01500,116.9375,157,72,0.29255
5810960,0.00500,112.2500,157,72,0.32283
5810970,0.04000,108.5000,157,72,0.35995
5810980,0.07500,103.6250,157,72,0.44640
5810990,0.11000,102.1875,157,72,0.49133
5811000,0.14500,101.1875,159,72,0.53480
5811010,0.16500,100.4375,159,72,0.57485
5811020,0.16000,99.2500,159,72,0.64176
5811030,0.14500,98.6250,159,72,0.66471
5811040,0.10000,98.0000,159,72,0.68254
5811050,0.02000,97.3125,159,72,0.69963
5811060,-0.05000,95.8125,159,72,0.72723
5811070,-0.10500,94.9375,159,72,0.73748
5811080,-0.13000,94.0625,159,72,0.74579
5811090,-0.13500,93.2500,159,72,0.75214
5811100,-0.14000,91.5625,159,72,0.75946
5811110,-0.13500,90.7500,159,72,0.76093
5811120,-0.13500,90.0000,159,72,0.76068
5811130,-0.13500,89.2500,159,72,0.75873
5811140,-0.13000,87.7500,159,72,0.74945
5811150,-0.13000,87.0000,159,72,0.74286
5811160,-0.12500,86.1875,159,72,0.73431
5811170,0.07000,85.4375,159,72,0.72332
5811180,0.56500,83.7500,159,72,0.69377
5811190,1.00000,82.9375,159,72,0.67497
5811200,0.75500,82.1250,159,72,0.65421
5811210,0.06000,81.3125,159,72,0.63175
5811220,-0.37500,79.6875,159,72,0.58535
5811230,-0.45000,78.9375,159,72,0.56532
5811240,-0.35000,78.2500,159,72,0.54725
5811250,-0.28000,77.3438,159,72,0.52488
5811260,-0.23500,76.3750,159,72,0.50198
5811270,-0.21000,75.5000,159,72,0.48230
5811280,-0.20000,74.8750,159,72,0.46960
5811290,-0.19500,74.1875,159,72,0.45788
5811300,-0.19000,73.1250,159,72,0.43687
5811310,-0.19000,72.9375,159,72,0.42711
5811320,-0.18500,73.1250,159,72,0.41758
5811330,-0.18000,77.2500,159,72,0.40830
5811340,-0.16500,82.6875,159,72,0.39438
5811350,-0.15000,90.8750,159,72,0.38681
5811360,-0.12500,101.0000,159,72,0.37900
5811370,-0.10500,112.0625,159,72,0.37118
5811380,-0.07500,132.8125,159,72,0.35580
5811390,-0.05500,141.4375,159,72,0.34872
5811400,-0.02500,148.5000,159,72,0.34164
5811410,0.00000,157.6250,159,72,0.33480
5811420,0.02000,159.9375,159,72,0.32234
5811430,0.03500,161.1250,159,72,0.31795
5811440,0.04000,161.4375,159,72,0.31453
5811450,0.04000,161.1250,159,72,0.30965
5811460,0.03500,159.5625,159,72,0.29866
5811470,0.03000,158.4375,159,72,0.29280
5811480,0.03000,157.3125,159,72,0.28718
5811490,0.03000,156.1875,159,72,0.28352
5811500,0.04000,153.6875,159,72,0.27814
5811510,0.03500,152.4375,159,72,0.27473
5811520,0.02000,151.1875,159,72,0.27131
5811530,0.00000,149.8125,159,72,0.26764
5811540,-0.01500,146.8125,159,72,0.26300
5811550,-0.03500,144.9375,159,72,0.25983
5811560,-0.04500,142.6875,159,72,0.25592
5811570,-0.05500,139.9375,159,72,0.25201
5811580,-0.05500,132.3125,159,72,0.24860
5811590,-0.05500,127.3125,159,72,0.25226
5811600,-0.04000,121.8750,159,72,0.26178
5811610,-0.02500,116.4375,159,72,0.27814
5811620,-0.00500,107.5000,159,72,0.33309
5811630,0.02000,104.3750,159,72,0.36459
5811640,0.06000,102.0625,159,72,0.39731
5811650,0.09000,99.3125,159,72,0.43590
5811660,0.12000,98.4375,159,72,0.51575
5811670,0.15500,97.7500,159,72,0.55263
5811680,0.16500,97.1250,159,72,0.58559
5811690,0.15500,96.5000,159,72,0.61441
5811700,0.13000,95.1875,159,72,0.66007
5811710,0.07000,94.3750,159,72,0.67741
5811720,-0.01000,93.6250,159,72,0.69133
5811730,-0.07500,92.7500,159,72,0.70256
5811740,-0.11500,91.0625,159,72,0.71429
5811750,-0.13500,90.1875,159,72,0.71819
5811760,-0.13500,89.3750,159,72,0.72088
5811770,-0.13500,88.5625,159,72,0.72234
5811780,-0.14000,87.0625,159,72,0.72137
5811790,-0.14500,86.3750,159,72,0.71893
5811800,-0.14000,85.6875,159,72,0.71477
5811810,-0.13500,85.0000,159,72,0.70916
5811820,-0.14500,83.5000,159,72,0.69231
5811830,-0.08500,82.7500,159,72,0.68181
5811840,0.23500,82.0000,159,72,0.66960
5811850,0.82500,80.4375,159,72,0.65446
5811860,1.03500,79.6250,159,72,0.61709
5811870,0.47500,78.8125,159,72,0.59634
5811880,-0.18500,78.0625,159,72,0.57509
5811890,-0.45500,77.3125,159,72,0.55409
5811900,-0.44000,75.8750,159,72,0.51551
5811910,-0.32000,75.1875,159,72,0.49866
5811920,-0.24500,74.5000,159,72,0.48352
5811930,-0.22500,73.8750,159,72,0.47009
5811940,-0.21500,72.5625,159,72,0.44982
5811950,-0.20500,71.9375,159,72,0.44029
5811960,-0.19500,71.3750,159,72,0.43101
5811970,-0.19000,70.8750,159,72,0.42198
5811980,-0.18000,70.5000,159,72,0.40464
5811990,-0.17000,71.2500,159,72,0.39609
5812000,-0.16000,73.5000,160,73,0.38779
5812010,-0.14500,78.1250,160,73,0.37973
5812020,-0.13000,95.3125,160,73,0.36459
5812030,-0.11000,106.3125,160,73,0.35873
5812040,-0.09500,117.3750,160,73,0.35385
5812050,-0.07500,127.6875,160,73,0.34823
5812060,-0.05000,144.2500,160,73,0.33675
5812070,-0.03000,150.1250,160,73,0.33114
5812080,-0.00500,154.3125,160,73,0.32552
5812090,0.02000,157.0000,160,73,0.31966
5812100,0.02500,159.0000,160,73,0.30769
5812110,0.02500,158.8750,160,73,0.30208
5812120,0.02000,158.3125,160,73,0.29670
5812130,0.01500,157.5000,160,73,0.29304
5812140,0.02000,155.3125,160,73,0.28645
5812150,0.02000,154.1250,160,73,0.28230
5812160,0.03000,152.9375,160,73,0.27790
5812170,0.04000,151.6875,160,73,0.27326
5812180,0.03500,149.1875,160,73,0.26471
5812190,0.01000,147.8750,160,73,0.26081
5812200,-0.01500,146.4375,160,73,0.25690
5812210,-0.04000,145.0000,160,73,0.25324
5812220,-0.06500,141.2500,160,73,0.24542
5812230,-0.07500,138.7500,160,73,0.24298
5812240,-0.07500,135.5000,160,73,0.24176
5812250,-0.07000,131.5000,160,73,0.24078
5812260,-0.05500,121.5625,160,73,0.24860
5812270,-0.04500,115.3938,160,73,0.25433
5812280,-0.03250,111.2000,160,73,0.27045
5812290,-0.01500,107.1875,160,73,0.30940
5812300,0.01000,101.5625,160,73,0.38364
5812310,0.04000,99.8750,160,73,0.42637
5812320,0.06500,98.7500,160,73,0.46960
5812330,0.09000,97.8750,160,73,0.50647
5812340,0.12000,96.6250,160,73,0.57118
5812350,0.12000,96.0625,160,73,0.60147
5812360,0.11000,95.4375,160,73,0.62833
5812370,0.08000,94.7500,160,73,0.65153
5812380,0.02000,93.2500,160,73,0.68694
5812390,-0.05500,92.4375,160,73,0.69963
5812400,-0.11500,91.6250,160,73,0.70965
5812410,-0.15500,90.8125,160,73,0.71722
5812420,-0.17000,89.1250,160,73,0.72650
5812430,-0.18500,88.3125,160,73,0.72747
5812440,-0.19000,87.5000,160,73,0.72650
5812450,-0.19000,86.6875,160,73,0.72503
5812460,-0.19000,85.2500,160,73,0.71941
5812470,-0.18500,84.5625,160,73,0.71453
5812480,-0.18000,83.8750,160,73,0.70794
5812490,-0.19000,83.1875,160,73,0.69963
5812500,-0.13500,81.8125,160,73,0.67643
5812510,0.21500,81.1250,160,73,0.66081
5812520,0.86500,80.3750,160,73,0.64274
5812530,1.08500,79.6875,160,73,0.62491
5812540,0.51000,78.2500,160,73,0.58706
5812550,-0.22500,77.5625,160,73,0.56630
5812560,-0.54500,76.8125,160,73,0.54628
5812570,-0.51500,76.1250,160,73,0.52747
5812580,-0.38000,74.8125,160,73,0.49499
5812590,-0.30500,74.1875,160,73,0.48107
5812600,-0.28500,73.5625,160,73,0.46862
5812610,-0.27500,73.0000,160,73,0.45739
5812620,-0.26000,71.9375,160,73,0.43761
5812630,-0.25000,71.3750,160,73,0.42955
5812640,-0.23500,70.9375,160,73,0.42222
5812650,-0.22500,70.6875,160,73,0.41416
5812660,-0.21000,72.0625,160,73,0.39756
5812670,-0.20000,75.1875,160,73,0.38950
5812680,-0.18500,81.1875,160,73,0.38169
5812690,-0.17000,90.0000,160,73,0.37411
5812700,-0.14500,112.5000,160,73,0.36020
5812710,-0.12000,123.7500,160,73,0.35385
5812720,-0.08500,133.8750,160,73,0.34750
5812730,-0.05500,142.5000,160,73,0.34261
5812740,-0.02500,154.5625,160,73,0.33333
5812750,0.00000,158.0000,160,73,0.32772
5812760,0.02000,160.0000,160,73,0.32210
5812770,0.03000,160.8750,160,73,0.31648
5812780,0.03500,160.7500,160,73,0.30574
5812790,0.03500,160.1250,160,73,0.30085
5812800,0.03500,159.3750,160,73,0.29597
5812810,0.03500,158.5625,160,73,0.29109
5812820,0.04000,156.6250,160,73,0.28205
5812830,0.05500,155.6250,160,73,0.27888
5812840,0.06500,154.5000,160,73,0.27643
5812850,0.06000,153.4375,160,73,0.27326
5812860,0.05000,151.0000,160,73,0.26667
5812870,0.02000,149.6250,160,73,0.26300
5812880,0.00000,148.1250,160,73,0.25934
5812890,-0.02000,146.3750,160,73,0.25543
5812900,-0.03000,141.6875,160,73,0.24786
5812910,-0.04000,138.5625,160,73,0.24567
5812920,-0.03500,134.6250,160,73,0.24615
5812930,-0.02000,129.9375,160,73,0.24982
5812940,-0.00500,119.2500,160,73,0.27350
5812950,0.00500,114.0625,160,73,0.29646
5812960,0.02000,109.5625,160,73,0.32723
5812970,0.03500,105.9375,160,73,0.36484
5812980,0.07000,101.3750,160,73,0.45177
5812990,0.10500,100.1250,160,73,0.49646
5813000,0.13000,99.2500,162,74,0.53944
5813010,0.16000,98.6250,162,74,0.57875
5813020,0.18000,97.5625,162,74,0.64420
5813030,0.17000,97.0000,162,74,0.66716
5813040,0.14500,96.3750,162,74,0.68474
5813050,0.10000,95.6250,162,74,0.70134
5813060,0.03000,94.0000,162,74,0.72821
5813070,-0.03500,93.1250,162,74,0.73822
5813080,-0.08500,92.2500,162,74,0.74579
5813090,-0.11000,91.3750,162,74,0.75116
5813100,-0.12500,89.5625,162,74,0.75629
5813110,-0.13000,88.6875,162,74,0.75629
5813120,-0.13500,87.8750,162,74,0.75458
5813130,-0.13500,87.0625,162,74,0.75140
5813140,-0.12500,85.6250,162,74,0.74115
5813150,-0.12500,84.9375,162,74,0.73431
5813160,-0.12500,84.1875,162,74,0.72576
5813170,-0.12500,83.5000,162,74,0.71526
5813180,0.07000,82.1250,162,74,0.68718
5813190,0.59000,81.3750,162,74,0.66960
5813200,1.07500,80.6875,162,74,0.64982
5813210,0.82000,79.9375,162,74,0.62857
5813220,0.08000,78.4375,162,74,0.58437
5813230,-0.37500,77.7500,162,74,0.56508
5813240,-0.44000,77.0000,162,74,0.54799
5813250,-0.32500,76.3125,162,74,0.53065
5813260,-0.24000,75.0000,162,74,0.49890
5813270,-0.22000,74.3750,162,74,0.48523
5813280,-0.20500,73.7500,162,74,0.47277
5813290,-0.19000,73.1250,162,74,0.46154
5813300,-0.18400,72.2875,162,74,0.44811
5813310,-0.18350,71.4938,162,74,0.43455
5813320,-0.18500,71.0000,162,74,0.42295
5813330,-0.18500,71.0625,162,74,0.41538
5813340,-0.17500,74.6875,162,74,0.40122
5813350,-0.16000,79.9375,162,74,0.39341
5813360,-0.14000,88.0625,162,74,0.38535
5813370,-0.12500,98.3125,162,74,0.37753
5813380,-0.09500,120.7500,162,74,0.36264
5813390,-0.06500,130.9375,162,74,0.35580
5813400,-0.04000,139.8125,162,74,0.34896
5813410,-0.01000,147.0000,162,74,0.34261
5813420,0.02000,156.2500,162,74,0.33016
5813430,0.04500,158.5625,162,74,0.32552
5813440,0.07000,159.7500,162,74,0.32137
5813450,0.07500,160.1875,162,74,0.31673
5813460,0.08000,159.6875,162,74,0.30720
5813470,0.08000,159.1250,162,74,0.30256
5813480,0.07000,158.3750,162,74,0.29792
5813490,0.06500,157.5625,162,74,0.29328
5813500,0.06500,155.6875,162,74,0.28352
5813510,0.07000,154.6875,162,74,0.27888
5813520,0.06000,153.5625,162,74,0.27448
5813530,0.04500,152.4375,162,74,0.27155
5813540,0.02500,149.8750,162,74,0.27253
5813550,-0.00500,148.3750,162,74,0.27082
5813560,-0.02500,146.6250,162,74,0.26789
5813570,-0.04500,144.6250,162,74,0.26447
5813580,-0.04500,139.1875,162,74,0.25812
5813590,-0.05000,135.5000,162,74,0.25690
5813600,-0.04500,131.0625,162,74,0.25934
5813610,-0.03500,125.8750,162,74,0.26716
5813620,-0.02500,114.8125,162,74,0.30476
5813630,-0.01500,109.8750,162,74,0.33016
5813640,0.00000,105.8125,162,74,0.35922
5813650,0.03000,102.6875,162,74,0.39658
5813660,0.06000,98.8750,162,74,0.48107
5813670,0.09000,97.8750,162,74,0.52308
5813680,0.12500,97.0625,162,74,0.56215
5813690,0.14500,96.5000,162,74,0.59731
5813700,0.14500,95.5625,162,74,0.65470
5813710,0.14000,95.0625,162,74,0.67717
5813720,0.11500,94.4375,162,74,0.69573
5813730,0.05500,93.7500,162,74,0.70891
5813740,-0.01500,92.1875,162,74,0.72674
5813750,-0.07500,91.3125,162,74,0.73431
5813760,-0.11500,90.4375,162,74,0.74017
5813770,-0.13000,89.6250,162,74,0.74457
5813780,-0.14000,87.8750,162,74,0.74799
5813790,-0.14500,87.0625,162,74,0.74701
5813800,-0.15000,86.3125,162,74,0.74457
5813810,-0.15500,85.5625,162,74,0.74090
5813820,-0.15500,84.1250,162,74,0.72943
5813830,-0.14500,83.4375,162,74,0.72161
5813840,-0.15000,82.6875,162,74,0.71233
5813850,-0.08000,81.9375,162,74,0.70110
5813860,0.24000,80.4375,162,74,0.67131
5813870,0.81500,79.6250,162,74,0.65275
5813880,1.02000,78.8125,162,74,0.63223
5813890,0.45000,77.9375,162,74,0.61050
5813900,-0.28000,76.4375,162,74,0.56679
5813910,-0.46000,75.6250,162,74,0.54628
5813920,-0.42500,74.9375,162,74,0.52723
5813930,-0.30000,74.1875,162,74,0.51160
5813940,-0.23000,72.8125,162,74,0.48547
5813950,-0.22000,72.1250,162,74,0.47326
5813960,-0.21000,71.4375,162,74,0.46203
5813970,-0.20000,70.7500,162,74,0.45153
5813980,-0.19500,69.5625,162,74,0.43199
5813990,-0.19000,69.1250,162,74,0.42295
5814000,-0.18000,68.9375,163,74,0.41441
5814010,-0.17000,69.2500,163,74,0.40586
5814020,-0.16000,74.1250,163,74,0.39096
5814030,-0.14500,80.3125,163,74,0.38510
5814040,-0.13000,89.0625,163,74,0.37827
5814050,-0.11000,110.5625,163,74,0.37143
5814060,-0.08500,121.0625,163,74,0.35800
5814070,-0.06000,130.5000,163,74,0.35189
5814080,-0.03500,138.5625,163,74,0.34579
5814090,-0.01500,144.9375,163,74,0.33968
5814100,0.01000,152.9375,163,74,0.32821
5814110,0.02000,154.8750,163,74,0.32234
5814120,0.03500,155.8125,163,74,0.31673
5814130,0.03500,156.0625,163,74,0.31258
5814140,0.03500,155.2500,163,74,0.30476
5814150,0.03500,154.4375,163,74,0.30012
5814160,0.03000,153.4375,163,74,0.29524
5814170,0.03000,152.3750,163,74,0.29035
5814180,0.04000,150.0625,163,74,0.28132
5814190,0.04500,148.8750,163,74,0.27692
5814200,0.04000,147.6250,163,74,0.27253
5814210,0.02500,146.3125,163,74,0.26838
5814220,0.00000,143.4375,163,74,0.26203
5814230,-0.03000,141.8125,163,74,0.26007
5814240,-0.04500,139.8750,163,74,0.25690
5814250,-0.05500,137.5625,163,74,0.25299
5814260,-0.06000,131.1875,163,74,0.24664
5814270,-0.06000,126.9375,163,74,0.24615
5814280,-0.05500,122.0000,163,74,0.24957
5814290,-0.04000,116.7500,163,74,0.25836
5814300,-0.02500,107.0000,163,74,0.29792
5814310,-0.01500,103.1875,163,74,0.32918
5814320,0.00500,99.9250,163,74,0.37495
5814330,0.03250,97.3563,163,74,0.42701
5814340,0.06000,95.6250,163,74,0.47717
5814350,0.08000,94.8750,163,74,0.51722
5814360,0.11500,94.2500,163,74,0.55531
5814370,0.13500,93.6250,163,74,0.58974
5814380,0.13000,92.5000,163,74,0.64615
5814390,0.11000,91.8750,163,74,0.66838
5814400,0.07000,91.1250,163,74,0.68645
5814410,-0.01000,90.3750,163,74,0.70110
5814420,-0.08500,88.7500,163,74,0.71941
5814430,-0.12500,87.9375,163,74,0.72357
5814440,-0.15000,87.0625,163,74,0.72747
5814450,-0.16000,86.2500,163,74,0.72991
5814460,-0.16500,84.6250,163,74,0.73114
5814470,-0.16500,83.8750,163,74,0.72967
5814480,-0.17000,83.1250,163,74,0.72698
5814490,-0.17000,82.5000,163,74,0.72259
5814500,-0.16500,81.1875,163,74,0.70916
5814510,-0.17000,80.5625,163,74,0.69963
5814520,-0.17500,79.8750,163,74,0.68791
5814530,0.00000,79.2500,163,74,0.67521
5814540,0.51500,77.7500,163,74,0.64396
5814550,1.04500,77.0000,163,74,0.62491
5814560,0.86500,76.3125,163,74,0.60440
5814570,0.09500,75.6250,163,74,0.58339
5814580,-0.43500,74.1875,163,74,0.54286
5814590,-0.54500,73.5000,163,74,0.52405
5814600,-0.44500,72.8750,163,74,0.50672
5814610,-0.32500,72.2500,163,74,0.49133
5814620,-0.28000,71.0625,163,74,0.46642
5814630,-0.26000,70.4375,163,74,0.45714
5814640,-0.25000,69.8750,163,74,0.44762
5814650,-0.24000,69.3125,163,74,0.43810
5814660,-0.23000,68.3125,163,74,0.41978
5814670,-0.22000,68.0000,163,74,0.41123
5814680,-0.21000,68.0000,163,74,0.40269
5814690,-0.20000,68.7500,163,74,0.39438
5814700,-0.19000,76.1875,163,74,0.37875
5814710,-0.18000,84.1250,163,74,0.37094
5814720,-0.16000,94.3125,163,74,0.36361
5814730,-0.14500,105.5625,163,74,0.35800
5814740,-0.11500,126.6250,163,74,0.34774
5814750,-0.09000,135.3750,163,74,0.34237
5814760,-0.06000,142.5625,163,74,0.33700
5814770,-0.03500,148.0625,163,74,0.33138
5814780,-0.01500,154.1875,163,74,0.31990
5814790,-0.00500,155.3750,163,74,0.31453
5814800,0.00000,155.6875,163,74,0.30916
5814810,0.00000,154.9375,163,74,0.30379
5814820,-0.00500,154.1875,163,74,0.29524
5814830,-0.00500,153.2500,163,74,0.29231
5814840,-0.00500,152.2500,163,74,0.28864
5814850,0.00000,151.1875,163,74,0.28474
5814860,0.01500,149.0000,163,74,0.27692
5814870,0.02000,147.8125,163,74,0.27302
5814880,0.01500,146.6250,163,74,0.26935
5814890,-0.01000,145.3125,163,74,0.26569
5814900,-0.03500,142.3750,163,74,0.25861
5814910,-0.06500,140.6250,163,74,0.25495
5814920,-0.08500,138.4375,163,74,0.25128
5814930,-0.09500,135.8750,163,74,0.24908
5814940,-0.09000,128.6875,163,74,0.24689
5814950,-0.08500,124.0625,163,74,0.24835
5814960,-0.06500,118.9375,163,74,0.25421
5814970,-0.04500,113.7500,163,74,0.26642
5814980,-0.03500,105.0000,163,74,0.31355
5814990,-0.01000,101.8750,163,74,0.34847
5815000,0.00500,99.6875,163,74,0.38877
5815010,0.03000,98.1250,163,74,0.43223
5815020,0.06000,96.3750,163,74,0.51477
5815030,0.08000,95.7500,163,74,0.54799
5815040,0.11500,95.1875,163,74,0.58193
5815050,0.13000,94.6250,163,74,0.61343
5815060,0.12000,93.4375,163,74,0.66593
5815070,0.09500,92.6875,163,74,0.68669
5815080,0.05000,91.9375,163,74,0.70379
5815090,-0.01000,91.1458,163,74,0.71758
5815100,-0.07000,90.3125,163,74,0.72845
5815110,-0.11500,89.4375,163,74,0.73675
5815120,-0.13500,88.6250,163,74,0.74261
5815130,-0.14500,87.7500,163,74,0.74652
5815140,-0.14500,86.0000,163,74,0.74628
5815150,-0.14500,85.1875,163,74,0.74457
5815160,-0.14500,84.3750,163,74,0.74188
5815170,-0.13500,83.5625,163,74,0.73822
5815180,-0.12500,82.1250,163,74,0.72650
5815190,-0.12000,81.5000,163,74,0.71770
5815200,-0.12500,80.8750,163,74,0.70696
5815210,0.04500,80.2500,163,74,0.69402
5815220,0.56500,79.0000,163,74,0.66129
5815230,1.12000,78.3750,163,74,0.64396
5815240,0.92000,77.7500,163,74,0.62637
5815250,0.15500,77.0625,163,74,0.60659
5815260,-0.35500,75.7500,163,74,0.56630
5815270,-0.46000,75.1250,163,74,0.54701
5815280,-0.34500,74.4375,163,74,0.52918
5815290,-0.23000,73.8125,163,74,0.51331
5815300,-0.20000,72.6250,163,74,0.48596
5815310,-0.19000,72.0625,163,74,0.47448
5815320,-0.18000,71.5000,163,74,0.46398
5815330,-0.16500,70.9375,163,74,0.45397
5815340,-0.16500,69.9375,163,74,0.43834
5815350,-0.16666,69.4167,163,74,0.42873
5815360,-0.16500,69.3125,163,74,0.42149
5815370,-0.15500,69.5625,163,74,0.41294
5815380,-0.14000,74.6250,163,74,0.39683
5815390,-0.12000,81.0625,163,74,0.38926
5815400,-0.09500,90.1875,163,74,0.38169
5815410,-0.07500,101.1250,163,74,0.37436
5815420,-0.05500,123.3125,163,74,0.36020
5815430,-0.02500,132.9375,163,74,0.35482
5815440,0.00000,141.0625,163,74,0.35018
5815450,0.03000,147.3750,163,74,0.34457
5815460,0.05000,155.0625,163,74,0.33358
5815470,0.07000,156.8125,163,74,0.32821
5815480,0.07000,157.6250,163,74,0.32308
5815490,0.07000,157.8125,163,74,0.31819
5815500,0.06000,157.1250,163,74,0.30940
5815510,0.06000,156.5625,163,74,0.30501
5815520,0.06000,155.8750,163,74,0.30061
5815530,0.06500,155.0625,163,74,0.29621
5815540,0.07000,153.2500,163,74,0.29060
5815550,0.07000,152.2500,163,74,0.28742
5815560,0.06000,151.1875,163,74,0.28400
5815570,0.03500,149.9375,163,74,0.28059
5815580,0.00500,147.2500,163,74,0.27350
5815590,-0.01500,145.6250,163,74,0.27106
5815600,-0.03500,143.8125,163,74,0.26960
5815610,-0.04500,141.6875,163,74,0.26691
5815620,-0.05000,135.9375,163,74,0.26203
5815630,-0.05000,132.0625,163,74,0.26252
5815640,-0.04500,127.4375,163,74,0.26618
5815650,-0.03000,122.1875,163,74,0.27448
5815660,-0.02000,111.2500,163,74,0.31209
5815670,-0.00500,106.5000,163,74,0.34261
5815680,0.01000,102.7500,163,74,0.37973
5815690,0.04000,100.0000,163,74,0.42149
5815700,0.07000,96.7500,163,74,0.50940
5815710,0.10000,95.9375,163,74,0.55140
5815720,0.13500,95.3750,163,74,0.58999
5815730,0.15000,94.9375,163,74,0.62418
5815740,0.14500,94.0625,163,74,0.67131
5815750,0.13500,93.5625,163,74,0.69158
5815760,0.09000,93.0000,163,74,0.70965
5815770,0.01500,92.3125,163,74,0.72503
5815780,-0.05000,90.7500,163,74,0.74799
5815790,-0.09500,89.8750,163,74,0.75580
5815800,-0.12000,89.0000,163,74,0.76166
5815810,-0.13500,88.0625,163,74,0.76557
5815820,-0.13500,86.3125,163,74,0.76777
5815830,-0.14000,85.5000,163,74,0.76557
5815840,-0.14000,84.6875,163,74,0.76190
5815850,-0.13500,83.9375,163,74,0.75775
5815860,-0.13000,82.5625,163,74,0.74603
5815870,-0.13000,81.9375,163,74,0.73773
5815880,-0.12500,81.2500,163,74,0.72796
5815890,0.07000,80.5625,163,74,0.71575
5815900,0.58500,79.2500,163,74,0.68449
5815910,1.05500,78.5625,163,74,0.66520
5815920,0.78500,77.8125,163,74,0.64420
5815930,0.05500,77.0625,163,74,0.62442
5815940,-0.38500,75.5625,163,74,0.58486
5815950,-0.46000,74.8750,163,74,0.56459
5815960,-0.34500,74.1875,163,74,0.54530
5815970,-0.24000,73.5625,163,74,0.52772
5815980,-0.22000,72.3125,163,74,0.49768
5815990,-0.20500,71.6875,163,74,0.48523
5816000,-0.20000,71.1250,162,74,0.47399
5816010,-0.19000,70.5625,162,74,0.46349
5816020,-0.19000,69.5000,162,74,0.44444
5816030,-0.18500,69.0625,162,74,0.43663
5816040,-0.18500,68.9375,162,74,0.42955
5816050,-0.17500,69.3125,162,74,0.42173
5816060,-0.16000,74.4375,162,74,0.40562
5816070,-0.14000,80.7500,162,74,0.39756
5816080,-0.12000,89.6250,162,74,0.38974
5816090,-0.09500,100.2500,162,74,0.38217
5816100,-0.06500,121.8750,162,74,0.36777
5816110,-0.03500,131.2500,162,74,0.36068
5816120,-0.00500,139.1250,162,74,0.35409
5816130,0.02000,145.3750,162,74,0.34896
5816140,0.04000,152.9375,162,74,0.33944
5816150,0.05000,154.6875,162,74,0.33407
5816160,0.06000,155.5625,162,74,0.32845
5816170,0.06000,155.7500,162,74,0.32308
5816180,0.05000,154.8750,162,74,0.31258
5816190,0.05000,154.1250,162,74,0.30745
5816200,0.05000,153.2500,162,74,0.30256
5816210,0.06000,152.3125,162,74,0.29792
5816220,0.06500,150.1875,162,74,0.28889
5816230,0.07000,149.1250,162,74,0.28620
5816240,0.05500,147.9375,162,74,0.28400
5816250,0.03500,146.7500,162,74,0.28107
5816260,0.00500,144.0625,162,74,0.27448
5816270,-0.01500,142.5000,162,74,0.27082
5816280,-0.03000,140.6250,162,74,0.26691
5816290,-0.04500,138.3750,162,74,0.26276
5816300,-0.05500,132.1250,162,74,0.25617
5816310,-0.04500,127.8750,162,74,0.25568
5816320,-0.03000,122.8750,162,74,0.25958
5816330,-0.01500,117.4375,162,74,0.26764
5816340,-0.00500,106.8750,162,74,0.30208
5816350,0.02000,102.7500,162,74,0.33114
5816360,0.05000,99.5625,162,74,0.36679
5816370,0.08000,97.3125,162,74,0.40757
5816380,0.11167,95.4792,162,74,0.47273
5816390,0.14000,94.2500,162,74,0.53724
5816400,0.16000,93.8125,162,74,0.57607
5816410,0.16500,93.3750,162,74,0.61074
5816420,0.14500,92.5000,162,74,0.66691
5816430,0.11000,91.9375,162,74,0.68571
5816440,0.03500,91.2500,162,74,0.69963
5816450,-0.04000,90.5625,162,74,0.71282
5816460,-0.09500,88.8750,162,74,0.73382
5816470,-0.12500,88.0000,162,74,0.74115
5816480,-0.14000,87.1875,162,74,0.74652
5816490,-0.14500,86.3750,162,74,0.74994
5816500,-0.14500,84.8750,162,74,0.75189
5816510,-0.14500,84.1875,162,74,0.75067
5816520,-0.14500,83.5000,162,74,0.74774
5816530,-0.14500,82.8750,162,74,0.74335
5816540,-0.14500,81.6250,162,74,0.73040
5816550,-0.15000,81.0000,162,74,0.72186
5816560,0.00000,80.3125,162,74,0.71136
5816570,0.45500,79.6250,162,74,0.69866
5816580,0.97000,78.1875,162,74,0.66545
5816590,0.86000,77.4375,162,74,0.64567
5816600,0.15500,76.6875,162,74,0.62418
5816610,-0.35000,76.0000,162,74,0.60171
5816620,-0.48000,74.5625,162,74,0.55775
5816630,-0.38000,73.8750,162,74,0.53968
5816640,-0.27000,73.2500,162,74,0.52405
5816650,-0.23000,72.5625,162,74,0.50842
5816660,-0.21500,71.3125,162,74,0.48132
5816670,-0.20000,70.6875,162,74,0.46984
5816680,-0.19000,70.0625,162,74,0.45934
5816690,-0.18000,69.5000,162,74,0.44957
5816700,-0.18500,68.6250,162,74,0.43126
5816710,-0.18000,68.5000,162,74,0.42247
5816720,-0.17500,68.8125,162,74,0.41392
5816730,-0.16000,70.2500,162,74,0.40708
5816740,-0.14500,79.7500,162,74,0.39341
5816750,-0.12500,88.4375,162,74,0.38608
5816760,-0.10500,98.8750,162,74,0.37851
5816770,-0.07500,109.7500,162,74,0.37118
5816780,-0.05000,129.5000,162,74,0.35751
5816790,-0.02000,137.3750,162,74,0.35116
5816800,0.00000,143.5625,162,74,0.34554
5816810,0.02000,148.1250,162,74,0.33993
5816820,0.03000,152.9375,162,74,0.32894
5816830,0.03000,153.8125,162,74,0.32479
5816840,0.03000,153.9375,162,74,0.32137
5816850,0.03000,153.0000,162,74,0.31722
5816860,0.02500,152.1875,162,74,0.30769
5816870,0.02500,151.2500,162,74,0.30281
5816880,0.02500,150.2500,162,74,0.29792
5816890,0.03500,149.1875,162,74,0.29328
5816900,0.03500,146.9375,162,74,0.28474
5816910,0.03000,145.7500,162,74,0.28083
5816920,0.01000,144.4375,162,74,0.27692
5816930,-0.01000,143.0625,162,74,0.27448
5816940,-0.03500,139.8750,162,74,0.26960
5816950,-0.04500,137.9375,162,74,0.26593
5816960,-0.05500,135.6250,162,74,0.26203
5816970,-0.05000,132.7500,162,74,0.25836
5816980,-0.04500,124.8125,162,74,0.25519
5816990,-0.03500,119.8125,162,74,0.25836
5817000,-0.02000,114.6250,162,74,0.26716
5817010,-0.00500,109.5625,162,74,0.28278
5817020,0.01000,101.6250,162,74,0.33675
5817030,0.04000,98.9375,162,74,0.36874
5817040,0.06500,97.0000,162,74,0.40220
5817050,0.09000,95.6250,162,74,0.44225
5817060,0.12500,93.9375,162,74,0.52674
5817070,0.15000,93.2500,162,74,0.56630
5817080,0.15500,92.6875,162,74,0.60195
5817090,0.15000,92.1250,162,74,0.63346
5817100,0.12500,90.8125,162,74,0.68327
5817110,0.07000,90.0625,162,74,0.70208
5817120,-0.00500,89.3125,162,74,0.71746
5817130,-0.06500,88.5000,162,74,0.72772
5817140,-0.10500,86.8750,162,74,0.74017
5817150,-0.12000,86.1250,162,74,0.74481
5817160,-0.12500,85.3750,162,74,0.74799
5817170,-0.12500,84.6250,162,74,0.74969
5817180,-0.13000,83.2500,162,74,0.74750
5817190,-0.13000,82.6250,162,74,0.74408
5817200,-0.13000,82.0625,162,74,0.73944
5817210,-0.12500,81.4375,162,74,0.73333
5817220,-0.13500,80.1250,162,74,0.71624
5817230,-0.08500,79.4375,162,74,0.70574
5817240,0.24500,78.6875,162,74,0.69353
5817250,0.83500,77.8750,162,74,0.67888
5817260,1.03000,76.3125,162,74,0.64225
5817270,0.50500,75.5000,162,74,0.62173
5817280,-0.16000,74.6875,162,74,0.60049
5817290,-0.45500,73.8750,162,74,0.57924
5817300,-0.43500,72.3750,162,74,0.53993
5817310,-0.31000,71.6875,162,74,0.52234
5817320,-0.24000,71.0625,162,74,0.50647
5817330,-0.21500,70.4375,162,74,0.49377
5817340,-0.20000,69.2500,162,74,0.47228
5817350,-0.19000,68.6875,162,74,0.46178
5817360,-0.19000,68.1875,162,74,0.45177
5817370,-0.18000,67.6875,162,74,0.44225
5817380,-0.17500,67.0625,162,74,0.42393
5817390,-0.16500,67.1250,162,74,0.41514
5817400,-0.15083,66.7813,162,74,0.40794
5817410,-0.13500,70.6875,162,74,0.39853
5817420,-0.12000,83.5000,162,74,0.38315
5817430,-0.09500,93.3750,162,74,0.37705
5817440,-0.07500,104.1875,162,74,0.37167
5817450,-0.05500,114.7500,162,74,0.36557
5817460,-0.03500,132.9375,162,74,0.35311
5817470,-0.01500,139.8125,162,74,0.34725
5817480,0.00000,145.1250,162,74,0.34139
5817490,0.02500,148.7500,162,74,0.33602
5817500,0.03500,152.1875,162,74,0.32503
5817510,0.03500,152.5625,162,74,0.31941
5817520,0.03000,152.4375,162,74,0.31404
5817530,0.03000,151.9375,162,74,0.31013
5817540,0.03000,150.3125,162,74,0.30256
5817550,0.03500,149.3750,162,74,0.29768
5817560,0.04500,148.3750,162,74,0.29280
5817570,0.05000,147.3750,162,74,0.28791
5817580,0.05000,145.1250,162,74,0.27888
5817590,0.03000,143.8750,162,74,0.27473
5817600,0.00500,142.5625,162,74,0.27057
5817610,-0.01500,141.1250,162,74,0.26667
5817620,-0.04000,137.6250,162,74,0.26007
5817630,-0.05500,135.4375,162,74,0.25788
5817640,-0.06000,132.6875,162,74,0.25421
5817650,-0.05500,129.3125,162,74,0.25006
5817660,-0.04500,120.5625,162,74,0.24811
5817670,-0.03500,115.4375,162,74,0.25324
5817680,-0.02500,110.4375,162,74,0.26471
5817690,-0.00500,105.9375,162,74,0.28327
5817700,0.01000,99.4375,162,74,0.34237
5817710,0.03500,97.5000,162,74,0.38071
5817720,0.06000,96.1250,162,74,0.42247
5817730,0.08000,95.2500,162,74,0.45983
5817740,0.11000,93.9375,162,74,0.53138
5817750,0.12500,93.4375,162,74,0.56703
5817760,0.12000,92.8750,162,74,0.59976
5817770,0.10000,92.3125,162,74,0.62857
5817780,0.05000,90.9375,162,74,0.67375
5817790,-0.02500,90.1875,162,74,0.69060
5817800,-0.09500,89.4375,162,74,0.70427
5817810,-0.14000,88.6250,162,74,0.71477
5817820,-0.16000,87.0625,162,74,0.72723
5817830,-0.17000,86.2500,162,74,0.72918
5817840,-0.17000,85.5000,162,74,0.73089
5817850,-0.17500,84.8125,162,74,0.73162
5817860,-0.17500,83.5000,162,74,0.72894
5817870,-0.17000,82.9375,162,74,0.72552
5817880,-0.17000,82.3125,162,74,0.72039
5817890,-0.17000,81.6875,162,74,0.71355
5817900,-0.17500,80.5000,162,74,0.69426
5817910,0.02000,79.8750,162,74,0.68156
5817920,0.58000,79.1875,162,74,0.66667
5817930,1.10000,78.5625,162,74,0.65128
5817940,0.81500,77.1250,162,74,0.61734
5817950,0.02500,76.3750,162,74,0.59780
5817960,-0.46000,75.6250,162,74,0.57778
5817970,-0.56000,74.8750,162,74,0.55824
5817980,-0.44000,73.5625,162,74,0.52234
5817990,-0.31500,72.8750,162,74,0.50672
5818000,-0.27500,72.2500,161,73,0.49255
5818010,-0.26000,71.6250,161,73,0.47985
5818020,-0.25000,70.3750,161,73,0.45910
5818030,-0.24000,69.8125,161,73,0.45104
5818040,-0.23000,69.2500,161,73,0.44249
5818050,-0.22000,68.8125,161,73,0.43370
5818060,-0.21000,68.4375,161,73,0.41685
5818070,-0.20000,69.1250,161,73,0.40879
5818080,-0.19000,71.3750,161,73,0.40098
5818090,-0.17500,76.0000,161,73,0.39341
5818100,-0.16000,93.0625,161,73,0.37875
5818110,-0.14500,104.0000,161,73,0.37167
5818120,-0.11500,114.9375,161,73,0.36484
5818130,-0.08500,125.0625,161,73,0.35946
5818140,-0.05500,141.0000,161,73,0.34994
5818150,-0.03000,146.5000,161,73,0.34481
5818160,-0.01000,150.3125,161,73,0.33968
5818170,0.00500,152.6875,161,73,0.33455
5818180,0.01000,154.5000,161,73,0.32405
5818190,0.01000,154.4375,161,73,0.31893
5818200,0.00500,154.1250,161,73,0.31380
5818210,0.00000,153.5625,161,73,0.30867
5818220,0.00500,152.0000,161,73,0.30037
5818230,0.01500,151.0625,161,73,0.29768
5818240,0.02500,150.0625,161,73,0.29451
5818250,0.03500,149.0000,161,73,0.29109
5818260,0.02500,146.6250,161,73,0.28376
5818270,0.00000,145.3750,161,73,0.27985
5818280,-0.02500,144.0000,161,73,0.27595
5818290,-0.05000,142.5000,161,73,0.27204
5818300,-0.07000,138.8125,161,73,0.26398
5818310,-0.07500,136.3750,161,73,0.25983
5818320,-0.06500,133.3750,161,73,0.25641
5818330,-0.05500,129.6875,161,73,0.25519
5818340,-0.04000,120.2500,161,73,0.26007
5818350,-0.02500,115.0000,161,73,0.26911
5818360,-0.01000,110.1250,161,73,0.28498
5818370,0.00500,105.8750,161,73,0.30867
5818380,0.03000,100.0000,161,73,0.37729
5818390,0.06000,98.2500,161,73,0.41856
5818400,0.09000,97.1250,161,73,0.46178
5818410,0.12000,96.3125,161,73,0.50452
5818420,0.14000,95.6625,161,73,0.55062
5818430,0.14750,94.9938,161,73,0.59480
5818440,0.14000,94.1250,161,73,0.63175
5818450,0.11500,92.8750,161,73,0.65617
5818460,0.06000,92.1875,161,73,0.69548
5818470,-0.01500,91.4375,161,73,0.71013
5818480,-0.07000,90.6250,161,73,0.72161
5818490,-0.10500,89.8125,161,73,0.73040
5818500,-0.12500,88.1250,161,73,0.74115
5818510,-0.12500,87.3125,161,73,0.74359
5818520,-0.13500,86.5625,161,73,0.74457
5818530,-0.13500,85.7500,161,73,0.74335
5818540,-0.13500,84.2500,161,73,0.73700
5818550,-0.13500,83.6250,161,73,0.73260
5818560,-0.13500,83.0000,161,73,0.72674
5818570,-0.14000,82.3750,161,73,0.71941
5818580,-0.08500,81.1875,161,73,0.69963
5818590,0.24500,80.5625,161,73,0.68645
5818600,0.85500,79.9375,161,73,0.67082
5818610,1.01000,78.6250,161,73,0.63346
5818620,0.50500,78.0000,161,73,0.61514
5818630,-0.19500,77.3125,161,73,0.59731
5818640,-0.47000,76.5625,161,73,0.57827
5818650,-0.41500,75.8750,161,73,0.55922
5818660,-0.29000,74.5000,161,73,0.52381
5818670,-0.22500,73.8750,161,73,0.50842
5818680,-0.21500,73.2500,161,73,0.49451
5818690,-0.20000,72.6250,161,73,0.48205
5818700,-0.19000,71.4375,161,73,0.46032
5818710,-0.18000,70.8125,161,73,0.45079
5818720,-0.17500,70.3125,161,73,0.44151
5818730,-0.17000,69.9375,161,73,0.43346
5818740,-0.16500,70.1875,161,73,0.41856
5818750,-0.15500,71.8750,161,73,0.41050
5818760,-0.14500,75.8125,161,73,0.40244
5818770,-0.12500,82.5000,161,73,0.39463
5818780,-0.10500,102.8125,161,73,0.37949
5818790,-0.07000,114.0625,161,73,0.37241
5818800,-0.04000,124.6250,161,73,0.36557
5818810,-0.00500,133.9375,161,73,0.35922
5818820,0.03000,147.5625,161,73,0.34847
5818830,0.05500,151.8125,161,73,0.34481
5818840,0.07000,154.5000,161,73,0.34042
5818850,0.07500,156.0000,161,73,0.33553
5818860,0.07500,156.8125,161,73,0.32576
5818870,0.07000,156.5625,161,73,0.32063
5818880,0.07000,156.0625,161,73,0.31551
5818890,0.06500,155.3750,161,73,0.31087
5818900,0.06000,153.7500,161,73,0.30159
5818910,0.06500,152.8750,161,73,0.29719
5818920,0.06500,152.0000,161,73,0.29255
5818930,0.06000,151.0625,161,73,0.28938
5818940,0.05000,149.1250,161,73,0.28352
5818950,0.02500,148.0000,161,73,0.28010
5818960,-0.00500,146.7500,161,73,0.27643
5818970,-0.02500,143.6250,161,73,0.27277
5818980,-0.04000,141.5625,161,73,0.26545
5818990,-0.05000,139.0000,161,73,0.26203
5819000,-0.05000,135.8125,160,73,0.25934
5819010,-0.04000,131.8125,160,73,0.25861
5819020,-0.03000,121.8750,160,73,0.26911
5819030,-0.02000,116.4375,160,73,0.28156
5819040,-0.00500,111.2500,160,73,0.30208
5819050,0.01000,106.7500,160,73,0.33016
5819060,0.04000,100.4375,160,73,0.40513
5819070,0.07000,98.5625,160,73,0.44762
5819080,0.10000,97.3125,160,73,0.49060
5819090,0.13500,96.4375,160,73,0.53187
5819100,0.15000,95.4375,160,73,0.60415
5819110,0.14500,95.0625,160,73,0.63419
5819120,0.12500,94.6250,160,73,0.65983
5819130,0.08000,94.1250,160,73,0.67863
5819140,0.01000,92.8125,160,73,0.70574
5819150,-0.05500,92.0625,160,73,0.71746
5819160,-0.09500,91.2500,160,73,0.72698
5819170,-0.12000,90.3750,160,73,0.73431
5819180,-0.13000,88.6875,160,73,0.74335
5819190,-0.13500,87.8125,160,73,0.74530
5819200,-0.14000,87.0000,160,73,0.74579
5819210,-0.14000,86.1875,160,73,0.74481
5819220,-0.14000,84.6875,160,73,0.73895
5819230,-0.13500,83.9375,160,73,0.73407
5819240,-0.14500,83.1875,160,73,0.72821
5819250,-0.13500,82.4375,160,73,0.72112
5819260,0.08500,80.9375,160,73,0.70085
5819270,0.62000,80.1250,160,73,0.68718
5819280,1.02000,79.3125,160,73,0.67106
5819290,0.71000,78.5000,160,73,0.65275
5819300,-0.01000,76.8750,160,73,0.61099
5819310,-0.42000,76.0625,160,73,0.58901
5819320,-0.46000,75.2500,160,73,0.56752
5819330,-0.34500,74.5625,160,73,0.54896
5819340,-0.25500,73.1875,160,73,0.51624
5819350,-0.23000,72.5625,160,73,0.50085
5819360,-0.22000,71.9375,160,73,0.48718
5819370,-0.20500,71.3750,160,73,0.47473
5819380,-0.19500,70.1875,160,73,0.45324
5819390,-0.18500,69.6875,160,73,0.44371
5819400,-0.17500,69.3125,160,73,0.43443
5819410,-0.16500,69.1250,160,73,0.42540
5819420,-0.15000,70.5625,160,73,0.40952
5819430,-0.13000,73.5625,160,73,0.40293
5819440,-0.11500,79.2500,160,73,0.39536
5819450,-0.09667,93.3646,160,73,0.38372
5819460,-0.07500,109.1250,160,73,0.37216
5819470,-0.05000,119.7500,160,73,0.36484
5819480,-0.02000,129.3750,160,73,0.35775
5819490,0.00000,137.5625,160,73,0.35092
5819500,0.03000,148.9375,160,73,0.33748
5819510,0.04500,152.2500,160,73,0.33089
5819520,0.05000,154.1875,160,73,0.32601
5819530,0.05000,155.1250,160,73,0.32186
5819540,0.04500,155.2500,160,73,0.31136
5819550,0.04000,154.8125,160,73,0.30598
5819560,0.03500,154.2500,160,73,0.30037
5819570,0.03000,153.5625,160,73,0.29475
5819580,0.03500,152.0000,160,73,0.28400
5819590,0.04000,151.1250,160,73,0.27888
5819600,0.04000,150.1875,160,73,0.27375
5819610,0.03000,149.1875,160,73,0.26886
5819620,0.01000,146.8125,160,73,0.26105
5819630,-0.01500,145.4375,160,73,0.25861
5819640,-0.03500,143.8750,160,73,0.25543
5819650,-0.05000,142.0625,160,73,0.25177
5819660,-0.06000,137.1875,160,73,0.24420
5819670,-0.07000,133.8125,160,73,0.24103
5819680,-0.06500,129.6875,160,73,0.23956
5819690,-0.05500,124.8750,160,73,0.24444
5819700,-0.04000,114.5000,160,73,0.26984
5819710,-0.02500,109.8125,160,73,0.29035
5819720,0.00000,105.8750,160,73,0.31331
5819730,0.03500,102.9375,160,73,0.33993
5819740,0.07000,99.2500,160,73,0.41221
5819750,0.10000,98.2500,160,73,0.45226
5819760,0.13500,97.4375,160,73,0.49182
5819770,0.15000,96.8125,160,73,0.52894
5819780,0.14000,95.6875,160,73,0.59243
5819790,0.12000,95.1250,160,73,0.61807
5819800,0.07000,94.5000,160,73,0.64005
5819810,-0.00500,93.8125,160,73,0.65861
5819820,-0.07500,92.2500,160,73,0.68449
5819830,-0.11500,91.4375,160,73,0.69182
5819840,-0.13500,90.6250,160,73,0.69890
5819850,-0.14500,89.8125,160,73,0.70501
5819860,-0.14500,88.1875,160,73,0.71306
5819870,-0.14500,87.4375,160,73,0.71453
5819880,-0.14500,86.7500,160,73,0.71453
5819890,-0.14500,86.0625,160,73,0.71306
5819900,-0.14500,84.6875,160,73,0.70574
5819910,-0.14500,83.9375,160,73,0.69988
5819920,-0.14500,83.2500,160,73,0.69255
5819930,0.06500,82.5625,160,73,0.68400
5819940,0.59000,81.0625,160,73,0.66056
5819950,1.02500,80.3125,160,73,0.64567
5819960,0.75500,79.5625,160,73,0.62882
5819970,0.04000,78.8125,160,73,0.61026
5819980,-0.39500,77.2500,160,73,0.57143
5819990,-0.46000,76.5000,160,73,0.55238
5820000,-0.35500,75.7500,159,72,0.53431
5820010,-0.26000,75.0625,159,72,0.51770
5820020,-0.23000,73.6875,159,72,0.49035
5820030,-0.21000,73.0000,159,72,0.48010
5820040,-0.20000,72.3750,159,72,0.47009
5820050,-0.19000,71.7500,159,72,0.46032
5820060,-0.18500,70.7500,159,72,0.44200
5820070,-0.18500,70.4375,159,72,0.43321
5820080,-0.18000,70.4375,159,72,0.42466
5820090,-0.17000,71.0000,159,72,0.41612
5820100,-0.15500,77.2500,159,72,0.40024
5820110,-0.14000,84.2500,159,72,0.39267
5820120,-0.11500,93.6875,159,72,0.38657
5820130,-0.09000,104.4375,159,72,0.38120
5820140,-0.06500,125.7500,159,72,0.36874
5820150,-0.03500,134.8750,159,72,0.36239
5820160,-0.01000,142.4375,159,72,0.35604
5820170,0.01000,148.3750,159,72,0.34994
5820180,0.03000,155.3125,159,72,0.33822
5820190,0.04000,156.8750,159,72,0.33260
5820200,0.04000,157.6250,159,72,0.32698
5820210,0.04000,157.6875,159,72,0.32137
5820220,0.03500,156.8125,159,72,0.31209
5820230,0.03500,156.0625,159,72,0.30867
5820240,0.04000,155.2500,159,72,0.30452
5820250,0.04000,154.3125,159,72,0.30037
5820260,0.04500,152.3125,159,72,0.29206
5820270,0.04000,151.1875,159,72,0.28791
5820280,0.03000,150.0625,159,72,0.28400
5820290,0.01000,148.8125,159,72,0.28034
5820300,-0.01500,145.9375,159,72,0.27277
5820310,-0.03500,144.1875,159,72,0.26862
5820320,-0.05000,142.1250,159,72,0.26593
5820330,-0.05500,139.6250,159,72,0.26374
5820340,-0.05000,132.6875,159,72,0.25788
5820350,-0.03500,128.1250,159,72,0.25665
5820360,-0.02500,122.9375,159,72,0.25910
5820370,-0.01000,117.5000,159,72,0.26667
5820380,0.00000,108.1250,159,72,0.30183
5820390,0.03000,104.7500,159,72,0.32943
5820400,0.06500,102.2500,159,72,0.36288
5820410,0.09000,100.5000,159,72,0.40000
5820420,0.12500,98.4375,159,72,0.47228
5820430,0.15500,97.8125,159,72,0.50232
5820440,0.15500,97.1875,159,72,0.53333
5820450,0.14500,96.6250,159,72,0.56264
5820460,0.11500,95.3125,159,72,0.61270
5820470,0.05450,94.5500,159,72,0.63868
5820480,-0.01700,93.9188,159,72,0.65167
5820490,-0.08000,93.0000,159,72,0.66276
5820500,-0.11500,91.3750,159,72,0.68303
5820510,-0.13500,90.5625,159,72,0.69011
5820520,-0.14000,89.7500,159,72,0.69402
5820530,-0.14500,88.1875,159,72,0.69597
5820540,-0.14500,87.5000,159,72,0.69817
5820550,-0.14500,86.8125,159,72,0.69792
5820560,-0.14000,86.1875,159,72,0.69646
5820570,-0.14000,85.5000,159,72,0.69353
5820580,-0.15000,84.0000,159,72,0.68303
5820590,-0.06500,83.2500,159,72,0.67497
5820600,0.29000,82.5000,159,72,0.66471
5820610,0.87000,81.6875,159,72,0.65250
5820620,0.99000,80.0625,159,72,0.62344
5820630,0.38000,79.3125,159,72,0.60830
5820640,-0.24000,78.5000,159,72,0.59096
5820650,-0.47000,77.7500,159,72,0.57289
5820660,-0.42000,76.2500,159,72,0.53748
5820670,-0.29500,75.5000,159,72,0.52112
5820680,-0.23000,74.8750,159,72,0.50623
5820690,-0.22000,74.1875,159,72,0.49280
5820700,-0.21000,72.9375,159,72,0.47009
5820710,-0.20000,72.3125,159,72,0.46007
5820720,-0.19500,71.7500,159,72,0.45201
5820730,-0.19500,71.1875,159,72,0.44493
5820740,-0.19000,70.5625,159,72,0.42930
5820750,-0.18000,71.0000,159,72,0.42149
5820760,-0.17000,72.5000,159,72,0.41368
5820770,-0.16000,76.0625,159,72,0.40586
5820780,-0.14500,91.2500,159,72,0.39096
5820790,-0.12000,101.8750,159,72,0.38388
5820800,-0.09500,112.9375,159,72,0.37753
5820810,-0.06500,123.5625,159,72,0.37143
5820820,-0.03500,141.1250,159,72,0.36142
5820830,-0.01500,147.6250,159,72,0.35751
5820840,0.00000,152.4375,159,72,0.35287
5820850,0.01000,155.6875,159,72,0.34799
5820860,0.01500,158.7500,159,72,0.33724
5820870,0.01000,159.0625,159,72,0.33187
5820880,0.00500,158.8125,159,72,0.32674
5820890,0.00000,158.3125,159,72,0.32161
5820900,0.00500,156.6875,159,72,0.31160
5820910,0.01000,155.7500,159,72,0.30696
5820920,0.02000,154.6250,159,72,0.30354
5820930,0.02000,153.4375,159,72,0.30085
5820940,0.01500,151.0000,159,72,0.29353
5820950,-0.00500,149.6875,159,72,0.28962
5820960,-0.03500,148.3125,159,72,0.28596
5820970,-0.06000,146.8125,159,72,0.28230
5820980,-0.07500,143.2500,159,72,0.27497
5820990,-0.08500,141.0000,159,72,0.27131
5821000,-0.09500,138.1250,158,72,0.26789
5821010,-0.09000,134.5625,158,72,0.26520
5821020,-0.07500,125.3125,158,72,0.26716
5821030,-0.07000,120.0000,158,72,0.27302
5821040,-0.05500,114.8750,158,72,0.28400
5821050,-0.03500,110.3125,158,72,0.30159
5821060,0.00000,103.9375,158,72,0.35556
5821070,0.03000,102.0625,158,72,0.38999
5821080,0.05500,100.7500,158,72,0.42662
5821090,0.09000,99.8750,158,72,0.46325
5821100,0.11500,98.6250,158,72,0.53162
5821110,0.11000,98.0625,158,72,0.56117
5821120,0.09000,97.4375,158,72,0.58413
5821130,0.04500,96.8125,158,72,0.60244
5821140,-0.02500,95.3125,158,72,0.63590
5821150,-0.09500,94.5000,158,72,0.64982
5821160,-0.15000,93.6875,158,72,0.66154
5821170,-0.17500,92.8125,158,72,0.67131
5821180,-0.19000,91.1250,158,72,0.68498
5821190,-0.19000,90.3125,158,72,0.68889
5821200,-0.19000,89.5000,158,72,0.69133
5821210,-0.19000,88.7500,158,72,0.69255
5821220,-0.19000,87.3750,158,72,0.69035
5821230,-0.19000,86.7500,158,72,0.68718
5821240,-0.19500,86.0625,158,72,0.68352
5821250,-0.19000,85.3750,158,72,0.67863
5821260,0.02500,83.9375,158,72,0.66349
5821270,0.61000,83.2500,158,72,0.65299
5821280,1.11000,82.5000,158,72,0.64029
5821290,0.76500,81.7500,158,72,0.62540
5821300,-0.03500,80.2500,158,72,0.59121
5821310,-0.50000,79.4375,158,72,0.57314
5821320,-0.58000,78.6875,158,72,0.55702
5821330,-0.45000,78.0000,158,72,0.54237
5821340,-0.33000,76.5625,158,72,0.51233
5821350,-0.29500,75.8750,158,72,0.49890
5821360,-0.28000,75.2500,158,72,0.48694
5821370,-0.26500,74.6250,158,72,0.47643
5821380,-0.25500,73.4375,158,72,0.45861
5821390,-0.24500,72.9375,158,72,0.45055
5821400,-0.23000,72.5000,158,72,0.44274
5821410,-0.22000,72.3125,158,72,0.43516
5821420,-0.21000,74.1875,158,72,0.42247
5821430,-0.19500,77.8750,158,72,0.41587
5821440,-0.18000,84.5000,158,72,0.40879
5821450,-0.16500,93.9375,158,72,0.40195
5821460,-0.14000,116.6875,158,72,0.38877
5821470,-0.11500,127.6250,158,72,0.38217
5821480,-0.08500,137.4375,158,72,0.37607
5821490,-0.05500,145.6875,158,72,0.36996
5821500,-0.02500,154.1146,158,72,0.36142
5821510,0.00000,160.4375,158,72,0.35360
5821520,0.01500,162.3750,158,72,0.34969
5821530,0.02000,163.2500,158,72,0.34628
5821540,0.02500,163.3125,158,72,0.33797
5821550,0.02000,162.8750,158,72,0.33358
5821560,0.01500,162.1875,158,72,0.32918
5821570,0.01000,161.4375,158,72,0.32479
5821580,0.02000,159.7500,158,72,0.31648
5821590,0.03000,158.8125,158,72,0.31258
5821600,0.03000,157.7500,158,72,0.30867
5821610,0.01000,156.6875,158,72,0.30501
5821620,-0.01000,154.1875,158,72,0.30061
5821630,-0.04000,152.8125,158,72,0.29792
5821640,-0.07000,151.2500,158,72,0.29499
5821650,-0.08500,149.3750,158,72,0.29182
5821660,-0.09500,144.5000,158,72,0.28498
5821670,-0.09500,141.1875,158,72,0.28230
5821680,-0.08500,137.0625,158,72,0.28107
5821690,-0.07000,132.1875,158,72,0.28303
5821700,-0.05000,121.1875,158,72,0.30281
5821710,-0.03000,116.0000,158,72,0.32283
5821720,0.00000,111.6250,158,72,0.34505
5821730,0.04000,108.1875,158,72,0.37021
5821740,0.07000,104.0000,158,72,0.44469
5821750,0.10000,102.8125,158,72,0.48474
5821760,0.13000,102.0000,158,72,0.52332
5821770,0.15000,101.4375,158,72,0.55922
5821780,0.14500,100.4375,158,72,0.62002
5821790,0.12500,99.8750,158,72,0.64469
5821800,0.08000,99.2500,158,72,0.66569
5821810,0.01000,98.5000,158,72,0.68327
5821820,-0.05500,96.9375,158,72,0.70476
5821830,-0.09500,96.0625,158,72,0.71355
5821840,-0.11500,95.1875,158,72,0.72137
5821850,-0.12500,94.2500,158,72,0.72772
5821860,-0.12500,92.5000,158,72,0.73602
5821870,-0.13500,91.6250,158,72,0.73822
5821880,-0.13500,90.7500,158,72,0.73895
5821890,-0.13000,89.9375,158,72,0.73846
5821900,-0.12500,88.4375,158,72,0.73358
5821910,-0.13000,87.6875,158,72,0.72869
5821920,-0.10000,86.9375,158,72,0.72234
5821930,0.19000,86.2500,158,72,0.71453
5821940,0.79500,84.7500,158,72,0.69231
5821950,1.11500,84.0000,158,72,0.67741
5821960,0.64000,83.3125,158,72,0.66032
5821970,-0.11500,82.5625,158,72,0.64151
5821980,-0.46000,81.0625,158,72,0.60147
5821990,-0.43000,80.3125,158,72,0.58169
5822000,-0.29500,79.5625,157,71,0.56313
5822010,-0.23000,78.8750,157,71,0.54628
5822020,-0.21500,77.5625,157,71,0.52088
5822030,-0.20500,76.8750,157,71,0.50965
5822040,-0.19500,76.2500,157,71,0.49915
5822050,-0.19000,75.6250,157,71,0.48938
5822060,-0.18000,74.5000,157,71,0.47131
5822070,-0.18000,74.1875,157,71,0.46276
5822080,-0.17500,74.2500,157,71,0.45421
5822090,-0.17000,75.4375,157,71,0.44567
5822100,-0.15500,84.2500,157,71,0.42979
5822110,-0.13000,93.0000,157,71,0.42222
5822120,-0.10500,103.8750,157,71,0.41612
5822130,-0.08000,115.6250,157,71,0.41050
5822140,-0.04500,137.5625,157,71,0.39780
5822150,-0.01500,146.4375,157,71,0.39145
5822160,0.01500,153.5625,157,71,0.38535
5822170,0.04000,158.9375,157,71,0.37949
5822180,0.06500,164.8750,157,71,0.36777
5822190,0.08000,166.0000,157,71,0.36190
5822200,0.08500,166.4375,157,71,0.35629
5822210,0.08500,166.3125,157,71,0.35092
5822220,0.08000,165.3750,157,71,0.34359
5822230,0.07000,164.6875,157,71,0.33993
5822240,0.07000,164.0000,157,71,0.33578
5822250,0.07000,163.3125,157,71,0.33138
5822260,0.07000,161.8125,157,71,0.32259
5822270,0.05500,160.9375,157,71,0.31819
5822280,0.03500,160.0000,157,71,0.31404
5822290,0.01000,158.9375,157,71,0.31013
5822300,-0.01500,156.3125,157,71,0.30232
5822310,-0.04000,154.7500,157,71,0.29841
5822320,-0.05500,152.8125,157,71,0.29573
5822330,-0.06500,150.5000,157,71,0.29377
5822340,-0.06500,143.8125,157,71,0.28962
5822350,-0.06000,139.3125,157,71,0.29035
5822360,-0.05500,134.0000,157,71,0.29524
5822370,-0.04500,128.1875,157,71,0.30623
5822380,-0.03000,117.0000,157,71,0.34896
5822390,0.00000,112.5000,157,71,0.38022
5822400,0.03000,109.0000,157,71,0.41587
5822410,0.06500,106.4375,157,71,0.45397
5822420,0.11000,103.5000,157,71,0.51819
5822430,0.14000,102.6875,157,71,0.55018
5822440,0.14000,102.1250,157,71,0.58095
5822450,0.13000,101.6875,157,71,0.60904
5822460,0.10000,100.7500,157,71,0.65519
5822470,0.03500,100.1875,157,71,0.67375
5822480,-0.03500,99.5625,157,71,0.68938
5822490,-0.08500,98.8125,157,71,0.70256
5822500,-0.11500,97.1250,157,71,0.72210
5822510,-0.13000,96.2500,157,71,0.72918
5822520,-0.13550,95.2000,157,71,0.73436
5822530,-0.13450,94.1125,157,71,0.73780
5822540,-0.13000,93.1250,157,71,0.73968
5822550,-0.12500,92.3750,157,71,0.74017
5822560,-0.11500,91.6875,157,71,0.73968
5822570,-0.11500,91.0000,157,71,0.73773
5822580,-0.12500,89.5000,157,71,0.72943
5822590,0.03000,88.6875,157,71,0.72234
5822600,0.49000,87.9375,157,71,0.71331
5822610,1.00000,87.1250,157,71,0.70183
5822620,0.87500,85.5000,157,71,0.67546
5822630,0.15500,84.6875,157,71,0.65885
5822640,-0.36000,83.8750,157,71,0.64005
5822650,-0.48000,83.0625,157,71,0.62027
5822660,-0.38000,81.4375,157,71,0.57998
5822670,-0.27000,80.6250,157,71,0.56093
5822680,-0.22500,79.8125,157,71,0.54359
5822690,-0.21000,79.0000,157,71,0.52796
5822700,-0.19500,77.4375,157,71,0.50183
5822710,-0.18500,76.7500,157,71,0.49060
5822720,-0.18000,76.0625,157,71,0.48156
5822730,-0.18000,75.5000,157,71,0.47399
5822740,-0.17000,75.2500,157,71,0.45812
5822750,-0.16000,76.2500,157,71,0.45006
5822760,-0.14500,79.0000,157,71,0.44200
5822770,-0.13500,84.2500,157,71,0.43394
5822780,-0.11500,102.6250,157,71,0.41807
5822790,-0.09500,113.9375,157,71,0.41050
5822800,-0.07000,125.1875,157,71,0.40317
5822810,-0.04500,135.5000,157,71,0.39634
5822820,-0.01500,151.6875,157,71,0.38681
5822830,0.01000,157.2500,157,71,0.38169
5822840,0.03500,161.1875,157,71,0.37656
5822850,0.05000,163.6250,157,71,0.37118
5822860,0.06000,165.4375,157,71,0.36020
5822870,0.06000,165.3750,157,71,0.35482
5822880,0.06000,165.0000,157,71,0.34945
5822890,0.06000,164.3125,157,71,0.34408
5822900,0.06000,162.5625,157,71,0.33407
5822910,0.06000,161.6250,157,71,0.32918
5822920,0.07000,160.6875,157,71,0.32576
5822930,0.06500,159.6250,157,71,0.32308
5822940,0.05000,157.5000,157,71,0.31575
5822950,0.02000,156.3750,157,71,0.31160
5822960,-0.00500,155.1250,157,71,0.30745
5822970,-0.03000,153.6875,157,71,0.30281
5822980,-0.04500,150.1250,157,71,0.29377
5822990,-0.06000,147.6250,157,71,0.28938
5823000,-0.06500,144.5000,157,71,0.28571
5823010,-0.06000,140.6250,157,71,0.28376
5823020,-0.04500,130.3125,157,71,0.28840
5823030,-0.03000,124.4375,157,71,0.29719
5823040,-0.00500,118.7500,157,71,0.31209
5823050,0.02500,113.7500,157,71,0.33358
5823060,0.06000,106.9375,157,71,0.39487
5823070,0.09000,104.9375,157,71,0.43101
5823080,0.13000,103.5625,157,71,0.46789
5823090,0.15000,102.0625,157,71,0.50379
5823100,0.14500,101.6250,157,71,0.56752
5823110,0.13000,101.1875,157,71,0.59121
5823120,0.09000,100.7500,157,71,0.61026
5823130,0.02500,100.1875,157,71,0.62882
5823140,-0.04500,98.8125,157,71,0.66105
5823150,-0.09500,98.0000,157,71,0.67424
5823160,-0.12000,97.1250,157,71,0.68547
5823170,-0.13500,95.3750,157,71,0.69451
5823180,-0.14000,94.5000,157,71,0.70745
5823190,-0.14500,93.6250,157,71,0.71160
5823200,-0.14500,92.8125,157,71,0.71429
5823210,-0.14500,92.0000,157,71,0.71526
5823220,-0.14000,90.4375,157,71,0.71233
5823230,-0.14000,89.6875,157,71,0.70965
5823240,-0.14000,88.8750,157,71,0.70598
5823250,0.05500,88.0625,157,71,0.70110
5823260,0.56500,86.5000,157,71,0.68547
5823270,1.00500,85.7500,157,71,0.67424
5823280,0.76000,84.9375,157,71,0.66032
5823290,0.04000,84.1250,157,71,0.64420
5823300,-0.40500,82.5000,157,71,0.60684
5823310,-0.47000,81.7500,157,71,0.58901
5823320,-0.36000,80.9375,157,71,0.57241
5823330,-0.26000,80.1875,157,71,0.55482
5823340,-0.23000,78.6875,157,71,0.52137
5823350,-0.22000,78.0000,157,71,0.50696
5823360,-0.21000,77.2500,157,71,0.49402
5823370,-0.20000,76.6250,157,71,0.48254
5823380,-0.19000,75.5000,157,71,0.46349
5823390,-0.19000,75.1250,157,71,0.45495
5823400,-0.18000,75.0625,157,71,0.44689
5823410,-0.17000,75.7500,157,71,0.43883
5823420,-0.15500,82.1875,157,71,0.42589
5823430,-0.13500,89.3750,157,71,0.41905
5823440,-0.11000,99.1250,157,71,0.41197
5823450,-0.08500,110.3125,157,71,0.40488
5823460,-0.05500,132.3125,157,71,0.39121
5823470,-0.03000,141.6875,157,71,0.38462
5823480,-0.00500,149.5625,157,71,0.37827
5823490,0.02000,155.7500,157,71,0.37192
5823500,0.04000,163.2500,157,71,0.35995
5823510,0.05000,165.0000,157,71,0.35556
5823520,0.05500,165.8125,157,71,0.35189
5823530,0.05000,165.9375,157,71,0.34750
5823540,0.05000,165.4125,157,71,0.34129
5823550,0.04417,164.4938,157,71,0.33441
5823560,0.04000,163.4375,157,71,0.32796
5823570,0.04500,162.5000,157,71,0.32308
5823580,0.05500,160.5625,157,71,0.31355
5823590,0.05500,159.5625,157,71,0.30940
5823600,0.04000,158.5000,157,71,0.30525
5823610,0.01000,157.4375,157,71,0.30134
5823620,-0.01500,155.0000,157,71,0.29670
5823630,-0.04000,153.4375,157,71,0.29377
5823640,-0.05500,151.5000,157,71,0.29011
5823650,-0.06500,149.1250,157,71,0.28596
5823660,-0.07000,142.1250,157,71,0.27888
5823670,-0.06500,137.3750,157,71,0.27790
5823680,-0.05500,131.9375,157,71,0.28059
5823690,-0.04500,126.0625,157,71,0.28864
5823700,-0.02000,115.2500,157,71,0.32479
5823710,0.01000,111.1250,157,71,0.34823
5823720,0.04500,108.0000,157,71,0.37436
5823730,0.08000,105.8125,157,71,0.40684
5823740,0.12000,103.3125,157,71,0.47863
5823750,0.14500,102.5625,157,71,0.51331
5823760,0.14000,101.9375,157,71,0.54554
5823770,0.12500,100.8125,157,71,0.60000
5823780,0.10000,100.1875,157,71,0.62247
5823790,0.03000,99.5000,157,71,0.64249
5823800,-0.03500,98.7500,157,71,0.65983
5823810,-0.08500,97.9375,157,71,0.67448
5823820,-0.11500,96.1875,157,71,0.69231
5823830,-0.13000,95.3750,157,71,0.69939
5823840,-0.13500,94.5000,157,71,0.70574
5823850,-0.14000,93.6875,157,71,0.71087
5823860,-0.14500,92.1250,157,71,0.71746
5823870,-0.14000,91.3750,157,71,0.71893
5823880,-0.13000,90.6250,157,71,0.71917
5823890,-0.13500,89.8750,157,71,0.71770
5823900,-0.13500,88.3125,157,71,0.70940
5823910,0.08000,87.4375,157,71,0.70256
5823920,0.62000,86.5625,157,71,0.69402
5823930,1.06500,85.7500,157,71,0.68327
5823940,0.78500,84.0625,157,71,0.65348
5823950,0.03000,83.2500,157,71,0.63492
5823960,-0.42500,82.4375,157,71,0.61465
5823970,-0.50500,81.6250,157,71,0.59341
5823980,-0.39500,80.0625,157,71,0.55116
5823990,-0.29000,79.3750,157,71,0.53187
5824000,-0.25500,78.6875,157,71,0.51453
5824010,-0.24000,78.0000,157,71,0.49915
5824020,-0.23000,76.6250,157,71,0.47692
5824030,-0.22000,75.9375,157,71,0.46667
5824040,-0.22000,75.3125,157,71,0.45665
5824050,-0.21000,74.8125,157,71,0.44713
5824060,-0.20000,74.7500,157,71,0.42857
5824070,-0.18500,75.9375,157,71,0.41978
5824080,-0.17500,79.0000,157,71,0.41123
5824090,-0.16500,84.8750,157,71,0.40317
5824100,-0.15000,104.4375,157,71,0.38755
5824110,-0.12500,116.1875,157,71,0.38120
5824120,-0.10500,127.5625,157,71,0.37582
5824130,-0.07500,137.9375,157,71,0.36947
5824140,-0.04000,154.0000,157,71,0.35653
5824150,-0.01500,159.5000,157,71,0.35018
5824160,0.00000,163.3125,157,71,0.34383
5824170,0.02000,165.6875,157,71,0.33748
5824180,0.02500,167.1875,157,71,0.32576
5824190,0.02000,167.0000,157,71,0.32039
5824200,0.02000,166.5000,157,71,0.31477
5824210,0.02000,165.8125,157,71,0.30916
5824220,0.01500,164.1250,157,71,0.30183
5824230,0.02000,163.1875,157,71,0.29719
5824240,0.03000,162.2500,157,71,0.29231
5824250,0.02500,160.1875,157,71,0.28742
5824260,0.01000,159.1250,157,71,0.27814
5824270,-0.01000,158.0000,157,71,0.27375
5824280,-0.04000,156.6875,157,71,0.26984
5824290,-0.07000,155.1875,157,71,0.26593
5824300,-0.09500,151.3125,157,71,0.25714
5824310,-0.10500,148.6875,157,71,0.25446
5824320,-0.11000,145.3750,157,71,0.25275
5824330,-0.10500,141.2500,157,71,0.25153
5824340,-0.09500,130.6875,157,71,0.25690
5824350,-0.07500,124.9375,157,71,0.26740
5824360,-0.05000,119.5625,157,71,0.28498
5824370,-0.01500,114.9375,157,71,0.30965
5824380,0.02000,108.7500,157,71,0.37729
5824390,0.05500,106.9375,157,71,0.41661
5824400,0.09500,105.7500,157,71,0.45714
5824410,0.13000,104.9375,157,71,0.49646
5824420,0.13000,103.8125,157,71,0.55678
5824430,0.12000,103.2500,157,71,0.58462
5824440,0.09000,102.6875,157,71,0.61050
5824450,0.02000,102.0000,157,71,0.63346
5824460,-0.05000,100.4375,157,71,0.67082
5824470,-0.10500,99.6250,157,71,0.68547
5824480,-0.14000,98.7500,157,71,0.69768
5824490,-0.15500,97.8750,157,71,0.70769
5824500,-0.16000,96.1875,157,71,0.72186
5824510,-0.15500,95.3125,157,71,0.72503
5824520,-0.15500,94.5000,157,71,0.72625
5824530,-0.15000,93.6875,157,71,0.72723
5824540,-0.14500,92.0625,157,71,0.72625
5824550,-0.15000,91.2500,157,71,0.72405
5824560,-0.17000,90.5000,157,71,0.72063
5824570,0.03083,89.3229,157,71,0.71054
5824580,0.44000,88.1250,157,71,0.69719
5824590,1.04500,87.3125,157,71,0.68400
5824600,0.97000,86.5000,157,71,0.66813
5824610,0.22500,85.6875,157,71,0.65006
5824620,-0.37500,84.0625,157,71,0.61465
5824630,-0.55000,83.3125,157,71,0.59487
5824640,-0.45000,82.5625,157,71,0.57460
5824650,-0.32000,81.8750,157,71,0.55482
5824660,-0.28000,80.4375,157,71,0.52015
5824670,-0.27000,79.7500,157,71,0.50525
5824680,-0.26000,79.1250,157,71,0.49182
5824690,-0.25000,77.8750,157,71,0.48010
5824700,-0.24500,77.3750,157,71,0.46007
5824710,-0.23500,76.9375,157,71,0.45226
5824720,-0.22500,76.8125,157,71,0.44518
5824730,-0.21500,77.5000,157,71,0.43736
5824740,-0.20500,84.5625,157,71,0.42027
5824750,-0.19000,92.3750,157,71,0.41197
5824760,-0.17000,102.8125,157,71,0.40415
5824770,-0.14500,114.6250,157,71,0.39634
5824780,-0.11500,137.6875,157,71,0.38095
5824790,-0.08000,147.3750,157,71,0.37363
5824800,-0.04500,155.3750,157,71,0.36654
5824810,-0.01500,161.5000,157,71,0.36093
5824820,0.01000,168.5000,157,71,0.35067
5824830,0.03000,169.8750,157,71,0.34481
5824840,0.04000,170.3750,157,71,0.33919
5824850,0.04500,170.2500,157,71,0.33358
5824860,0.04500,169.1250,157,71,0.32234
5824870,0.04000,168.3125,157,71,0.31697
5824880,0.04000,167.5625,157,71,0.31160
5824890,0.04500,166.7500,157,71,0.30647
5824900,0.05000,165.1875,157,71,0.29744
5824910,0.04000,164.3750,157,71,0.29426
