RelativeTimeMilliseconds,ECG,ART,ART (Sys),ART (Dia),PPG
5594980,-0.12000,74.5000,153,71,0.55238
5594990,-0.42500,73.8750,153,71,0.53358
5595000,-0.38500,73.1875,153,71,0.51673
5595010,-0.26000,72.5625,153,71,0.50159
5595020,-0.19000,71.5000,153,71,0.47937
5595030,-0.16500,71.0000,153,71,0.46935
5595040,-0.14500,70.5000,153,71,0.45958
5595050,-0.12000,70.0000,153,71,0.45055
5595060,-0.11000,69.0000,153,71,0.43346
5595070,-0.11500,68.6250,153,71,0.42540
5595080,-0.12000,68.4375,153,71,0.41734
5595090,-0.11250,69.5417,153,71,0.40578
5595100,-0.10000,72.4375,153,71,0.39438
5595110,-0.09000,77.6250,153,71,0.38681
5595120,-0.08000,85.4375,153,71,0.38046
5595130,-0.06500,95.3125,153,71,0.37509
5595140,-0.05500,116.7500,153,71,0.36239
5595150,-0.02000,126.5625,153,71,0.35580
5595160,0.01500,135.0000,153,71,0.34921
5595170,0.06000,141.8125,153,71,0.34286
5595180,0.09000,150.1875,153,71,0.33114
5595190,0.11500,152.1875,153,71,0.32576
5595200,0.13000,153.2500,153,71,0.32063
5595210,0.14000,153.6250,153,71,0.31551
5595220,0.13000,153.3750,153,71,0.30940
5595230,0.13000,152.9375,153,71,0.30574
5595240,0.12000,152.4375,153,71,0.30159
5595250,0.12000,151.8750,153,71,0.29719
5595260,0.12000,150.5625,153,71,0.28791
5595270,0.12500,149.7500,153,71,0.28352
5595280,0.13000,148.8750,153,71,0.27937
5595290,0.12000,147.9375,153,71,0.27546
5595300,0.09000,145.6875,153,71,0.26764
5595310,0.06000,144.3125,153,71,0.26349
5595320,0.03000,142.8125,153,71,0.26081
5595330,0.01000,141.0625,153,71,0.25885
5595340,-0.00500,136.3125,153,71,0.25348
5595350,-0.01500,133.0000,153,71,0.25250
5595360,-0.00500,128.9375,153,71,0.25495
5595370,0.01500,124.1875,153,71,0.26227
5595380,0.03000,113.8125,153,71,0.29670
5595390,0.04500,109.1250,153,71,0.32503
5595400,0.05000,105.1875,153,71,0.35995
5595410,0.06000,102.1875,153,71,0.40000
5595420,0.06500,98.5625,153,71,0.47253
5595430,0.08000,97.5625,153,71,0.51160
5595440,0.09000,96.9375,153,71,0.55092
5595450,0.11000,96.4375,153,71,0.58803
5595460,0.13000,95.6875,153,71,0.65153
5595470,0.14000,95.2500,153,71,0.67741
5595480,0.13000,94.6875,153,71,0.69915
5595490,0.10500,94.0625,153,71,0.71746
5595500,0.05000,92.6250,153,71,0.74481
5595510,-0.01000,91.8125,153,71,0.75263
5595520,-0.06500,91.0000,153,71,0.75751
5595530,-0.09500,90.1250,153,71,0.76215
5595540,-0.11500,88.3750,153,71,0.76825
5595550,-0.12500,87.5625,153,71,0.76899
5595560,-0.12500,86.7500,153,71,0.76825
5595570,-0.12500,85.9375,153,71,0.76630
5595580,-0.12500,84.5000,153,71,0.75751
5595590,-0.11500,83.8750,153,71,0.75043
5595600,-0.11000,83.2500,153,71,0.74164
5595610,-0.11500,82.6250,153,71,0.73065
5595620,-0.05500,81.3125,153,71,0.70525
5595630,0.24000,80.6875,153,71,0.68889
5595640,0.82000,79.9375,153,71,0.67009
5595650,1.06500,79.2500,153,71,0.65006
5595660,0.53500,77.7500,153,71,0.60757
5595670,-0.14000,77.0625,153,71,0.58730
5595680,-0.42500,76.4375,153,71,0.56801
5595690,-0.40500,75.7500,153,71,0.54994
5595700,-0.30000,74.5000,153,71,0.51868
5595710,-0.24500,73.8750,153,71,0.50647
5595720,-0.22000,73.3125,153,71,0.49621
5595730,-0.19000,72.6875,153,71,0.48571
5595740,-0.17000,71.5000,153,71,0.46593
5595750,-0.16000,71.0000,153,71,0.45690
5595760,-0.15000,70.5625,153,71,0.44811
5595770,-0.14000,70.3125,153,71,0.43956
5595780,-0.12500,71.1250,153,71,0.42271
5595790,-0.11000,73.3125,153,71,0.41465
5595800,-0.10500,77.7500,153,71,0.40684
5595810,-0.11500,84.8125,153,71,0.39902
5595820,-0.12500,104.3125,153,71,0.38755
5595830,-0.12500,114.8125,153,71,0.38144
5595840,-0.11000,124.6250,153,71,0.37509
5595850,-0.08500,133.2500,153,71,0.36874
5595860,-0.06500,145.8125,153,71,0.35604
5595870,-0.03500,149.6250,153,71,0.34994
5595880,-0.00500,152.0625,153,71,0.34408
5595890,0.02000,154.0000,153,71,0.33846
5595900,0.03000,154.1875,153,71,0.32747
5595910,0.03500,154.0000,153,71,0.32332
5595920,0.03000,153.6250,153,71,0.31990
5595930,0.03000,153.1250,153,71,0.31551
5595940,0.03000,151.7500,153,71,0.30647
5595950,0.03500,151.0000,153,71,0.30183
5595960,0.03500,150.1875,153,71,0.29744
5595970,0.03000,148.3125,153,71,0.29328
5595980,0.01500,147.3125,153,71,0.28498
5595990,-0.01500,146.1875,153,71,0.28107
5596000,-0.04500,145.0000,153,70,0.27668
5596010,-0.08000,143.5625,153,70,0.27228
5596020,-0.11000,139.8750,153,70,0.26691
5596030,-0.12500,137.3125,153,70,0.26398
5596040,-0.12500,134.1250,153,70,0.26203
5596050,-0.12000,130.1875,153,70,0.26276
5596060,-0.10000,120.3750,153,70,0.27888
5596070,-0.07500,115.1250,153,70,0.29670
5596080,-0.05000,110.3125,153,70,0.32186
5596090,-0.03500,106.1875,153,70,0.35385
5596100,-0.02500,100.6250,153,70,0.43199
5596110,-0.01500,98.0875,153,70,0.47375
5596120,-0.00667,97.3187,153,70,0.50195
5596130,0.00500,97.0625,153,70,0.53944
5596140,0.02500,96.0625,153,70,0.60904
5596150,0.05000,95.6250,153,70,0.63883
5596160,0.06000,95.1250,153,70,0.66496
5596170,0.06000,94.6250,153,70,0.68742
5596180,0.03500,93.3750,153,70,0.72137
5596190,-0.02500,92.6250,153,70,0.73358
5596200,-0.09000,91.8125,153,70,0.74310
5596210,-0.13500,90.9375,153,70,0.75043
5596220,-0.16000,89.2500,153,70,0.75629
5596230,-0.17500,88.3750,153,70,0.75775
5596240,-0.18500,87.5625,153,70,0.75849
5596250,-0.18500,86.8125,153,70,0.75800
5596260,-0.18000,85.3125,153,70,0.75287
5596270,-0.18000,84.6875,153,70,0.74799
5596280,-0.18000,84.0000,153,70,0.74164
5596290,-0.17000,83.3750,153,70,0.73358
5596300,-0.17000,82.0000,153,70,0.71038
5596310,-0.09500,81.3125,153,70,0.69695
5596320,0.27000,80.5625,153,70,0.68230
5596330,0.83500,79.8750,153,70,0.66471
5596340,0.93000,78.3750,153,70,0.62442
5596350,0.36500,77.6250,153,70,0.60317
5596360,-0.22000,76.9375,153,70,0.58217
5596370,-0.46000,76.1875,153,70,0.56190
5596380,-0.42500,74.8750,153,70,0.52625
5596390,-0.31500,74.2500,153,70,0.51111
5596400,-0.26500,73.6250,153,70,0.49768
5596410,-0.24000,73.0625,153,70,0.48547
5596420,-0.21000,71.9375,153,70,0.46740
5596430,-0.19000,71.3750,153,70,0.45885
5596440,-0.18500,70.8750,153,70,0.45006
5596450,-0.17500,70.4375,153,70,0.44127
5596460,-0.16000,70.1250,153,70,0.42369
5596470,-0.14500,70.7500,153,70,0.41538
5596480,-0.13500,72.5625,153,70,0.40733
5596490,-0.13000,76.4375,153,70,0.39951
5596500,-0.13500,91.5000,153,70,0.38486
5596510,-0.13000,101.5000,153,70,0.37924
5596520,-0.12000,111.8750,153,70,0.37460
5596530,-0.10500,121.6875,153,70,0.36923
5596540,-0.08500,137.6875,153,70,0.35751
5596550,-0.05500,143.3750,153,70,0.35140
5596560,-0.03500,147.4375,153,70,0.34530
5596570,-0.01000,150.0625,153,70,0.33968
5596580,0.01500,152.1250,153,70,0.32894
5596590,0.03000,152.1875,153,70,0.32381
5596600,0.02000,151.8750,153,70,0.31868
5596610,0.02000,150.6250,153,70,0.31355
5596620,0.02000,149.8750,153,70,0.30647
5596630,0.01500,149.1250,153,70,0.30256
5596640,0.02000,148.3125,153,70,0.29841
5596650,0.02500,147.4375,153,70,0.29426
5596660,0.02000,145.4375,153,70,0.28669
5596670,0.00500,144.3750,153,70,0.28327
5596680,-0.02000,143.1250,153,70,0.27985
5596690,-0.05500,141.7500,153,70,0.27619
5596700,-0.08500,138.3125,153,70,0.26862
5596710,-0.10500,136.0000,153,70,0.26593
5596720,-0.10500,133.1250,153,70,0.26398
5596730,-0.08500,129.6250,153,70,0.26203
5596740,-0.06500,120.5625,153,70,0.26496
5596750,-0.03500,115.4375,153,70,0.27326
5596760,-0.00500,110.4375,153,70,0.28767
5596770,0.02000,106.0625,153,70,0.30891
5596780,0.03000,100.0625,153,70,0.37021
5596790,0.03000,98.2500,153,70,0.40757
5596800,0.03500,97.0625,153,70,0.44689
5596810,0.05000,96.3125,153,70,0.48620
5596820,0.06000,95.3750,153,70,0.54799
5596830,0.09000,94.9375,153,70,0.57729
5596840,0.11000,94.5625,153,70,0.60464
5596850,0.11500,94.0625,153,70,0.62906
5596860,0.11000,92.8750,153,70,0.66789
5596870,0.08500,92.1250,153,70,0.68278
5596880,0.03084,91.3750,153,70,0.69475
5596890,-0.03500,90.6250,153,70,0.70427
5596900,-0.09500,88.9375,153,70,0.71648
5596910,-0.12500,88.0625,153,70,0.71868
5596920,-0.15000,87.2500,153,70,0.71893
5596930,-0.16500,86.4375,153,70,0.71868
5596940,-0.17000,84.9375,153,70,0.71575
5596950,-0.17500,84.2500,153,70,0.71233
5596960,-0.17000,83.6250,153,70,0.70769
5596970,-0.16500,83.0000,153,70,0.70159
5596980,-0.16000,81.6875,153,70,0.68352
5596990,-0.16500,81.0625,153,70,0.67131
5597000,-0.13500,80.3750,153,70,0.65690
5597010,0.14000,79.6875,153,70,0.64029
5597020,0.71000,78.2500,153,70,0.60757
5597030,1.09500,77.5625,153,70,0.58926
5597040,1.18000,76.8750,153,70,0.57021
5597050,1.14500,75.5000,153,70,0.55140
5597060,0.46000,74.8750,153,70,0.51722
5597070,-0.31500,74.2500,153,70,0.50232
5597080,-0.43500,73.6250,153,70,0.48913
5597090,-0.37500,73.0625,153,70,0.47741
5597100,-0.34500,71.9375,153,70,0.45739
5597110,-0.32500,71.3750,153,70,0.44957
5597120,-0.30000,70.8125,153,70,0.44298
5597130,-0.29500,70.3125,153,70,0.43614
5597140,-0.28500,69.7396,153,70,0.42511
5597150,-0.27000,69.4375,153,70,0.41392
5597160,-0.25000,69.7500,153,70,0.40659
5597170,-0.24000,71.1250,153,70,0.39927
5597180,-0.23000,79.8125,153,70,0.38462
5597190,-0.22000,87.8125,153,70,0.37753
5597200,-0.20500,97.4375,153,70,0.37094
5597210,-0.18500,117.7500,153,70,0.36435
5597220,-0.16000,126.8750,153,70,0.35507
5597230,-0.13500,134.6875,153,70,0.35018
5597240,-0.10500,141.0000,153,70,0.34505
5597250,-0.07500,145.6875,153,70,0.33993
5597260,-0.05000,150.7500,153,70,0.33016
5597270,-0.02500,151.7500,153,70,0.32527
5597280,-0.02000,152.0000,153,70,0.32039
5597290,-0.02500,151.8750,153,70,0.31575
5597300,-0.02500,150.7500,153,70,0.30574
5597310,-0.02500,150.0000,153,70,0.30232
5597320,-0.03500,149.1875,153,70,0.29939
5597330,-0.03500,148.2500,153,70,0.29573
5597340,-0.03500,146.3125,153,70,0.28816
5597350,-0.03500,145.3125,153,70,0.28449
5597360,-0.04500,144.2500,153,70,0.28107
5597370,-0.06500,143.0625,153,70,0.27766
5597380,-0.09500,140.3125,153,70,0.27057
5597390,-0.13000,138.6250,153,70,0.26691
5597400,-0.15000,136.5625,153,70,0.26325
5597410,-0.15500,134.0000,153,70,0.26129
5597420,-0.13500,126.8125,153,70,0.26056
5597430,-0.11500,122.1250,153,70,0.26300
5597440,-0.09000,117.0625,153,70,0.26935
5597450,-0.06500,111.8750,153,70,0.28132
5597460,-0.04500,103.4375,153,70,0.32454
5597470,-0.03500,100.5625,153,70,0.35556
5597480,-0.03500,98.5000,153,70,0.39121
5597490,-0.03500,97.1250,153,70,0.42955
5597500,-0.03000,95.5000,153,70,0.50696
5597510,-0.02500,95.0000,153,70,0.53871
5597520,-0.01000,94.6250,153,70,0.56581
5597530,0.01000,94.1875,153,70,0.59341
5597540,0.01000,93.1875,153,70,0.64200
5597550,-0.00500,92.5625,153,70,0.66154
5597560,-0.03500,91.8750,153,70,0.67766
5597570,-0.10000,91.1250,153,70,0.69084
5597580,-0.18500,89.5625,153,70,0.70940
5597590,-0.27000,88.7500,153,70,0.71526
5597600,-0.32500,87.8750,153,70,0.71941
5597610,-0.37000,87.0000,153,70,0.72112
5597620,-0.39500,85.4375,153,70,0.71966
5597630,-0.42000,84.6250,153,70,0.71795
5597640,-0.43500,83.9375,153,70,0.71526
5597650,-0.43500,83.1875,153,70,0.71111
5597660,-0.42000,81.8125,153,70,0.69841
5597670,-0.40500,81.1250,153,70,0.68938
5597680,-0.39000,80.3750,153,70,0.67839
5597690,-0.36500,79.6875,153,70,0.66496
5597700,-0.16000,78.1875,153,70,0.63248
5597710,0.49000,77.4375,153,70,0.61612
5597720,0.82500,76.6875,153,70,0.59976
5597730,0.55000,75.8750,153,70,0.58169
5597740,-0.14000,74.4375,153,70,0.54530
5597750,-0.54000,73.7500,153,70,0.52845
5597760,-0.60500,73.0625,153,70,0.51282
5597770,-0.48500,72.4375,153,70,0.49866
5597780,-0.36500,71.3125,153,70,0.47448
5597790,-0.32000,70.7500,153,70,0.46398
5597800,-0.28000,70.1875,153,70,0.45446
5597810,-0.24000,69.6875,153,70,0.44664
5597820,-0.21000,68.6875,153,70,0.43223
5597830,-0.18000,68.2500,153,70,0.42491
5597840,-0.16000,68.0000,153,70,0.41758
5597850,-0.13500,68.0625,153,70,0.41026
5597860,-0.10500,70.8125,153,70,0.39609
5597870,-0.07500,74.9375,153,70,0.38926
5597880,-0.05000,81.5625,153,70,0.38217
5597890,-0.02500,90.3125,153,70,0.37509
5597900,-0.00500,110.6250,153,70,0.36142
5597910,0.00000,120.3750,153,70,0.35604
5597920,0.02000,129.0625,153,70,0.35140
5597930,0.04000,136.3125,153,70,0.34628
5597940,0.06000,145.9375,153,70,0.33578
5597950,0.08000,148.5625,153,70,0.33065
5597960,0.10500,150.1250,153,70,0.32552
5597970,0.12000,150.8750,153,70,0.32039
5597980,0.13000,150.8750,153,70,0.31013
5597990,0.13000,150.3750,153,70,0.30501
5598000,0.13000,149.7500,152,70,0.30012
5598010,0.13000,149.0000,152,70,0.29670
5598020,0.13500,147.2500,152,70,0.28987
5598030,0.14000,146.2500,152,70,0.28547
5598040,0.14500,145.2500,152,70,0.28107
5598050,0.13500,144.1875,152,70,0.27692
5598060,0.11000,141.9375,152,70,0.26886
5598070,0.08000,140.6875,152,70,0.26496
5598080,0.05000,139.2500,152,70,0.26129
5598090,0.03000,137.5000,152,70,0.25788
5598100,0.02000,132.8750,152,70,0.25177
5598110,0.02000,129.5625,152,70,0.25104
5598120,0.02000,125.6250,152,70,0.25250
5598130,0.03500,120.8750,152,70,0.25617
5598140,0.05000,110.5000,152,70,0.27766
5598150,0.06500,105.7500,152,70,0.29792
5598160,0.08500,101.4063,152,70,0.33673
5598170,0.09584,97.8438,152,70,0.38488
5598180,0.10500,95.4375,152,70,0.43321
5598190,0.12000,94.5625,152,70,0.47253
5598200,0.13000,94.0625,152,70,0.51087
5598210,0.14500,93.6250,152,70,0.54237
5598220,0.17500,92.8125,152,70,0.59609
5598230,0.19500,92.3125,152,70,0.62125
5598240,0.19000,91.7500,152,70,0.64347
5598250,0.17000,91.0625,152,70,0.66227
5598260,0.12500,89.6250,152,70,0.69109
5598270,0.05000,88.8125,152,70,0.70134
5598280,-0.02000,88.0625,152,70,0.70916
5598290,-0.06500,87.1875,152,70,0.71477
5598300,-0.09000,85.5625,152,70,0.72063
5598310,-0.10000,84.7500,152,70,0.72063
5598320,-0.10000,84.0000,152,70,0.71868
5598330,-0.10000,83.2500,152,70,0.71624
5598340,-0.10000,81.8750,152,70,0.70891
5598350,-0.09500,81.2500,152,70,0.70330
5598360,-0.09500,80.6875,152,70,0.69597
5598370,-0.09500,80.0625,152,70,0.68718
5598380,-0.11000,78.8125,152,70,0.66300
5598390,0.04500,78.1875,152,70,0.64762
5598400,0.53500,77.5625,152,70,0.63004
5598410,1.09000,76.8750,152,70,0.61319
5598420,0.99000,75.5000,152,70,0.57851
5598430,0.24500,74.8125,152,70,0.55946
5598440,-0.30500,74.1250,152,70,0.54090
5598450,-0.44000,73.4375,152,70,0.52332
5598460,-0.34500,72.2500,152,70,0.49280
5598470,-0.24000,71.6875,152,70,0.48010
5598480,-0.20500,71.1250,152,70,0.46862
5598490,-0.19000,70.5625,152,70,0.45812
5598500,-0.18000,69.5000,152,70,0.44225
5598510,-0.17000,69.0000,152,70,0.43883
5598520,-0.16500,68.5625,152,70,0.43419
5598530,-0.16500,68.1875,152,70,0.42784
5598540,-0.16000,68.3125,152,70,0.41319
5598550,-0.14500,69.6250,152,70,0.40562
5598560,-0.13500,72.8750,152,70,0.39805
5598570,-0.12500,78.6250,152,70,0.39048
5598580,-0.10500,96.9375,152,70,0.37558
5598590,-0.08500,107.6875,152,70,0.36825
5598600,-0.06000,118.1250,152,70,0.36166
5598610,-0.03000,127.5625,152,70,0.35653
5598620,0.00000,141.9375,152,70,0.34725
5598630,0.03000,146.5000,152,70,0.34212
5598640,0.06000,149.5625,152,70,0.33675
5598650,0.08500,151.3750,152,70,0.33162
5598660,0.10500,152.6875,152,70,0.32161
5598670,0.11500,152.6250,152,70,0.31697
5598680,0.12000,152.3125,152,70,0.31233
5598690,0.12000,151.8750,152,70,0.30745
5598700,0.11500,150.8125,152,70,0.29841
5598710,0.11000,150.1875,152,70,0.29499
5598720,0.10500,149.4375,152,70,0.29231
5598730,0.10500,148.6875,152,70,0.28864
5598740,0.10000,146.8125,152,70,0.28083
5598750,0.08000,145.7500,152,70,0.27717
5598760,0.05500,144.5000,152,70,0.27350
5598770,0.02500,143.1250,152,70,0.26960
5598780,0.01000,139.7500,152,70,0.26203
5598790,0.00000,137.5625,152,70,0.25836
5598800,-0.01000,134.8125,152,70,0.25543
5598810,0.00000,131.4375,152,70,0.25495
5598820,0.02500,122.6250,152,70,0.26398
5598830,0.05000,117.5625,152,70,0.27595
5598840,0.07000,112.5625,152,70,0.29475
5598850,0.08500,108.0625,152,70,0.32088
5598860,0.08500,101.5000,152,70,0.39219
5598870,0.08500,99.4375,152,70,0.43419
5598880,0.09000,98.0625,152,70,0.47741
5598890,0.10500,97.1250,152,70,0.51990
5598900,0.12000,95.9375,152,70,0.59634
5598910,0.13000,95.5000,152,70,0.62466
5598920,0.15000,95.0625,152,70,0.64737
5598930,0.15500,94.5625,152,70,0.66960
5598940,0.14500,93.3750,152,70,0.70745
5598950,0.11000,92.6875,152,70,0.72259
5598960,0.06000,91.9375,152,70,0.73504
5598970,0.00000,91.1875,152,70,0.74505
5598980,-0.04000,89.5000,152,70,0.75873
5598990,-0.06000,88.6875,152,70,0.76264
5599000,-0.07500,87.8125,152,70,0.76459
5599010,-0.08500,87.0000,152,70,0.76410
5599020,-0.08500,85.3750,152,70,0.75946
5599030,-0.08500,84.6875,152,70,0.75580
5599040,-0.08500,84.0000,152,70,0.75067
5599050,-0.08000,83.3125,152,70,0.74432
5599060,-0.07500,82.0625,152,70,0.72601
5599070,-0.08500,81.5000,152,70,0.71355
5599080,-0.01500,80.8750,152,70,0.69890
5599090,0.35500,80.2500,152,70,0.68230
5599100,0.96000,79.0000,152,70,0.64396
5599110,1.06000,78.3125,152,70,0.62540
5599120,0.43500,77.6250,152,70,0.60781
5599130,-0.20000,76.9375,152,70,0.58926
5599140,-0.44000,75.6250,152,70,0.55263
5599150,-0.36500,74.9375,152,70,0.53626
5599160,-0.24500,74.3125,152,70,0.52161
5599170,-0.20500,73.7500,152,70,0.50818
5599180,-0.19000,73.0187,152,70,0.49292
5599190,-0.16667,72.2313,152,70,0.47802
5599200,-0.14500,71.5000,152,70,0.46569
5599210,-0.13500,70.9375,152,70,0.45812
5599220,-0.14500,70.1875,152,70,0.44371
5599230,-0.14500,70.1250,152,70,0.43590
5599240,-0.14000,70.8750,152,70,0.42808
5599250,-0.12500,73.0625,152,70,0.42051
5599260,-0.11000,84.8750,152,70,0.40562
5599270,-0.10500,94.4375,152,70,0.39853
5599280,-0.10500,105.1250,152,70,0.39145
5599290,-0.09500,115.8750,152,70,0.38486
5599300,-0.07500,134.5625,152,70,0.37241
5599310,-0.04500,141.6250,152,70,0.36801
5599320,-0.02000,146.9375,152,70,0.36288
5599330,0.01000,150.6250,152,70,0.35726
5599340,0.05000,154.1250,152,70,0.34603
5599350,0.07500,154.7500,152,70,0.34066
5599360,0.09000,154.8750,152,70,0.33578
5599370,0.09000,154.7500,152,70,0.33089
5599380,0.08500,154.0625,152,70,0.32161
5599390,0.07500,153.5625,152,70,0.31722
5599400,0.07000,153.0000,152,70,0.31258
5599410,0.06500,152.3125,152,70,0.30940
5599420,0.06000,150.7500,152,70,0.30354
5599430,0.05000,149.8750,152,70,0.29988
5599440,0.03000,148.8750,152,70,0.29597
5599450,0.00000,147.7500,152,70,0.29231
5599460,-0.03500,144.9375,152,70,0.28400
5599470,-0.07500,143.2500,152,70,0.27961
5599480,-0.10500,141.1250,152,70,0.27546
5599490,-0.12500,138.5625,152,70,0.27204
5599500,-0.13500,131.6875,152,70,0.27155
5599510,-0.12500,127.1875,152,70,0.27619
5599520,-0.10500,122.1250,152,70,0.28547
5599530,-0.07500,116.8125,152,70,0.30110
5599540,-0.04500,107.3125,152,70,0.35336
5599550,-0.03500,103.8125,152,70,0.38877
5599560,-0.03000,101.1875,152,70,0.42833
5599570,-0.02500,99.3750,152,70,0.46984
5599580,-0.01500,97.2500,152,70,0.55140
5599590,-0.00500,96.6875,152,70,0.58852
5599600,0.01000,96.2500,152,70,0.62222
5599610,0.04000,95.9375,152,70,0.64835
5599620,0.04500,95.0625,152,70,0.68962
5599630,0.04000,94.5000,152,70,0.70769
5599640,0.02000,93.8125,152,70,0.72332
5599650,-0.02500,93.0625,152,70,0.73651
5599660,-0.08500,91.4375,152,70,0.75580
5599670,-0.13500,90.6250,152,70,0.76215
5599680,-0.16500,89.7500,152,70,0.76679
5599690,-0.18000,88.8750,152,70,0.76972
5599700,-0.18000,87.1875,152,70,0.76996
5599710,-0.18000,86.3750,152,70,0.76728
5599720,-0.18000,85.6250,152,70,0.76410
5599730,-0.17500,84.9375,152,70,0.75995
5599740,-0.17000,83.6875,152,70,0.74676
5599750,-0.16500,83.0000,152,70,0.73748
5599760,-0.16500,82.3125,152,70,0.72625
5599770,-0.12500,81.6250,152,70,0.71282
5599780,0.14000,80.1875,152,70,0.67888
5599790,0.70000,79.5000,152,70,0.65934
5599800,1.00500,78.8125,152,70,0.63858
5599810,0.56500,78.0625,152,70,0.61954
5599820,-0.10500,76.6250,152,70,0.58242
5599830,-0.43500,75.9375,152,70,0.56386
5599840,-0.45000,75.3125,152,70,0.54628
5599850,-0.34500,74.6250,152,70,0.53040
5599860,-0.27000,73.3750,152,70,0.50330
5599870,-0.24000,72.8125,152,70,0.49182
5599880,-0.21500,72.1875,152,70,0.48132
5599890,-0.19000,71.6250,152,70,0.47155
5599900,-0.18000,70.6250,152,70,0.45446
5599910,-0.17000,70.2500,152,70,0.44762
5599920,-0.16000,70.0000,152,70,0.44005
5599930,-0.15500,70.1875,152,70,0.43223
5599940,-0.14000,73.9375,152,70,0.41612
5599950,-0.13500,78.9375,152,70,0.40781
5599960,-0.13500,86.5000,152,70,0.39976
5599970,-0.13000,95.9375,152,70,0.39219
5599980,-0.11500,116.4375,152,70,0.37851
5599990,-0.10500,125.8750,152,70,0.37192
5600000,-0.08500,134.0625,152,70,0.36557
5600010,-0.06000,140.6875,152,70,0.36068
5600020,-0.02500,149.0000,152,70,0.35165
5600030,0.00000,151.0625,152,70,0.34652
5600040,0.02000,152.1875,152,70,0.34115
5600050,0.02500,152.5625,152,70,0.33578
5600060,0.02500,152.1250,152,70,0.32454
5600070,0.01500,151.5625,152,70,0.31917
5600080,0.00000,150.8750,152,70,0.31355
5600090,-0.00500,150.1250,152,70,0.30842
5600100,-0.00500,148.3750,152,70,0.30012
5600110,0.00000,147.4375,152,70,0.29744
5600120,0.00500,146.4375,152,70,0.29402
5600130,-0.00500,144.3125,152,70,0.29035
5600140,-0.03000,143.0625,152,70,0.28327
5600150,-0.06000,141.6250,152,70,0.27937
5600160,-0.09000,140.0625,152,70,0.27546
5600170,-0.11000,138.1250,152,70,0.27131
5600180,-0.11500,132.8125,152,70,0.26447
5600190,-0.11500,129.1250,152,70,0.26300
5600200,-0.10000,124.7500,152,70,0.26447
5600210,-0.07750,118.3063,152,70,0.27477
5600220,-0.05250,111.3500,152,70,0.29275
5600230,-0.03000,105.4375,152,70,0.31722
5600240,-0.01500,102.1250,152,70,0.34701
5600250,-0.01500,99.7500,152,70,0.38242
5600260,-0.01500,96.9375,152,70,0.46300
5600270,-0.01500,96.1875,152,70,0.50403
5600280,0.00000,95.5625,152,70,0.54310
5600290,0.02000,95.1250,152,70,0.57949
5600300,0.05000,94.1875,152,70,0.63712
5600310,0.06000,93.6250,152,70,0.65714
5600320,0.06500,93.0625,152,70,0.67643
5600330,0.05000,92.3750,152,70,0.69377
5600340,0.01000,90.8125,152,70,0.72039
5600350,-0.06000,90.0000,152,70,0.72991
5600360,-0.11500,89.1875,152,70,0.73724
5600370,-0.15500,88.3750,152,70,0.74261
5600380,-0.17500,86.8125,152,70,0.74799
5600390,-0.18000,86.0000,152,70,0.74823
5600400,-0.17500,85.2500,152,70,0.74701
5600410,-0.17500,84.5000,152,70,0.74408
5600420,-0.17000,83.1875,152,70,0.73480
5600430,-0.17000,82.5625,152,70,0.72796
5600440,-0.16500,81.9375,152,70,0.71966
5600450,-0.16000,81.3125,152,70,0.70940
5600460,-0.14500,80.0625,152,70,0.68156
5600470,0.08000,79.3750,152,70,0.66422
5600480,0.60000,78.6250,152,70,0.64518
5600490,1.00000,77.9375,152,70,0.62491
5600500,0.71500,76.5000,152,70,0.58608
5600510,0.04000,75.8125,152,70,0.56947
5600520,-0.36500,75.1250,152,70,0.55238
5600530,-0.43500,74.5000,152,70,0.53602
5600540,-0.34000,73.3125,152,70,0.50696
5600550,-0.26000,72.7500,152,70,0.49158
5600560,-0.23000,72.2500,152,70,0.47595
5600570,-0.20000,71.6875,152,70,0.46374
5600580,-0.18000,70.6250,152,70,0.44371
5600590,-0.17000,70.1250,152,70,0.43492
5600600,-0.16000,69.6875,152,70,0.42637
5600610,-0.14500,69.4375,152,70,0.41954
5600620,-0.13000,70.0000,152,70,0.40659
5600630,-0.12500,71.8125,152,70,0.39927
5600640,-0.13000,75.6250,152,70,0.39194
5600650,-0.13500,81.8750,152,70,0.38462
5600660,-0.13500,100.0625,152,70,0.37118
5600670,-0.13000,110.3125,152,70,0.36484
5600680,-0.11500,120.0625,152,70,0.35873
5600690,-0.08500,136.2500,152,70,0.35311
5600700,-0.05500,142.1250,152,70,0.34335
5600710,-0.03000,146.3750,152,70,0.33993
5600720,0.00000,149.1875,152,70,0.33553
5600730,0.01500,150.8125,152,70,0.33089
5600740,0.02500,151.7500,152,70,0.32137
5600750,0.02500,151.5000,152,70,0.31648
5600760,0.02000,151.0625,152,70,0.31160
5600770,0.01000,150.4375,152,70,0.30672
5600780,0.00500,148.9375,152,70,0.29768
5600790,0.00500,148.1250,152,70,0.29328
5600800,0.01000,147.1875,152,70,0.28913
5600810,0.02000,146.2500,152,70,0.28645
5600820,0.01000,144.1250,152,70,0.28181
5600830,-0.01500,142.9375,152,70,0.27888
5600840,-0.04500,141.5625,152,70,0.27570
5600850,-0.07500,140.0625,152,70,0.27228
5600860,-0.10500,136.1250,152,70,0.26496
5600870,-0.12000,133.4375,152,70,0.26178
5600880,-0.11500,130.0625,152,70,0.25983
5600890,-0.09500,126.0000,152,70,0.25983
5600900,-0.07000,116.2500,152,70,0.27009
5600910,-0.04500,111.3750,152,70,0.28132
5600920,-0.02500,107.0000,152,70,0.29915
5600930,-0.01500,103.4375,152,70,0.32381
5600940,-0.00500,98.7500,152,70,0.39048
5600950,-0.00500,97.3750,152,70,0.42930
5600960,0.00500,96.4375,152,70,0.46911
5600970,0.01000,95.6875,152,70,0.50818
5600980,0.03000,94.6250,152,70,0.57875
5600990,0.06000,94.1250,152,70,0.60879
5601000,0.08500,93.5625,152,70,0.63175
5601010,0.08500,92.9375,152,70,0.64982
5601020,0.08000,91.5625,152,70,0.68230
5601030,0.04000,90.8125,152,70,0.69499
5601040,-0.02500,90.0000,152,70,0.70549
5601050,-0.09500,89.2500,152,70,0.71380
5601060,-0.14000,87.6250,152,70,0.72454
5601070,-0.17000,86.8125,152,70,0.72747
5601080,-0.18000,86.0000,152,70,0.72894
5601090,-0.19000,85.1875,152,70,0.72869
5601100,-0.19000,83.7500,152,70,0.72332
5601110,-0.18000,83.1250,152,70,0.71868
5601120,-0.17000,82.5000,152,70,0.71306
5601130,-0.16000,81.9375,152,70,0.70574
5601140,-0.15500,80.6875,152,70,0.68596
5601150,-0.16000,80.0625,152,70,0.67253
5601160,-0.01500,79.3750,152,70,0.65714
5601170,0.45000,78.6250,152,70,0.63980
5601180,0.98000,77.2500,152,70,0.60171
5601190,0.84000,76.5625,152,70,0.58242
5601200,0.16500,75.8125,152,70,0.56532
5601210,-0.32500,75.1875,152,70,0.54994
5601220,-0.48000,73.9375,152,70,0.51868
5601230,-0.41500,73.4313,152,70,0.50567
5601240,-0.35083,73.1937,152,70,0.50020
5601250,-0.30000,72.7500,152,70,0.49158
5601260,-0.27500,71.6250,152,70,0.46911
5601270,-0.25500,71.0625,152,70,0.45934
5601280,-0.25000,70.5625,152,70,0.45031
5601290,-0.25000,70.0000,152,70,0.44200
5601300,-0.25000,69.0625,152,70,0.42589
5601310,-0.25000,68.8750,152,70,0.41929
5601320,-0.25000,69.0000,152,70,0.41343
5601330,-0.25000,69.9375,152,70,0.40684
5601340,-0.26500,77.2500,152,70,0.39243
5601350,-0.28500,84.5000,152,70,0.38486
5601360,-0.30000,93.6875,152,70,0.37778
5601370,-0.31000,103.8125,152,70,0.37094
5601380,-0.31500,123.2500,152,70,0.35824
5601390,-0.30500,131.4375,152,70,0.35214
5601400,-0.28500,138.1250,152,70,0.34652
5601410,-0.25500,143.2500,152,70,0.34237
5601420,-0.23000,149.0000,152,70,0.33431
5601430,-0.20000,150.2500,152,70,0.32967
5601440,-0.18500,150.7500,152,70,0.32527
5601450,-0.17000,150.8125,152,70,0.32088
5601460,-0.17000,150.0000,152,70,0.31184
5601470,-0.16000,149.3125,152,70,0.30720
5601480,-0.14500,148.5000,152,70,0.30256
5601490,-0.12000,147.6250,152,70,0.29768
5601500,-0.10000,145.5625,152,70,0.28889
5601510,-0.08500,144.5000,152,70,0.28620
5601520,-0.08500,143.4375,152,70,0.28425
5601530,-0.09500,142.2500,152,70,0.28132
5601540,-0.11500,139.5625,152,70,0.27448
5601550,-0.13500,137.9375,152,70,0.27082
5601560,-0.14000,135.9375,152,70,0.26691
5601570,-0.12500,133.6250,152,70,0.26325
5601580,-0.10500,127.0625,152,70,0.25836
5601590,-0.07500,122.7500,152,70,0.25910
5601600,-0.04500,117.8750,152,70,0.26398
5601610,-0.01000,112.8125,152,70,0.27253
5601620,0.02000,103.8750,152,70,0.30549
5601630,0.04500,100.5625,152,70,0.33211
5601640,0.06500,98.1250,152,70,0.36484
5601650,0.08500,96.4375,152,70,0.40195
5601660,0.10500,94.3750,152,70,0.48107
5601670,0.12500,93.6875,152,70,0.51966
5601680,0.15000,93.1250,152,70,0.55580
5601690,0.18000,92.6250,152,70,0.58852
5601700,0.19000,91.5000,152,70,0.64274
5601710,0.18500,90.8125,152,70,0.66129
5601720,0.15500,90.1250,152,70,0.67521
5601730,0.10000,89.3750,152,70,0.68864
5601740,0.03500,87.7500,152,70,0.70989
5601750,-0.01500,86.9375,152,70,0.71722
5601760,-0.04000,86.1250,152,70,0.72259
5601770,-0.05500,85.3750,152,70,0.72625
5601780,-0.05500,83.8125,152,70,0.72894
5601790,-0.05500,83.0625,152,70,0.72772
5601800,-0.05500,82.3125,152,70,0.72527
5601810,-0.05000,81.6250,152,70,0.72137
5601820,-0.04500,80.3750,152,70,0.70916
5601830,-0.03500,79.8125,152,70,0.70110
5601840,-0.04000,79.2500,152,70,0.69109
5601850,-0.01500,78.6250,152,70,0.67912
5601860,0.27000,77.3750,152,70,0.64835
5601870,0.86500,76.6875,152,70,0.63028
5601880,1.18000,76.0625,152,70,0.61099
5601890,0.73000,75.3750,152,70,0.59121
5601900,0.02000,74.0000,152,70,0.55238
5601910,-0.34000,73.3125,152,70,0.53602
5601920,-0.35500,72.6250,152,70,0.52186
5601930,-0.24000,71.4375,152,70,0.50745
5601940,-0.16500,70.8750,152,70,0.48156
5601950,-0.14500,70.3750,152,70,0.47009
5601960,-0.13500,69.8125,152,70,0.45934
5601970,-0.12000,69.2500,152,70,0.44933
5601980,-0.11500,68.2500,152,70,0.43101
5601990,-0.11000,67.8125,152,70,0.42247
5602000,-0.11000,67.4375,152,70,0.41416
5602010,-0.10000,67.2500,152,70,0.40733
5602020,-0.09000,68.6875,152,70,0.39463
5602030,-0.07500,71.7500,152,70,0.38730
5602040,-0.06500,77.3125,152,70,0.37998
5602050,-0.04500,85.5000,152,70,0.37265
5602060,-0.03000,106.1875,152,70,0.35873
5602070,-0.01000,116.5625,152,70,0.35214
5602080,0.01000,126.0000,152,70,0.34579
5602090,0.04000,134.0625,152,70,0.33993
5602100,0.06500,145.1250,152,70,0.32918
5602110,0.09000,148.2500,152,70,0.32527
5602120,0.10000,150.0625,152,70,0.32210
5602130,0.11500,151.0000,152,70,0.31795
5602140,0.11500,151.3125,152,70,0.30867
5602150,0.11000,151.0000,152,70,0.30403
5602160,0.10000,150.5000,152,70,0.29963
5602170,0.09500,149.8750,152,70,0.29524
5602180,0.09500,148.3750,152,70,0.28669
5602190,0.09500,147.5625,152,70,0.28230
5602200,0.09000,146.6250,152,70,0.27814
5602210,0.08000,145.6250,152,70,0.27546
5602220,0.05500,143.3750,152,70,0.27057
5602230,0.02000,142.0625,152,70,0.26716
5602240,-0.01500,140.6250,152,70,0.26374
5602250,-0.03500,139.0000,152,70,0.26032
5602260,-0.04299,136.1937,152,70,0.25563
5602270,-0.04199,132.5563,152,70,0.25133
5602280,-0.03500,128.4375,152,70,0.24908
5602290,-0.02500,124.1875,152,70,0.25055
5602300,-0.01500,114.2500,152,70,0.26838
5602310,0.00000,109.3750,152,70,0.28376
5602320,0.01000,105.0625,152,70,0.30403
5602330,0.02500,101.6250,152,70,0.33236
5602340,0.03000,97.3125,152,70,0.40586
5602350,0.05000,96.1250,152,70,0.44689
5602360,0.07000,95.3125,152,70,0.48840
5602370,0.09500,94.7500,152,70,0.52821
5602380,0.12500,93.8750,152,70,0.59878
5602390,0.15000,93.3750,152,70,0.62808
5602400,0.15000,92.8125,152,70,0.65324
5602410,0.14500,92.1875,152,70,0.67204
5602420,0.11000,90.6875,152,70,0.69988
5602430,0.05000,89.9375,152,70,0.71160
5602440,-0.01500,89.1875,152,70,0.72137
5602450,-0.05500,88.3750,152,70,0.72918
5602460,-0.07500,86.7500,152,70,0.73895
5602470,-0.07500,85.8750,152,70,0.74139
5602480,-0.08000,85.0625,152,70,0.74212
5602490,-0.08500,83.5000,152,70,0.74139
5602500,-0.08500,82.8125,152,70,0.73529
5602510,-0.08500,82.1250,152,70,0.72991
5602520,-0.08000,81.5000,152,70,0.72308
5602530,-0.08000,80.9375,152,70,0.71477
5602540,-0.10000,79.8750,152,70,0.69280
5602550,0.00000,79.3125,152,70,0.67863
5602560,0.45500,78.7500,152,70,0.66227
5602570,1.09000,78.1250,152,70,0.64444
5602580,1.09000,76.9375,152,70,0.60537
5602590,0.38500,76.2500,152,70,0.58535
5602600,-0.23000,75.6250,152,70,0.56581
5602610,-0.42000,75.0000,152,70,0.55043
5602620,-0.33500,73.6875,152,70,0.52405
5602630,-0.21500,73.0625,152,70,0.51062
5602640,-0.18000,72.5000,152,70,0.49792
5602650,-0.16000,71.9375,152,70,0.48596
5602660,-0.14500,70.8750,152,70,0.46545
5602670,-0.12500,70.3750,152,70,0.45617
5602680,-0.12000,69.8750,152,70,0.44737
5602690,-0.12500,69.4375,152,70,0.43883
5602700,-0.12500,68.8750,152,70,0.42247
5602710,-0.11000,69.2500,152,70,0.41587
5602720,-0.09500,70.8750,152,70,0.41026
5602730,-0.08000,74.5625,152,70,0.40366
5602740,-0.08500,89.6875,152,70,0.38950
5602750,-0.08500,100.1250,152,70,0.38217
5602760,-0.07500,111.0000,152,70,0.37509
5602770,-0.04500,121.3750,152,70,0.36825
5602780,-0.01000,138.3125,152,70,0.35531
5602790,0.02500,144.3125,152,70,0.34945
5602800,0.06500,148.6250,152,70,0.34383
5602810,0.10000,151.4375,152,70,0.33968
5602820,0.12000,153.8750,152,70,0.33211
5602830,0.12500,154.1250,152,70,0.32772
5602840,0.12000,154.0625,152,70,0.32332
5602850,0.12000,153.8125,152,70,0.31893
5602860,0.12000,152.8750,152,70,0.31013
5602870,0.12000,152.2500,152,70,0.30598
5602880,0.12000,151.6250,152,70,0.30208
5602890,0.12000,150.8750,152,70,0.29817
5602900,0.12000,149.1875,152,70,0.29182
5602910,0.10500,148.1875,152,70,0.29011
5602920,0.07000,147.1250,152,70,0.28767
5602930,0.03000,145.9375,152,70,0.28498
5602940,0.00000,142.9375,152,70,0.27839
5602950,-0.01500,141.0625,152,70,0.27473
5602960,-0.02000,138.8125,152,70,0.27082
5602970,-0.01500,136.0000,152,70,0.26764
5602980,0.00000,128.3750,152,70,0.26813
5602990,0.02000,123.5000,152,70,0.27521
5603000,0.05000,118.2500,152,70,0.28889
5603010,0.07000,113.0625,152,70,0.30598
5603020,0.09000,104.7500,152,70,0.35775
5603030,0.08500,101.9375,152,70,0.39414
5603040,0.08500,99.8750,152,70,0.43443
5603050,0.09500,98.4375,152,70,0.47619
5603060,0.10000,96.8750,152,70,0.55727
5603070,0.11000,96.4375,152,70,0.59365
5603080,0.13500,96.0000,152,70,0.62613
5603090,0.14500,95.1250,152,70,0.65470
5603100,0.14500,94.5625,152,70,0.69744
5603110,0.13500,93.8750,152,70,0.71111
5603120,0.09000,93.1250,152,70,0.72430
5603130,0.02500,91.5625,152,70,0.73553
5603140,-0.03500,90.7500,152,70,0.75214
5603150,-0.07500,89.8750,152,70,0.75726
5603160,-0.10500,89.0000,152,70,0.76068
5603170,-0.12000,88.0625,152,70,0.76264
5603180,-0.13500,86.3750,152,70,0.76239
5603190,-0.14500,85.5625,152,70,0.76020
5603200,-0.14500,84.8750,152,70,0.75653
5603210,-0.14500,84.2500,152,70,0.75116
5603220,-0.14500,82.9375,152,70,0.73651
5603230,-0.16000,82.3125,152,70,0.72650
5603240,-0.15500,81.6250,152,70,0.71453
5603250,0.05000,81.0000,152,70,0.70061
5603260,0.59000,79.6875,152,70,0.66618
5603270,0.99500,79.0625,152,70,0.64640
5603280,0.64000,78.3750,152,70,0.62589
5603290,0.04334,77.3125,152,70,0.59581
5603300,-0.45500,76.2500,152,70,0.56752
5603310,-0.51500,75.5625,152,70,0.55238
5603320,-0.41000,74.9375,152,70,0.53700
5603330,-0.32500,74.3125,152,70,0.52234
5603340,-0.30000,73.0625,152,70,0.49670
5603350,-0.27000,72.4375,152,70,0.48571
5603360,-0.24500,71.8750,152,70,0.47570
5603370,-0.23500,71.2500,152,70,0.46642
5603380,-0.23000,70.2500,152,70,0.44908
5603390,-0.22000,69.9375,152,70,0.44078
5603400,-0.21000,69.8125,152,70,0.43248
5603410,-0.19000,70.2500,152,70,0.42564
5603420,-0.18500,75.3125,152,70,0.41270
5603430,-0.18000,81.3750,152,70,0.40562
5603440,-0.18000,89.6875,152,70,0.39853
5603450,-0.17000,99.6250,152,70,0.39145
5603460,-0.15500,120.1250,152,70,0.37778
5603470,-0.13000,129.1250,152,70,0.37118
5603480,-0.10000,136.8125,152,70,0.36484
5603490,-0.06500,147.2500,152,70,0.35873
5603500,-0.03000,150.1875,152,70,0.34847
5603510,-0.01500,151.8750,152,70,0.34505
5603520,0.00000,152.7500,152,70,0.34042
5603530,0.00000,153.0000,152,70,0.33553
5603540,-0.00500,152.5000,152,70,0.32527
5603550,-0.00500,151.9375,152,70,0.32015
5603560,-0.01000,151.3125,152,70,0.31477
5603570,-0.01000,150.6250,152,70,0.30965
5603580,-0.00500,149.0000,152,70,0.30061
5603590,-0.00500,148.1250,152,70,0.29646
5603600,-0.02000,147.1875,152,70,0.29255
5603610,-0.04500,146.1875,152,70,0.29011
5603620,-0.08000,143.8750,152,70,0.28571
5603630,-0.11000,142.5000,152,70,0.28230
5603640,-0.13500,140.8125,152,70,0.27863
5603650,-0.15000,138.8750,152,70,0.27497
5603660,-0.15500,133.3750,152,70,0.26862
5603670,-0.14500,129.6250,152,70,0.26740
5603680,-0.13000,125.1875,152,70,0.26911
5603690,-0.10500,120.1250,152,70,0.27521
5603700,-0.08500,109.8125,152,70,0.30330
5603710,-0.06000,105.4375,152,70,0.32357
5603720,-0.05000,101.9375,152,70,0.35140
5603730,-0.04000,99.3750,152,70,0.38535
5603740,-0.02500,96.3750,152,70,0.46374
5603750,-0.01500,95.5625,152,70,0.50403
5603760,0.00000,95.0000,152,70,0.54261
5603770,0.03000,94.5625,152,70,0.57827
5603780,0.05000,93.7500,152,70,0.63834
5603790,0.05000,93.2500,152,70,0.66252
5603800,0.04500,92.6875,152,70,0.68254
5603810,0.02000,92.0625,152,70,0.69670
5603820,-0.04500,90.6250,152,70,0.71673
5603830,-0.11500,89.8125,152,70,0.72503
5603840,-0.16000,89.0000,152,70,0.73162
5603850,-0.18000,88.1875,152,70,0.73675
5603860,-0.19000,86.5000,152,70,0.74212
5603870,-0.20000,85.6875,152,70,0.74261
5603880,-0.20000,84.8750,152,70,0.74139
5603890,-0.20000,84.1875,152,70,0.73871
5603900,-0.19500,82.8750,152,70,0.72943
5603910,-0.18500,82.2500,152,70,0.72283
5603920,-0.18000,81.5625,152,70,0.71477
5603930,-0.19000,80.9375,152,70,0.70476
5603940,-0.05500,79.6250,152,70,0.67814
5603950,0.37500,78.9375,152,70,0.66154
5603960,0.90000,78.2500,152,70,0.64322
5603970,0.82500,77.5000,152,70,0.62344
5603980,0.13500,76.0625,152,70,0.58242
5603990,-0.40500,75.3125,152,70,0.56239
5604000,-0.57000,74.6250,152,70,0.54359
5604010,-0.52000,74.0000,152,70,0.52796
5604020,-0.44000,72.7500,152,70,0.50061
5604030,-0.42000,72.1250,152,70,0.48791
5604040,-0.42000,71.5625,152,70,0.47619
5604050,-0.41000,71.0000,152,70,0.46569
5604060,-0.40000,69.9375,152,70,0.44713
5604070,-0.39500,69.3750,152,70,0.43834
5604080,-0.39000,68.8750,152,70,0.42979
5604090,-0.37500,68.5625,152,70,0.42149
5604100,-0.34500,69.0625,152,70,0.40684
5604110,-0.32500,70.8750,152,70,0.40073
5604120,-0.31000,74.7500,152,70,0.39414
5604130,-0.30500,81.1250,152,70,0.38730
5604140,-0.30000,99.5000,152,70,0.37387
5604150,-0.28000,109.6875,152,70,0.36752
5604160,-0.26000,119.3750,152,70,0.36117
5604170,-0.23000,127.9375,152,70,0.35507
5604180,-0.19000,140.7500,152,70,0.34383
5604190,-0.15000,144.8125,152,70,0.33871
5604200,-0.10500,147.5000,152,70,0.33358
5604210,-0.06500,149.0625,152,70,0.32991
5604220,-0.04000,150.0000,152,70,0.32283
5604230,-0.02000,149.8125,152,70,0.31819
5604240,-0.00500,149.3750,152,70,0.31331
5604250,0.01000,148.7500,152,70,0.30818
5604260,0.03000,147.1875,152,70,0.29841
5604270,0.04500,146.2500,152,70,0.29377
5604280,0.05500,145.2500,152,70,0.28938
5604290,0.06000,144.2500,152,70,0.28498
5604300,0.05000,141.9375,152,70,0.27814
5604310,0.02650,140.7625,152,70,0.27519
5604320,-0.00150,139.6750,152,70,0.27353
5604330,-0.02500,137.6250,152,70,0.27057
5604340,-0.03500,133.5625,152,70,0.26374
5604350,-0.03500,130.8125,152,70,0.26032
5604360,-0.02000,127.4375,152,70,0.25763
5604370,0.00000,123.3125,152,70,0.25665
5604380,0.02000,113.4375,152,70,0.26520
5604390,0.05000,108.4375,152,70,0.27790
5604400,0.07000,103.9375,152,70,0.29719
5604410,0.08500,100.3125,152,70,0.31917
5604420,0.09500,95.6250,152,70,0.37778
5604430,0.11000,94.3750,152,70,0.41514
5604440,0.13000,93.5000,152,70,0.45446
5604450,0.14000,92.9375,152,70,0.49426
5604460,0.16500,92.1250,152,70,0.56825
5604470,0.19500,91.6875,152,70,0.60024
5604480,0.20500,91.1875,152,70,0.62808
5604490,0.20500,90.5625,152,70,0.65201
5604500,0.17500,89.1250,152,70,0.68620
5604510,0.12000,88.3750,152,70,0.69621
5604520,0.05500,87.6250,152,70,0.70549
5604530,0.00000,86.8125,152,70,0.71331
5604540,-0.02500,85.1250,152,70,0.72357
5604550,-0.04000,84.2500,152,70,0.72625
5604560,-0.04500,83.5000,152,70,0.72747
5604570,-0.04500,82.6875,152,70,0.72723
5604580,-0.04500,81.2500,152,70,0.72259
5604590,-0.04500,80.5625,152,70,0.71844
5604600,-0.04500,79.9375,152,70,0.71258
5604610,-0.04000,79.3750,152,70,0.70525
5604620,-0.05000,78.1875,152,70,0.68547
5604630,-0.01000,77.6250,152,70,0.67253
5604640,0.30000,77.0625,152,70,0.65714
5604650,0.91000,76.4375,152,70,0.63980
5604660,1.18000,75.1250,152,70,0.59341
5604670,0.68000,74.5000,152,70,0.57094
5604680,-0.02500,73.8125,152,70,0.54994
5604690,-0.36500,73.1250,152,70,0.53040
5604700,-0.36000,71.8750,152,70,0.49719
5604710,-0.24000,71.3125,152,70,0.48498
5604720,-0.17000,70.7500,152,70,0.47302
5604730,-0.15500,70.1875,152,70,0.46178
5604740,-0.14500,69.1250,152,70,0.44127
5604750,-0.14000,68.5625,152,70,0.43223
5604760,-0.14000,68.0625,152,70,0.42393
5604770,-0.14000,67.5625,152,70,0.41612
5604780,-0.14000,66.8750,152,70,0.40049
5604790,-0.13000,66.8750,152,70,0.39292
5604800,-0.12000,67.5625,152,70,0.38657
5604810,-0.10500,69.6875,152,70,0.38095
5604820,-0.09500,81.1250,152,70,0.36752
5604830,-0.08000,90.4375,152,70,0.36068
5604840,-0.06500,100.9375,152,70,0.35409
5604850,-0.04500,111.5000,152,70,0.34774
5604860,-0.02000,130.0625,152,70,0.33553
5604870,0.01000,137.1875,152,70,0.32991
5604880,0.04000,142.6875,152,70,0.32454
5604890,0.06000,146.4375,152,70,0.31966
5604900,0.07500,150.0625,152,70,0.31136
5604910,0.08000,150.5625,152,70,0.30842
5604920,0.07500,150.6250,152,70,0.30476
5604930,0.07000,150.2500,152,70,0.30037
5604940,0.06000,149.1250,152,70,0.29158
5604950,0.06000,148.3125,152,70,0.28718
5604960,0.06000,147.5000,152,70,0.28278
5604970,0.06000,146.5000,152,70,0.27863
5604980,0.06000,144.5625,152,70,0.27106
5604990,0.04500,143.5000,152,70,0.26764
5605000,0.01500,142.3750,152,70,0.26569
5605010,-0.00500,141.1250,152,70,0.26422
5605020,-0.03500,138.2500,152,70,0.25934
5605030,-0.04000,136.3750,152,70,0.25617
5605040,-0.03500,134.1875,152,70,0.25275
5605050,-0.02000,131.4375,152,70,0.24933
5605060,-0.00500,123.9375,152,70,0.24640
5605070,0.01500,119.2500,152,70,0.24884
5605080,0.03000,114.1875,152,70,0.25617
5605090,0.04000,109.2500,152,70,0.26984
5605100,0.05000,101.3125,152,70,0.31404
5605110,0.05000,98.6250,152,70,0.34090
5605120,0.04500,96.8125,152,70,0.37509
5605130,0.05000,95.6875,152,70,0.41392
5605140,0.06000,94.4375,152,70,0.49524
5605150,0.07500,94.0000,152,70,0.53358
5605160,0.09500,93.6250,152,70,0.56899
5605170,0.12000,93.2500,152,70,0.60049
5605180,0.12000,92.2500,152,70,0.65177
5605190,0.11500,91.6250,152,70,0.67155
5605200,0.09500,90.9375,152,70,0.68547
5605210,0.03000,89.4375,152,70,0.70525
5605220,-0.01500,88.6250,152,70,0.71331
5605230,-0.06000,87.7500,152,70,0.71941
5605240,-0.09000,86.8750,152,70,0.72381
5605250,-0.10500,86.0000,152,70,0.72674
5605260,-0.12000,84.2500,152,70,0.72747
5605270,-0.12500,83.4375,152,70,0.72576
5605280,-0.13000,82.6875,152,70,0.72259
5605290,-0.12000,82.0000,152,70,0.71819
5605300,-0.11000,80.6875,152,70,0.70476
5605310,-0.10500,80.1250,152,70,0.69597
5605320,-0.11500,79.6250,152,70,0.68547
5605330,-0.03500,79.0625,152,70,0.67253
5605340,0.47167,78.2500,152,70,0.64860
5605350,0.99000,77.4375,152,70,0.62247
5605360,1.10500,76.8750,152,70,0.60293
5605370,0.46500,76.2500,152,70,0.58315
5605380,-0.17500,75.0000,152,70,0.54481
5605390,-0.41000,74.3750,152,70,0.52747
5605400,-0.34500,73.7500,152,70,0.51306
5605410,-0.23500,73.1250,152,70,0.50085
5605420,-0.19500,72.0000,152,70,0.47790
5605430,-0.18000,71.5000,152,70,0.46789
5605440,-0.15500,71.0000,152,70,0.45836
5605450,-0.13500,70.5000,152,70,0.44933
5605460,-0.13500,69.5000,152,70,0.43272
5605470,-0.13500,69.0625,152,70,0.42466
5605480,-0.13500,68.7500,152,70,0.41685
5605490,-0.12500,68.7500,152,70,0.40928
5605500,-0.10000,71.6875,152,70,0.39609
5605510,-0.08500,76.1875,152,70,0.39096
5605520,-0.08500,83.3750,152,70,0.38486
5605530,-0.08000,92.8125,152,70,0.37851
5605540,-0.06500,114.1250,152,70,0.36532
5605550,-0.03500,124.1250,152,70,0.35873
5605560,-0.00500,132.8125,152,70,0.35263
5605570,0.04000,139.9375,152,70,0.34676
5605580,0.07500,149.0625,152,70,0.33578
5605590,0.09500,151.4375,152,70,0.33065
5605600,0.12500,152.7500,152,70,0.32698
5605610,0.14000,153.5625,152,70,0.32405
5605620,0.14500,153.5000,152,70,0.31600
5605630,0.14000,153.1875,152,70,0.31184
5605640,0.13000,152.7500,152,70,0.30769
5605650,0.13000,152.1875,152,70,0.30379
5605660,0.13000,150.8125,152,70,0.29646
5605670,0.13000,150.0000,152,70,0.29280
5605680,0.12500,149.1250,152,70,0.28938
5605690,0.11000,148.1875,152,70,0.28620
5605700,0.09000,146.0000,152,70,0.28132
5605710,0.06000,144.6875,152,70,0.27985
5605720,0.03000,143.2500,152,70,0.27741
5605730,0.00500,141.5625,152,70,0.27424
5605740,-0.01500,137.1250,152,70,0.26716
5605750,-0.02000,134.0625,152,70,0.26422
5605760,-0.01000,130.3125,152,70,0.26349
5605770,0.01000,125.8125,152,70,0.26618
5605780,0.03500,115.1250,152,70,0.28791
5605790,0.04500,109.8125,152,70,0.30916
5605800,0.04500,105.1875,152,70,0.33284
5605810,0.04000,101.5625,152,70,0.35971
5605820,0.02500,97.1250,152,70,0.43248
5605830,0.02000,96.0000,152,70,0.47302
5605840,0.02500,95.3125,152,70,0.51306
5605850,0.02000,94.8750,152,70,0.55116
5605860,0.03000,94.3750,152,70,0.61758
5605870,0.04500,94.0625,152,70,0.64493
5605880,0.04000,93.6250,152,70,0.66838
5605890,0.03500,93.1875,152,70,0.68816
5605900,0.00500,91.8750,152,70,0.71575
5605910,-0.05500,91.0625,152,70,0.72332
5605920,-0.12500,90.2500,152,70,0.73065
5605930,-0.17500,89.3750,152,70,0.73675
5605940,-0.20000,87.6250,152,70,0.74481
5605950,-0.22000,86.7500,152,70,0.74652
5605960,-0.23000,85.8750,152,70,0.74676
5605970,-0.24000,85.1250,152,70,0.74579
5605980,-0.24000,83.6875,152,70,0.73895
5605990,-0.23500,83.0000,152,70,0.73309
5606000,-0.22500,82.3750,152,70,0.72601
5606010,-0.22500,81.7500,152,70,0.71795
5606020,-0.23000,80.4375,152,70,0.69646
5606030,-0.10500,79.8125,152,70,0.68254
5606040,0.32500,79.1875,152,70,0.66642
5606050,0.86500,78.5000,152,70,0.64835
5606060,0.82500,77.0625,152,70,0.60830
5606070,0.15000,76.3750,152,70,0.58730
5606080,-0.38000,75.6875,152,70,0.56679
5606090,-0.53000,75.0000,152,70,0.54725
5606100,-0.45000,73.6875,152,70,0.51429
5606110,-0.35500,73.0625,152,70,0.50159
5606120,-0.31500,72.5000,152,70,0.48938
5606130,-0.30000,71.8750,152,70,0.47814
5606140,-0.27500,70.8125,152,70,0.45812
5606150,-0.26000,70.2500,152,70,0.44908
5606160,-0.24500,69.6875,152,70,0.44054
5606170,-0.23500,69.2500,152,70,0.43248
5606180,-0.22000,68.9375,152,70,0.41661
5606190,-0.21000,69.6250,152,70,0.40904
5606200,-0.20000,71.5625,152,70,0.40293
5606210,-0.19500,75.5625,152,70,0.39756
5606220,-0.19000,90.8125,152,70,0.38510
5606230,-0.18500,100.8125,152,70,0.37851
5606240,-0.17000,111.0625,152,70,0.37216
5606250,-0.14500,120.8125,152,70,0.36581
5606260,-0.11000,136.6875,152,70,0.35336
5606270,-0.08000,142.3125,152,70,0.34725
5606280,-0.04500,146.3750,152,70,0.34139
5606290,-0.02500,149.0000,152,70,0.33578
5606300,-0.01000,151.3125,152,70,0.32650
5606310,0.00000,151.5000,152,70,0.32308
5606320,0.00000,151.3750,152,70,0.31893
5606330,-0.00500,150.9375,152,70,0.31453
5606340,-0.00500,149.5625,152,70,0.30501
5606350,-0.01500,148.6875,152,70,0.30061
5606360,-0.01250,147.9688,152,70,0.29687
5606370,-0.01000,146.8125,152,70,0.29206
5606380,-0.02000,144.6250,152,70,0.28449
5606390,-0.05000,143.4375,152,70,0.28083
5606400,-0.09000,142.1250,152,70,0.27839
5606410,-0.13500,140.7500,152,70,0.27668
5606420,-0.18000,137.3125,152,70,0.27082
5606430,-0.21000,135.1875,152,70,0.26716
5606440,-0.23000,132.5625,152,70,0.26349
5606450,-0.23000,129.2500,152,70,0.26056
5606460,-0.22500,120.6250,152,70,0.26105
5606470,-0.22500,115.5625,152,70,0.26716
5606480,-0.22500,110.6250,152,70,0.27912
5606490,-0.22000,106.1875,152,70,0.29792
5606500,-0.22500,99.6875,152,70,0.34457
5606510,-0.23500,97.6250,152,70,0.37705
5606520,-0.24500,96.1250,152,70,0.41392
5606530,-0.25000,95.0625,152,70,0.45299
5606540,-0.24500,93.6875,152,70,0.52943
5606550,-0.23000,93.1250,152,70,0.56410
5606560,-0.20500,92.5625,152,70,0.59536
5606570,-0.19500,92.0000,152,70,0.62295
5606580,-0.18500,90.6250,152,70,0.66642
5606590,-0.19000,89.8750,152,70,0.68278
5606600,-0.22500,89.0625,152,70,0.69426
5606610,-0.27000,88.2500,152,70,0.70208
5606620,-0.29500,86.6250,152,70,0.71575
5606630,-0.30000,85.7500,152,70,0.72039
5606640,-0.29000,84.8750,152,70,0.72332
5606650,-0.27500,84.0625,152,70,0.72454
5606660,-0.26000,82.5000,152,70,0.72234
5606670,-0.24000,81.7500,152,70,0.71917
5606680,-0.21500,81.1250,152,70,0.71477
5606690,-0.19000,80.5000,152,70,0.70891
5606700,-0.17000,79.2500,152,70,0.69402
5606710,-0.16500,78.6875,152,70,0.68474
5606720,-0.09000,78.0625,152,70,0.67302
5606730,0.26000,77.3750,152,70,0.65861
5606740,0.85500,76.0625,152,70,0.62466
5606750,1.03500,75.3750,152,70,0.60537
5606760,0.50000,74.6250,152,70,0.58584
5606770,-0.13000,73.9375,152,70,0.56630
5606780,-0.40500,72.5625,152,70,0.52991
5606790,-0.37500,71.9375,152,70,0.51355
5606800,-0.25000,71.2500,152,70,0.50012
5606810,-0.18500,70.6875,152,70,0.48889
5606820,-0.16000,69.5625,152,70,0.46691
5606830,-0.14000,69.0000,152,70,0.45690
5606840,-0.11500,68.4375,152,70,0.44737
5606850,-0.09500,67.9375,152,70,0.43834
5606860,-0.08500,67.0625,152,70,0.42125
5606870,-0.07500,66.8125,152,70,0.41319
5606880,-0.06500,66.8125,152,70,0.40513
5606890,-0.04500,67.5625,152,70,0.39731
5606900,-0.03500,74.2500,152,70,0.38535
5606910,-0.02000,81.2500,152,70,0.37900
5606920,-0.00500,90.3125,152,70,0.37241
5606930,0.00500,100.4375,152,70,0.36581
5606940,0.03000,120.2500,152,70,0.35311
5606950,0.05000,128.6250,152,70,0.34676
5606960,0.07000,135.5625,152,70,0.34090
5606970,0.09500,140.9375,152,70,0.33529
5606980,0.12000,147.1875,152,70,0.32479
5606990,0.13000,148.5625,152,70,0.31966
5607000,0.13500,149.1250,152,70,0.31624
5607010,0.13000,148.7500,152,70,0.30916
5607020,0.13000,148.0625,152,70,0.30476
5607030,0.12000,147.3125,152,70,0.30037
5607040,0.12000,146.4375,152,70,0.29597
5607050,0.12000,145.4375,152,70,0.29182
5607060,0.13000,143.3750,152,70,0.28376
5607070,0.13000,142.2500,152,70,0.28010
5607080,0.11000,141.0625,152,70,0.27668
5607090,0.08000,139.8125,152,70,0.27326
5607100,0.05000,137.0000,152,70,0.26886
5607110,0.02000,135.3750,152,70,0.26618
5607120,0.01000,133.4375,152,70,0.26300
5607130,0.01000,131.1250,152,70,0.25934
5607140,0.02000,124.6875,152,70,0.25324
5607150,0.02000,120.5000,152,70,0.25226
5607160,0.03500,115.8125,152,70,0.25421
5607170,0.05000,111.0000,152,70,0.26081
5607180,0.06000,102.5625,152,70,0.29231
5607190,0.07000,99.4375,152,70,0.31819
5607200,0.07500,97.0625,152,70,0.34554
5607210,0.08000,95.4375,152,70,0.37485
5607220,0.09000,93.4375,152,70,0.44884
5607230,0.10000,92.8125,152,70,0.48816
5607240,0.12000,92.2500,152,70,0.52601
5607250,0.14500,91.6875,152,70,0.56093
5607260,0.16500,90.5625,152,70,0.62002
5607270,0.15500,89.8750,152,70,0.64347
5607280,0.13500,89.1875,152,70,0.66325
5607290,0.08500,87.6875,152,70,0.67937
5607300,0.02000,86.8750,152,70,0.69792
5607310,-0.04500,86.1250,152,70,0.70501
5607320,-0.08000,85.3125,152,70,0.71062
5607330,-0.10000,84.5625,152,70,0.71477
5607340,-0.10000,82.9375,152,70,0.71819
5607350,-0.10000,82.1875,152,70,0.71795
5607360,-0.09500,81.4375,152,70,0.71624
5607370,-0.09000,80.7500,152,70,0.71306
5607380,-0.08000,79.9437,152,70,0.70581
5607390,-0.07750,79.1188,152,70,0.69602
5607400,-0.07500,78.3750,152,70,0.68523
5607410,-0.06500,77.8125,152,70,0.67497
5607420,0.15500,76.6875,152,70,0.64762
5607430,0.72500,76.0625,152,70,0.63077
5607440,1.19500,75.5000,152,70,0.61270
5607450,0.88000,74.8750,152,70,0.59365
5607460,0.14500,73.5625,152,70,0.55556
5607470,-0.28000,72.9375,152,70,0.53773
5607480,-0.34500,72.3125,152,70,0.52112
5607490,-0.23500,71.7500,152,70,0.50574
5607500,-0.14500,70.6875,152,70,0.48254
5607510,-0.12500,70.1875,152,70,0.47204
5607520,-0.11000,69.6875,152,70,0.46227
5607530,-0.10000,69.2500,152,70,0.45299
5607540,-0.09500,68.3750,152,70,0.43565
5607550,-0.10000,67.9375,152,70,0.42735
5607560,-0.10500,67.5625,152,70,0.41929
5607570,-0.10000,67.3750,152,70,0.41123
5607580,-0.08000,69.0000,152,70,0.39609
5607590,-0.06000,72.2500,152,70,0.38877
5607600,-0.05000,78.1250,152,70,0.38291
5607610,-0.05500,86.5000,152,70,0.37778
5607620,-0.04500,107.3125,152,70,0.36557
5607630,-0.02500,117.6875,152,70,0.35946
5607640,0.01000,127.0000,152,70,0.35336
5607650,0.04000,134.9375,152,70,0.34750
5607660,0.07000,145.7500,152,70,0.33675
5607670,0.09000,148.7500,152,70,0.33187
5607680,0.11500,150.5000,152,70,0.32698
5607690,0.13000,151.6250,152,70,0.32234
5607700,0.13000,151.5000,152,70,0.31648
5607710,0.11500,151.0625,152,70,0.31306
5607720,0.10000,150.5000,152,70,0.30916
5607730,0.09000,149.8125,152,70,0.30525
5607740,0.08000,148.2500,152,70,0.29744
5607750,0.07500,147.3750,152,70,0.29353
5607760,0.07000,146.4375,152,70,0.28987
5607770,0.06000,144.3125,152,70,0.28620
5607780,0.04000,143.1875,152,70,0.27937
5607790,0.01000,141.8750,152,70,0.27619
5607800,-0.01000,140.3750,152,70,0.27424
5607810,-0.03500,138.6875,152,70,0.27277
5607820,-0.05500,134.2500,152,70,0.26716
5607830,-0.06000,131.2500,152,70,0.26447
5607840,-0.04500,127.5625,152,70,0.26252
5607850,-0.02000,123.1875,152,70,0.26252
5607860,0.00500,113.1875,152,70,0.27570
5607870,0.02500,108.4375,152,70,0.29158
5607880,0.03500,104.3750,152,70,0.31453
5607890,0.03500,101.1250,152,70,0.34432
5607900,0.03000,97.1875,152,70,0.40610
5607910,0.03000,96.1250,152,70,0.44347
5607920,0.02500,95.4375,152,70,0.48327
5607930,0.03000,94.5000,152,70,0.52283
5607940,0.06000,94.0625,152,70,0.59487
5607950,0.10000,93.5625,152,70,0.62515
5607960,0.11500,93.0625,152,70,0.65153
5607970,0.10500,92.4375,152,70,0.67399
5607980,0.08500,90.9375,152,70,0.70818
5607990,0.03500,90.1250,152,70,0.72039
5608000,-0.02500,89.3125,152,70,0.72821
5608010,-0.07500,88.5000,152,70,0.73309
5608020,-0.10000,86.7500,152,70,0.74115
5608030,-0.11500,85.8750,152,70,0.74335
5608040,-0.12500,85.0000,152,70,0.74408
5608050,-0.13500,84.1875,152,70,0.74335
5608060,-0.14500,82.7500,152,70,0.73773
5608070,-0.15000,82.0625,152,70,0.73284
5608080,-0.15000,81.4375,152,70,0.72625
5608090,-0.14500,80.8125,152,70,0.71795
5608100,-0.15000,79.6875,152,70,0.69792
5608110,-0.09500,79.1250,152,70,0.68474
5608120,0.19500,78.5625,152,70,0.66935
5608130,0.78000,77.9375,152,70,0.65201
5608140,1.05500,76.6875,152,70,0.61368
5608150,0.54500,76.0000,152,70,0.59365
5608160,-0.13000,75.3750,152,70,0.57411
5608170,-0.42500,74.6875,152,70,0.55556
5608180,-0.41000,73.4375,152,70,0.52283
5608190,-0.30000,72.8125,152,70,0.50867
5608200,-0.23500,72.1875,152,70,0.49744
5608210,-0.21500,71.6250,152,70,0.48816
5608220,-0.18000,70.5000,152,70,0.46984
5608230,-0.15500,70.0000,152,70,0.46129
5608240,-0.14000,69.5000,152,70,0.45324
5608250,-0.13500,69.0000,152,70,0.44518
5608260,-0.12500,68.4375,152,70,0.42930
5608270,-0.10500,68.7500,152,70,0.42149
5608280,-0.09000,70.0000,152,70,0.41368
5608290,-0.08500,73.0625,152,70,0.40610
5608300,-0.09000,86.5000,152,70,0.39438
5608310,-0.10500,96.1875,152,70,0.38779
5608320,-0.10000,106.5625,152,70,0.38120
5608330,-0.08500,116.6875,152,70,0.37485
5608340,-0.06500,133.9375,152,70,0.36239
5608350,-0.04500,140.3125,152,70,0.35678
5608360,-0.01500,145.0625,152,70,0.35116
5608370,0.01000,148.3125,152,70,0.34579
5608380,0.03000,151.4375,152,70,0.33578
5608390,0.04000,151.9375,152,70,0.33236
5608400,0.04000,151.9375,152,70,0.32943
5608410,0.03333,151.3021,152,70,0.32352
5608420,0.02500,150.4375,152,70,0.31722
5608430,0.02000,149.7500,152,70,0.31306
5608440,0.01000,148.9375,152,70,0.30891
5608450,0.00500,148.0625,152,70,0.30501
5608460,0.00000,146.1250,152,70,0.29719
5608470,-0.02000,145.0000,152,70,0.29353
5608480,-0.05500,143.8125,152,70,0.28987
5608490,-0.09500,142.5000,152,70,0.28645
5608500,-0.12500,139.4375,152,70,0.28254
5608510,-0.16000,137.5625,152,70,0.27985
5608520,-0.17500,135.2500,152,70,0.27692
5608530,-0.17500,132.3125,152,70,0.27399
5608540,-0.16000,124.4375,152,70,0.27155
5608550,-0.14500,119.6250,152,70,0.27473
5608560,-0.12500,114.5000,152,70,0.28278
5608570,-0.10000,109.6875,152,70,0.29719
5608580,-0.08500,102.0000,152,70,0.34652
5608590,-0.08000,99.3750,152,70,0.37509
5608600,-0.07500,97.4375,152,70,0.40513
5608610,-0.07000,95.1875,152,70,0.44127
5608620,-0.05500,94.5000,152,70,0.51868
5608630,-0.03500,93.9375,152,70,0.55556
5608640,0.00000,93.5000,152,70,0.58974
5608650,0.03000,93.0000,152,70,0.62002
5608660,0.04000,91.9375,152,70,0.66886
5608670,0.03500,91.3125,152,70,0.68767
5608680,0.00000,90.6250,152,70,0.70305
5608690,-0.06500,89.8750,152,70,0.71526
5608700,-0.13000,88.3125,152,70,0.72821
5608710,-0.17500,87.5000,152,70,0.73309
5608720,-0.20000,86.6875,152,70,0.73675
5608730,-0.21000,85.8750,152,70,0.73895
5608740,-0.21000,84.2500,152,70,0.73895
5608750,-0.21000,83.5000,152,70,0.73797
5608760,-0.21000,82.8750,152,70,0.73626
5608770,-0.20000,82.1875,152,70,0.73236
5608780,-0.19000,81.0000,152,70,0.71819
5608790,-0.19000,80.3750,152,70,0.70916
5608800,-0.19000,79.6875,152,70,0.69866
5608810,-0.04000,79.0625,152,70,0.68571
5608820,0.41500,77.7500,152,70,0.65348
5608830,0.91500,77.0625,152,70,0.63468
5608840,0.79500,76.3125,152,70,0.61514
5608850,-0.02000,74.8750,152,70,0.57534
5608860,-0.37500,74.1875,152,70,0.55653
5608870,-0.50000,73.5625,152,70,0.53871
5608880,-0.42500,72.9375,152,70,0.52259
5608890,-0.32500,72.3125,152,70,0.50769
5608900,-0.28000,71.1875,152,70,0.48571
5608910,-0.25500,70.6250,152,70,0.47570
5608920,-0.23000,70.0625,152,70,0.46618
5608930,-0.21500,69.5625,152,70,0.45690
5608940,-0.20500,68.6250,152,70,0.43956
5608950,-0.19000,68.2500,152,70,0.43150
5608960,-0.17500,68.0625,152,70,0.42369
5608970,-0.17000,68.3125,152,70,0.41587
5608980,-0.16500,72.5625,152,70,0.40098
5608990,-0.16500,77.9375,152,70,0.39463
5609000,-0.17000,85.7500,152,70,0.38926
5609010,-0.17000,95.1875,152,70,0.38339
5609020,-0.17000,115.1875,152,70,0.37118
5609030,-0.16500,124.2500,152,70,0.36484
5609040,-0.16000,132.0625,152,70,0.35873
5609050,-0.15000,138.3125,152,70,0.35287
5609060,-0.13500,146.2500,152,70,0.34164
5609070,-0.12500,148.1875,152,70,0.33651
5609080,-0.12500,149.2500,152,70,0.33162
5609090,-0.14000,149.5625,152,70,0.32650
5609100,-0.15500,148.9375,152,70,0.31966
5609110,-0.17000,148.2500,152,70,0.31575
5609120,-0.18000,147.4375,152,70,0.31136
5609130,-0.18500,146.4375,152,70,0.30672
5609140,-0.17000,144.3125,152,70,0.29792
5609150,-0.16000,143.1875,152,70,0.29353
5609160,-0.14500,142.0000,152,70,0.28938
5609170,-0.15500,140.7500,152,70,0.28547
5609180,-0.16000,138.0625,152,70,0.27839
5609190,-0.18000,136.5000,152,70,0.27619
5609200,-0.18000,134.6875,152,70,0.27448
5609210,-0.17500,132.6250,152,70,0.27179
5609220,-0.16000,126.8750,152,70,0.26545
5609230,-0.12500,123.0000,152,70,0.26325
5609240,-0.08500,118.5000,152,70,0.26300
5609250,-0.04500,113.5625,152,70,0.26593
5609260,-0.00500,104.3125,152,70,0.28767
5609270,0.01500,100.6875,152,70,0.30842
5609280,0.03000,97.9375,152,70,0.33578
5609290,0.03500,95.9375,152,70,0.36899
5609300,0.05000,93.6250,152,70,0.43321
5609310,0.06000,92.9375,152,70,0.47009
5609320,0.07000,92.4375,152,70,0.50794
5609330,0.10500,92.0625,152,70,0.54432
5609340,0.13500,91.0625,152,70,0.60757
5609350,0.14000,90.5000,152,70,0.63346
5609360,0.14500,89.8125,152,70,0.65592
5609370,0.12000,89.1250,152,70,0.67473
5609380,0.06000,87.6250,152,70,0.70281
5609390,-0.00500,86.8750,152,70,0.71062
5609400,-0.04000,86.0000,152,70,0.71551
5609410,-0.05500,85.1875,152,70,0.71966
5609420,-0.06000,83.6250,152,70,0.72430
5609430,-0.06100,82.7375,152,70,0.72659
5609440,-0.05900,82.1375,152,70,0.72591
5609450,-0.05500,81.4375,152,70,0.72161
5609460,-0.05000,80.2500,152,70,0.71306
5609470,-0.04500,79.6250,152,70,0.70647
5609480,-0.03500,79.0625,152,70,0.69792
5609490,-0.03500,78.5000,152,70,0.68742
5609500,0.10000,77.2500,152,70,0.66349
5609510,0.54000,76.6250,152,70,0.64811
5609520,1.08000,76.0000,152,70,0.63077
5609530,1.00000,75.3750,152,70,0.61221
5609540,0.34000,74.0625,152,70,0.57338
5609550,-0.18000,73.3750,152,70,0.55433
5609560,-0.34000,72.7500,152,70,0.53651
5609570,-0.26000,72.1250,152,70,0.51990
5609580,-0.15000,71.0000,152,70,0.49109
5609590,-0.10500,70.5000,152,70,0.48010
5609600,-0.07500,69.9375,152,70,0.47082
5609610,-0.04500,69.4375,152,70,0.46154
5609620,-0.01500,68.5000,152,70,0.44371
5609630,0.00000,68.0000,152,70,0.43541
5609640,0.01000,67.6250,152,70,0.42735
5609650,0.03000,67.4375,152,70,0.41954
5609660,0.05500,68.3750,152,70,0.40464
5609670,0.06500,70.6250,152,70,0.39731
5609680,0.06000,75.1250,152,70,0.38999
5609690,0.05000,82.1875,152,70,0.38266
5609700,0.05000,101.3125,152,70,0.37167
5609710,0.06000,111.4375,152,70,0.36581
5609720,0.07500,120.9375,152,70,0.35995
5609730,0.10000,136.1250,152,70,0.35409
5609740,0.12500,141.3750,152,70,0.34310
5609750,0.15500,145.0625,152,70,0.33797
5609760,0.18500,147.4375,152,70,0.33284
5609770,0.19500,148.7500,152,70,0.32796
5609780,0.20000,149.4375,152,70,0.31868
5609790,0.20500,149.1250,152,70,0.31526
5609800,0.21000,148.5625,152,70,0.31258
5609810,0.20500,147.8750,152,70,0.30891
5609820,0.20500,146.1875,152,70,0.30110
5609830,0.20500,145.2500,152,70,0.29719
5609840,0.21500,144.2500,152,70,0.29353
5609850,0.21000,143.1875,152,70,0.28987
5609860,0.19000,140.8750,152,70,0.28254
5609870,0.15000,139.5000,152,70,0.27912
5609880,0.11000,138.0625,152,70,0.27595
5609890,0.07500,136.3750,152,70,0.27253
5609900,0.04500,132.0625,152,70,0.26838
5609910,0.03000,129.1250,152,70,0.26593
5609920,0.04500,125.5625,152,70,0.26374
5609930,0.07000,116.5625,152,70,0.26471
5609940,0.08000,111.5000,152,70,0.27057
5609950,0.09000,106.6875,152,70,0.28205
5609960,0.09500,102.5625,152,70,0.29988
5609970,0.09000,99.3125,152,70,0.32454
5609980,0.08000,95.3125,152,70,0.39194
5609990,0.07000,94.2500,152,70,0.42589
5610000,0.06500,93.5625,152,70,0.45861
5610010,0.07000,93.0625,152,70,0.49499
5610020,0.09000,92.3125,152,70,0.56703
5610030,0.08500,91.9375,152,70,0.59951
5610040,0.08000,91.4375,152,70,0.62808
5610050,0.06000,90.8750,152,70,0.65275
5610060,0.00000,89.6250,152,70,0.69109
5610070,-0.07500,88.8750,152,70,0.70501
5610080,-0.14500,88.1875,152,70,0.71600
5610090,-0.19000,87.4375,152,70,0.72283
5610100,-0.21500,85.8750,152,70,0.73040
5610110,-0.23000,85.0625,152,70,0.73309
5610120,-0.23000,84.3125,152,70,0.73455
5610130,-0.22500,83.6250,152,70,0.73455
5610140,-0.22500,82.3125,152,70,0.73016
5610150,-0.22000,81.6875,152,70,0.72601
5610160,-0.21000,81.0625,152,70,0.72015
5610170,-0.22000,80.4375,152,70,0.71282
5610180,-0.18000,79.1250,152,70,0.69182
5610190,0.11000,78.4375,152,70,0.67937
5610200,0.56000,77.7500,152,70,0.66569
5610210,0.94500,77.0625,152,70,0.64933
5610220,0.58500,75.6250,152,70,0.61172
5610230,-0.09500,74.8750,152,70,0.59170
5610240,-0.47000,74.1875,152,70,0.57216
5610250,-0.53500,73.5625,152,70,0.55360
5610260,-0.44000,72.3125,152,70,0.52039
5610270,-0.35500,71.6875,152,70,0.50623
5610280,-0.33500,71.1250,152,70,0.49353
5610290,-0.31500,70.5625,152,70,0.48327
5610300,-0.30000,69.5000,152,70,0.46618
5610310,-0.29500,68.9375,152,70,0.45763
5610320,-0.29500,68.5000,152,70,0.44933
5610330,-0.29500,68.1250,152,70,0.44103
5610340,-0.29500,68.3750,152,70,0.42564
5610350,-0.30000,69.7500,152,70,0.41832
5610360,-0.31500,73.0000,152,70,0.41099
5610370,-0.33500,78.6250,152,70,0.40366
5610380,-0.37000,96.0000,152,70,0.38974
5610390,-0.40500,106.0000,152,70,0.38437
5610400,-0.42500,115.7500,152,70,0.37973
5610410,-0.43000,124.5625,152,70,0.37411
5610420,-0.43000,138.2500,152,70,0.36288
5610430,-0.41500,142.7500,152,70,0.35726
5610440,-0.38500,145.7500,152,70,0.35165
5610450,-0.35500,147.5000,152,70,0.34628
5610460,-0.32250,148.2813,152,70,0.33846
5610470,-0.29500,148.3125,152,70,0.33089
5610480,-0.28000,147.8125,152,70,0.32625
5610490,-0.27000,147.1250,152,70,0.32259
5610500,-0.26500,145.5625,152,70,0.31600
5610510,-0.25000,144.6875,152,70,0.31184
5610520,-0.22000,143.7500,152,70,0.30745
5610530,-0.18000,142.7500,152,70,0.30330
5610540,-0.17000,140.4375,152,70,0.29548
5610550,-0.17500,139.1250,152,70,0.29182
5610560,-0.19000,137.7500,152,70,0.28816
5610570,-0.20000,136.1875,152,70,0.28425
5610580,-0.20000,132.3125,152,70,0.27619
5610590,-0.19000,129.8125,152,70,0.27326
5610600,-0.16500,126.6875,152,70,0.27131
5610610,-0.13500,122.9375,152,70,0.26911
5610620,-0.09500,113.5625,152,70,0.27082
5610630,-0.05500,108.6875,152,70,0.27814
5610640,-0.00500,104.1875,152,70,0.29158
5610650,0.03000,100.5000,152,70,0.31160
5610660,0.05500,95.5000,152,70,0.37045
5610670,0.08000,94.0000,152,70,0.40708
5610680,0.11000,93.0000,152,70,0.44591
5610690,0.13000,92.2500,152,70,0.48034
5610700,0.15000,91.0625,152,70,0.54505
5610710,0.17500,90.5000,152,70,0.57729
5610720,0.17500,90.0000,152,70,0.60659
5610730,0.17500,89.3750,152,70,0.63248
5610740,0.14500,87.9375,152,70,0.67399
5610750,0.08500,87.1875,152,70,0.68962
5610760,0.02000,86.4375,152,70,0.70208
5610770,-0.01500,85.6250,152,70,0.71184
5610780,-0.04000,84.0625,152,70,0.72430
5610790,-0.05000,83.2500,152,70,0.72650
5610800,-0.05500,82.5000,152,70,0.72967
5610810,-0.05000,81.8125,152,70,0.73407
5610820,-0.05000,80.4375,152,70,0.73407
5610830,-0.04000,79.8125,152,70,0.73089
5610840,-0.03500,79.2500,152,70,0.72601
5610850,-0.02500,78.6250,152,70,0.71941
5610860,-0.03500,77.3750,152,70,0.70012
5610870,0.10000,76.7500,152,70,0.68718
5610880,0.56500,76.0625,152,70,0.67179
5610890,1.12500,75.4375,152,70,0.65641
5610900,1.04000,74.0625,152,70,0.62222
5610910,0.34500,73.3750,152,70,0.60244
5610920,-0.20000,72.6875,152,70,0.58242
5610930,-0.37000,72.0000,152,70,0.56239
5610940,-0.28500,70.7500,152,70,0.52503
5610950,-0.17000,70.1250,152,70,0.50842
5610960,-0.13500,69.5625,152,70,0.49353
5610970,-0.12500,69.0625,152,70,0.48010
5610980,-0.11000,68.0000,152,70,0.45690
5610990,-0.10000,67.4375,152,70,0.44762
5611000,-0.10500,66.9375,151,70,0.43956
5611010,-0.10000,66.5625,151,70,0.43126
5611020,-0.09500,66.3750,151,70,0.41416
5611030,-0.08000,67.2500,151,70,0.40562
5611040,-0.07000,69.5625,151,70,0.39707
5611050,-0.06000,74.1875,151,70,0.38901
5611060,-0.04500,90.5625,151,70,0.37338
5611070,-0.02500,100.8750,151,70,0.36606
5611080,-0.00500,111.2500,151,70,0.35922
5611090,0.01500,120.8750,151,70,0.35385
5611100,0.04000,136.1875,151,70,0.34359
5611110,0.07000,141.4375,151,70,0.33773
5611120,0.09000,145.0625,151,70,0.33187
5611130,0.11000,147.3750,151,70,0.32601
5611140,0.12000,149.2500,151,70,0.31502
5611150,0.12000,149.3125,151,70,0.30989
5611160,0.11500,149.0625,151,70,0.30476
5611170,0.10500,148.6250,151,70,0.29988
5611180,0.09500,147.2500,151,70,0.29060
5611190,0.09500,146.3750,151,70,0.28694
5611200,0.09500,145.4375,151,70,0.28425
5611210,0.10000,144.4375,151,70,0.28083
5611220,0.09000,142.2500,151,70,0.27326
5611230,0.07500,141.0625,151,70,0.26935
5611240,0.04000,139.7500,151,70,0.26545
5611250,0.01000,138.2500,151,70,0.26154
5611260,-0.01500,134.7500,151,70,0.25372
5611270,-0.03000,132.5000,151,70,0.24957
5611280,-0.03000,129.8125,151,70,0.24567
5611290,-0.02500,126.4375,151,70,0.24347
5611300,-0.01000,117.8125,151,70,0.24444
5611310,0.01000,112.8125,151,70,0.24933
5611320,0.03000,107.9375,151,70,0.25983
5611330,0.05000,103.5625,151,70,0.27717
5611340,0.07000,97.3125,151,70,0.33358
5611350,0.10000,95.4375,151,70,0.37118
5611360,0.13000,94.1875,151,70,0.41270
5611370,0.15500,93.3750,151,70,0.45592
5611380,0.18500,92.3750,151,70,0.54017
5611390,0.22500,92.0000,151,70,0.57387
5611400,0.24000,91.5625,151,70,0.60195
5611410,0.23500,91.1250,151,70,0.62979
5611420,0.21000,90.0000,151,70,0.67790
5611430,0.16000,89.3125,151,70,0.69695
5611440,0.09000,88.6250,151,70,0.71258
5611450,0.04000,87.8750,151,70,0.72527
5611460,0.00500,86.3750,151,70,0.74261
5611470,-0.01500,85.5625,151,70,0.74774
5611480,-0.02850,84.5750,151,70,0.74987
5611490,-0.03400,83.5500,151,70,0.74965
5611500,-0.03000,82.6250,151,70,0.74774
5611510,-0.01500,81.9375,151,70,0.74481
5611520,-0.00500,81.2500,151,70,0.74066
5611530,0.00000,80.6875,151,70,0.73504
5611540,-0.01500,79.5000,151,70,0.71893
5611550,0.01000,78.8750,151,70,0.70769
5611560,0.33000,78.3125,151,70,0.69451
5611570,0.95000,77.6875,151,70,0.67888
5611580,1.18500,76.4375,151,70,0.64151
5611590,0.64000,75.8125,151,70,0.62320
5611600,-0.06000,75.1250,151,70,0.60513
5611610,-0.37000,74.4375,151,70,0.58535
5611620,-0.33500,73.1250,151,70,0.54628
5611630,-0.21000,72.5000,151,70,0.52845
5611640,-0.15500,71.9375,151,70,0.51209
5611650,-0.13000,71.3750,151,70,0.49744
5611660,-0.10000,70.3750,151,70,0.47204
5611670,-0.07500,69.8125,151,70,0.46154
5611680,-0.07000,69.3125,151,70,0.45177
5611690,-0.07500,68.8125,151,70,0.44371
5611700,-0.07000,68.3750,151,70,0.42955
5611710,-0.05500,68.8750,151,70,0.42173
5611720,-0.03000,70.6875,151,70,0.41392
5611730,-0.01500,74.6250,151,70,0.40635
5611740,-0.02000,90.4375,151,70,0.39145
5611750,-0.02500,100.9375,151,70,0.38413
5611760,-0.02500,111.7500,151,70,0.37705
5611770,-0.01500,121.8750,151,70,0.37021
5611780,0.00500,138.1250,151,70,0.35751
5611790,0.03000,143.6875,151,70,0.35263
5611800,0.06000,147.6250,151,70,0.34847
5611810,0.08500,150.1250,151,70,0.34359
5611820,0.11000,152.0625,151,70,0.33333
5611830,0.13000,152.2500,151,70,0.32821
5611840,0.13000,152.0625,151,70,0.32308
5611850,0.13000,151.6875,151,70,0.31819
5611860,0.13000,150.5000,151,70,0.30867
5611870,0.12500,149.8125,151,70,0.30403
5611880,0.12000,149.0000,151,70,0.29963
5611890,0.12000,148.1250,151,70,0.29646
5611900,0.11000,146.2500,151,70,0.29084
5611910,0.08500,145.1250,151,70,0.28718
5611920,0.05000,143.9375,151,70,0.28327
5611930,0.01000,142.5625,151,70,0.27961
5611940,-0.03000,139.3125,151,70,0.27228
5611950,-0.06500,137.2500,151,70,0.26862
5611960,-0.09500,134.8125,151,70,0.26496
5611970,-0.10000,131.8125,151,70,0.26178
5611980,-0.08500,123.8750,151,70,0.26056
5611990,-0.07000,119.0000,151,70,0.26471
5612000,-0.04500,113.9375,151,69,0.27350
5612010,-0.02000,109.1250,151,69,0.28864
5612020,-0.01000,101.5625,151,69,0.34090
5612030,0.00000,99.0625,151,69,0.37680
5612040,0.00500,97.3125,151,69,0.41709
5612050,0.01000,96.0625,151,69,0.45983
5612060,0.02000,94.6875,151,69,0.54481
5612070,0.04500,94.1875,151,69,0.58364
5612080,0.06000,93.8125,151,69,0.61856
5612090,0.05500,93.3750,151,69,0.64542
5612100,0.03500,92.2500,151,69,0.68767
5612110,-0.00500,91.5625,151,69,0.70647
5612120,-0.06500,90.8750,151,69,0.72259
5612130,-0.12500,90.0625,151,69,0.73578
5612140,-0.16000,88.4375,151,69,0.75433
5612150,-0.18500,87.5625,151,69,0.76020
5612160,-0.20000,86.7500,151,69,0.76386
5612170,-0.20000,85.9375,151,69,0.76557
5612180,-0.20000,84.4375,151,69,0.76386
5612190,-0.20000,83.7500,151,69,0.76044
5612200,-0.19500,83.1250,151,69,0.75629
5612210,-0.19000,82.4375,151,69,0.75140
5612220,-0.19000,81.1250,151,69,0.73773
5612230,-0.20000,80.5000,151,69,0.72796
5612240,-0.04000,79.8125,151,69,0.71624
5612250,0.42000,79.1250,151,69,0.70232
5612260,0.90000,77.7500,151,69,0.66764
5612270,0.75000,77.0000,151,69,0.64762
5612280,0.06000,76.3125,151,69,0.62662
5612290,-0.41500,75.6250,151,69,0.60757
5612300,-0.52000,74.2500,151,69,0.57094
5612310,-0.42500,73.5625,151,69,0.55263
5612320,-0.33500,72.9375,151,69,0.53529
5612330,-0.30000,72.3125,151,69,0.51941
5612340,-0.27000,71.1250,151,69,0.49182
5612350,-0.24000,70.5000,151,69,0.47985
5612360,-0.22000,69.9375,151,69,0.46886
5612370,-0.20500,69.4375,151,69,0.45885
5612380,-0.20000,68.7500,151,69,0.44127
5612390,-0.19000,68.8125,151,69,0.43443
5612400,-0.17000,69.6250,151,69,0.42686
5612410,-0.16000,72.0000,151,69,0.41880
5612420,-0.16000,83.8750,151,69,0.40317
5612430,-0.16000,93.1250,151,69,0.39560
5612440,-0.16000,103.3750,151,69,0.38803
5612450,-0.14500,113.6250,151,69,0.38046
5612460,-0.12500,131.3125,151,69,0.36654
5612470,-0.09500,138.0000,151,69,0.35995
5612480,-0.06500,143.0625,151,69,0.35385
5612490,-0.03500,146.5625,151,69,0.34896
5612500,-0.01000,148.8125,151,69,0.34281
5612510,0.00500,150.0000,151,69,0.33619
5612520,0.01000,150.3125,151,69,0.32991
5612530,0.00500,149.9375,151,69,0.32479
5612540,-0.00500,148.6250,151,69,0.31404
5612550,-0.01500,147.8125,151,69,0.30891
5612560,-0.01500,146.9375,151,69,0.30403
5612570,-0.00500,145.0000,151,69,0.29377
5612580,0.00000,143.9375,151,69,0.29011
5612590,-0.00500,142.8125,151,69,0.28718
5612600,-0.03000,141.6250,151,69,0.28352
5612610,-0.05500,140.3125,151,69,0.27961
5612620,-0.08500,137.1250,151,69,0.27155
5612630,-0.11000,135.1875,151,69,0.26740
5612640,-0.13000,132.8125,151,69,0.26276
5612650,-0.12500,129.9375,151,69,0.25861
5612660,-0.11500,122.0625,151,69,0.25372
5612670,-0.08500,117.2500,151,69,0.25543
5612680,-0.06000,112.1250,151,69,0.26178
5612690,-0.03500,107.3125,151,69,0.27204
5612700,-0.02500,99.8125,151,69,0.30989
5612710,-0.01500,97.3750,151,69,0.33968
5612720,-0.01000,95.6875,151,69,0.37558
5612730,0.00000,94.5625,151,69,0.41563
5612740,0.01000,93.2500,151,69,0.49890
5612750,0.03000,92.8750,151,69,0.53871
5612760,0.05500,92.4375,151,69,0.57558
5612770,0.06000,92.0000,151,69,0.60855
5612780,0.05500,90.9375,151,69,0.65910
5612790,0.02500,90.3125,151,69,0.67570
5612800,-0.03500,89.6250,151,69,0.69158
5612810,-0.10500,88.8750,151,69,0.70549
5612820,-0.15500,87.2500,151,69,0.72650
5612830,-0.18000,86.5000,151,69,0.73309
5612840,-0.19500,85.6875,151,69,0.73773
5612850,-0.20500,84.8750,151,69,0.73651
5612860,-0.20500,83.3125,151,69,0.72821
5612870,-0.20000,82.6250,151,69,0.72527
5612880,-0.20000,82.0000,151,69,0.72161
5612890,-0.19000,81.4375,151,69,0.71673
5612900,-0.18500,80.1875,151,69,0.70330
5612910,-0.19500,79.5000,151,69,0.69426
5612920,-0.10000,78.8750,151,69,0.68352
5612930,0.28000,78.1875,151,69,0.67057
5612940,0.85000,76.7500,151,69,0.63883
5612950,0.92000,76.0625,151,69,0.62027
5612960,0.30000,75.3125,151,69,0.60098
5612970,-0.27000,74.6250,151,69,0.58120
5612980,-0.47000,73.2500,151,69,0.54505
5612990,-0.43500,72.6250,151,69,0.53016
5613000,-0.32500,72.0625,151,69,0.51502
5613010,-0.27000,70.8750,151,69,0.48742
5613020,-0.24500,70.3750,151,69,0.47546
5613030,-0.22000,69.8125,151,69,0.46447
5613040,-0.20500,69.2500,151,69,0.45446
5613050,-0.19500,68.7500,151,69,0.44518
5613060,-0.18500,68.0000,151,69,0.42833
5613070,-0.16500,67.9375,151,69,0.42027
5613080,-0.15500,68.3750,151,69,0.41245
5613090,-0.14500,70.0000,151,69,0.40610
5613100,-0.14500,79.5000,151,69,0.39390
5613110,-0.14500,87.7500,151,69,0.38706
5613120,-0.13000,97.3750,151,69,0.38022
5613130,-0.11500,107.3750,151,69,0.37338
5613140,-0.09500,125.6875,151,69,0.36068
5613150,-0.07000,133.0625,151,69,0.35482
5613160,-0.04500,138.8750,151,69,0.34921
5613170,-0.01500,143.1250,151,69,0.34383
5613180,0.00500,147.6875,151,69,0.33455
5613190,0.02000,148.4375,151,69,0.33114
5613200,0.03000,148.5625,151,69,0.32698
5613210,0.03000,148.3125,151,69,0.32210
5613220,0.03000,146.9375,151,69,0.31233
5613230,0.03000,146.0625,151,69,0.30794
5613240,0.02500,145.0625,151,69,0.30354
5613250,0.03000,144.0625,151,69,0.29939
5613260,0.03500,141.7500,151,69,0.29084
5613270,0.03000,140.5625,151,69,0.28694
5613280,0.02000,139.3125,151,69,0.28303
5613290,0.00000,138.0000,151,69,0.28034
5613300,-0.03000,135.0000,151,69,0.27546
5613310,-0.06000,133.1250,151,69,0.27204
5613320,-0.07500,130.8125,151,69,0.26862
5613330,-0.07500,128.0000,151,69,0.26496
5613340,-0.05500,120.3750,151,69,0.25861
5613350,-0.04000,115.7500,151,69,0.25788
5613360,-0.02500,110.8750,151,69,0.26105
5613370,-0.00500,106.3750,151,69,0.26935
5613380,0.00000,99.3750,151,69,0.30134
5613390,0.00500,97.0625,151,69,0.32308
5613400,0.01000,95.4375,151,69,0.35263
5613410,0.01500,94.3125,151,69,0.38755
5613420,0.02500,92.9375,151,69,0.46520
5613430,0.05000,92.4375,151,69,0.50403
5613440,0.08500,91.9375,151,69,0.54090
5613450,0.10000,91.4375,151,69,0.57436
5613460,0.09500,90.3125,151,69,0.62979
5613470,0.08000,89.6875,151,69,0.65177
5613480,0.02500,88.9375,151,69,0.67009
5613490,-0.04500,88.2500,151,69,0.68278
5613500,-0.10500,86.7500,151,69,0.69963
5613510,-0.14500,85.9375,151,69,0.70623
5613520,-0.16000,85.1875,151,69,0.71111
5613530,-0.16600,84.2062,151,69,0.71475
5613540,-0.16650,83.1688,151,69,0.71675
5613550,-0.16500,82.2500,151,69,0.71673
5613560,-0.16500,81.6250,151,69,0.71429
5613570,-0.16500,81.0000,151,69,0.71038
5613580,-0.16000,79.7500,151,69,0.69841
5613590,-0.16000,79.1250,151,69,0.69035
5613600,-0.14500,78.5000,151,69,0.68059
5613610,0.07000,77.8750,151,69,0.66862
5613620,0.59000,76.5000,151,69,0.63907
5613630,0.98000,75.8125,151,69,0.62173
5613640,0.68000,75.1250,151,69,0.60317
5613650,0.01500,74.5000,151,69,0.58413
5613660,-0.38000,73.1250,151,69,0.54676
5613670,-0.45000,72.5000,151,69,0.52943
5613680,-0.35500,71.8750,151,69,0.51355
5613690,-0.27000,71.3125,151,69,0.50061
5613700,-0.24000,70.1875,151,69,0.47888
5613710,-0.21500,69.6250,151,69,0.46862
5613720,-0.19500,69.1250,151,69,0.45910
5613730,-0.18000,68.5625,151,69,0.45006
5613740,-0.17000,67.6875,151,69,0.43297
5613750,-0.16000,67.4375,151,69,0.42491
5613760,-0.15500,67.5625,151,69,0.41709
5613770,-0.15500,68.3125,151,69,0.40977
5613780,-0.15000,75.0000,151,69,0.39658
5613790,-0.14500,81.8750,151,69,0.39121
5613800,-0.14000,90.8125,151,69,0.38535
5613810,-0.13500,100.7500,151,69,0.37900
5613820,-0.12000,120.1250,151,69,0.36654
5613830,-0.09500,128.3750,151,69,0.36044
5613840,-0.06000,135.1250,151,69,0.35458
5613850,-0.02500,140.3750,151,69,0.34896
5613860,0.00000,146.4375,151,69,0.33846
5613870,0.02000,147.8125,151,69,0.33333
5613880,0.03000,148.3750,151,69,0.32967
5613890,0.03000,148.4375,151,69,0.32650
5613900,0.02500,147.5000,151,69,0.31819
5613910,0.02000,146.7500,151,69,0.31355
5613920,0.01000,145.8750,151,69,0.30891
5613930,0.01000,144.9375,151,69,0.30427
5613940,0.01000,142.8750,151,69,0.29548
5613950,0.01000,141.7500,151,69,0.29133
5613960,0.00000,140.5625,151,69,0.28742
5613970,-0.02500,139.3125,151,69,0.28376
5613980,-0.06000,136.4375,151,69,0.27790
5613990,-0.09500,134.6875,151,69,0.27619
5614000,-0.12500,132.6875,151,69,0.27350
5614010,-0.13500,130.2500,151,69,0.27033
5614020,-0.13500,123.6250,151,69,0.26374
5614030,-0.12000,119.2500,151,69,0.26178
5614040,-0.10500,114.3125,151,69,0.26227
5614050,-0.09500,109.2500,151,69,0.26642
5614060,-0.09000,100.5625,151,69,0.29206
5614070,-0.09500,97.5000,151,69,0.31502
5614080,-0.11000,95.3125,151,69,0.33968
5614090,-0.13000,92.8750,151,69,0.36703
5614100,-0.15500,92.1875,151,69,0.43858
5614110,-0.17000,91.6875,151,69,0.47741
5614120,-0.17000,91.2500,151,69,0.51551
5614130,-0.16500,90.8750,151,69,0.55116
5614140,-0.17000,89.8750,151,69,0.61270
5614150,-0.18500,89.2500,151,69,0.63810
5614160,-0.22000,88.5625,151,69,0.65958
5614170,-0.27500,87.8750,151,69,0.67741
5614180,-0.33000,86.2500,151,69,0.70183
5614190,-0.37000,85.4375,151,69,0.70818
5614200,-0.38500,84.5625,151,69,0.71380
5614210,-0.39500,83.7500,151,69,0.71795
5614220,-0.39500,82.1250,151,69,0.72210
5614230,-0.39000,81.3750,151,69,0.72186
5614240,-0.37500,80.6875,151,69,0.72039
5614250,-0.35000,80.0000,151,69,0.71746
5614260,-0.32500,78.6875,151,69,0.70769
5614270,-0.29000,78.0000,151,69,0.70037
5614280,-0.27000,77.3750,151,69,0.69206
5614290,-0.20000,76.7500,151,69,0.68230
5614300,0.12000,75.4375,151,69,0.65592
5614310,0.72000,74.7500,151,69,0.63932
5614320,0.97000,74.0625,151,69,0.62100
5614330,0.49500,73.3750,151,69,0.60171
5614340,-0.14500,72.0000,151,69,0.56239
5614350,-0.43500,71.3750,151,69,0.54359
5614360,-0.40500,70.7500,151,69,0.52601
5614370,-0.28000,70.1875,151,69,0.50965
5614380,-0.19500,69.0000,151,69,0.48303
5614390,-0.16000,68.5000,151,69,0.47326
5614400,-0.13500,67.9375,151,69,0.46374
5614410,-0.10500,67.3750,151,69,0.45446
5614420,-0.08500,66.3125,151,69,0.43736
5614430,-0.06500,65.8750,151,69,0.42930
5614440,-0.05500,65.5625,151,69,0.42149
5614450,-0.03500,65.5625,151,69,0.41368
5614460,-0.02500,68.2500,151,69,0.39829
5614470,-0.00500,72.5625,151,69,0.39072
5614480,0.01000,79.5000,151,69,0.38462
5614490,0.03000,88.6250,151,69,0.37924
5614500,0.04500,109.0625,151,69,0.36654
5614510,0.06000,118.5625,151,69,0.35995
5614520,0.08000,126.9375,151,69,0.35360
5614530,0.10500,133.8750,151,69,0.34774
5614540,0.13000,142.8750,151,69,0.33626
5614550,0.14500,146.8562,151,69,0.32982
5614560,0.15667,147.6125,151,69,0.32549
5614570,0.16500,146.9375,151,69,0.32039
5614580,0.17000,146.6250,151,69,0.31160
5614590,0.16500,146.1250,151,69,0.30842
5614600,0.16000,145.4375,151,69,0.30427
5614610,0.16000,144.6250,151,69,0.29988
5614620,0.16500,142.6250,151,69,0.29084
5614630,0.17000,141.5625,151,69,0.28645
5614640,0.16500,140.3750,151,69,0.28230
5614650,0.14500,139.1875,151,69,0.27839
5614660,0.12000,136.5625,151,69,0.27082
5614670,0.09000,135.1250,151,69,0.26716
5614680,0.06500,133.5000,151,69,0.26471
5614690,0.04000,131.5625,151,69,0.26300
5614700,0.03000,126.5000,151,69,0.25714
5614710,0.03500,123.0625,151,69,0.25397
5614720,0.04500,119.0000,151,69,0.25177
5614730,0.06000,114.4375,151,69,0.25153
5614740,0.07500,105.1875,151,69,0.26325
5614750,0.08000,101.3125,151,69,0.27814
5614760,0.09500,98.1875,151,69,0.29988
5614770,0.10500,95.8750,151,69,0.32821
5614780,0.12000,93.0625,151,69,0.39487
5614790,0.13000,92.2500,151,69,0.42711
5614800,0.14500,91.6250,151,69,0.46374
5614810,0.16500,91.1250,151,69,0.50134
5614820,0.19500,90.0625,151,69,0.57192
5614830,0.19500,89.5000,151,69,0.60195
5614840,0.18500,88.8750,151,69,0.62833
5614850,0.15500,88.1875,151,69,0.65079
5614860,0.10000,86.6875,151,69,0.68523
5614870,0.03000,85.9375,151,69,0.69744
5614880,-0.02500,85.1250,151,69,0.70525
5614890,-0.06500,84.3750,151,69,0.71013
5614900,-0.08500,82.8125,151,69,0.73187
5614910,-0.09500,82.0625,151,69,0.73797
5614920,-0.09500,81.3125,151,69,0.74066
5614930,-0.09500,80.6250,151,69,0.74066
5614940,-0.09500,79.3125,151,69,0.73529
5614950,-0.09500,78.6875,151,69,0.73016
5614960,-0.09500,78.1250,151,69,0.72308
5614970,-0.10500,77.5625,151,69,0.71404
5614980,-0.07000,76.3750,151,69,0.69133
5614990,0.24500,75.8125,151,69,0.67814
5615000,0.87500,75.1875,150,69,0.66252
5615010,1.15500,74.5000,150,69,0.64493
5615020,0.65500,73.1250,150,69,0.60611
5615030,-0.08000,72.4375,150,69,0.58632
5615040,-0.42500,71.8125,150,69,0.56703
5615050,-0.41500,71.1875,150,69,0.54872
5615060,-0.29500,70.0000,150,69,0.51648
5615070,-0.22000,69.4375,150,69,0.50232
5615080,-0.20000,68.9375,150,69,0.49084
5615090,-0.19000,68.3750,150,69,0.48107
5615100,-0.18000,67.3125,150,69,0.46203
5615110,-0.17500,66.8125,150,69,0.45299
5615120,-0.17000,66.3750,150,69,0.44420
5615130,-0.17000,66.1250,150,69,0.43565
5615140,-0.15500,67.0000,150,69,0.41905
5615150,-0.14000,69.4375,150,69,0.41099
5615160,-0.12000,74.1875,150,69,0.40293
5615170,-0.10500,81.6250,150,69,0.39512
5615180,-0.08500,101.6875,150,69,0.38095
5615190,-0.06000,112.1875,150,69,0.37558
5615200,-0.03000,121.8750,150,69,0.36947
5615210,0.00000,130.3125,150,69,0.36337
5615220,0.03000,142.1875,150,69,0.35140
5615230,0.06000,145.7500,150,69,0.34579
5615240,0.09000,147.9375,150,69,0.34042
5615250,0.11000,149.1875,150,69,0.33504
5615260,0.12500,149.7500,150,69,0.32503
5615270,0.13000,149.5000,150,69,0.32039
5615280,0.13500,149.0625,150,69,0.31722
5615290,0.13000,148.4375,150,69,0.31429
5615300,0.13000,146.9375,150,69,0.30598
5615310,0.13000,146.0000,150,69,0.30134
5615320,0.13000,145.0625,150,69,0.29695
5615330,0.12000,144.0000,150,69,0.29280
5615340,0.11000,141.7500,150,69,0.28498
5615350,0.08000,140.5000,150,69,0.28132
5615360,0.05000,139.1250,150,69,0.27766
5615370,0.02500,137.5625,150,69,0.27375
5615380,0.01000,133.6250,150,69,0.26716
5615390,0.00000,131.0000,150,69,0.26520
5615400,0.01000,127.7500,150,69,0.26227
5615410,0.02500,123.8750,150,69,0.26007
5615420,0.04500,114.5000,150,69,0.26398
5615430,0.05500,109.6875,150,69,0.27326
5615440,0.06500,105.3750,150,69,0.28938
5615450,0.07000,101.7500,150,69,0.31282
5615460,0.07000,96.9375,150,69,0.38095
5615470,0.07000,95.5625,150,69,0.42198
5615480,0.08000,94.6250,150,69,0.45934
5615490,0.09500,93.9375,150,69,0.49451
5615500,0.12000,92.9375,150,69,0.57045
5615510,0.14500,92.5000,150,69,0.60537
5615520,0.15500,92.0000,150,69,0.63663
5615530,0.15500,91.3750,150,69,0.66422
5615540,0.14000,90.0625,150,69,0.70769
5615550,0.09500,89.3125,150,69,0.72405
5615560,0.03500,88.5000,150,69,0.73724
5615570,-0.02500,87.6875,150,69,0.74750
5615580,-0.06000,86.4375,150,69,0.75535
5615590,-0.08000,85.1875,150,69,0.76044
5615600,-0.09500,84.3750,150,69,0.76239
5615610,-0.10500,83.5625,150,69,0.76313
5615620,-0.11500,82.0625,150,69,0.76044
5615630,-0.11500,81.3750,150,69,0.75702
5615640,-0.11000,80.7500,150,69,0.75214
5615650,-0.10500,80.1250,150,69,0.74554
5615660,-0.11500,79.0000,150,69,0.72674
5615670,-0.09500,78.3750,150,69,0.71429
5615680,0.14500,77.7500,150,69,0.70110
5615690,0.70500,77.1875,150,69,0.68669
5615700,1.09500,75.9375,150,69,0.65104
5615710,0.70500,75.3125,150,69,0.63126
5615720,-0.02000,74.6250,150,69,0.61099
5615730,-0.39500,74.0000,150,69,0.59096
5615740,-0.41500,72.6875,150,69,0.55360
5615750,-0.29500,72.0625,150,69,0.53675
5615760,-0.21500,71.4375,150,69,0.52161
5615770,-0.20000,70.8750,150,69,0.50794
5615780,-0.20000,70.8750,150,69,0.50794
5615790,-0.20000,70.8750,150,69,0.50794
5615800,-0.12500,68.2500,150,69,0.46056
5615810,-0.12500,68.2500,150,69,0.46056
5615820,-0.12000,67.7500,150,69,0.44347
5615830,-0.12000,68.2500,150,69,0.43516
5615840,-0.10500,70.0000,150,69,0.42711
5615850,-0.09000,73.7500,150,69,0.41905
5615860,-0.07500,88.8750,150,69,0.40317
5615870,-0.07500,99.0625,150,69,0.39560
5615880,-0.07000,109.6250,150,69,0.38950
5615890,-0.05500,119.6250,150,69,0.38437
5615900,-0.02500,135.8125,150,69,0.37241
5615910,0.01000,141.5000,150,69,0.36654
5615920,0.05000,145.6250,150,69,0.36068
5615930,0.08000,148.2500,150,69,0.35482
5615940,0.11500,150.6250,150,69,0.34359
5615950,0.13000,150.8125,150,69,0.33822
5615960,0.14000,150.6875,150,69,0.33309
5615970,0.15000,150.3125,150,69,0.32821
5615980,0.16000,149.1250,150,69,0.32161
5615990,0.16500,148.3750,150,69,0.31770
5616000,0.17500,147.5625,150,69,0.31355
5616010,0.17500,146.6875,150,69,0.30940
5616020,0.17000,144.8125,150,69,0.30110
5616030,0.14500,143.6875,150,69,0.29695
5616040,0.11000,142.5000,150,69,0.29304
5616050,0.06500,141.1250,150,69,0.28913
5616060,0.02000,137.8750,150,69,0.28132
5616070,-0.01500,135.8125,150,69,0.27717
5616080,-0.04000,133.3125,150,69,0.27424
5616090,-0.05000,130.2500,150,69,0.27228
5616100,-0.04000,122.1250,150,69,0.26886
5616110,-0.02000,117.1875,150,69,0.27082
5616120,0.00000,112.1875,150,69,0.27766
5616130,0.01500,107.5000,150,69,0.29109
5616140,0.03000,100.3750,150,69,0.33968
5616150,0.03000,98.0000,150,69,0.37387
5616160,0.02000,96.3125,150,69,0.41270
5616170,0.00500,95.1875,150,69,0.45421
5616180,0.00000,93.8125,150,69,0.52503
5616190,0.00500,93.3750,150,69,0.56117
5616200,0.02500,93.0000,150,69,0.59609
5616210,0.04000,92.6250,150,69,0.62833
5616220,0.04000,91.5625,150,69,0.68107
5616230,0.02500,90.8750,150,69,0.70183
5616240,-0.00500,90.1875,150,69,0.71893
5616250,-0.07500,89.4375,150,69,0.73284
5616260,-0.14000,87.8125,150,69,0.75287
5616270,-0.18000,86.9375,150,69,0.75922
5616280,-0.21000,86.0625,150,69,0.76239
5616290,-0.22500,85.2500,150,69,0.76313
5616300,-0.23000,83.6875,150,69,0.76313
5616310,-0.23500,82.9375,150,69,0.76166
5616320,-0.24000,82.3125,150,69,0.75922
5616330,-0.23000,81.0625,150,69,0.74921
5616340,-0.23500,80.4375,150,69,0.74188
5616350,-0.24000,79.8125,150,69,0.73260
5616360,-0.24000,79.1250,150,69,0.72112
5616370,-0.09000,77.8125,150,69,0.70720
5616380,0.36000,77.1250,150,69,0.67741
5616390,0.86500,76.4375,150,69,0.65910
5616400,0.76500,75.6875,150,69,0.63932
5616410,0.09000,74.9375,150,69,0.61880
5616420,-0.40500,73.5625,150,69,0.57827
5616430,-0.54000,72.9375,150,69,0.55946
5616440,-0.46000,72.3125,150,69,0.54212
5616450,-0.36000,71.6875,150,69,0.52625
5616460,-0.31500,70.5000,150,69,0.49915
5616470,-0.29000,70.0000,150,69,0.48767
5616480,-0.27000,69.4375,150,69,0.47839
5616490,-0.25000,68.9375,150,69,0.47033
5616500,-0.24000,68.0000,150,69,0.45348
5616510,-0.22500,67.6875,150,69,0.44518
5616520,-0.21000,67.6875,150,69,0.43687
5616530,-0.20000,68.3750,150,69,0.42882
5616540,-0.19000,74.5625,150,69,0.41294
5616550,-0.18000,81.2500,150,69,0.40537
5616560,-0.17000,90.0625,150,69,0.39805
5616570,-0.16000,110.0000,150,69,0.39096
5616580,-0.15000,119.4375,150,69,0.38022
5616590,-0.12500,127.7500,150,69,0.37436
5616600,-0.10500,135.5563,150,69,0.36676
5616610,-0.07583,142.0375,150,69,0.35863
5616620,-0.04500,146.3750,150,69,0.35116
5616630,-0.02000,147.7500,150,69,0.34554
5616640,-0.00500,148.3750,150,69,0.33993
5616650,0.00000,148.3750,150,69,0.33455
5616660,-0.00500,147.5000,150,69,0.32430
5616670,-0.01500,146.7500,150,69,0.31917
5616680,-0.02000,145.8750,150,69,0.31551
5616690,-0.02500,144.9375,150,69,0.31233
5616700,-0.00500,142.9375,150,69,0.30379
5616710,0.00000,141.8750,150,69,0.29963
5616720,-0.00500,140.6875,150,69,0.29548
5616730,-0.02500,139.3750,150,69,0.29158
5616740,-0.05500,136.3750,150,69,0.28376
5616750,-0.08500,134.6250,150,69,0.27961
5616760,-0.12000,132.6250,150,69,0.27570
5616770,-0.14000,130.1875,150,69,0.27155
5616780,-0.13500,123.7500,150,69,0.26691
5616790,-0.11000,119.4375,150,69,0.26496
5616800,-0.08500,114.6250,150,69,0.26422
5616810,-0.06500,109.6250,150,69,0.26667
5616820,-0.04500,100.7500,150,69,0.28816
5616830,-0.03500,97.6250,150,69,0.30916
5616840,-0.04000,95.3750,150,69,0.33700
5616850,-0.05500,93.8750,150,69,0.37070
5616860,-0.06500,92.1875,150,69,0.44982
5616870,-0.07500,91.6875,150,69,0.49084
5616880,-0.07500,91.3125,150,69,0.52601
5616890,-0.06500,90.9375,150,69,0.55678
5616900,-0.04500,90.1250,150,69,0.61832
5616910,-0.05500,89.5625,150,69,0.64518
5616920,-0.07500,88.9375,150,69,0.66862
5616930,-0.12500,88.2500,150,69,0.68816
5616940,-0.20500,86.6250,150,69,0.71282
5616950,-0.28000,85.8125,150,69,0.71648
5616960,-0.33500,85.0000,150,69,0.72088
5616970,-0.37000,84.1250,150,69,0.72479
5616980,-0.38500,82.5000,150,69,0.72625
5616990,-0.39500,81.6875,150,69,0.72576
5617000,-0.40000,80.9375,150,69,0.72454
5617010,-0.40500,80.2500,150,69,0.72210
5617020,-0.39500,78.8750,150,69,0.71306
5617030,-0.38500,78.2500,150,69,0.70598
5617040,-0.35500,77.6250,150,69,0.69744
5617050,-0.34500,77.0000,150,69,0.68694
5617060,-0.24000,75.6875,150,69,0.65910
5617070,0.17500,75.0625,150,69,0.64200
5617080,0.76500,74.3125,150,69,0.62540
5617090,0.81000,73.6250,150,69,0.60855
5617100,0.21500,72.2500,150,69,0.57021
5617110,-0.33000,71.5625,150,69,0.55092
5617120,-0.52500,70.9375,150,69,0.53260
5617130,-0.45000,70.3125,150,69,0.51551
5617140,-0.31500,69.2500,150,69,0.48596
5617150,-0.24000,68.6875,150,69,0.47375
5617160,-0.20500,68.1875,150,69,0.46300
5617170,-0.17000,67.6250,150,69,0.45324
5617180,-0.14000,66.6250,150,69,0.43810
5617190,-0.11500,66.1250,150,69,0.43077
5617200,-0.09500,65.7500,150,69,0.42320
5617210,-0.08000,65.5625,150,69,0.41563
5617220,-0.06500,66.8125,150,69,0.40049
5617230,-0.04500,69.5000,150,69,0.39292
5617240,-0.02500,74.5625,150,69,0.38535
5617250,-0.01000,82.1250,150,69,0.37778
5617260,0.00500,101.3750,150,69,0.36313
5617270,0.02000,111.2500,150,69,0.35629
5617280,0.04000,120.3125,150,69,0.35140
5617290,0.06000,128.1875,150,69,0.34701
5617300,0.08000,139.4375,150,69,0.33626
5617310,0.10000,142.8125,150,69,0.33040
5617320,0.11500,144.9375,150,69,0.32503
5617330,0.12000,146.5625,150,69,0.31966
5617340,0.13000,146.5000,150,69,0.30891
5617350,0.13000,146.1250,150,69,0.30354
5617360,0.12500,145.4375,150,69,0.29841
5617370,0.12500,144.6250,150,69,0.29353
5617380,0.13000,142.5625,150,69,0.28718
5617390,0.14000,141.5000,150,69,0.28352
5617400,0.14500,140.3750,150,69,0.27961
5617410,0.13500,139.1875,150,69,0.27570
5617420,0.11500,136.6250,150,69,0.26862
5617430,0.08000,135.2500,150,69,0.26520
5617440,0.05000,133.7500,150,69,0.26154
5617450,0.03000,132.0000,150,69,0.25788
5617460,0.01000,127.4375,150,69,0.25079
5617470,0.01000,124.3750,150,69,0.24860
5617480,0.01000,120.6875,150,69,0.24737
5617490,0.02000,116.3750,150,69,0.24615
5617500,0.04000,106.8750,150,69,0.25006
5617510,0.06000,102.6250,150,69,0.25861
5617520,0.07500,99.0625,150,69,0.27350
5617530,0.08500,96.3125,150,69,0.29548
5617540,0.09500,92.9375,150,69,0.35897
5617550,0.10500,92.0000,150,69,0.39780
5617560,0.12000,91.3125,150,69,0.43834
5617570,0.13000,90.7500,150,69,0.47912
5617580,0.15000,89.8125,150,69,0.54383
5617590,0.17500,89.2500,150,69,0.57509
5617600,0.19500,88.6875,150,69,0.60440
5617610,0.18500,88.0625,150,69,0.63028
5617620,0.15500,87.2000,150,69,0.65687
5617630,0.09500,86.2375,150,69,0.68098
5617640,0.02500,85.3125,150,69,0.69939
5617650,-0.03500,84.5625,150,69,0.70891
5617660,-0.07500,83.0000,150,69,0.72088
5617670,-0.10000,82.2500,150,69,0.72283
5617680,-0.11000,81.5000,150,69,0.72308
5617690,-0.11500,80.7500,150,69,0.72259
5617700,-0.11500,79.3750,150,69,0.71868
5617710,-0.11500,78.7500,150,69,0.71502
5617720,-0.10500,78.1250,150,69,0.70989
5617730,-0.10500,77.5625,150,69,0.70305
5617740,-0.11500,76.5000,150,69,0.68278
5617750,-0.10000,76.0000,150,69,0.66960
5617760,0.16500,75.4375,150,69,0.65421
5617770,0.77500,74.1875,150,69,0.63712
5617780,1.15500,73.5000,150,69,0.60415
5617790,0.71000,72.8750,150,69,0.58608
5617800,-0.02000,72.1875,150,69,0.56728
5617810,-0.38500,71.5625,150,69,0.54872
5617820,-0.42000,70.2500,150,69,0.51453
5617830,-0.30000,69.6875,150,69,0.49939
5617840,-0.21000,69.1875,150,69,0.48571
5617850,-0.19000,68.6250,150,69,0.47375
5617860,-0.18000,67.6250,150,69,0.45275
5617870,-0.17000,67.0625,150,69,0.44469
5617880,-0.16500,66.5625,150,69,0.43761
5617890,-0.16500,66.1250,150,69,0.42979
5617900,-0.16000,65.6250,150,69,0.41416
5617910,-0.15000,66.0000,150,69,0.40659
5617920,-0.13500,67.5000,150,69,0.39927
5617930,-0.13000,70.9375,150,69,0.39194
5617940,-0.11500,85.3750,150,69,0.37705
5617950,-0.09500,95.3125,150,69,0.36972
5617960,-0.07500,105.8125,150,69,0.36264
5617970,-0.05500,115.8750,150,69,0.35556
5617980,-0.02500,132.4375,150,69,0.34603
5617990,0.01000,138.4375,150,69,0.34115
5618000,0.04000,142.7500,150,69,0.33602
5618010,0.07000,145.5625,150,69,0.33114
5618020,0.09000,148.0625,150,69,0.32137
5618030,0.10000,148.2500,150,69,0.31648
5618040,0.11000,148.0625,150,69,0.31184
5618050,0.11000,147.6875,150,69,0.30720
5618060,0.10500,146.3125,150,69,0.29841
5618070,0.10500,145.5000,150,69,0.29524
5618080,0.11000,144.6250,150,69,0.29280
5618090,0.11000,142.6875,150,69,0.28938
5618100,0.11000,141.6250,150,69,0.28156
5618110,0.10000,140.4375,150,69,0.27766
5618120,0.07000,139.2500,150,69,0.27375
5618130,0.04000,137.8750,150,69,0.27009
5618140,0.01000,134.5625,150,69,0.26325
5618150,0.00000,132.5000,150,69,0.25958
5618160,0.00000,130.0000,150,69,0.25617
5618170,0.01000,126.9375,150,69,0.25275
5618180,0.03000,118.7500,150,69,0.25104
5618190,0.05500,113.8125,150,69,0.25275
5618200,0.07000,108.8750,150,69,0.25788
5618210,0.08500,104.3125,150,69,0.26862
5618220,0.09000,97.5625,150,69,0.31062
5618230,0.08500,95.5625,150,69,0.34212
5618240,0.07500,94.1875,150,69,0.37900
5618250,0.07000,93.3750,150,69,0.41929
5618260,0.08000,92.5000,150,69,0.50281
5618270,0.09000,92.1875,150,69,0.53748
5618280,0.11000,91.8750,150,69,0.56703
5618290,0.14000,91.4375,150,69,0.59731
5618300,0.15000,90.4375,150,69,0.65104
5618310,0.14500,89.7500,150,69,0.67326
5618320,0.12000,89.0625,150,69,0.69158
5618330,0.07000,88.2500,150,69,0.70672
5618340,0.00000,86.6250,150,69,0.72821
5618350,-0.05500,85.7500,150,69,0.73529
5618360,-0.07500,84.9375,150,69,0.74017
5618370,-0.09000,84.0625,150,69,0.74310
5618380,-0.10500,82.4375,150,69,0.74237
5618390,-0.11000,81.6875,150,69,0.74066
5618400,-0.11000,81.0000,150,69,0.73797
5618410,-0.10500,80.3750,150,69,0.73382
5618420,-0.10000,79.1875,150,69,0.72039
5618430,-0.09500,78.6250,150,69,0.71111
5618440,-0.11000,78.1250,150,69,0.69988
5618450,-0.01500,77.0000,150,69,0.67106
5618460,0.28500,76.4375,150,69,0.65372
5618470,0.89000,75.8750,150,69,0.63687
5618480,1.10500,75.2500,150,69,0.62002
5618490,0.53000,74.6250,150,69,0.60122
5618500,-0.13500,73.3125,150,69,0.56215
5618510,-0.39500,72.6875,150,69,0.54383
5618520,-0.35500,72.1250,150,69,0.52698
5618530,-0.24500,71.5625,150,69,0.51184
5618540,-0.19500,70.4375,150,69,0.48596
5618550,-0.19000,69.9375,150,69,0.47497
5618560,-0.16500,69.3750,150,69,0.46520
5618570,-0.14500,68.8750,150,69,0.45641
5618580,-0.13000,67.8750,150,69,0.44347
5618590,-0.12500,67.5625,150,69,0.43639
5618600,-0.12500,67.3750,150,69,0.42930
5618610,-0.11000,67.7500,150,69,0.42198
5618620,-0.09000,72.6875,150,69,0.40757
5618630,-0.07500,78.6250,150,69,0.40024
5618640,-0.07500,87.0000,150,69,0.39316
5618650,-0.07500,99.8688,150,69,0.38398
5618660,-0.07000,114.1000,150,69,0.37451
5618670,-0.05500,126.5625,150,69,0.36654
5618680,-0.02500,134.1250,150,69,0.36190
5618690,0.00500,140.0625,150,69,0.35653
5618700,0.03500,147.3125,150,69,0.34554
5618710,0.06000,149.0625,150,69,0.34017
5618720,0.09000,150.0625,150,69,0.33480
5618730,0.10000,150.4375,150,69,0.32991
5618740,0.10500,150.2500,150,69,0.32063
5618750,0.09500,149.8125,150,69,0.31600
5618760,0.09000,149.2500,150,69,0.31160
5618770,0.09000,148.5625,150,69,0.30745
5618780,0.09000,146.8750,150,69,0.30183
5618790,0.09500,146.0000,150,69,0.29866
5618800,0.09000,144.9375,150,69,0.29524
5618810,0.06500,143.8750,150,69,0.29158
5618820,0.03000,141.2500,150,69,0.28449
5618830,-0.02500,139.7500,150,69,0.28107
5618840,-0.06000,138.0625,150,69,0.27766
5618850,-0.09500,136.0625,150,69,0.27424
5618860,-0.11500,130.7500,150,69,0.26691
5618870,-0.12000,127.2500,150,69,0.26471
5618880,-0.11000,123.0000,150,69,0.26447
5618890,-0.08500,118.1875,150,69,0.26569
5618900,-0.05500,108.1250,150,69,0.28156
5618910,-0.03500,103.8125,150,69,0.29915
5618920,-0.01500,100.3750,150,69,0.32381
5618930,-0.01500,97.8125,150,69,0.35507
5618940,-0.01500,94.8750,150,69,0.43150
5618950,-0.01000,94.0625,150,69,0.47302
5618960,-0.01000,93.5625,150,69,0.51404
5618970,-0.00500,93.1875,150,69,0.55287
5618980,0.01000,92.4375,150,69,0.61074
5618990,0.02500,92.0000,150,69,0.63810
5619000,0.03000,91.4375,149,69,0.66398
5619010,0.01000,90.8750,149,69,0.68596
5619020,-0.03500,89.4375,149,69,0.71990
5619030,-0.10500,88.6250,149,69,0.73211
5619040,-0.16500,87.8125,149,69,0.74139
5619050,-0.20000,86.9375,149,69,0.74872
5619060,-0.22000,85.2500,149,69,0.75726
5619070,-0.22500,84.5000,149,69,0.75775
5619080,-0.22000,83.6875,149,69,0.75629
5619090,-0.22000,82.9375,149,69,0.75433
5619100,-0.21500,81.6875,149,69,0.74725
5619110,-0.21000,81.0625,149,69,0.74164
5619120,-0.21000,80.4375,149,69,0.73431
5619130,-0.21000,79.8125,149,69,0.72576
5619140,-0.19500,78.5625,149,69,0.70281
5619150,0.04000,77.8750,149,69,0.68816
5619160,0.58000,77.6563,149,69,0.68303
5619170,0.93500,77.1875,149,69,0.67155
5619180,0.71000,75.7500,149,69,0.63785
5619190,0.02000,75.0000,149,69,0.61880
5619200,-0.41500,74.2500,149,69,0.59878
5619210,-0.52000,73.5625,149,69,0.57875
5619220,-0.42500,72.3750,149,69,0.54090
5619230,-0.32500,71.7500,149,69,0.52454
5619240,-0.29000,71.1875,149,69,0.50989
5619250,-0.26500,70.6250,149,69,0.49670
5619260,-0.24500,69.5000,149,69,0.47473
5619270,-0.23000,68.9375,149,69,0.46569
5619280,-0.22000,68.4375,149,69,0.45812
5619290,-0.21500,68.0000,149,69,0.45153
5619300,-0.20000,67.6250,149,69,0.43639
5619310,-0.18500,68.1250,149,69,0.42833
5619320,-0.18000,69.8750,149,69,0.42051
5619330,-0.18000,73.6875,149,69,0.41270
5619340,-0.18000,88.5000,149,69,0.39805
5619350,-0.17500,98.2500,149,69,0.39096
5619360,-0.16000,108.3125,149,69,0.38413
5619370,-0.13500,117.8125,149,69,0.37753
5619380,-0.10500,133.3750,149,69,0.36777
5619390,-0.07500,138.8750,149,69,0.36264
5619400,-0.04000,142.9375,149,69,0.35726
5619410,-0.01500,145.6250,149,69,0.35140
5619420,-0.00500,148.0000,149,69,0.33968
5619430,0.00000,148.1875,149,69,0.33407
5619440,-0.00500,148.0000,149,69,0.32894
5619450,-0.01500,147.5000,149,69,0.32381
5619460,-0.02500,145.9375,149,69,0.31429
5619470,-0.02500,145.0000,149,69,0.30965
5619480,-0.02500,144.0000,149,69,0.30623
5619490,-0.03000,142.9375,149,69,0.30354
5619500,-0.05000,140.7500,149,69,0.29621
5619510,-0.08500,139.5000,149,69,0.29231
5619520,-0.13000,138.1875,149,69,0.28840
5619530,-0.18000,136.7500,149,69,0.28449
5619540,-0.24000,133.1250,149,69,0.27619
5619550,-0.26500,130.8750,149,69,0.27204
5619560,-0.28500,128.1250,149,69,0.26789
5619570,-0.28000,124.7500,149,69,0.26398
5619580,-0.27000,116.2500,149,69,0.26203
5619590,-0.25500,111.4375,149,69,0.26398
5619600,-0.23500,106.8125,149,69,0.26984
5619610,-0.21500,102.6875,149,69,0.28107
5619620,-0.21000,96.8750,149,69,0.32332
5619630,-0.21000,95.0625,149,69,0.35409
5619640,-0.20000,93.8125,149,69,0.38974
5619650,-0.19500,92.1875,149,69,0.42857
5619660,-0.18500,91.6250,149,69,0.50842
5619670,-0.14500,91.1250,149,69,0.54603
5619680,-0.10667,90.7083,149,69,0.57179
5619690,-0.08000,90.0000,149,69,0.60098
5619700,-0.07500,88.6250,149,69,0.64884
5619710,-0.08500,87.8750,149,69,0.66886
5619720,-0.13500,87.0625,149,69,0.68571
5619730,-0.18000,86.3125,149,69,0.69939
5619740,-0.21000,84.6875,149,69,0.71868
5619750,-0.21500,83.8750,149,69,0.72479
5619760,-0.21000,83.0625,149,69,0.72869
5619770,-0.20000,82.2500,149,69,0.73065
5619780,-0.18500,80.7500,149,69,0.72845
5619790,-0.17000,80.1250,149,69,0.72601
5619800,-0.15500,79.5000,149,69,0.72259
5619810,-0.14000,78.9375,149,69,0.71795
5619820,-0.12500,77.8125,149,69,0.70403
5619830,-0.12500,77.1875,149,69,0.69426
5619840,0.00000,76.6250,149,69,0.68254
5619850,0.42500,76.0000,149,69,0.66886
5619860,0.99000,74.7500,149,69,0.63590
5619870,0.97000,74.0625,149,69,0.61709
5619880,0.30000,73.3750,149,69,0.59976
5619890,-0.25000,72.6250,149,69,0.58315
5619900,-0.42500,71.3125,149,69,0.54701
5619910,-0.36000,70.6875,149,69,0.52967
5619920,-0.25000,70.0625,149,69,0.51331
5619930,-0.20000,69.5000,149,69,0.49841
5619940,-0.18000,68.3125,149,69,0.47326
5619950,-0.16000,67.7500,149,69,0.46227
5619960,-0.14500,67.2500,149,69,0.45201
5619970,-0.13000,66.6875,149,69,0.44249
5619980,-0.12000,65.8125,149,69,0.42759
5619990,-0.10500,65.5625,149,69,0.42002
5620000,-0.08500,65.6875,150,69,0.41245
5620010,-0.06500,66.5625,150,69,0.40488
5620020,-0.05000,73.7500,150,69,0.38999
5620030,-0.03500,80.9375,150,69,0.38266
5620040,-0.01500,90.0000,150,69,0.37558
5620050,0.00000,100.0000,150,69,0.36874
5620060,0.02000,119.0625,150,69,0.35604
5620070,0.04500,127.0625,150,69,0.34994
5620080,0.07000,133.6875,150,69,0.34554
5620090,0.09000,138.7500,150,69,0.34164
5620100,0.11000,144.7500,150,69,0.33211
5620110,0.11500,146.0000,150,69,0.32698
5620120,0.11500,146.5625,150,69,0.32186
5620130,0.11000,146.5625,150,69,0.31697
5620140,0.11000,145.6250,150,69,0.30745
5620150,0.11000,144.8125,150,69,0.30281
5620160,0.11000,143.8750,150,69,0.29817
5620170,0.11500,142.8125,150,69,0.29353
5620180,0.11500,140.4375,150,69,0.28767
5620190,0.11000,139.1875,150,69,0.28449
5620200,0.09000,137.9375,150,69,0.28083
5620210,0.06500,135.3125,150,69,0.27717
5620220,0.03000,133.8750,150,69,0.27033
5620230,0.01000,132.1875,150,69,0.26691
5620240,-0.00500,130.2500,150,69,0.26325
5620250,0.00000,127.9375,150,69,0.25934
5620260,0.00500,121.5625,150,69,0.25201
5620270,0.02000,117.4375,150,69,0.24982
5620280,0.03500,112.6875,150,69,0.24982
5620290,0.05000,107.8125,150,69,0.25324
5620300,0.06000,99.3750,150,69,0.27326
5620310,0.07000,96.3750,150,69,0.29255
5620320,0.07000,94.2500,150,69,0.31893
5620330,0.08000,92.8125,150,69,0.35140
5620340,0.09500,91.1875,150,69,0.42906
5620350,0.11000,90.6875,150,69,0.46984
5620360,0.13000,90.3125,150,69,0.50989
5620370,0.16000,89.8750,150,69,0.54774
5620380,0.16500,88.9375,150,69,0.60293
5620390,0.15500,88.3750,150,69,0.62784
5620400,0.12000,87.7500,150,69,0.65055
5620410,0.05500,87.0625,150,69,0.67033
5620420,-0.01500,85.5625,150,69,0.70061
5620430,-0.06500,84.7500,150,69,0.71111
5620440,-0.09500,84.0000,150,69,0.71917
5620450,-0.10500,83.1875,150,69,0.72479
5620460,-0.11500,81.6250,150,69,0.72991
5620470,-0.12000,80.8750,150,69,0.72991
5620480,-0.12500,80.1250,150,69,0.72772
5620490,-0.12500,79.4375,150,69,0.72430
5620500,-0.12000,78.1875,150,69,0.71453
5620510,-0.12500,77.6250,150,69,0.70769
5620520,-0.14500,77.1250,150,69,0.69915
5620530,-0.09000,76.5625,150,69,0.68889
5620540,0.26000,75.3750,150,69,0.66227
5620550,0.89000,74.8125,150,69,0.64591
5620560,1.11000,74.1875,150,69,0.62784
5620570,0.55500,73.5000,150,69,0.60855
5620580,-0.13500,72.2500,150,69,0.57387
5620590,-0.43000,71.5625,150,69,0.55580
5620600,-0.39500,70.9375,150,69,0.53822
5620610,-0.24500,69.7500,150,69,0.50574
5620620,-0.19000,69.1875,150,69,0.49182
5620630,-0.17000,68.6875,150,69,0.47937
5620640,-0.15000,68.1250,150,69,0.46813
5620650,-0.13000,67.5625,150,69,0.45788
5620660,-0.11500,66.6250,150,69,0.44005
5620670,-0.11500,66.1875,150,69,0.43199
5620680,-0.12000,65.8750,150,69,0.42540
5620690,-0.11500,65.7500,150,69,0.41929
5620700,-0.10850,67.5417,150,69,0.41038
5620710,-0.10150,71.4375,150,69,0.40037
5620720,-0.09500,77.6250,150,69,0.39096
5620730,-0.09000,86.1250,150,69,0.38388
5620740,-0.08000,106.6875,150,69,0.37021
5620750,-0.06000,116.6875,150,69,0.36361
5620760,-0.02500,125.6250,150,69,0.35751
5620770,0.00500,133.0625,150,69,0.35140
5620780,0.04000,143.1250,150,69,0.34261
5620790,0.06500,145.8750,150,69,0.33797
5620800,0.08500,147.5000,150,69,0.33309
5620810,0.09500,148.2500,150,69,0.32845
5620820,0.10000,148.2500,150,69,0.31893
5620830,0.09000,147.9375,150,69,0.31429
5620840,0.09000,147.3750,150,69,0.30965
5620850,0.09000,146.6875,150,69,0.30501
5620860,0.09000,145.0625,150,69,0.29621
5620870,0.09000,144.0625,150,69,0.29182
5620880,0.08000,143.0625,150,69,0.28864
5620890,0.06000,141.9375,150,69,0.28645
5620900,0.03000,139.5625,150,69,0.28010
5620910,0.00000,138.1875,150,69,0.27668
5620920,-0.02000,136.6875,150,69,0.27350
5620930,-0.03500,134.9375,150,69,0.27009
5620940,-0.04500,130.4375,150,69,0.26276
5620950,-0.04000,127.3750,150,69,0.25910
5620960,-0.01500,123.6875,150,69,0.25592
5620970,0.02000,119.3125,150,69,0.25446
5620980,0.04500,109.4375,150,69,0.26105
5620990,0.06000,104.8750,150,69,0.27131
5621000,0.07000,101.0000,149,68,0.28791
5621010,0.07500,98.0000,149,68,0.31184
5621020,0.07000,94.5000,149,68,0.37900
5621030,0.07500,93.6250,149,68,0.41905
5621040,0.08500,93.0625,149,68,0.46081
5621050,0.09000,92.6875,149,68,0.50110
5621060,0.11500,92.0000,149,68,0.57411
5621070,0.14500,91.5625,149,68,0.60244
5621080,0.15000,91.1250,149,68,0.62564
5621090,0.14500,90.5000,149,68,0.64835
5621100,0.11500,89.1875,149,68,0.68718
5621110,0.06500,88.4375,149,68,0.70183
5621120,0.00000,87.6250,149,68,0.71355
5621130,-0.04500,86.8125,149,68,0.72259
5621140,-0.06500,85.0625,149,68,0.73407
5621150,-0.08000,84.2500,149,68,0.73724
5621160,-0.09500,83.5000,149,68,0.73871
5621170,-0.10000,82.7500,149,68,0.73871
5621180,-0.09500,81.3125,149,68,0.73382
5621190,-0.09000,80.6250,149,68,0.72991
5621200,-0.09000,80.0625,149,68,0.72479
5621210,-0.09000,79.5000,149,68,0.71819
5621220,-0.09500,78.3750,149,68,0.69963
5621230,-0.01500,77.8750,149,68,0.68742
5621240,0.36000,77.2500,149,68,0.67277
5621250,0.95500,76.6875,149,68,0.65617
5621260,1.02500,75.5000,149,68,0.61856
5621270,0.40000,74.8125,149,68,0.60098
5621280,-0.21000,74.1875,149,68,0.58413
5621290,-0.43000,73.5000,149,68,0.56630
5621300,-0.37500,72.3125,149,68,0.53211
5621310,-0.27500,71.6875,149,68,0.51697
5621320,-0.24000,71.1250,149,68,0.50330
5621330,-0.21500,70.5625,149,68,0.49133
5621340,-0.19000,69.5625,149,68,0.47082
5621350,-0.16500,69.0000,149,68,0.46203
5621360,-0.15500,68.5000,149,68,0.45372
5621370,-0.14500,68.0000,149,68,0.44567
5621380,-0.13500,67.4375,149,68,0.43297
5621390,-0.12000,67.7500,149,68,0.42613
5621400,-0.10500,69.0625,149,68,0.41905
5621410,-0.10000,72.2500,149,68,0.41172
5621420,-0.10500,86.0000,149,68,0.39731
5621430,-0.10500,95.7500,149,68,0.39048
5621440,-0.10500,106.0000,149,68,0.38388
5621450,-0.09500,116.0000,149,68,0.37753
5621460,-0.07500,132.6250,149,68,0.36508
5621470,-0.05000,138.6875,149,68,0.36020
5621480,-0.02500,143.1875,149,68,0.35604
5621490,-0.00500,146.2500,149,68,0.35140
5621500,0.00000,149.1875,149,68,0.34164
5621510,0.00500,149.6250,149,68,0.33675
5621520,0.00500,149.6875,149,68,0.33236
5621530,0.00000,149.5000,149,68,0.32821
5621540,-0.00500,148.6250,149,68,0.31990
5621550,-0.01000,147.9375,149,68,0.31575
5621560,-0.01000,147.2500,149,68,0.31160
5621570,-0.01000,146.3750,149,68,0.30745
5621580,-0.01500,144.5000,149,68,0.30232
5621590,-0.03500,143.3750,149,68,0.29915
5621600,-0.06500,142.1250,149,68,0.29573
5621610,-0.09500,140.7500,149,68,0.29231
5621620,-0.12500,137.4375,149,68,0.28547
5621630,-0.14500,135.4375,149,68,0.28181
5621640,-0.15500,133.1250,149,68,0.27790
5621650,-0.15000,130.3750,149,68,0.27448
5621660,-0.13500,122.8750,149,68,0.27009
5621670,-0.11500,118.1875,149,68,0.27131
5621680,-0.09500,113.2500,149,68,0.27570
5621690,-0.08500,108.3125,149,68,0.28425
5621700,-0.07500,100.4375,149,68,0.31990
5621710,-0.06500,97.7500,149,68,0.34750
5621720,-0.05500,95.8125,149,68,0.38071
5621730,-0.04167,94.1979,149,68,0.43822
5621740,-0.02500,93.0625,149,68,0.49744
5621750,-0.00500,92.5625,149,68,0.53578
5621760,0.03000,92.1875,149,68,0.57167
5621770,0.04500,91.8125,149,68,0.60415
5621780,0.04500,90.8125,149,68,0.64957
5621790,0.03000,90.1875,149,68,0.66935
5621800,-0.02500,89.5000,149,68,0.68694
5621810,-0.09500,88.8125,149,68,0.70208
5621820,-0.15500,87.1875,149,68,0.72454
5621830,-0.18500,86.3750,149,68,0.73211
5621840,-0.21000,85.5625,149,68,0.73773
5621850,-0.22000,84.7500,149,68,0.74139
5621860,-0.22500,83.1875,149,68,0.74335
5621870,-0.23000,82.4375,149,68,0.74139
5621880,-0.22000,81.7500,149,68,0.73797
5621890,-0.21500,81.1250,149,68,0.73407
5621900,-0.21500,79.9375,149,68,0.72283
5621910,-0.22000,79.3125,149,68,0.71502
5621920,-0.19000,78.6875,149,68,0.70549
5621930,0.06500,78.0625,149,68,0.69426
5621940,0.62000,76.6875,149,68,0.66520
5621950,0.93500,75.9375,149,68,0.64762
5621960,0.49000,75.2500,149,68,0.62857
5621970,-0.19000,73.8125,149,68,0.60855
5621980,-0.53500,73.1250,149,68,0.57314
5621990,-0.57000,72.4375,149,68,0.55507
5622000,-0.47000,71.8125,149,68,0.53748
5622010,-0.40500,71.1875,149,68,0.52088
5622020,-0.39500,70.0625,149,68,0.49280
5622030,-0.38000,69.4375,149,68,0.48083
5622040,-0.37000,68.8750,149,68,0.47009
5622050,-0.36500,68.3750,149,68,0.46032
5622060,-0.36500,67.3750,149,68,0.44298
5622070,-0.36000,67.0000,149,68,0.43614
5622080,-0.34500,66.8125,149,68,0.43004
5622090,-0.32500,67.1875,149,68,0.42295
5622100,-0.31000,71.8750,149,68,0.40879
5622110,-0.30500,77.6875,149,68,0.40171
5622120,-0.30500,85.8750,149,68,0.39463
5622130,-0.29500,95.5000,149,68,0.38755
5622140,-0.27000,115.0625,149,68,0.37363
5622150,-0.24500,123.6250,149,68,0.36703
5622160,-0.21500,130.8750,149,68,0.36068
5622170,-0.17500,136.6250,149,68,0.35482
5622180,-0.13500,143.7500,149,68,0.34676
5622190,-0.10000,145.4375,149,68,0.34237
5622200,-0.07500,146.3125,149,68,0.33748
5622210,-0.05500,146.5625,149,68,0.33260
5622220,-0.03500,145.9375,149,68,0.32259
5622230,-0.01500,145.2500,149,68,0.31746
5622240,0.00000,144.4375,149,68,0.31233
5622250,0.02000,143.5000,149,68,0.30745
5622260,0.04000,141.3125,149,68,0.29841
5622270,0.05000,140.1875,149,68,0.29524
5622280,0.05000,139.0625,149,68,0.29255
5622290,0.03000,137.8125,149,68,0.28913
5622300,0.00500,135.1250,149,68,0.28181
5622310,-0.01500,133.5625,149,68,0.27790
5622320,-0.02500,131.7500,149,68,0.27424
5622330,-0.03000,129.6250,149,68,0.27033
5622340,-0.02500,123.8125,149,68,0.26325
5622350,-0.01500,119.9375,149,68,0.26007
5622360,0.00000,115.5000,149,68,0.25836
5622370,0.02000,110.6875,149,68,0.25958
5622380,0.04000,101.6875,149,68,0.27228
5622390,0.06000,98.2500,149,68,0.28645
5622400,0.07500,95.6250,149,68,0.30720
5622410,0.09000,93.7500,149,68,0.33431
5622420,0.11000,91.6875,149,68,0.40366
5622430,0.12000,91.1250,149,68,0.44225
5622440,0.14000,90.6250,149,68,0.48107
5622450,0.17500,90.1875,149,68,0.51868
5622460,0.18500,89.1875,149,68,0.58559
5622470,0.18000,88.5625,149,68,0.61026
5622480,0.15500,87.8750,149,68,0.62979
5622490,0.10000,87.1250,149,68,0.64884
5622500,0.02500,85.5625,149,68,0.68034
5622510,-0.03000,84.8125,149,68,0.69158
5622520,-0.06000,84.0000,149,68,0.70037
5622530,-0.08000,83.2500,149,68,0.70696
5622540,-0.09000,81.6875,149,68,0.71404
5622550,-0.09500,80.9375,149,68,0.71526
5622560,-0.09000,80.1875,149,68,0.71502
5622570,-0.08500,79.5625,149,68,0.71306
5622580,-0.07500,78.3750,149,68,0.70501
5622590,-0.07500,77.7500,149,68,0.69963
5622600,-0.08500,77.1875,149,68,0.69280
5622610,-0.05500,76.6250,149,68,0.68425
5622620,0.24500,75.4375,149,68,0.66105
5622630,0.84500,74.8125,149,68,0.64640
5622640,1.13500,74.1875,149,68,0.62979
5622650,0.66500,73.5000,149,68,0.61197
5622660,-0.04000,72.1250,149,68,0.56630
5622670,-0.38500,71.4375,149,68,0.55287
5622680,-0.38500,70.8125,149,68,0.53919
5622690,-0.26000,70.1875,149,68,0.52405
5622700,-0.18000,69.0000,149,68,0.49451
5622710,-0.16000,68.4375,149,68,0.48132
5622720,-0.15000,67.9375,149,68,0.46935
5622730,-0.14000,67.4375,149,68,0.45861
5622740,-0.13500,66.3750,149,68,0.43907
5622750,-0.12650,65.7917,149,68,0.42813
5622760,-0.11600,65.5000,149,68,0.42132
5622770,-0.10500,65.3125,149,68,0.41416
5622780,-0.09500,66.6875,149,68,0.40220
5622790,-0.08000,69.6250,149,68,0.39585
5622800,-0.06500,75.0625,149,68,0.38901
5622810,-0.05000,82.9375,149,68,0.38193
5622820,-0.04000,102.8125,149,68,0.36801
5622830,-0.02000,112.8125,149,68,0.36142
5622840,0.00000,121.8750,149,68,0.35482
5622850,0.02000,129.6250,149,68,0.34847
5622860,0.04000,140.3750,149,68,0.33700
5622870,0.06500,143.4375,149,68,0.33284
5622880,0.08000,145.3750,149,68,0.32918
5622890,0.08000,146.3750,149,68,0.32503
5622900,0.07500,146.7500,149,68,0.31624
5622910,0.07000,146.3750,149,68,0.31184
5622920,0.06000,145.8125,149,68,0.30745
5622930,0.06000,145.0625,149,68,0.30281
5622940,0.06000,143.1875,149,68,0.29402
5622950,0.07000,142.1250,149,68,0.29011
5622960,0.07000,140.9375,149,68,0.28620
5622970,0.06500,139.7500,149,68,0.28352
5622980,0.04000,137.1875,149,68,0.27863
5622990,0.01000,135.8125,149,68,0.27546
5623000,-0.01500,134.2500,149,68,0.27179
5623010,-0.03500,132.5625,149,68,0.26813
5623020,-0.04000,128.2500,149,68,0.26056
5623030,-0.03000,125.3125,149,68,0.25665
5623040,-0.00500,121.6875,149,68,0.25324
5623050,0.02000,117.5000,149,68,0.25104
5623060,0.04000,108.0625,149,68,0.25519
5623070,0.05000,103.7500,149,68,0.26252
5623080,0.06000,100.1250,149,68,0.27473
5623090,0.06500,97.3125,149,68,0.29353
5623100,0.07000,94.0000,149,68,0.35311
5623110,0.08500,93.1250,149,68,0.39072
5623120,0.10000,92.5000,149,68,0.43077
5623130,0.11500,92.0000,149,68,0.47155
5623140,0.14000,91.1875,149,68,0.54896
5623150,0.16500,90.6875,149,68,0.58315
5623160,0.16500,90.1250,149,68,0.61368
5623170,0.15500,89.5000,149,68,0.63712
5623180,0.12000,88.1250,149,68,0.67302
5623190,0.06000,87.3750,149,68,0.68840
5623200,-0.00500,86.5625,149,68,0.70134
5623210,-0.05500,85.8125,149,68,0.71184
5623220,-0.08500,84.1875,149,68,0.72552
5623230,-0.10000,83.3750,149,68,0.72894
5623240,-0.10500,82.5625,149,68,0.73065
5623250,-0.11500,81.7500,149,68,0.73089
5623260,-0.12000,80.2500,149,68,0.72650
5623270,-0.12000,79.5625,149,68,0.72234
5623280,-0.11500,78.9375,149,68,0.71673
5623290,-0.11500,78.3125,149,68,0.71013
5623300,-0.12500,77.2500,149,68,0.69206
5623310,-0.03500,76.7500,149,68,0.68010
5623320,0.36000,76.2500,149,68,0.66642
5623330,0.97500,75.7500,149,68,0.65079
5623340,1.05500,74.6250,149,68,0.61538
5623350,0.41000,74.0000,149,68,0.59634
5623360,-0.23000,73.3750,149,68,0.57729
5623370,-0.47000,72.7500,149,68,0.56068
5623380,-0.41500,71.5625,149,68,0.53040
5623390,-0.30500,71.0000,149,68,0.51575
5623400,-0.27000,70.4375,149,68,0.50232
5623410,-0.26000,69.9375,149,68,0.49011
5623420,-0.24000,68.8125,149,68,0.46911
5623430,-0.23000,68.3125,149,68,0.45983
5623440,-0.23000,67.7500,149,68,0.45079
5623450,-0.23500,67.3125,149,68,0.44225
5623460,-0.24000,66.6875,149,68,0.42637
5623470,-0.23000,66.9375,149,68,0.41978
5623480,-0.20500,68.2500,149,68,0.41392
5623490,-0.19000,71.4375,149,68,0.40733
5623500,-0.18000,85.3125,149,68,0.39390
5623510,-0.16000,95.2500,149,68,0.38706
5623520,-0.14000,105.7500,149,68,0.38022
5623530,-0.11000,115.8750,149,68,0.37363
5623540,-0.07500,132.6875,149,68,0.36068
5623550,-0.03500,138.6875,149,68,0.35482
5623560,-0.00500,143.1250,149,68,0.34921
5623570,0.02000,146.0625,149,68,0.34505
5623580,0.04000,148.7500,149,68,0.33724
5623590,0.05000,149.1875,149,68,0.33260
5623600,0.06000,149.1875,149,68,0.32821
5623610,0.05500,148.9375,149,68,0.32381
5623620,0.05000,148.0625,149,68,0.31551
5623630,0.05000,147.4375,149,68,0.31160
5623640,0.05000,146.7500,149,68,0.30769
5623650,0.05500,145.9375,149,68,0.30379
5623660,0.06000,144.0625,149,68,0.29621
5623670,0.05000,143.0000,149,68,0.29353
5623680,0.02500,141.7500,149,68,0.29084
5623690,-0.00500,140.4375,149,68,0.28767
5623700,-0.03500,137.1875,149,68,0.28230
5623710,-0.05000,135.1875,149,68,0.27912
5623720,-0.06000,132.8750,149,68,0.27570
5623730,-0.06000,130.1250,149,68,0.27228
5623740,-0.05000,122.6250,149,68,0.26691
5623750,-0.03500,118.0000,149,68,0.26716
5623760,-0.01000,113.0000,149,68,0.27155
5623770,0.01000,108.0000,149,68,0.27937
5623780,0.03250,102.0833,149,68,0.30484
5623790,0.05500,97.1875,149,68,0.33871
5623800,0.07500,95.2500,149,68,0.37167
5623810,0.10000,94.0000,149,68,0.40928
5623820,0.12000,92.6250,149,68,0.49035
5623830,0.14500,92.2500,149,68,0.53016
5623840,0.17500,91.9375,149,68,0.56728
5623850,0.19500,91.5625,149,68,0.60098
5623860,0.20000,90.6875,149,68,0.65690
5623870,0.19500,90.1250,149,68,0.67643
5623880,0.17000,89.4375,149,68,0.69133
5623890,0.11000,88.0000,149,68,0.70549
5623900,0.05000,87.2500,149,68,0.72845
5623910,0.02000,86.4375,149,68,0.73651
5623920,0.00500,85.6250,149,68,0.74286
5623930,0.01000,84.8125,149,68,0.74701
5623940,0.02000,83.3750,149,68,0.75018
5623950,0.03000,82.6875,149,68,0.74945
5623960,0.05000,82.0000,149,68,0.74701
5623970,0.06000,81.4375,149,68,0.74286
5623980,0.07000,80.3125,149,68,0.73138
5623990,0.06500,79.7500,149,68,0.72405
5624000,0.06500,79.1875,149,68,0.71477
5624010,0.27000,78.6250,149,68,0.70379
5624020,0.78000,77.3750,149,68,0.67521
5624030,1.19000,76.7500,149,68,0.65788
5624040,0.92000,76.1250,149,68,0.63883
5624050,0.21500,75.4375,149,68,0.61856
5624060,-0.22000,74.1250,149,68,0.57778
5624070,-0.29000,73.5000,149,68,0.56020
5624080,-0.19000,72.8750,149,68,0.54481
5624090,-0.11500,72.3125,149,68,0.52918
5624100,-0.08500,71.1250,149,68,0.50085
5624110,-0.06500,70.6250,149,68,0.48889
5624120,-0.04500,70.0625,149,68,0.47814
5624130,-0.04000,69.5625,149,68,0.46838
5624140,-0.04500,68.6250,149,68,0.45104
5624150,-0.05500,68.3125,149,68,0.44274
5624160,-0.05500,68.1875,149,68,0.43468
5624170,-0.05500,68.7500,149,68,0.42784
5624180,-0.05500,74.2500,149,68,0.41490
5624190,-0.07000,80.5625,149,68,0.40781
5624200,-0.07500,89.0625,149,68,0.40098
5624210,-0.08500,98.8750,149,68,0.39414
5624220,-0.08500,118.4375,149,68,0.38071
5624230,-0.07500,126.8750,149,68,0.37436
5624240,-0.05000,133.9375,149,68,0.36825
5624250,-0.03000,139.5000,149,68,0.36215
5624260,-0.01000,146.3125,149,68,0.35067
5624270,0.01000,147.9375,149,68,0.34652
5624280,0.02000,148.7500,149,68,0.34310
5624290,0.02000,148.9375,149,68,0.33895
5624300,0.01500,148.4375,149,68,0.33016
5624310,0.01000,147.8750,149,68,0.32576
5624320,0.00500,147.1875,149,68,0.32137
5624330,-0.00500,146.4375,149,68,0.31697
5624340,-0.00500,144.6250,149,68,0.30867
5624350,-0.01500,143.6250,149,68,0.30476
5624360,-0.03500,142.5000,149,68,0.30085
5624370,-0.06500,141.2500,149,68,0.29817
5624380,-0.10000,138.4375,149,68,0.29377
5624390,-0.14500,136.7500,149,68,0.29084
5624400,-0.17500,134.9375,149,68,0.28767
5624410,-0.20000,132.7500,149,68,0.28425
5624420,-0.20500,127.0000,149,68,0.27668
5624430,-0.19000,123.1875,149,68,0.27350
5624440,-0.17000,118.7500,149,68,0.27179
5624450,-0.14500,113.8750,149,68,0.27302
5624460,-0.11500,104.5625,149,68,0.28962
5624470,-0.10500,100.8750,149,68,0.30452
5624480,-0.09500,98.0625,149,68,0.32357
5624490,-0.08500,96.0625,149,68,0.35043
5624500,-0.07500,93.7500,149,68,0.42027
5624510,-0.07000,93.0625,149,68,0.45910
5624520,-0.05000,92.5625,149,68,0.49817
5624530,-0.02500,92.1875,149,68,0.53578
5624540,-0.01500,91.3125,149,68,0.60293
5624550,-0.01500,90.7500,149,68,0.63077
5624560,-0.03500,90.1875,149,68,0.65495
5624570,-0.10000,89.5625,149,68,0.67253
5624580,-0.17000,88.0625,149,68,0.69817
5624590,-0.22500,87.3125,149,68,0.70891
5624600,-0.26000,86.5625,149,68,0.71746
5624610,-0.27500,85.7500,149,68,0.72430
5624620,-0.27500,84.1875,149,68,0.73236
5624630,-0.28000,83.4375,149,68,0.73407
5624640,-0.28000,82.6875,149,68,0.73407
5624650,-0.27500,82.0625,149,68,0.73260
5624660,-0.26000,80.8125,149,68,0.72552
5624670,-0.25000,80.1875,149,68,0.71966
5624680,-0.25000,79.5625,149,68,0.71282
5624690,-0.16000,78.9375,149,68,0.70427
5624700,0.20500,77.5625,149,68,0.67692
5624710,0.77500,76.8750,149,68,0.66032
5624720,0.88000,76.1875,149,68,0.64737
5624730,0.28000,75.4375,149,68,0.63101
5624740,-0.30000,74.0625,149,68,0.59365
5624750,-0.52000,73.3750,149,68,0.57460
5624760,-0.48000,72.7500,149,68,0.55604
5624770,-0.38000,72.1250,149,68,0.54017
5624780,-0.32000,70.9375,149,68,0.51184
5624790,-0.29000,70.3750,149,68,0.49817
5624800,-0.26250,69.8958,149,68,0.48738
5624810,-0.24000,69.2500,149,68,0.47473
5624820,-0.22500,68.1875,149,68,0.45543
5624830,-0.21000,67.8125,149,68,0.44713
5624840,-0.19500,67.5625,149,68,0.43907
5624850,-0.18500,67.6250,149,68,0.43126
5624860,-0.17500,70.5625,149,68,0.41685
5624870,-0.17000,75.0000,149,68,0.41123
5624880,-0.17000,81.9375,149,68,0.40488
5624890,-0.16000,90.8125,149,68,0.39829
5624900,-0.14500,110.5000,149,68,0.38510
5624910,-0.12500,119.6875,149,68,0.37851
5624920,-0.09000,127.6875,149,68,0.37216
5624930,-0.05500,139.3125,149,68,0.36606
5624940,-0.02000,142.9375,149,68,0.35433
5624950,0.01000,145.2500,149,68,0.34872
