RelativeTimeMilliseconds,ECG,ART,ART (Sys),ART (Dia),PPG
5469980,-0.17000,68.0000,129,60,0.38901
5469990,-0.16000,69.7500,129,60,0.38437
5470000,-0.17000,73.0000,130,60,0.38022
5470010,-0.17000,78.1250,130,60,0.37485
5470020,-0.17500,92.3125,130,60,0.36386
5470030,-0.17500,100.3750,130,60,0.35849
5470040,-0.16000,108.6250,130,60,0.35336
5470050,-0.14500,116.6250,130,60,0.34847
5470060,-0.13000,130.8750,130,60,0.34017
5470070,-0.11000,136.6875,130,60,0.33626
5470080,-0.08500,141.4375,130,60,0.33260
5470090,-0.05500,145.0000,130,60,0.32991
5470100,-0.03500,147.5062,130,60,0.32650
5470110,-0.02500,148.9313,130,60,0.32271
5470120,-0.02000,149.2500,130,60,0.31893
5470130,-0.01500,148.4375,130,60,0.31551
5470140,-0.01000,145.5000,130,60,0.30867
5470150,-0.00500,143.6875,130,60,0.30525
5470160,-0.00500,141.6875,130,60,0.30183
5470170,0.00000,139.6250,130,60,0.29841
5470180,0.01000,135.5000,130,60,0.29231
5470190,0.02000,133.5000,130,60,0.29035
5470200,0.02000,131.5625,130,60,0.28864
5470210,0.00000,129.7500,130,60,0.28596
5470220,-0.02000,126.2500,130,60,0.27985
5470230,-0.04500,124.6250,130,60,0.27839
5470240,-0.06500,122.8750,130,60,0.28059
5470250,-0.06000,120.8750,130,60,0.28840
5470260,-0.05000,115.6250,130,60,0.32796
5470270,-0.03500,112.3125,130,60,0.36117
5470280,-0.01500,108.6250,130,60,0.40220
5470290,0.00000,104.9375,130,60,0.44200
5470300,0.01000,98.5625,130,60,0.52479
5470310,0.01500,96.1875,130,60,0.56825
5470320,0.01500,94.3750,130,60,0.60781
5470330,0.01000,93.0000,130,60,0.64200
5470340,0.00000,91.4375,130,60,0.69133
5470350,-0.00500,91.0625,130,60,0.70769
5470360,-0.01500,90.8125,130,60,0.71966
5470370,-0.01000,90.6875,130,60,0.72821
5470380,-0.01000,90.3750,130,60,0.73724
5470390,-0.01000,90.1875,130,60,0.73773
5470400,-0.00500,89.9375,130,60,0.73651
5470410,-0.00500,89.5625,130,60,0.73480
5470420,0.00000,88.6250,130,60,0.72796
5470430,0.01000,88.0625,130,60,0.72308
5470440,0.02000,87.4375,130,60,0.71770
5470450,0.03000,86.8125,130,60,0.71160
5470460,0.03500,85.5000,130,60,0.69841
5470470,0.02000,84.7500,130,60,0.69158
5470480,-0.01000,84.0625,130,60,0.68449
5470490,-0.03500,83.3750,130,60,0.67717
5470500,-0.06500,81.9375,130,60,0.65983
5470510,-0.08500,81.1875,130,60,0.64908
5470520,-0.10500,80.5000,130,60,0.63639
5470530,-0.10500,79.7500,130,60,0.62198
5470540,-0.10500,78.3125,130,60,0.58803
5470550,-0.10500,77.6875,130,60,0.56996
5470560,-0.09500,77.1250,130,60,0.55214
5470570,-0.08000,76.6250,130,60,0.53553
5470580,-0.07500,75.6875,130,60,0.50720
5470590,-0.08500,75.2500,130,60,0.49719
5470600,-0.01000,74.8750,130,60,0.48962
5470610,0.36000,74.5000,130,60,0.48254
5470620,1.00000,73.7500,130,60,0.47204
5470630,1.19000,73.3125,130,60,0.46740
5470640,0.53500,72.9375,130,60,0.46252
5470650,-0.18000,72.5000,130,60,0.45763
5470660,-0.44000,71.6250,130,60,0.44737
5470670,-0.38500,71.1875,130,60,0.44225
5470680,-0.27000,70.7500,130,60,0.43736
5470690,-0.22500,70.3125,130,60,0.43321
5470700,-0.22000,69.5000,130,60,0.42491
5470710,-0.20000,69.0625,130,60,0.42051
5470720,-0.19000,68.6875,130,60,0.41587
5470730,-0.18000,68.2500,130,60,0.41050
5470740,-0.17000,67.5625,130,60,0.39951
5470750,-0.16500,67.3125,130,60,0.39341
5470760,-0.15500,67.1875,130,60,0.38730
5470770,-0.14500,67.3750,130,60,0.38120
5470780,-0.14000,70.6875,130,60,0.36923
5470790,-0.14500,74.8750,130,60,0.36484
5470800,-0.15000,80.8125,130,60,0.36093
5470810,-0.15000,88.2500,130,60,0.35629
5470820,-0.14500,104.9375,130,60,0.34676
5470830,-0.13500,113.3750,130,60,0.34212
5470840,-0.12000,121.3750,130,60,0.33748
5470850,-0.09500,128.7500,130,60,0.33333
5470860,-0.07500,140.5625,130,60,0.32576
5470870,-0.04500,144.7500,130,60,0.32234
5470880,-0.01500,147.8125,130,60,0.31893
5470890,0.00500,149.6875,130,60,0.31648
5470900,0.02000,150.7500,130,60,0.31184
5470910,0.02500,150.1875,130,60,0.30867
5470920,0.02000,149.1250,130,60,0.30549
5470930,0.02000,147.6875,130,60,0.30208
5470940,0.01500,144.1250,130,60,0.29621
5470950,0.01000,142.1250,130,60,0.29377
5470960,0.01500,140.1250,130,60,0.29109
5470970,0.02000,138.1875,130,60,0.28816
5470980,0.02000,134.4375,130,60,0.28254
5470990,0.01000,132.6875,130,60,0.28034
5471000,-0.00500,131.0625,131,61,0.27888
5471010,-0.02500,129.5000,131,61,0.27643
5471020,-0.05500,126.3125,131,61,0.27375
5471030,-0.07500,124.6250,131,61,0.27766
5471040,-0.07500,122.6250,131,61,0.28791
5471050,-0.06500,120.1875,131,61,0.30598
5471060,-0.04000,113.8750,131,61,0.36972
5471070,-0.02500,110.1875,131,61,0.41319
5471080,-0.02500,106.4375,131,61,0.46129
5471090,-0.02500,103.0625,131,61,0.50476
5471100,-0.02500,97.7500,131,61,0.58486
5471110,-0.03000,95.9375,131,61,0.62344
5471120,-0.03500,94.5000,131,61,0.65690
5471130,-0.04083,93.2396,131,61,0.69349
5471140,-0.04500,92.3750,131,61,0.72332
5471150,-0.04500,92.1250,131,61,0.73651
5471160,-0.05000,91.9375,131,61,0.74628
5471170,-0.19500,69.2500,131,61,0.42125
5471180,-0.19500,69.2500,131,61,0.42125
5471190,-0.19500,69.2500,131,61,0.42125
5471200,-0.19500,69.2500,131,61,0.42125
5471210,-0.19500,69.2500,131,61,0.42125
5471220,-0.19500,69.2500,131,61,0.42125
5471230,-0.19500,69.2500,131,61,0.42125
5471240,-0.19500,69.2500,131,61,0.42125
5471250,-0.19500,69.2500,131,61,0.42125
5471260,-0.19500,69.2500,131,61,0.42125
5471270,-0.19500,69.2500,131,61,0.42125
5471280,-0.19500,69.2500,131,61,0.42125
5471290,-0.19500,69.2500,131,61,0.42125
5471300,-0.19500,69.2500,131,61,0.42125
5471310,-0.19500,69.2500,131,61,0.42125
5471320,-0.19500,69.2500,131,61,0.42125
5471330,-0.19500,69.2500,131,61,0.42125
5471340,-0.19500,69.2500,131,61,0.42125
5471350,-0.15500,77.3750,131,61,0.35311
5471360,-0.15500,77.3750,131,61,0.35311
5471370,-0.15500,77.3750,131,61,0.35311
5471380,-0.15500,77.3750,131,61,0.35311
5471390,-0.15500,77.3750,131,61,0.35311
5471400,-0.15500,77.3750,131,61,0.35311
5471410,-0.15500,77.3750,131,61,0.35311
5471420,-0.15500,77.3750,131,61,0.35311
5471430,-0.15500,77.3750,131,61,0.35311
5471440,-0.15500,77.3750,131,61,0.35311
5471450,-0.15500,77.3750,131,61,0.35311
5471460,-0.15500,77.3750,131,61,0.35311
5471470,-0.15500,77.3750,131,61,0.35311
5471480,-0.15500,77.3750,131,61,0.35311
5471490,-0.15500,77.3750,131,61,0.35311
5471500,-0.15500,77.3750,131,61,0.35311
5471510,-0.15500,77.3750,131,61,0.35311
5471520,-0.15500,77.3750,131,61,0.35311
5471530,-0.15500,77.3750,131,61,0.35311
5471540,-0.15500,77.3750,131,61,0.35311
5471550,-0.15500,77.3750,131,61,0.35311
5471560,-0.15500,77.3750,131,61,0.35311
5471570,-0.15500,77.3750,131,61,0.35311
5471580,-0.15500,77.3750,131,61,0.35311
5471590,-0.15000,83.9375,131,61,0.34847
5471600,-0.13500,91.7500,131,61,0.34432
5471610,-0.12500,100.1250,131,61,0.33944
5471620,-0.11000,117.1875,131,61,0.32991
5471630,-0.08500,125.1875,131,61,0.32527
5471640,-0.06500,132.3125,131,61,0.32063
5471650,-0.04500,138.4375,131,61,0.31600
5471660,-0.01500,147.1875,131,61,0.30769
5471670,0.01000,149.7500,131,61,0.30354
5471680,0.02500,151.2500,131,61,0.29963
5471690,0.03000,151.6250,131,61,0.29695
5471700,0.03000,150.8750,131,61,0.29206
5471710,0.03000,149.6250,131,61,0.28913
5471720,0.03000,148.1250,131,61,0.28620
5471730,0.03000,146.3750,131,61,0.28303
5471740,0.03000,142.5625,131,61,0.27668
5471750,0.03000,140.6875,131,61,0.27350
5471760,0.04000,138.8125,131,61,0.27057
5471770,0.05000,137.0000,131,61,0.26764
5471780,0.04500,133.5625,131,61,0.26203
5471790,0.02500,132.0000,131,61,0.26007
5471800,0.00000,130.4375,131,61,0.25739
5471810,-0.02000,128.8750,131,61,0.25543
5471820,-0.03500,125.5000,131,61,0.26056
5471830,-0.04000,123.3750,131,61,0.27204
5471840,-0.03500,120.7500,131,61,0.29206
5471850,-0.02000,117.6250,131,61,0.32161
5471860,-0.00500,110.1875,131,61,0.40464
5471870,0.00000,106.3750,131,61,0.45397
5471880,-0.00500,102.9375,131,61,0.50427
5471890,-0.00500,97.7500,131,61,0.54725
5471900,-0.00500,95.9375,131,61,0.62076
5471910,-0.01000,94.6875,131,61,0.65421
5471920,-0.01500,93.8125,131,61,0.68303
5471930,-0.02000,93.2500,131,61,0.70696
5471940,-0.02500,92.6875,131,61,0.74212
5471950,-0.02500,92.5625,131,61,0.75458
5471960,-0.03500,92.4375,131,61,0.76435
5471970,-0.03500,92.2500,131,61,0.77167
5471980,-0.04000,91.6250,131,61,0.77924
5471990,-0.04000,91.1250,131,61,0.77924
5472000,-0.03500,90.6250,133,61,0.77875
5472010,-0.01500,90.0000,133,61,0.77753
5472020,-0.00500,88.6875,133,61,0.77289
5472030,0.00000,87.9375,133,61,0.76923
5472040,0.00000,87.1875,133,61,0.76484
5472050,-0.01500,86.3750,133,61,0.75971
5472060,-0.05000,84.8125,133,61,0.74652
5472070,-0.07500,84.0625,133,61,0.73822
5472080,-0.09500,83.3125,133,61,0.72821
5472090,-0.11500,82.5625,133,61,0.71722
5472100,-0.13500,81.1250,133,61,0.69060
5472110,-0.13500,80.3750,133,61,0.67424
5472120,-0.13000,79.6875,133,61,0.65617
5472130,-0.12500,79.0625,133,61,0.63687
5472140,-0.11500,77.8750,133,61,0.59756
5472150,-0.10500,77.2375,133,61,0.57531
5472160,-0.10750,76.8563,133,61,0.56120
5472170,-0.09500,76.4375,133,61,0.54628
5472180,-0.04000,75.6875,133,61,0.52161
5472190,0.31500,75.3125,133,61,0.51258
5472200,0.96000,74.9375,133,61,0.50403
5472210,1.16500,74.5625,133,61,0.49621
5472220,0.58000,73.8125,133,61,0.48181
5472230,-0.14500,73.3750,133,61,0.47497
5472240,-0.43500,72.9375,133,61,0.46789
5472250,-0.36000,72.5000,133,61,0.46105
5472260,-0.23000,71.5000,133,61,0.44762
5472270,-0.17500,71.0000,133,61,0.44054
5472280,-0.17500,70.5000,133,61,0.43321
5472290,-0.16000,70.0625,133,61,0.42662
5472300,-0.15000,69.1250,133,61,0.41368
5472310,-0.14500,68.6875,133,61,0.40684
5472320,-0.14500,68.3125,133,61,0.39976
5472330,-0.14000,68.0000,133,61,0.39292
5472340,-0.13000,67.8125,133,61,0.37851
5472350,-0.12500,68.3750,133,61,0.37118
5472360,-0.11500,70.0625,133,61,0.36410
5472370,-0.11500,73.5000,133,61,0.35702
5472380,-0.11000,85.8125,133,61,0.34481
5472390,-0.10000,93.8125,133,61,0.34042
5472400,-0.08500,102.3125,133,61,0.33504
5472410,-0.07000,110.8125,133,61,0.32943
5472420,-0.05500,126.4375,133,61,0.31917
5472430,-0.03500,133.0625,133,61,0.31453
5472440,-0.01000,138.6875,133,61,0.31013
5472450,0.01500,143.0625,133,61,0.30598
5472460,0.04000,148.3125,133,61,0.29719
5472470,0.05500,149.3125,133,61,0.29280
5472480,0.06500,149.4375,133,61,0.28864
5472490,0.06000,148.8750,133,61,0.28596
5472500,0.06000,146.4375,133,61,0.28059
5472510,0.05500,144.8125,133,61,0.27717
5472520,0.05000,142.9375,133,61,0.27375
5472530,0.05000,141.0625,133,61,0.27033
5472540,0.05500,137.3125,133,61,0.26325
5472550,0.06000,135.4375,133,61,0.25983
5472560,0.06500,133.6875,133,61,0.25641
5472570,0.05000,132.0625,133,61,0.25275
5472580,0.03000,128.9375,133,61,0.24567
5472590,0.00500,127.4375,133,61,0.24396
5472600,-0.02500,125.8750,133,61,0.24225
5472610,-0.04500,124.1250,133,61,0.24298
5472620,-0.04500,119.5000,133,61,0.26154
5472630,-0.03500,116.5000,133,61,0.28327
5472640,-0.02500,113.0000,133,61,0.31429
5472650,-0.01500,109.3125,133,61,0.35360
5472660,-0.01500,102.3750,133,61,0.44982
5472670,-0.01500,99.6250,133,61,0.50110
5472680,-0.01500,97.3750,133,61,0.55043
5472690,-0.01000,95.6250,133,61,0.59023
5472700,-0.01500,93.4375,133,61,0.65495
5472710,-0.02000,92.8125,133,61,0.68400
5472720,-0.03000,92.4375,133,61,0.70916
5472730,-0.04000,92.1250,133,61,0.73040
5472740,-0.04000,91.6875,133,61,0.76239
5472750,-0.04500,91.4375,133,61,0.77363
5472760,-0.04500,91.1250,133,61,0.78217
5472770,-0.04500,90.6875,133,61,0.78803
5472780,-0.03000,89.6250,133,61,0.79170
5472790,-0.00500,89.0000,133,61,0.78999
5472800,0.01000,88.3125,133,61,0.78779
5472810,0.01000,87.5625,133,61,0.78462
5472820,0.02000,86.1250,133,61,0.77631
5472830,0.00000,85.3750,133,61,0.77143
5472840,-0.03000,84.6250,133,61,0.76557
5472850,-0.06000,83.8750,133,61,0.75873
5472860,-0.08500,82.3125,133,61,0.74017
5472870,-0.11500,81.5625,133,61,0.72772
5472880,-0.13500,80.8750,133,61,0.71306
5472890,-0.14000,80.1250,133,61,0.69792
5472900,-0.14000,78.8125,133,61,0.66398
5472910,-0.14500,78.2500,133,61,0.64444
5472920,-0.14500,77.6875,133,61,0.62418
5472930,-0.14500,77.1875,133,61,0.60440
5472940,-0.13500,76.3125,133,61,0.56752
5472950,-0.13500,75.9375,133,61,0.55116
5472960,-0.14500,75.5625,133,61,0.53626
5472970,-0.03000,75.1875,133,61,0.52308
5472980,0.37500,74.3750,133,61,0.50232
5472990,0.95000,73.9375,133,61,0.49451
5473000,0.99000,73.5000,135,62,0.48694
5473010,0.32000,73.0625,135,62,0.47937
5473020,-0.26000,72.0000,135,62,0.46471
5473030,-0.45000,71.5000,135,62,0.45714
5473040,-0.38500,71.0000,135,62,0.44908
5473050,-0.27000,70.5625,135,62,0.44103
5473060,-0.23000,69.6875,135,62,0.42466
5473070,-0.21000,69.2500,135,62,0.41661
5473080,-0.19500,68.8125,135,62,0.40855
5473090,-0.18000,68.3750,135,62,0.40195
5473100,-0.17500,67.5625,135,62,0.38950
5473110,-0.16500,67.1875,135,62,0.38242
5473120,-0.15500,66.9375,135,62,0.37509
5473130,-0.14000,66.8125,135,62,0.36752
5473140,-0.13000,68.0000,135,62,0.35238
5473150,-0.13000,70.2500,135,62,0.34505
5473160,-0.13000,74.1250,135,62,0.33822
5473170,-0.13500,79.8125,135,62,0.33162
5473180,-0.13083,90.7500,135,62,0.32397
5473190,-0.12000,102.4375,135,62,0.31697
5473200,-0.10500,110.3750,135,62,0.31233
5473210,-0.08500,117.9375,135,62,0.30720
5473220,-0.06500,130.8125,135,62,0.29719
5473230,-0.04000,135.7500,135,62,0.29255
5473240,-0.01000,139.5000,135,62,0.28791
5473250,0.01000,142.1250,135,62,0.28376
5473260,0.02000,144.3125,135,62,0.27570
5473270,0.02500,144.1875,135,62,0.27179
5473280,0.03000,143.5000,135,62,0.26789
5473290,0.02500,142.3125,135,62,0.26520
5473300,0.02000,138.9375,135,62,0.26032
5473310,0.02000,137.0000,135,62,0.25714
5473320,0.02500,135.0000,135,62,0.25372
5473330,0.03000,133.0625,135,62,0.24982
5473340,0.04000,129.1875,135,62,0.24151
5473350,0.03000,127.3750,135,62,0.23736
5473360,0.01000,125.6250,135,62,0.23346
5473370,-0.01500,123.9375,135,62,0.22930
5473380,-0.03500,120.5000,135,62,0.22369
5473390,-0.06000,118.5625,135,62,0.22393
5473400,-0.06500,116.3750,135,62,0.22637
5473410,-0.06500,113.7500,135,62,0.23370
5473420,-0.06500,107.0625,135,62,0.27082
5473430,-0.05500,103.3750,135,62,0.30256
5473440,-0.04500,99.9375,135,62,0.34261
5473450,-0.04000,97.0000,135,62,0.38901
5473460,-0.03500,92.7500,135,62,0.48987
5473470,-0.03500,91.3750,135,62,0.53846
5473480,-0.04000,90.4375,135,62,0.58339
5473490,-0.05500,89.8125,135,62,0.61880
5473500,-0.06000,89.1250,135,62,0.67473
5473510,-0.07000,88.8750,135,62,0.69939
5473520,-0.07500,88.7500,135,62,0.72039
5473530,-0.07500,88.5625,135,62,0.73773
5473540,-0.07000,87.9375,135,62,0.76190
5473550,-0.05500,87.4375,135,62,0.76923
5473560,-0.02000,86.9375,135,62,0.77387
5473570,0.02000,86.3750,135,62,0.77656
5473580,0.05000,85.1250,135,62,0.74847
5473590,0.07000,84.5000,135,62,0.73700
5473600,0.07000,83.8125,135,62,0.72869
5473610,0.05000,83.1250,135,62,0.72186
5473620,0.02000,81.6250,135,62,0.70769
5473630,-0.02500,80.8750,135,62,0.69988
5473640,-0.06500,80.1250,135,62,0.69109
5473650,-0.10500,79.3750,135,62,0.68083
5473660,-0.11500,77.9375,135,62,0.65568
5473670,-0.12000,77.2500,135,62,0.64054
5473680,-0.12000,76.6250,135,62,0.62564
5473690,-0.11500,76.0000,135,62,0.61050
5473700,-0.11000,74.9375,135,62,0.57534
5473710,-0.10500,74.5000,135,62,0.55751
5473720,-0.09500,74.1250,135,62,0.54042
5473730,-0.09500,73.7500,135,62,0.52454
5473740,-0.10500,73.0000,135,62,0.49792
5473750,0.00000,72.6250,135,62,0.48669
5473760,0.41000,72.2500,135,62,0.47668
5473770,1.00000,71.8750,135,62,0.46789
5473780,1.03500,71.0000,135,62,0.45421
5473790,0.37000,70.5000,135,62,0.44860
5473800,-0.22500,70.0000,135,62,0.44274
5473810,-0.43500,69.5625,135,62,0.43663
5473820,-0.37500,68.5625,135,62,0.42466
5473830,-0.26500,68.1250,135,62,0.41832
5473840,-0.22000,67.6875,135,62,0.41197
5473850,-0.21000,67.2500,135,62,0.40562
5473860,-0.19000,66.4375,135,62,0.39267
5473870,-0.17500,66.0000,135,62,0.38608
5473880,-0.17000,65.6250,135,62,0.38071
5473890,-0.15500,65.3125,135,62,0.37582
5473900,-0.13500,64.8125,135,62,0.36410
5473910,-0.11500,64.8750,135,62,0.35775
5473920,-0.10500,65.4375,135,62,0.35140
5473930,-0.09500,67.0000,135,62,0.34554
5473940,-0.10500,74.8125,135,62,0.33407
5473950,-0.11500,81.1250,135,62,0.32869
5473960,-0.11500,88.3750,135,62,0.32381
5473970,-0.11500,96.1875,135,62,0.31917
5473980,-0.10000,111.8750,135,62,0.31184
5473990,-0.09000,119.0625,135,62,0.30940
5474000,-0.06500,125.4375,136,63,0.30623
5474010,-0.04000,130.9375,136,63,0.30256
5474020,-0.00500,138.6875,136,63,0.29524
5474030,0.01500,140.8750,136,63,0.29158
5474040,0.03000,142.1250,136,63,0.28791
5474050,0.03000,142.5625,136,63,0.28449
5474060,0.02500,141.5000,136,63,0.27814
5474070,0.01500,140.3125,136,63,0.27473
5474080,0.01000,138.8125,136,63,0.27228
5474090,0.01000,137.0625,136,63,0.27009
5474100,0.01500,133.3125,136,63,0.26398
5474110,0.03000,131.4375,136,63,0.26056
5474120,0.05000,129.5625,136,63,0.25714
5474130,0.06000,127.7500,136,63,0.25397
5474140,0.04500,124.3125,136,63,0.24811
5474150,0.01500,122.6250,136,63,0.24493
5474160,-0.01500,121.0000,136,63,0.24225
5474170,-0.03500,119.3125,136,63,0.24078
5474180,-0.03500,115.1250,136,63,0.24567
5474190,-0.02500,112.5000,136,63,0.25397
5474200,-0.00500,108.1500,136,63,0.27956
5474210,0.01917,103.1937,136,63,0.31665
5474220,0.04000,98.7500,136,63,0.35946
5474230,0.05000,95.9375,136,63,0.40220
5474240,0.05000,93.6250,136,63,0.44762
5474250,0.04000,91.8750,136,63,0.49353
5474260,0.02000,89.6250,136,63,0.57900
5474270,0.00500,89.0000,136,63,0.61563
5474280,-0.00500,88.5625,136,63,0.64371
5474290,-0.01500,88.2500,136,63,0.66618
5474300,-0.01500,87.8750,136,63,0.70720
5474310,-0.01500,87.6250,136,63,0.72381
5474320,0.00000,87.3125,136,63,0.73724
5474330,0.02500,87.0000,136,63,0.74774
5474340,0.05000,86.1250,136,63,0.75995
5474350,0.08000,85.6250,136,63,0.76190
5474360,0.10000,85.0000,136,63,0.76166
5474370,0.09000,84.3125,136,63,0.75946
5474380,0.07000,82.9375,136,63,0.75067
5474390,0.03000,82.2500,136,63,0.74432
5474400,-0.02500,81.5000,136,63,0.73773
5474410,-0.09000,80.7500,136,63,0.73065
5474420,-0.13500,79.3125,136,63,0.71355
5474430,-0.16000,78.5625,136,63,0.70305
5474440,-0.17000,77.8750,136,63,0.69084
5474450,-0.17000,77.1875,136,63,0.67692
5474460,-0.17000,75.8750,136,63,0.64396
5474470,-0.16000,75.3125,136,63,0.62540
5474480,-0.15000,74.8125,136,63,0.60806
5474490,-0.14000,74.3750,136,63,0.59145
5474500,-0.14500,73.5625,136,63,0.55604
5474510,-0.16000,73.1875,136,63,0.53944
5474520,-0.03500,72.8750,136,63,0.52405
5474530,0.42000,72.5000,136,63,0.51038
5474540,1.01000,71.6250,136,63,0.48791
5474550,0.96000,71.1250,136,63,0.47888
5474560,0.28500,70.6250,136,63,0.47082
5474570,-0.26500,70.1250,136,63,0.46349
5474580,-0.43500,69.2500,136,63,0.45055
5474590,-0.34500,68.8125,136,63,0.44518
5474600,-0.22000,68.4375,136,63,0.43932
5474610,-0.17000,68.0625,136,63,0.43272
5474620,-0.14500,67.3125,136,63,0.41880
5474630,-0.12500,66.8750,136,63,0.41172
5474640,-0.11500,66.5000,136,63,0.40464
5474650,-0.11000,66.1250,136,63,0.39756
5474660,-0.10500,65.4375,136,63,0.38388
5474670,-0.08500,65.2500,136,63,0.37705
5474680,-0.06500,65.3125,136,63,0.37143
5474690,-0.04000,65.8125,136,63,0.36679
5474700,-0.01500,70.3125,136,63,0.35531
5474710,0.00000,75.0000,136,63,0.34921
5474720,0.00500,81.3750,136,63,0.34310
5474730,0.01000,88.7500,136,63,0.33700
5474740,0.01500,104.6250,136,63,0.32625
5474750,0.03000,112.4375,136,63,0.32112
5474760,0.05000,119.6875,136,63,0.31648
5474770,0.07500,126.1250,136,63,0.31209
5474780,0.10000,136.0625,136,63,0.30501
5474790,0.11000,139.3750,136,63,0.30256
5474800,0.12000,141.6250,136,63,0.29963
5474810,0.12500,142.9375,136,63,0.29646
5474820,0.12000,143.1875,136,63,0.28962
5474830,0.11000,142.5000,136,63,0.28596
5474840,0.10000,141.4375,136,63,0.28230
5474850,0.08000,140.0625,136,63,0.27863
5474860,0.07000,136.8750,136,63,0.27131
5474870,0.06000,135.1875,136,63,0.26813
5474880,0.05500,133.5625,136,63,0.26642
5474890,0.06000,131.9375,136,63,0.26520
5474900,0.05000,128.8750,136,63,0.26007
5474910,0.02000,127.3750,136,63,0.25690
5474920,0.00000,125.9375,136,63,0.25348
5474930,-0.02500,124.3750,136,63,0.25031
5474940,-0.05000,121.0000,136,63,0.24786
5474950,-0.06500,118.9375,136,63,0.25128
5474960,-0.06500,116.3750,136,63,0.26056
5474970,-0.06500,113.2500,136,63,0.27741
5474980,-0.05500,105.8125,136,63,0.32991
5474990,-0.04000,102.0000,136,63,0.36166
5475000,-0.02500,98.7500,139,64,0.40195
5475010,-0.02000,96.1250,139,64,0.44737
5475020,-0.01500,92.8125,139,64,0.54090
5475030,-0.01500,91.8125,139,64,0.58437
5475040,-0.01500,91.1875,139,64,0.62418
5475050,-0.03000,90.8125,139,64,0.65934
5475060,-0.03500,90.5625,139,64,0.71575
5475070,-0.03000,90.4375,139,64,0.73748
5475080,-0.01500,90.3125,139,64,0.75263
5475090,0.00000,90.1250,139,64,0.76337
5475100,0.03000,89.4375,139,64,0.78120
5475110,0.05500,89.0000,139,64,0.78681
5475120,0.06500,88.5000,139,64,0.79048
5475130,0.06000,87.9375,139,64,0.79219
5475140,0.03500,86.6875,139,64,0.78999
5475150,-0.01500,86.0000,139,64,0.78681
5475160,-0.09000,85.3125,139,64,0.78242
5475170,-0.15000,84.6250,139,64,0.77705
5475180,-0.18500,83.2500,139,64,0.76264
5475190,-0.19500,82.5625,139,64,0.75385
5475200,-0.19500,81.8750,139,64,0.74383
5475210,-0.20000,81.1875,139,64,0.73211
5475220,-0.20500,80.3688,139,64,0.71250
5475230,-0.19833,79.5375,139,64,0.68872
5475240,-0.19000,78.8125,139,64,0.66447
5475250,-0.19000,78.3125,139,64,0.64347
5475260,-0.19500,77.3750,139,64,0.60122
5475270,-0.13000,76.8750,139,64,0.58144
5475280,0.19500,76.4375,139,64,0.56484
5475290,0.78000,75.9375,139,64,0.55067
5475300,1.01000,74.8125,139,64,0.52405
5475310,0.49500,74.1875,139,64,0.51282
5475320,-0.14500,73.6250,139,64,0.50305
5475330,-0.43500,73.0625,139,64,0.49451
5475340,-0.43500,71.9375,139,64,0.47912
5475350,-0.33500,71.3750,139,64,0.47204
5475360,-0.28000,70.8750,139,64,0.46496
5475370,-0.27000,70.4375,139,64,0.45788
5475380,-0.25500,69.5000,139,64,0.44615
5475390,-0.25000,69.0000,139,64,0.43956
5475400,-0.24000,68.5625,139,64,0.43248
5475410,-0.24000,68.1875,139,64,0.42540
5475420,-0.23000,67.6250,139,64,0.41074
5475430,-0.22000,67.6250,139,64,0.40366
5475440,-0.20000,68.1250,139,64,0.39658
5475450,-0.19000,69.5000,139,64,0.38974
5475460,-0.17500,76.9375,139,64,0.37656
5475470,-0.16000,83.1250,139,64,0.36972
5475480,-0.14500,90.4375,139,64,0.36410
5475490,-0.13000,98.2500,139,64,0.35922
5475500,-0.11500,113.9375,139,64,0.34774
5475510,-0.09500,121.1250,139,64,0.34237
5475520,-0.08000,127.5000,139,64,0.33724
5475530,-0.06500,132.8750,139,64,0.33236
5475540,-0.04000,140.2500,139,64,0.32283
5475550,-0.02000,142.2500,139,64,0.31844
5475560,-0.00500,143.3125,139,64,0.31380
5475570,0.00000,143.5625,139,64,0.30940
5475580,0.01000,142.4375,139,64,0.30330
5475590,0.00500,141.3125,139,64,0.29939
5475600,0.00000,140.0000,139,64,0.29524
5475610,0.00000,138.5000,139,64,0.29084
5475620,0.00500,135.1875,139,64,0.28425
5475630,0.01000,133.4375,139,64,0.28303
5475640,0.02000,131.7500,139,64,0.28059
5475650,0.02000,130.1250,139,64,0.27766
5475660,0.01000,127.0000,139,64,0.27106
5475670,-0.01500,125.5000,139,64,0.26740
5475680,-0.03500,124.0000,139,64,0.26520
5475690,-0.04500,122.3125,139,64,0.26398
5475700,-0.05000,118.2500,139,64,0.26545
5475710,-0.05000,115.5625,139,64,0.27204
5475720,-0.04500,112.3750,139,64,0.28449
5475730,-0.04000,108.8125,139,64,0.30403
5475740,-0.03000,101.4375,139,64,0.36410
5475750,-0.02500,98.3750,139,64,0.40244
5475760,-0.01500,95.8125,139,64,0.44396
5475770,-0.01500,92.1875,139,64,0.48620
5475780,-0.01500,91.0000,139,64,0.55385
5475790,-0.01500,90.1875,139,64,0.58657
5475800,-0.02500,89.5625,139,64,0.61734
5475810,-0.03000,89.1875,139,64,0.64469
5475820,-0.01500,88.6250,139,64,0.68840
5475830,0.00500,88.3750,139,64,0.70476
5475840,0.02500,88.1250,139,64,0.71795
5475850,0.05500,87.8125,139,64,0.72796
5475860,0.09000,86.8750,139,64,0.73944
5475870,0.09500,86.3125,139,64,0.74164
5475880,0.08500,85.7500,139,64,0.74115
5475890,0.05500,85.1250,139,64,0.73871
5475900,-0.00500,83.8125,139,64,0.73236
5475910,-0.07500,83.1250,139,64,0.72772
5475920,-0.12000,82.4375,139,64,0.72210
5475930,-0.14500,81.7500,139,64,0.71526
5475940,-0.15500,80.3750,139,64,0.69890
5475950,-0.16000,79.7500,139,64,0.68840
5475960,-0.16500,79.1250,139,64,0.67619
5475970,-0.16000,78.5625,139,64,0.66227
5475980,-0.16000,77.4375,139,64,0.63370
5475990,-0.15500,76.9375,139,64,0.61685
5476000,-0.14500,76.4375,141,65,0.59853
5476010,-0.14500,75.9375,141,65,0.57924
5476020,-0.04000,75.0000,141,65,0.54188
5476030,0.37000,74.5000,141,65,0.52479
5476040,0.96000,73.9375,141,65,0.50916
5476050,0.99000,73.3750,141,65,0.49499
5476060,0.35500,72.2500,141,65,0.47155
5476070,-0.22000,71.6875,141,65,0.46203
5476080,-0.42500,71.1250,141,65,0.45421
5476090,-0.36500,70.6250,141,65,0.44762
5476100,-0.26500,69.6875,141,65,0.43370
5476110,-0.22500,69.2500,141,65,0.42662
5476120,-0.21000,68.8125,141,65,0.41954
5476130,-0.20000,68.3750,141,65,0.41270
5476140,-0.19000,67.5625,141,65,0.39927
5476150,-0.18500,67.1250,141,65,0.39243
5476160,-0.18000,66.8125,141,65,0.38584
5476170,-0.17500,66.5625,141,65,0.37924
5476180,-0.16500,66.6875,141,65,0.36972
5476190,-0.15500,67.5625,141,65,0.36435
5476200,-0.14500,69.6875,141,65,0.35873
5476210,-0.14000,73.5625,141,65,0.35311
5476220,-0.13000,86.1250,141,65,0.34164
5476230,-0.11500,93.8125,141,65,0.33626
5476240,-0.10000,101.8125,141,65,0.33114
5476250,-0.08400,111.6625,141,65,0.32435
5476260,-0.06600,121.5875,141,65,0.31729
5476270,-0.04500,129.8125,141,65,0.31136
5476280,-0.02000,134.5625,141,65,0.30794
5476290,0.00000,138.1875,141,65,0.30501
5476300,0.02000,142.3125,141,65,0.29792
5476310,0.03000,143.0625,141,65,0.29402
5476320,0.03500,143.1875,141,65,0.29011
5476330,0.03000,142.8125,141,65,0.28596
5476340,0.03000,140.9375,141,65,0.27790
5476350,0.03000,139.6875,141,65,0.27448
5476360,0.03000,138.3125,141,65,0.27106
5476370,0.04000,136.7500,141,65,0.26789
5476380,0.05000,133.5625,141,65,0.26447
5476390,0.05000,131.9375,141,65,0.26203
5476400,0.05000,130.3125,141,65,0.25910
5476410,0.03500,128.6875,141,65,0.25592
5476420,0.02000,125.5000,141,65,0.24908
5476430,0.00000,123.8750,141,65,0.24615
5476440,-0.02000,122.1250,141,65,0.24469
5476450,-0.02500,120.1250,141,65,0.24591
5476460,-0.01500,114.8125,141,65,0.26252
5476470,-0.01000,111.4375,141,65,0.28083
5476480,0.00000,107.8750,141,65,0.30232
5476490,0.00500,104.3125,141,65,0.32796
5476500,0.01000,101.0833,141,65,0.36186
5476510,0.01500,98.3125,141,65,0.40147
5476520,0.01000,96.1250,141,65,0.44420
5476530,0.01000,94.3750,141,65,0.48791
5476540,-0.00500,92.0000,141,65,0.56947
5476550,-0.01000,91.1875,141,65,0.60513
5476560,-0.01500,90.5625,141,65,0.63663
5476570,-0.00500,90.0625,141,65,0.66349
5476580,0.01500,89.1875,141,65,0.70232
5476590,0.04000,88.7500,141,65,0.71404
5476600,0.07500,88.1875,141,65,0.72503
5476610,0.11000,87.6250,141,65,0.73455
5476620,0.12000,86.4375,141,65,0.74676
5476630,0.11500,85.8750,141,65,0.74945
5476640,0.09000,85.2500,141,65,0.74994
5476650,0.03500,84.6250,141,65,0.74872
5476660,-0.03500,83.3750,141,65,0.74115
5476670,-0.09500,82.7500,141,65,0.73553
5476680,-0.13000,82.1250,141,65,0.72894
5476690,-0.14500,81.5000,141,65,0.72137
5476700,-0.15500,80.3125,141,65,0.70354
5476710,-0.15500,79.6875,141,65,0.69280
5476720,-0.15500,79.1250,141,65,0.68034
5476730,-0.15500,78.5625,141,65,0.66618
5476740,-0.15500,77.5000,141,65,0.63297
5476750,-0.14500,77.0625,141,65,0.61465
5476760,-0.15000,76.5625,141,65,0.59536
5476770,-0.09500,76.0625,141,65,0.57607
5476780,0.22500,75.0625,141,65,0.54090
5476790,0.81500,74.5625,141,65,0.52650
5476800,1.06500,74.0000,141,65,0.51209
5476810,0.58500,73.5000,141,65,0.49866
5476820,-0.09500,72.3750,141,65,0.47497
5476830,-0.42500,71.8750,141,65,0.46447
5476840,-0.41000,71.3125,141,65,0.45495
5476850,-0.30000,70.8125,141,65,0.44591
5476860,-0.25000,69.8750,141,65,0.42882
5476870,-0.23500,69.4375,141,65,0.42076
5476880,-0.22500,69.0000,141,65,0.41270
5476890,-0.21500,68.5625,141,65,0.40610
5476900,-0.21000,67.7500,141,65,0.39414
5476910,-0.20500,67.3125,141,65,0.38755
5476920,-0.20000,67.0000,141,65,0.38095
5476930,-0.19500,66.7500,141,65,0.37436
5476940,-0.19000,67.0625,141,65,0.36117
5476950,-0.18500,68.3125,141,65,0.35482
5476960,-0.17000,71.0000,141,65,0.34847
5476970,-0.16000,75.5000,141,65,0.34261
5476980,-0.15000,89.1875,141,65,0.33284
5476990,-0.13500,97.1875,141,65,0.32943
5477000,-0.11500,105.4375,142,65,0.32527
5477010,-0.10000,113.4375,142,65,0.32063
5477020,-0.08000,127.4375,142,65,0.31160
5477030,-0.06000,133.0000,142,65,0.30720
5477040,-0.04500,137.4375,142,65,0.30281
5477050,-0.02500,140.7500,142,65,0.29841
5477060,-0.01000,144.1875,142,65,0.28962
5477070,0.00000,144.7500,142,65,0.28571
5477080,-0.00500,144.6875,142,65,0.28156
5477090,-0.00500,144.1875,142,65,0.27863
5477100,-0.00500,142.1875,142,65,0.27326
5477110,-0.01000,140.8125,142,65,0.26960
5477120,-0.01000,139.3750,142,65,0.26593
5477130,-0.00500,137.7500,142,65,0.26227
5477140,0.00000,134.4375,142,65,0.25617
5477150,0.00000,132.8125,142,65,0.25324
5477160,-0.01500,131.1250,142,65,0.25031
5477170,-0.04000,129.5000,142,65,0.24737
5477180,-0.06500,126.1875,142,65,0.24298
5477190,-0.09000,124.4375,142,65,0.24249
5477200,-0.10500,122.5625,142,65,0.24200
5477210,-0.10500,120.3750,142,65,0.24371
5477220,-0.10500,114.7500,142,65,0.26032
5477230,-0.10500,111.3125,142,65,0.27888
5477240,-0.10500,107.5625,142,65,0.30525
5477250,-0.10500,103.8750,142,65,0.33895
5477260,-0.11000,97.6250,142,65,0.42247
5477270,-0.11500,95.3125,142,65,0.46740
5477280,-0.13083,93.5938,142,65,0.49976
5477290,-0.15000,92.0000,142,65,0.54042
5477300,-0.16500,90.0625,142,65,0.61026
5477310,-0.17000,89.4375,142,65,0.64103
5477320,-0.15500,88.8750,142,65,0.66789
5477330,-0.12500,88.3750,142,65,0.69084
5477340,-0.10000,87.4375,142,65,0.72527
5477350,-0.05500,86.8750,142,65,0.73724
5477360,-0.00500,86.3125,142,65,0.74579
5477370,0.01500,85.6875,142,65,0.75140
5477380,0.01000,84.4375,142,65,0.75433
5477390,-0.00500,83.8125,142,65,0.75238
5477400,-0.05500,83.1875,142,65,0.74945
5477410,-0.11500,82.5000,142,65,0.74554
5477420,-0.15500,81.1250,142,65,0.73480
5477430,-0.17000,80.4375,142,65,0.72772
5477440,-0.17500,79.7500,142,65,0.71990
5477450,-0.16500,79.0625,142,65,0.71062
5477460,-0.15500,77.7500,142,65,0.68791
5477470,-0.13500,77.1250,142,65,0.67424
5477480,-0.11500,76.5625,142,65,0.66032
5477490,-0.08500,76.0000,142,65,0.64542
5477500,-0.07500,74.9375,142,65,0.60904
5477510,-0.08000,74.5000,142,65,0.58926
5477520,-0.01500,74.0625,142,65,0.56923
5477530,0.33500,73.6250,142,65,0.54969
5477540,1.06500,72.8125,142,65,0.51331
5477550,1.14000,72.3750,142,65,0.49719
5477560,0.49000,71.8750,142,65,0.48254
5477570,-0.21500,71.3125,142,65,0.46960
5477580,-0.45000,70.2500,142,65,0.44835
5477590,-0.37000,69.6875,142,65,0.44029
5477600,-0.23500,69.1250,142,65,0.43175
5477610,-0.17000,68.5625,142,65,0.42344
5477620,-0.15000,67.5000,142,65,0.40684
5477630,-0.12000,67.0000,142,65,0.39878
5477640,-0.09500,66.5000,142,65,0.39072
5477650,-0.08000,66.0625,142,65,0.38291
5477660,-0.07500,65.1250,142,65,0.36801
5477670,-0.07500,64.7500,142,65,0.36093
5477680,-0.07500,64.5625,142,65,0.35678
5477690,-0.07000,64.5625,142,65,0.35409
5477700,-0.06500,66.9375,142,65,0.34457
5477710,-0.06500,70.3750,142,65,0.33895
5477720,-0.07000,75.7500,142,65,0.33333
5477730,-0.07500,82.6875,142,65,0.32772
5477740,-0.07500,99.0000,142,65,0.31722
5477750,-0.06500,107.3750,142,65,0.31209
5477760,-0.05500,115.3125,142,65,0.30720
5477770,-0.03500,122.5000,142,65,0.30256
5477780,-0.01500,133.7500,142,65,0.29524
5477790,0.02000,137.5625,142,65,0.29280
5477800,0.05500,140.1875,142,65,0.28962
5477810,0.08500,141.8125,142,65,0.28620
5477820,0.10500,142.5000,142,65,0.27912
5477830,0.12000,141.9375,142,65,0.27570
5477840,0.12000,141.0000,142,65,0.27204
5477850,0.11500,139.8125,142,65,0.26886
5477860,0.11500,136.8750,142,65,0.26203
5477870,0.11500,135.2500,142,65,0.25885
5477880,0.12000,133.6250,142,65,0.25690
5477890,0.12000,132.0000,142,65,0.25543
5477900,0.11000,128.8125,142,65,0.25055
5477910,0.09500,127.2500,142,65,0.24762
5477920,0.07000,125.6875,142,65,0.24469
5477930,0.04000,124.1250,142,65,0.24151
5477940,0.02000,120.9375,142,65,0.23590
5477950,0.00500,119.0625,142,65,0.23541
5477960,0.00000,116.8750,142,65,0.23810
5477970,0.01000,114.1875,142,65,0.24615
5477980,0.02000,107.5000,142,65,0.27937
5477990,0.03000,103.8125,142,65,0.30305
5478000,0.03000,100.2500,142,65,0.33578
5478010,0.02500,97.0625,142,65,0.37534
5478020,0.01000,92.1250,142,65,0.46398
5478030,0.00000,90.4375,142,65,0.50818
5478040,-0.01500,89.2500,142,65,0.54969
5478050,-0.03000,88.4375,142,65,0.58730
5478060,-0.03500,87.5625,142,65,0.64908
5478070,-0.02500,87.3125,142,65,0.67302
5478080,-0.00500,87.0625,142,65,0.68987
5478090,0.02000,86.8125,142,65,0.70183
5478100,0.06500,86.1875,142,65,0.72137
5478110,0.10000,85.7500,142,65,0.72772
5478120,0.11000,85.2500,142,65,0.73162
5478130,0.10500,84.7500,142,65,0.73358
5478140,0.06000,83.5000,142,65,0.73236
5478150,0.00000,82.8750,142,65,0.72943
5478160,-0.05500,82.1875,142,65,0.72552
5478170,-0.09000,81.5000,142,65,0.72039
5478180,-0.11500,80.0625,142,65,0.70745
5478190,-0.13500,79.3750,142,65,0.69988
5478200,-0.14500,78.6875,142,65,0.69133
5478210,-0.14500,78.0000,142,65,0.68132
5478220,-0.14500,76.6875,142,65,0.65665
5478230,-0.13500,76.0625,142,65,0.64200
5478240,-0.12000,75.5625,142,65,0.62540
5478250,-0.12000,75.0000,142,65,0.60733
5478260,-0.10500,74.0625,142,65,0.56923
5478270,0.14500,73.6250,142,65,0.54994
5478280,0.77500,73.1875,142,65,0.53333
5478290,1.23000,72.7500,142,65,0.51844
5478300,0.87600,72.1563,142,65,0.49966
5478310,0.17150,71.5000,142,65,0.48032
5478320,-0.42500,70.8750,142,65,0.46374
5478330,-0.45500,70.3750,142,65,0.45324
5478340,-0.32500,69.2500,142,65,0.43590
5478350,-0.24000,68.7500,142,65,0.42833
5478360,-0.23000,68.2500,142,65,0.42149
5478370,-0.21000,67.7500,142,65,0.41465
5478380,-0.19000,66.8750,142,65,0.40195
5478390,-0.17000,66.4375,142,65,0.39683
5478400,-0.16000,66.0000,142,65,0.39096
5478410,-0.15500,65.5625,142,65,0.38486
5478420,-0.15000,65.0000,142,65,0.37265
5478430,-0.15000,65.0625,142,65,0.36630
5478440,-0.16000,65.8125,142,65,0.35995
5478450,-0.16500,67.7500,142,65,0.35360
5478460,-0.18000,76.9375,142,65,0.34164
5478470,-0.17500,84.1250,142,65,0.33602
5478480,-0.17000,92.2500,142,65,0.33162
5478490,-0.15000,100.7500,142,65,0.32796
5478500,-0.13000,117.1875,142,65,0.31868
5478510,-0.10500,124.3750,142,65,0.31380
5478520,-0.08500,130.5000,142,65,0.30916
5478530,-0.06000,135.5000,142,65,0.30476
5478540,-0.04500,141.7500,142,65,0.29719
5478550,-0.02500,143.2500,142,65,0.29328
5478560,-0.00500,143.8125,142,65,0.28938
5478570,0.00000,143.7500,142,65,0.28571
5478580,0.01000,142.1250,142,65,0.27961
5478590,0.01000,140.8125,142,65,0.27790
5478600,0.02500,139.3125,142,65,0.27521
5478610,0.04000,137.6875,142,65,0.27228
5478620,0.05000,134.3125,142,65,0.26593
5478630,0.06500,132.6250,142,65,0.26300
5478640,0.06500,131.0625,142,65,0.26007
5478650,0.05500,129.5000,142,65,0.25690
5478660,0.03000,126.4375,142,65,0.25104
5478670,0.00000,124.9375,142,65,0.24786
5478680,-0.02000,123.2500,142,65,0.24591
5478690,-0.03500,121.5000,142,65,0.24493
5478700,-0.03500,117.0625,142,65,0.24664
5478710,-0.02500,114.1250,142,65,0.25348
5478720,-0.01000,110.7500,142,65,0.26691
5478730,0.00000,107.0625,142,65,0.28816
5478740,0.00500,99.9375,142,65,0.35409
5478750,0.01000,97.0000,142,65,0.39609
5478760,0.00500,94.6250,142,65,0.44151
5478770,0.00500,92.7500,142,65,0.48742
5478780,0.00000,90.4375,142,65,0.56801
5478790,-0.00500,89.7500,142,65,0.59829
5478800,-0.00500,89.3125,142,65,0.62857
5478810,0.00000,89.0625,142,65,0.65617
5478820,0.01500,88.6250,142,65,0.70085
5478830,0.03000,88.4375,142,65,0.71746
5478840,0.06000,88.0625,142,65,0.73040
5478850,0.09500,87.6875,142,65,0.73968
5478860,0.10000,86.6875,142,65,0.74969
5478870,0.09000,86.0625,142,65,0.75140
5478880,0.06000,85.4375,142,65,0.75043
5478890,0.01000,84.7500,142,65,0.74750
5478900,-0.05500,83.3125,142,65,0.73968
5478910,-0.10000,82.5625,142,65,0.73431
5478920,-0.12500,81.8125,142,65,0.72821
5478930,-0.13000,81.0625,142,65,0.72112
5478940,-0.13500,79.5000,142,65,0.70379
5478950,-0.13500,78.8125,142,65,0.69304
5478960,-0.13500,78.1250,142,65,0.68059
5478970,-0.13000,76.9375,142,65,0.66618
5478980,-0.12000,76.3750,142,65,0.63346
5478990,-0.11000,75.9375,142,65,0.61709
5479000,-0.12500,75.4375,142,65,0.59878
5479010,-0.00500,75.0000,142,65,0.57949
5479020,0.45500,74.2500,142,65,0.54188
5479030,1.04500,73.8125,142,65,0.52479
5479040,0.99500,73.3750,142,65,0.50940
5479050,0.29000,72.8750,142,65,0.49548
5479060,-0.28000,71.8750,142,65,0.47228
5479070,-0.44000,71.3125,142,65,0.46276
5479080,-0.33500,70.8125,142,65,0.45495
5479090,-0.23000,70.2500,142,65,0.44835
5479100,-0.20000,69.2500,142,65,0.43443
5479110,-0.20000,68.8125,142,65,0.42759
5479120,-0.19000,68.3750,142,65,0.42076
5479130,-0.18000,67.9375,142,65,0.41416
5479140,-0.18000,67.0625,142,65,0.40049
5479150,-0.18000,66.6875,142,65,0.39390
5479160,-0.18000,66.3750,142,65,0.38730
5479170,-0.17000,66.1250,142,65,0.38071
5479180,-0.16500,66.8125,142,65,0.37070
5479190,-0.15500,68.5625,142,65,0.36532
5479200,-0.14500,72.0000,142,65,0.35946
5479210,-0.12500,77.3750,142,65,0.35336
5479220,-0.10500,92.2500,142,65,0.34115
5479230,-0.08500,100.5625,142,65,0.33529
5479240,-0.07000,108.8750,142,65,0.32967
5479250,-0.05000,116.7500,142,65,0.32454
5479260,-0.02000,130.0625,142,65,0.31453
5479270,-0.00500,135.0000,142,65,0.31013
5479280,0.01000,138.7500,142,65,0.30720
5479290,0.03000,141.3750,142,65,0.30476
5479300,0.05000,143.5000,142,65,0.29817
5479310,0.06000,143.3125,142,65,0.29475
5479320,0.06000,142.6250,142,65,0.29109
5479330,0.05667,140.8125,142,65,0.28600
5479340,0.05500,138.6875,142,65,0.28107
5479350,0.06000,137.0625,142,65,0.27790
5479360,0.07000,135.3750,142,65,0.27473
5479370,0.08000,133.6875,142,65,0.27155
5479380,0.08500,130.2500,142,65,0.26838
5479390,0.08000,128.5625,142,65,0.26618
5479400,0.06000,126.9375,142,65,0.26325
5479410,0.04500,125.3125,142,65,0.26007
5479420,0.02500,122.0625,142,65,0.25324
5479430,0.01500,120.1875,142,65,0.25055
5479440,0.01000,118.0625,142,65,0.24982
5479450,0.01500,115.4375,142,65,0.25250
5479460,0.02000,108.8125,142,65,0.27521
5479470,0.02500,105.0625,142,65,0.29768
5479480,0.03000,101.5000,142,65,0.32283
5479490,0.03000,98.3125,142,65,0.35189
5479500,0.03000,93.6250,142,65,0.43175
5479510,0.03000,92.0625,142,65,0.47643
5479520,0.02500,90.9375,142,65,0.52088
5479530,0.02000,90.1250,142,65,0.56264
5479540,0.02000,89.1875,142,65,0.63443
5479550,0.02500,88.9375,142,65,0.66349
5479560,0.04000,88.6875,142,65,0.68767
5479570,0.06500,88.4375,142,65,0.70745
5479580,0.10000,87.7500,142,65,0.72991
5479590,0.12000,87.3125,142,65,0.73773
5479600,0.11500,86.8125,142,65,0.74335
5479610,0.11000,86.2500,142,65,0.74676
5479620,0.07500,84.9375,142,65,0.74799
5479630,0.01000,84.2500,142,65,0.74603
5479640,-0.06000,83.5625,142,65,0.74261
5479650,-0.10000,82.8750,142,65,0.73797
5479660,-0.12500,81.5000,142,65,0.72503
5479670,-0.13500,80.8125,142,65,0.71697
5479680,-0.13500,80.1250,142,65,0.70818
5479690,-0.13500,79.4375,142,65,0.69866
5479700,-0.13500,78.1875,142,65,0.67497
5479710,-0.13500,77.6250,142,65,0.66032
5479720,-0.13000,77.0625,142,65,0.64371
5479730,-0.13000,76.6250,142,65,0.62637
5479740,-0.13500,75.6875,142,65,0.58950
5479750,0.02500,75.2500,142,65,0.57094
5479760,0.52000,74.8125,142,65,0.55287
5479770,1.03500,74.3125,142,65,0.53602
5479780,0.84500,73.2500,142,65,0.50989
5479790,0.15500,72.6875,142,65,0.49792
5479800,-0.31000,72.1250,142,65,0.48669
5479810,-0.43500,71.5625,142,65,0.47643
5479820,-0.34000,70.5000,142,65,0.45885
5479830,-0.24500,70.0000,142,65,0.45128
5479840,-0.22500,69.5625,142,65,0.44396
5479850,-0.21000,69.1250,142,65,0.43712
5479860,-0.19500,68.2500,142,65,0.42369
5479870,-0.18500,67.8125,142,65,0.41709
5479880,-0.18000,67.3750,142,65,0.41148
5479890,-0.17000,67.0000,142,65,0.40635
5479900,-0.16000,66.4375,142,65,0.39487
5479910,-0.15000,66.4375,142,65,0.38901
5479920,-0.14500,66.8125,142,65,0.38315
5479930,-0.13500,68.0625,142,65,0.37753
5479940,-0.12500,75.1875,142,65,0.36606
5479950,-0.11500,81.3750,142,65,0.36020
5479960,-0.10500,88.7500,142,65,0.35458
5479970,-0.08500,96.7500,142,65,0.34921
5479980,-0.07500,112.7500,142,65,0.34164
5479990,-0.05500,120.1250,142,65,0.33748
5480000,-0.03500,126.6250,142,66,0.33309
5480010,-0.02000,132.0625,142,66,0.32894
5480020,-0.00500,139.4375,142,66,0.32063
5480030,0.01000,141.3750,142,66,0.31648
5480040,0.01500,142.4375,142,66,0.31258
5480050,0.01500,142.6250,142,66,0.30867
5480060,0.01500,141.2500,142,66,0.30134
5480070,0.01500,139.9375,142,66,0.29792
5480080,0.02000,138.3750,142,66,0.29573
5480090,0.03000,136.6875,142,66,0.29402
5480100,0.04000,133.0000,142,66,0.28864
5480110,0.05000,131.1875,142,66,0.28571
5480120,0.05500,129.4375,142,66,0.28254
5480130,0.05000,127.6875,142,66,0.27937
5480140,0.03000,124.4375,142,66,0.27302
5480150,0.01000,122.8125,142,66,0.27009
5480160,-0.00500,121.0625,142,66,0.26716
5480170,-0.00500,119.1875,142,66,0.26496
5480180,-0.00500,114.2500,142,66,0.26642
5480190,0.00500,111.0625,142,66,0.27131
5480200,0.01000,107.4375,142,66,0.28107
5480210,0.01500,103.7500,142,66,0.29719
5480220,0.02000,97.3125,142,66,0.35067
5480230,0.02000,94.9375,142,66,0.38706
5480240,0.02000,93.1875,142,66,0.42759
5480250,0.01500,91.8750,142,66,0.46984
5480260,0.00500,90.3750,142,66,0.55189
5480270,0.00000,90.0000,142,66,0.58877
5480280,-0.00500,89.6875,142,66,0.61758
5480290,0.00000,89.5000,142,66,0.64078
5480300,0.02000,89.0000,142,66,0.68303
5480310,0.04500,88.7500,142,66,0.69988
5480320,0.07000,88.3750,142,66,0.71306
5480330,0.09000,87.3750,142,66,0.73016
5480340,0.09000,86.8125,142,66,0.73455
5480350,0.06667,86.1979,142,66,0.73651
5480360,0.02000,85.5625,142,66,0.73626
5480370,-0.05000,84.9375,142,66,0.73407
5480380,-0.12500,83.5625,142,66,0.72527
5480390,-0.17000,82.8125,142,66,0.71966
5480400,-0.20000,82.0000,142,66,0.71306
5480410,-0.21500,81.2500,142,66,0.70549
5480420,-0.22500,79.6875,142,66,0.68694
5480430,-0.22500,78.9375,142,66,0.67570
5480440,-0.22000,78.2500,142,66,0.66276
5480450,-0.21000,77.5625,142,66,0.64786
5480460,-0.20000,76.3750,142,66,0.61392
5480470,-0.19000,75.8125,142,66,0.59560
5480480,-0.19000,75.2500,142,66,0.57900
5480490,0.01000,74.6875,142,66,0.56361
5480500,0.55000,73.6250,142,66,0.53138
5480510,0.99500,73.1250,142,66,0.51648
5480520,0.69000,72.5625,142,66,0.50281
5480530,-0.01500,72.0000,142,66,0.49060
5480540,-0.42500,70.8750,142,66,0.47082
5480550,-0.50000,70.3125,142,66,0.46252
5480560,-0.38500,69.7500,142,66,0.45495
5480570,-0.28500,69.2500,142,66,0.44811
5480580,-0.25000,68.3750,142,66,0.43712
5480590,-0.23000,67.9375,142,66,0.43126
5480600,-0.21000,67.5625,142,66,0.42515
5480610,-0.20000,66.7500,142,66,0.41880
5480620,-0.20000,66.3750,142,66,0.40562
5480630,-0.19500,66.0000,142,66,0.39927
5480640,-0.18000,65.7500,142,66,0.39292
5480650,-0.15500,65.6250,142,66,0.38681
5480660,-0.12500,66.6875,142,66,0.37436
5480670,-0.10500,68.7500,142,66,0.36825
5480680,-0.10000,72.5000,142,66,0.36313
5480690,-0.09500,78.0625,142,66,0.35849
5480700,-0.09000,92.6875,142,66,0.34750
5480710,-0.08500,100.7500,142,66,0.34188
5480720,-0.08000,108.8125,142,66,0.33651
5480730,-0.06500,116.3750,142,66,0.33114
5480740,-0.05000,129.1250,142,66,0.32063
5480750,-0.03500,133.8750,142,66,0.31600
5480760,-0.01500,137.4375,142,66,0.31160
5480770,-0.00500,139.8125,142,66,0.30720
5480780,0.00500,141.5625,142,66,0.30159
5480790,0.01000,141.2500,142,66,0.29841
5480800,0.01500,140.4375,142,66,0.29475
5480810,0.02000,139.1875,142,66,0.29084
5480820,0.02000,136.0625,142,66,0.28303
5480830,0.03500,134.2500,142,66,0.27912
5480840,0.05000,132.4375,142,66,0.27570
5480850,0.06000,130.6250,142,66,0.27253
5480860,0.06750,127.0625,142,66,0.26642
5480870,0.06500,125.3750,142,66,0.26496
5480880,0.04500,123.7500,142,66,0.26398
5480890,0.02000,122.1875,142,66,0.26203
5480900,0.00500,118.8750,142,66,0.25714
5480910,-0.00500,116.8750,142,66,0.25543
5480920,0.00000,114.5625,142,66,0.25519
5480930,0.02000,111.7500,142,66,0.25812
5480940,0.04500,104.7500,142,66,0.28010
5480950,0.06000,101.0000,142,66,0.30110
5480960,0.07000,97.5625,142,66,0.32943
5480970,0.07500,94.6875,142,66,0.36386
5480980,0.07500,90.7500,142,66,0.43077
5480990,0.06000,89.5625,142,66,0.46911
5481000,0.04500,88.6875,142,66,0.50818
5481010,0.02500,88.1250,142,66,0.54579
5481020,0.02000,87.3750,142,66,0.61001
5481030,0.03000,87.1250,142,66,0.63541
5481040,0.05000,86.8125,142,66,0.65665
5481050,0.07500,86.5000,142,66,0.67399
5481060,0.12000,85.6875,142,66,0.69768
5481070,0.14000,85.1875,142,66,0.70354
5481080,0.14500,84.6875,142,66,0.70623
5481090,0.13000,83.5000,142,66,0.70794
5481100,0.08000,82.8750,142,66,0.70720
5481110,0.01000,82.3125,142,66,0.70452
5481120,-0.04500,81.6875,142,66,0.70085
5481130,-0.08500,81.0625,142,66,0.69597
5481140,-0.11500,79.8125,142,66,0.68327
5481150,-0.13500,79.1875,142,66,0.67546
5481160,-0.13500,78.5625,142,66,0.66618
5481170,-0.13500,78.0000,142,66,0.65592
5481180,-0.12500,76.9375,142,66,0.63419
5481190,-0.12500,76.5000,142,66,0.62076
5481200,-0.12500,76.0000,142,66,0.60586
5481210,-0.14000,75.5625,142,66,0.58950
5481220,-0.13500,74.7500,142,66,0.55482
5481230,0.12000,74.3125,142,66,0.53748
5481240,0.69000,73.8750,142,66,0.52088
5481250,1.00000,73.3750,142,66,0.50525
5481260,0.55500,72.2500,142,66,0.47814
5481270,-0.15000,71.6875,142,66,0.46789
5481280,-0.51000,71.1250,142,66,0.45910
5481290,-0.51500,70.5000,142,66,0.45055
5481300,-0.37500,69.5000,142,66,0.43516
5481310,-0.26000,69.0000,142,66,0.42833
5481320,-0.20000,68.5000,142,66,0.42173
5481330,-0.14500,68.1250,142,66,0.41538
5481340,-0.09500,67.3750,142,66,0.40293
5481350,-0.07500,67.0000,142,66,0.39683
5481360,-0.07000,66.6875,142,66,0.39072
5481370,-0.08000,66.3750,142,66,0.38486
5481380,-0.09083,66.2083,142,66,0.37790
5481390,-0.10500,66.5000,142,66,0.37118
5481400,-0.12500,67.5625,142,66,0.36606
5481410,-0.15500,69.8125,142,66,0.36093
5481420,-0.18000,79.4375,142,66,0.35067
5481430,-0.19000,86.5000,142,66,0.34554
5481440,-0.18500,94.3125,142,66,0.34042
5481450,-0.16000,102.5000,142,66,0.33578
5481460,-0.12500,118.1250,142,66,0.32723
5481470,-0.09000,125.0625,142,66,0.32430
5481480,-0.04500,131.0000,142,66,0.32186
5481490,-0.00500,135.8750,142,66,0.31893
5481500,0.02000,142.0625,142,66,0.31209
5481510,0.04000,143.5625,142,66,0.30891
5481520,0.05000,144.1875,142,66,0.30549
5481530,0.04000,143.6875,142,66,0.30208
5481540,0.03000,142.7500,142,66,0.29524
5481550,0.02000,141.5000,142,66,0.29182
5481560,0.01500,140.0000,142,66,0.28840
5481570,0.01500,138.3750,142,66,0.28498
5481580,0.02000,135.0625,142,66,0.28132
5481590,0.02500,133.3750,142,66,0.27912
5481600,0.02000,131.7500,142,66,0.27643
5481610,-0.00500,130.1875,142,66,0.27375
5481620,-0.03500,127.1250,142,66,0.26886
5481630,-0.06500,125.5625,142,66,0.26642
5481640,-0.08000,123.8750,142,66,0.26422
5481650,-0.08000,121.9375,142,66,0.26276
5481660,-0.06500,116.8125,142,66,0.26789
5481670,-0.04000,113.5625,142,66,0.27546
5481680,-0.01000,109.8750,142,66,0.28767
5481690,0.01000,106.0625,142,66,0.30720
5481700,0.02500,99.4375,142,66,0.36654
5481710,0.03000,96.9375,142,66,0.40415
5481720,0.03000,95.0000,142,66,0.44469
5481730,0.02000,93.5625,142,66,0.48571
5481740,0.00500,91.7500,142,66,0.56239
5481750,-0.00500,91.2500,142,66,0.59585
5481760,0.00000,90.8750,142,66,0.62515
5481770,0.02000,90.5625,142,66,0.65031
5481780,0.06000,89.9375,142,66,0.68816
5481790,0.11500,89.5625,142,66,0.70305
5481800,0.17500,89.1875,142,66,0.71502
5481810,0.19000,88.6875,142,66,0.72405
5481820,0.19500,87.6875,142,66,0.73407
5481830,0.16500,87.1250,142,66,0.73553
5481840,0.10000,86.5000,142,66,0.73529
5481850,0.04000,85.9375,142,66,0.73358
5481860,-0.00500,84.6875,142,66,0.72650
5481870,-0.03500,84.0625,142,66,0.72137
5481880,-0.05000,83.3750,142,66,0.71526
5481890,-0.05500,82.7500,142,66,0.70867
5481900,-0.06000,81.5000,142,66,0.69182
5481910,-0.06500,80.8750,142,66,0.68132
5481920,-0.05500,80.3125,142,66,0.66935
5481930,-0.04500,79.8125,142,66,0.65543
5481940,-0.03500,78.8125,142,66,0.62344
5481950,-0.03500,78.3750,142,66,0.60586
5481960,0.09500,77.9375,142,66,0.58779
5481970,0.54500,77.5625,142,66,0.56996
5481980,1.11500,76.5625,142,66,0.54090
5481990,1.05500,76.0625,142,66,0.52723
5482000,0.37000,75.5000,142,66,0.51429
5482010,-0.19000,75.0000,142,66,0.50208
5482020,-0.37500,74.0000,142,66,0.48156
5482030,-0.31500,73.5625,142,66,0.47277
5482040,-0.21500,73.0625,142,66,0.46471
5482050,-0.19000,72.6250,142,66,0.45714
5482060,-0.19000,71.8750,142,66,0.44322
5482070,-0.19000,71.5000,142,66,0.43761
5482080,-0.19000,71.1250,142,66,0.43248
5482090,-0.18500,70.8125,142,66,0.42662
5482100,-0.17500,70.1875,142,66,0.41441
5482110,-0.17000,70.0625,142,66,0.40855
5482120,-0.17000,70.1875,142,66,0.40269
5482130,-0.16000,70.6875,142,66,0.39707
5482140,-0.15500,75.1250,142,66,0.38535
5482150,-0.15000,79.9375,142,66,0.37949
5482160,-0.14000,86.4375,142,66,0.37363
5482170,-0.12500,94.1875,142,66,0.36825
5482180,-0.10500,111.0000,142,66,0.36117
5482190,-0.09500,119.1875,142,66,0.35726
5482200,-0.07500,126.6875,142,66,0.35336
5482210,-0.06000,133.3125,142,66,0.34945
5482220,-0.04500,143.1875,142,66,0.34164
5482230,-0.02500,146.3125,142,66,0.33773
5482240,-0.01500,148.2500,142,66,0.33407
5482250,-0.00500,149.2500,142,66,0.33016
5482260,-0.00500,148.8125,142,66,0.32283
5482270,-0.01000,147.8125,142,66,0.32039
5482280,-0.01500,146.5625,142,66,0.31819
5482290,-0.01500,145.0000,142,66,0.31526
5482300,-0.01000,141.7500,142,66,0.30891
5482310,-0.00500,140.0625,142,66,0.30598
5482320,0.00000,138.4375,142,66,0.30305
5482330,0.01000,136.8750,142,66,0.30037
5482340,0.00000,133.8750,142,66,0.29548
5482350,-0.02000,132.5000,142,66,0.29304
5482360,-0.04500,131.0625,142,66,0.29035
5482370,-0.07000,129.6250,142,66,0.28767
5482380,-0.08500,126.1875,142,66,0.28645
5482390,-0.09500,123.8750,142,66,0.28840
5482400,-0.09500,121.7604,142,66,0.29007
5482410,-0.09000,117.7500,142,66,0.30525
5482420,-0.08500,109.7500,142,66,0.34774
5482430,-0.07500,105.8750,142,66,0.37875
5482440,-0.06500,102.5000,142,66,0.41514
5482450,-0.06500,99.7500,142,66,0.45519
5482460,-0.06500,96.0625,142,66,0.53724
5482470,-0.06000,94.8750,142,66,0.57094
5482480,-0.05000,94.0625,142,66,0.59951
5482490,-0.03500,93.5625,142,66,0.62833
5482500,-0.01500,92.9375,142,66,0.67863
5482510,0.01000,92.6875,142,66,0.69841
5482520,0.04000,92.3750,142,66,0.71477
5482530,0.05000,91.5625,142,66,0.72772
5482540,0.04000,91.1250,142,66,0.74432
5482550,0.02000,90.6250,142,66,0.74847
5482560,-0.03000,90.1250,142,66,0.75043
5482570,-0.10000,89.5625,142,66,0.75043
5482580,-0.15500,88.2500,142,66,0.74408
5482590,-0.18500,87.5625,142,66,0.73993
5482600,-0.20000,86.8750,142,66,0.73529
5482610,-0.20500,86.1250,142,66,0.72991
5482620,-0.20500,84.7500,142,66,0.71746
5482630,-0.20000,84.0625,142,66,0.70989
5482640,-0.19500,83.4375,142,66,0.70085
5482650,-0.19000,82.8125,142,66,0.69035
5482660,-0.18500,81.6875,142,66,0.66349
5482670,-0.19000,81.1250,142,66,0.64908
5482680,-0.13500,80.5625,142,66,0.63419
5482690,0.18500,79.9375,142,66,0.61709
5482700,0.77500,78.7500,142,66,0.57998
5482710,1.01000,78.1875,142,66,0.56166
5482720,0.52000,77.5000,142,66,0.54432
5482730,-0.13500,76.8750,142,66,0.52845
5482740,-0.45000,75.6250,142,66,0.50183
5482750,-0.45000,75.0000,142,66,0.49084
5482760,-0.34500,74.3750,142,66,0.48107
5482770,-0.29000,73.8125,142,66,0.47326
5482780,-0.27000,72.7500,142,66,0.46007
5482790,-0.26000,72.3125,142,66,0.45372
5482800,-0.25000,71.8125,142,66,0.44713
5482810,-0.24000,71.3125,142,66,0.44054
5482820,-0.22000,70.3750,142,66,0.42735
5482830,-0.21500,70.0625,142,66,0.42076
5482840,-0.20500,69.9375,142,66,0.41416
5482850,-0.20000,70.0625,142,66,0.40757
5482860,-0.19000,72.6250,142,66,0.39463
5482870,-0.17500,76.2500,142,66,0.38950
5482880,-0.16000,81.7500,142,66,0.38486
5482890,-0.14500,88.7500,142,66,0.37973
5482900,-0.13000,105.0000,142,66,0.36923
5482910,-0.11500,113.3125,142,66,0.36435
5482920,-0.09500,121.1875,142,66,0.35946
5482930,-0.07500,128.3125,142,66,0.35482
5482940,-0.06000,139.4375,142,66,0.34579
5482950,-0.04000,143.1875,142,66,0.34115
5482960,-0.02500,145.7500,142,66,0.33675
5482970,-0.01000,147.2500,142,66,0.33358
5482980,-0.00500,147.6875,142,66,0.32650
5482990,-0.00500,147.0000,142,66,0.32234
5483000,-0.00500,145.8750,142,66,0.31819
5483010,-0.00500,144.5000,142,66,0.31429
5483020,-0.00500,141.2500,142,66,0.30696
5483030,0.00000,139.5000,142,66,0.30330
5483040,0.01000,137.7500,142,66,0.29988
5483050,0.01500,136.0000,142,66,0.29670
5483060,0.01000,132.8125,142,66,0.28962
5483070,-0.00500,131.2500,142,66,0.28694
5483080,-0.02500,129.7500,142,66,0.28498
5483090,-0.04500,128.1875,142,66,0.28230
5483100,-0.06000,124.6875,142,66,0.27692
5483110,-0.06000,122.5000,142,66,0.27595
5483120,-0.05500,119.8750,142,66,0.27814
5483130,-0.04500,116.7500,142,66,0.28498
5483140,-0.03500,109.1250,142,66,0.31795
5483150,-0.02500,105.2500,142,66,0.34505
5483160,-0.01500,101.7500,142,66,0.37827
5483170,-0.01500,98.8750,142,66,0.41074
5483180,-0.01000,95.0000,142,66,0.48034
5483190,-0.01000,93.7500,142,66,0.51868
5483200,-0.01500,92.8750,142,66,0.55580
5483210,-0.00500,92.2500,142,66,0.58974
5483220,0.01000,91.5000,142,66,0.64567
5483230,0.03000,91.2500,142,66,0.66764
5483240,0.06000,91.0000,142,66,0.68547
5483250,0.09000,90.6875,142,66,0.69988
5483260,0.10000,90.0000,142,66,0.71819
5483270,0.09000,89.5000,142,66,0.72210
5483280,0.05500,88.9375,142,66,0.72332
5483290,-0.00500,88.3750,142,66,0.72381
5483300,-0.07500,87.0625,142,66,0.72112
5483310,-0.12500,86.3125,142,66,0.71795
5483320,-0.15000,85.5625,142,66,0.71355
5483330,-0.15500,84.8125,142,66,0.70842
5483340,-0.15500,83.2500,142,66,0.69597
5483350,-0.15000,82.5625,142,66,0.68840
5483360,-0.14500,81.8750,142,66,0.67961
5483370,-0.14000,81.2500,142,66,0.67009
5483380,-0.13500,80.1250,142,66,0.64689
5483390,-0.13500,79.6875,142,66,0.63223
5483400,-0.14500,79.1875,142,66,0.61612
5483410,-0.04000,78.7500,142,66,0.59853
5483420,0.34000,78.0938,142,66,0.57480
5483430,0.85334,77.3438,142,66,0.54926
5483440,1.03000,76.6250,142,66,0.52625
5483450,0.40000,76.0625,142,66,0.51013
5483460,-0.22000,74.8750,142,66,0.48254
5483470,-0.43500,74.3125,142,66,0.47228
5483480,-0.38000,73.6875,142,66,0.46398
5483490,-0.27000,73.1250,142,66,0.45592
5483500,-0.23500,72.0625,142,66,0.44103
5483510,-0.23000,71.5625,142,66,0.43443
5483520,-0.21000,71.1250,142,66,0.42808
5483530,-0.20500,70.1875,142,66,0.42198
5483540,-0.20000,69.6875,142,66,0.40977
5483550,-0.19500,69.3125,142,66,0.40391
5483560,-0.19000,69.0000,142,66,0.39805
5483570,-0.18000,68.8750,142,66,0.39316
5483580,-0.17000,70.0625,142,66,0.38291
5483590,-0.16000,72.4375,142,66,0.37705
5483600,-0.15500,76.5625,142,66,0.37094
5483610,-0.14500,82.6250,142,66,0.36532
5483620,-0.13500,98.3750,142,66,0.35458
5483630,-0.12000,107.0000,142,66,0.34969
5483640,-0.10000,115.5000,142,66,0.34481
5483650,-0.07500,123.4375,142,66,0.34017
5483660,-0.05500,136.6250,142,66,0.33114
5483670,-0.03500,141.3750,142,66,0.32796
5483680,-0.01500,144.9375,142,66,0.32527
5483690,0.00000,147.3125,142,66,0.32210
5483700,0.01500,149.2500,142,66,0.31477
5483710,0.02000,149.1875,142,66,0.31087
5483720,0.02000,148.5625,142,66,0.30672
5483730,0.01000,147.6250,142,66,0.30232
5483740,0.01000,144.9375,142,66,0.29426
5483750,0.01000,143.3125,142,66,0.29060
5483760,0.01500,141.5625,142,66,0.28718
5483770,0.02000,139.8125,142,66,0.28498
5483780,0.03000,136.3750,142,66,0.28156
5483790,0.03000,134.7500,142,66,0.27912
5483800,0.02000,133.1250,142,66,0.27643
5483810,-0.00500,131.5625,142,66,0.27350
5483820,-0.02500,128.3750,142,66,0.26325
5483830,-0.04500,126.5625,142,66,0.25543
5483840,-0.05500,124.5000,142,66,0.25275
5483850,-0.05000,121.9375,142,66,0.25519
5483860,-0.04500,115.2500,142,66,0.27912
5483870,-0.04000,111.2500,142,66,0.29841
5483880,-0.03000,107.1875,142,66,0.32234
5483890,-0.02500,103.5000,142,66,0.35482
5483900,-0.02500,98.0625,142,66,0.43541
5483910,-0.01500,96.2500,142,66,0.47863
5483920,-0.01500,94.8750,142,66,0.52088
5483930,-0.01000,93.3750,142,66,0.59634
5483940,0.00000,93.0625,142,66,0.62808
5483950,0.01000,92.8125,142,66,0.65519
5483960,0.03000,92.5625,142,66,0.67790
5483970,0.06500,92.3750,142,66,0.69402
5483980,0.10000,91.7500,142,66,0.71575
5483990,0.10000,91.3125,142,66,0.72430
5484000,0.10000,90.8125,142,66,0.73065
5484010,0.06500,90.1250,142,66,0.73455
5484020,0.00000,88.6875,142,66,0.73602
5484030,-0.07500,87.8125,142,66,0.73431
5484040,-0.11000,87.0000,142,66,0.73114
5484050,-0.14000,86.1875,142,66,0.72650
5484060,-0.15500,84.6250,142,66,0.71477
5484070,-0.15500,83.8750,142,66,0.70794
5484080,-0.15500,83.1250,142,66,0.70012
5484090,-0.15000,82.5000,142,66,0.69158
5484100,-0.14500,81.1875,142,66,0.66984
5484110,-0.13500,80.6875,142,66,0.65617
5484120,-0.12500,80.1250,142,66,0.64078
5484130,-0.12500,79.6875,142,66,0.62369
5484140,0.03000,78.7500,142,66,0.58535
5484150,0.52500,78.2500,142,66,0.56532
5484160,1.09000,77.6875,142,66,0.54579
5484170,0.94000,77.1875,142,66,0.52894
5484180,0.20500,76.0625,142,66,0.49915
5484190,-0.32000,75.5000,142,66,0.48547
5484200,-0.44000,74.8750,142,66,0.47326
5484210,-0.33500,74.3125,142,66,0.46252
5484220,-0.24500,73.2500,142,66,0.44518
5484230,-0.23000,72.7500,142,66,0.43785
5484240,-0.22500,72.1875,142,66,0.43126
5484250,-0.22000,71.6875,142,66,0.42466
5484260,-0.21000,70.6875,142,66,0.41172
5484270,-0.20500,70.1875,142,66,0.40586
5484280,-0.20000,69.8125,142,66,0.40049
5484290,-0.19000,69.5000,142,66,0.39414
5484300,-0.18000,69.6250,142,66,0.38022
5484310,-0.17000,70.6875,142,66,0.37314
5484320,-0.15500,73.1875,142,66,0.36630
5484330,-0.15500,77.6875,142,66,0.35946
5484340,-0.14500,91.8750,142,66,0.34652
5484350,-0.14500,100.4375,142,66,0.34066
5484360,-0.13500,109.2500,142,66,0.33529
5484370,-0.11500,117.8125,142,66,0.33114
5484380,-0.09500,132.6875,142,66,0.32332
5484390,-0.07500,138.5000,142,66,0.31893
5484400,-0.05500,143.1250,142,66,0.31429
5484410,-0.04500,146.4375,142,66,0.30989
5484420,-0.03500,149.8125,142,66,0.30183
5484430,-0.04500,150.2500,142,66,0.29792
5484440,-0.04500,150.1250,142,66,0.29402
5484450,-0.05167,148.9583,142,66,0.28836
5484460,-0.06000,147.3750,142,66,0.28327
5484470,-0.06500,146.0000,142,66,0.28107
5484480,-0.06000,144.5625,142,66,0.27839
5484490,-0.05500,143.0000,142,66,0.27521
5484500,-0.05500,139.9375,142,66,0.26862
5484510,-0.06000,138.4375,142,66,0.26545
5484520,-0.08500,136.8750,142,66,0.26203
5484530,-0.12000,135.3750,142,66,0.25861
5484540,-0.15500,132.1875,142,66,0.25153
5484550,-0.18500,130.3750,142,66,0.24835
5484560,-0.20000,128.3750,142,66,0.24640
5484570,-0.20000,126.0000,142,66,0.24689
5484580,-0.18500,119.6250,142,66,0.25885
5484590,-0.15500,115.7500,142,66,0.27350
5484600,-0.11500,111.5625,142,66,0.29573
5484610,-0.08500,107.5000,142,66,0.32552
5484620,-0.06500,100.5625,142,66,0.40342
5484630,-0.05000,97.9375,142,66,0.44737
5484640,-0.05500,95.9375,142,66,0.49158
5484650,-0.06500,94.5000,142,66,0.53431
5484660,-0.06500,92.7500,142,66,0.60513
5484670,-0.05000,92.2500,142,66,0.63028
5484680,-0.02500,91.9375,142,66,0.65495
5484690,0.00000,91.6875,142,66,0.67717
5484700,0.03500,91.0000,142,66,0.71184
5484710,0.07000,90.5625,142,66,0.72430
5484720,0.09500,90.0000,142,66,0.73382
5484730,0.09000,89.3750,142,66,0.74042
5484740,0.07000,88.0000,142,66,0.74652
5484750,0.01000,87.2500,142,66,0.74652
5484760,-0.04500,86.5000,142,66,0.74505
5484770,-0.08500,85.7500,142,66,0.74139
5484780,-0.11000,84.2500,142,66,0.73114
5484790,-0.12500,83.5000,142,66,0.72503
5484800,-0.13000,82.8125,142,66,0.71819
5484810,-0.13000,82.1250,142,66,0.70989
5484820,-0.12000,80.8125,142,66,0.68913
5484830,-0.10500,80.1875,142,66,0.67619
5484840,-0.08000,79.6250,142,66,0.66129
5484850,-0.07500,79.1250,142,66,0.64444
5484860,-0.08000,78.0000,142,66,0.60781
5484870,0.13500,77.5000,142,66,0.58999
5484880,0.70000,77.0000,142,66,0.57045
5484890,1.20000,76.5000,142,66,0.55043
5484900,0.93500,75.5000,142,66,0.51233
5484910,0.10500,74.9375,142,66,0.49524
5484920,-0.40000,74.3125,142,66,0.48010
5484930,-0.43500,73.6875,142,66,0.46667
5484940,-0.30000,72.5000,142,66,0.44469
5484950,-0.20500,71.9375,142,66,0.43541
5484960,-0.18500,71.4375,142,66,0.42686
5484970,-0.17000,70.3750,142,66,0.42002
5484980,-0.15500,69.8750,142,66,0.40708
5484990,-0.14500,69.4375,142,66,0.40000
5485000,-0.14000,68.9375,142,66,0.39267
5485010,-0.13500,68.5000,142,66,0.38535
5485020,-0.11500,67.9375,142,66,0.37118
5485030,-0.10500,68.0625,142,66,0.36410
5485040,-0.09000,68.9375,142,66,0.35726
5485050,-0.08500,71.1250,142,66,0.35067
5485060,-0.08500,81.4375,142,66,0.33944
5485070,-0.08500,89.1875,142,66,0.33553
5485080,-0.07500,97.9375,142,66,0.33065
5485090,-0.06500,106.9375,142,66,0.32552
5485100,-0.05000,123.8750,142,66,0.31502
5485110,-0.03500,131.1250,142,66,0.30989
5485120,-0.01500,137.1875,142,66,0.30501
5485130,0.01000,142.0000,142,66,0.30012
5485140,0.04000,147.6875,142,66,0.29133
5485150,0.07000,148.9375,142,66,0.28718
5485160,0.08500,149.3125,142,66,0.28303
5485170,0.09000,148.4375,142,66,0.28034
5485180,0.09500,147.5000,142,66,0.27497
5485190,0.09500,146.3125,142,66,0.27155
5485200,0.09000,145.0000,142,66,0.26813
5485210,0.09000,143.5625,142,66,0.26471
5485220,0.09000,140.5000,142,66,0.25763
5485230,0.09000,138.8750,142,66,0.25446
5485240,0.08000,137.2500,142,66,0.25153
5485250,0.05500,135.6250,142,66,0.24860
5485260,0.03000,132.3750,142,66,0.24371
5485270,0.01000,130.7500,142,66,0.24225
5485280,-0.00500,128.9375,142,66,0.23980
5485290,-0.00500,126.9375,142,66,0.23761
5485300,0.01000,121.8750,142,66,0.23883
5485310,0.03000,118.5625,142,66,0.24567
5485320,0.05500,114.7500,142,66,0.25910
5485330,0.06000,110.6875,142,66,0.28083
5485340,0.06000,103.1250,142,66,0.34823
5485350,0.04500,100.0625,142,66,0.39096
5485360,0.03000,97.5625,142,66,0.43687
5485370,0.02000,95.6875,142,66,0.47766
5485380,0.02000,93.3750,142,66,0.55287
5485390,0.03500,92.7500,142,66,0.59023
5485400,0.06500,92.3125,142,66,0.62418
5485410,0.09500,92.0625,142,66,0.65397
5485420,0.13000,91.5000,142,66,0.70012
5485430,0.16500,91.1875,142,66,0.71697
5485440,0.18500,90.7500,142,66,0.73040
5485450,0.19000,90.2500,142,66,0.74066
5485460,0.17500,89.0000,142,66,0.75116
5485470,0.13300,88.2813,142,66,0.75529
5485480,0.07950,87.6875,142,66,0.75436
5485490,0.03000,86.8125,142,66,0.74969
5485500,0.00000,85.2500,142,66,0.74261
5485510,-0.01500,84.5000,142,66,0.73700
5485520,-0.03000,83.6875,142,66,0.73040
5485530,-0.04500,82.9375,142,66,0.72308
5485540,-0.05000,81.6250,142,66,0.70427
5485550,-0.05000,81.0000,142,66,0.69280
5485560,-0.03500,80.4375,142,66,0.67937
5485570,-0.01500,79.8750,142,66,0.66569
5485580,-0.01500,78.9375,142,66,0.63370
5485590,0.02000,78.4375,142,66,0.61465
5485600,0.33000,77.9375,142,66,0.59438
5485610,0.95000,77.5000,142,66,0.57363
5485620,1.22500,76.5000,142,66,0.53309
5485630,0.70000,75.9375,142,66,0.51453
5485640,-0.03500,75.3125,142,66,0.49792
5485650,-0.37000,74.6875,142,66,0.48327
5485660,-0.34000,73.5000,142,66,0.46007
5485670,-0.20500,72.8750,142,66,0.45177
5485680,-0.13500,72.3750,142,66,0.44347
5485690,-0.12000,71.8125,142,66,0.43565
5485700,-0.10500,70.8125,142,66,0.42125
5485710,-0.09000,70.3125,142,66,0.41392
5485720,-0.08500,69.8750,142,66,0.40684
5485730,-0.08500,69.4375,142,66,0.39976
5485740,-0.08500,68.7500,142,66,0.38535
5485750,-0.07000,68.6250,142,66,0.37802
5485760,-0.05500,69.0000,142,66,0.37070
5485770,-0.05000,70.2500,142,66,0.36484
5485780,-0.05000,77.9375,142,66,0.35360
5485790,-0.05500,84.6875,142,66,0.34725
5485800,-0.06500,92.8125,142,66,0.34115
5485810,-0.06500,101.5625,142,66,0.33529
5485820,-0.06500,118.8750,142,66,0.32454
5485830,-0.05000,126.6250,142,66,0.31966
5485840,-0.03500,133.3125,142,66,0.31502
5485850,-0.01000,142.8750,142,66,0.30647
5485860,0.01000,145.6875,142,66,0.30354
5485870,0.03000,147.4375,142,66,0.30403
5485880,0.05000,148.3125,142,66,0.30549
5485890,0.06000,148.3750,142,66,0.30427
5485900,0.05500,147.1250,142,66,0.29841
5485910,0.05000,146.0000,142,66,0.29499
5485920,0.05000,144.7500,142,66,0.29133
5485930,0.05500,143.2500,142,66,0.28767
5485940,0.06000,140.1250,142,66,0.28059
5485950,0.06000,138.5625,142,66,0.27766
5485960,0.06000,136.9375,142,66,0.27497
5485970,0.05000,135.3125,142,66,0.27326
5485980,0.03000,132.2500,142,66,0.26960
5485990,0.01000,130.6875,142,66,0.26691
5486000,-0.01500,129.0000,143,67,0.26374
5486010,-0.03500,127.1875,143,67,0.26056
5486020,-0.04000,122.4375,143,67,0.25836
5486030,-0.03500,119.3125,143,67,0.26227
5486040,-0.03000,115.5625,143,67,0.27204
5486050,-0.01500,111.4375,143,67,0.28889
5486060,-0.00500,103.2500,143,67,0.34042
5486070,0.00000,99.9375,143,67,0.37070
5486080,0.00500,97.3125,143,67,0.40855
5486090,0.00000,95.3750,143,67,0.45055
5486100,-0.00500,93.1250,143,67,0.53578
5486110,-0.00500,92.5625,143,67,0.57509
5486120,-0.00500,92.1875,143,67,0.61099
5486130,0.01000,92.0000,143,67,0.64249
5486140,0.03000,91.6875,143,67,0.69206
5486150,0.06000,91.3750,143,67,0.71013
5486160,0.08500,91.0000,143,67,0.72454
5486170,0.09500,90.5000,143,67,0.73333
5486180,0.09000,89.2500,143,67,0.74286
5486190,0.07000,88.5625,143,67,0.74530
5486200,0.00500,87.8125,143,67,0.74603
5486210,-0.06000,87.0000,143,67,0.74505
5486220,-0.11500,85.5000,143,67,0.73871
5486230,-0.14500,84.7500,143,67,0.73382
5486240,-0.16000,84.0000,143,67,0.72796
5486250,-0.16000,83.2500,143,67,0.72112
5486260,-0.16500,81.9375,143,67,0.70549
5486270,-0.16500,81.3125,143,67,0.69621
5486280,-0.16000,80.6875,143,67,0.68547
5486290,-0.15500,80.1875,143,67,0.67253
5486300,-0.15000,79.1250,143,67,0.63956
5486310,-0.15500,78.6250,143,67,0.62002
5486320,-0.04000,78.1250,143,67,0.59927
5486330,0.36500,77.6250,143,67,0.57802
5486340,0.94500,76.5625,143,67,0.53700
5486350,0.97500,76.0000,143,67,0.51844
5486360,0.31000,75.3750,143,67,0.50330
5486370,-0.26000,74.7500,143,67,0.49084
5486380,-0.45000,73.5625,143,67,0.46813
5486390,-0.39000,72.9375,143,67,0.45861
5486400,-0.28000,72.3750,143,67,0.45031
5486410,-0.24000,71.8125,143,67,0.44298
5486420,-0.22000,70.8125,143,67,0.42930
5486430,-0.20000,70.3125,143,67,0.42247
5486440,-0.18000,69.8125,143,67,0.41563
5486450,-0.17000,69.3125,143,67,0.40879
5486460,-0.16500,68.5000,143,67,0.39609
5486470,-0.15500,68.3125,143,67,0.39072
5486480,-0.14500,68.2500,143,67,0.38462
5486490,-0.13000,68.6875,143,67,0.37827
5486500,-0.12000,72.1979,143,67,0.36878
5486510,-0.11500,77.7500,143,67,0.35946
5486520,-0.11500,84.3125,143,67,0.35360
5486530,-0.11500,92.1250,143,67,0.34774
5486540,-0.10000,109.0000,143,67,0.33675
5486550,-0.08500,117.1250,143,67,0.33162
5486560,-0.07000,124.5625,143,67,0.32796
5486570,-0.05000,131.0625,143,67,0.32503
5486580,-0.03000,140.5625,143,67,0.31746
5486590,-0.00500,143.4375,143,67,0.31331
5486600,0.01000,145.1875,143,67,0.30965
5486610,0.02000,146.0625,143,67,0.30574
5486620,0.03000,145.6875,143,67,0.29792
5486630,0.02500,144.8750,143,67,0.29402
5486640,0.02000,143.6875,143,67,0.29011
5486650,0.02000,142.3750,143,67,0.28645
5486660,0.02500,139.1875,143,67,0.28034
5486670,0.03000,137.5000,143,67,0.27863
5486680,0.04000,135.7500,143,67,0.27619
5486690,0.03000,134.0000,143,67,0.27350
5486700,0.01500,130.6875,143,67,0.26813
5486710,-0.00500,129.0625,143,67,0.26545
5486720,-0.04000,127.3750,143,67,0.26252
5486730,-0.07500,125.5625,143,67,0.25934
5486740,-0.10000,121.0000,143,67,0.25470
5486750,-0.10500,118.0625,143,67,0.25519
5486760,-0.10000,114.5625,143,67,0.25885
5486770,-0.09000,110.6250,143,67,0.26691
5486780,-0.08000,102.8750,143,67,0.30208
5486790,-0.07000,99.6875,143,67,0.33089
5486800,-0.06500,97.1250,143,67,0.36606
5486810,-0.07000,95.1875,143,67,0.40635
5486820,-0.08500,92.7500,143,67,0.49328
5486830,-0.10000,92.0000,143,67,0.53553
5486840,-0.10500,91.5000,143,67,0.57460
5486850,-0.08500,91.1875,143,67,0.61001
5486860,-0.06000,90.6250,143,67,0.66422
5486870,-0.02500,90.2500,143,67,0.68181
5486880,0.02000,89.8125,143,67,0.69817
5486890,0.05000,89.3125,143,67,0.71209
5486900,0.06500,88.0625,143,67,0.73089
5486910,0.06000,87.3750,143,67,0.73578
5486920,0.02500,86.6250,143,67,0.73822
5486930,-0.03000,85.9375,143,67,0.73871
5486940,-0.08000,84.5000,143,67,0.73407
5486950,-0.11000,83.7500,143,67,0.72991
5486960,-0.12500,83.0625,143,67,0.72454
5486970,-0.13500,82.3750,143,67,0.71819
5486980,-0.13500,81.1250,143,67,0.70305
5486990,-0.13500,80.5000,143,67,0.69353
5487000,-0.13000,79.9375,143,67,0.68254
5487010,-0.12000,79.3750,143,67,0.66984
5487020,-0.11500,78.3750,143,67,0.63858
5487030,-0.11500,77.8750,143,67,0.62002
5487040,-0.08500,77.3750,143,67,0.60024
5487050,0.18000,76.8750,143,67,0.57998
5487060,0.75500,75.8750,143,67,0.54212
5487070,1.12000,75.3125,143,67,0.52650
5487080,0.69500,74.6875,143,67,0.51062
5487090,-0.01500,74.0625,143,67,0.49573
5487100,-0.38500,72.8750,143,67,0.47082
5487110,-0.41500,72.3125,143,67,0.46056
5487120,-0.30000,71.8125,143,67,0.45153
5487130,-0.21500,71.2500,143,67,0.44298
5487140,-0.19000,70.2500,143,67,0.42808
5487150,-0.16000,69.8125,143,67,0.42100
5487160,-0.13000,69.3125,143,67,0.41514
5487170,-0.11000,68.8750,143,67,0.40977
5487180,-0.09500,68.0625,143,67,0.39707
5487190,-0.07500,67.8125,143,67,0.39048
5487200,-0.05000,67.6875,143,67,0.38364
5487210,-0.02500,67.9375,143,67,0.37705
5487220,-0.00500,70.8125,143,67,0.36410
5487230,-0.00500,74.6250,143,67,0.35800
5487240,-0.00500,80.2500,143,67,0.35189
5487250,-0.00500,87.4375,143,67,0.34628
5487260,0.00000,104.1875,143,67,0.33675
5487270,0.01000,112.6250,143,67,0.33333
5487280,0.03000,120.6250,143,67,0.32943
5487290,0.05000,127.7500,143,67,0.32527
5487300,0.07000,138.6875,143,67,0.31697
5487310,0.09000,142.3125,143,67,0.31282
5487320,0.10500,144.8125,143,67,0.30867
5487330,0.11000,146.2500,143,67,0.30452
5487340,0.11000,146.8125,143,67,0.29621
5487350,0.11000,146.2500,143,67,0.29255
5487360,0.09500,145.3125,143,67,0.28987
5487370,0.08500,144.1875,143,67,0.28791
5487380,0.08000,141.3750,143,67,0.28205
5487390,0.08000,139.8125,143,67,0.27888
5487400,0.08500,138.1875,143,67,0.27546
5487410,0.08500,136.6250,143,67,0.27204
5487420,0.07000,133.5625,143,67,0.26569
5487430,0.05000,132.0625,143,67,0.26252
5487440,0.01500,130.5625,143,67,0.25958
5487450,-0.02000,128.9375,143,67,0.25665
5487460,-0.04000,125.0000,143,67,0.25299
5487470,-0.04500,122.4375,143,67,0.25348
5487480,-0.04000,119.2500,143,67,0.25543
5487490,-0.02500,115.5625,143,67,0.26105
5487500,-0.01000,107.3750,143,67,0.29035
5487510,0.00000,103.6250,143,67,0.31575
5487520,0.00250,100.0687,143,67,0.36203
5487530,-0.00000,97.0563,143,67,0.41832
5487540,-0.00500,94.9375,143,67,0.47375
5487550,-0.01000,94.0625,143,67,0.51746
5487560,-0.00500,93.5000,143,67,0.55385
5487570,0.00500,92.9375,143,67,0.58462
5487580,0.02000,92.7500,143,67,0.64518
5487590,0.05000,92.5625,143,67,0.67082
5487600,0.08000,92.2500,143,67,0.69231
5487610,0.09000,91.9375,143,67,0.70965
5487620,0.08500,90.9375,143,67,0.73358
5487630,0.06000,90.3125,143,67,0.74066
5487640,-0.00500,89.6875,143,67,0.74505
5487650,-0.07500,89.0000,143,67,0.74701
5487660,-0.12500,87.5625,143,67,0.74432
5487670,-0.15500,86.8125,143,67,0.74042
5487680,-0.17000,86.0625,143,67,0.73578
5487690,-0.18000,85.3125,143,67,0.73065
5487700,-0.18500,83.8750,143,67,0.71746
5487710,-0.19000,83.1875,143,67,0.70916
5487720,-0.18500,82.5625,143,67,0.69915
5487730,-0.17500,82.0000,143,67,0.68767
5487740,-0.17000,80.8750,143,67,0.65861
5487750,-0.17000,80.3125,143,67,0.64127
5487760,-0.08000,79.7500,143,67,0.62442
5487770,0.28500,79.2500,143,67,0.60757
5487780,0.85500,78.1250,143,67,0.56899
5487790,0.95500,77.5000,143,67,0.54969
5487800,0.34500,76.8750,143,67,0.53114
5487810,-0.25000,76.2500,143,67,0.51429
5487820,-0.47000,75.0000,143,67,0.48596
5487830,-0.43000,74.3750,143,67,0.47473
5487840,-0.32500,73.8125,143,67,0.46496
5487850,-0.28000,73.2500,143,67,0.45641
5487860,-0.26500,72.2500,143,67,0.44274
5487870,-0.25000,71.7500,143,67,0.43736
5487880,-0.24500,71.3125,143,67,0.43126
5487890,-0.23500,70.8125,143,67,0.42491
5487900,-0.23000,70.0000,143,67,0.41172
5487910,-0.22000,69.7500,143,67,0.40488
5487920,-0.21000,69.7500,143,67,0.39780
5487930,-0.20000,70.1875,143,67,0.39072
5487940,-0.19000,74.3750,143,67,0.37705
5487950,-0.18000,79.1250,143,67,0.37045
5487960,-0.17000,85.6250,143,67,0.36532
5487970,-0.16000,93.3125,143,67,0.36093
5487980,-0.15500,110.1875,143,67,0.35067
5487990,-0.13500,118.3750,143,67,0.34554
5488000,-0.11500,125.9375,144,68,0.34042
5488010,-0.09500,132.5000,144,68,0.33529
5488020,-0.07000,142.0625,144,68,0.32601
5488030,-0.04500,145.0000,144,68,0.32137
5488040,-0.02500,146.7500,144,68,0.31697
5488050,-0.00500,147.6250,144,68,0.31258
5488060,-0.00500,147.2500,144,68,0.30501
5488070,-0.00500,146.3125,144,68,0.30256
5488080,-0.01000,145.1250,144,68,0.29915
5488090,-0.00500,143.7500,144,68,0.29548
5488100,-0.00500,140.6250,144,68,0.28791
5488110,0.00000,138.9375,144,68,0.28425
5488120,0.01000,137.2500,144,68,0.28059
5488130,0.01000,135.5625,144,68,0.27717
5488140,0.00000,132.3125,144,68,0.27057
5488150,-0.02000,130.6875,144,68,0.26764
5488160,-0.04500,129.1250,144,68,0.26569
5488170,-0.06000,127.4375,144,68,0.26447
5488180,-0.06000,123.2500,144,68,0.26032
5488190,-0.05000,120.5000,144,68,0.26032
5488200,-0.04000,117.1875,144,68,0.26349
5488210,-0.02500,113.4375,144,68,0.27155
5488220,-0.01500,105.6875,144,68,0.30769
5488230,0.00000,102.3125,144,68,0.33651
5488240,0.01000,99.6250,144,68,0.37143
5488250,0.01000,97.5000,144,68,0.41074
5488260,0.00000,94.7500,144,68,0.48132
5488270,0.00000,94.0000,144,68,0.51868
5488280,0.01500,93.4375,144,68,0.55556
5488290,0.03000,93.0625,144,68,0.58999
5488300,0.05000,92.4375,144,68,0.64640
5488310,0.08500,92.1250,144,68,0.66813
5488320,0.11000,91.7500,144,68,0.68571
5488330,0.10500,91.3750,144,68,0.69939
5488340,0.09000,90.3125,144,68,0.71648
5488350,0.05000,89.6875,144,68,0.72088
5488360,-0.02000,89.0625,144,68,0.72186
5488370,-0.08500,88.3750,144,68,0.72063
5488380,-0.12500,86.9375,144,68,0.71624
5488390,-0.14500,86.1250,144,68,0.71233
5488400,-0.15500,85.3750,144,68,0.70745
5488410,-0.16000,84.6875,144,68,0.70159
5488420,-0.16500,83.3125,144,68,0.68669
5488430,-0.16000,82.6875,144,68,0.67766
5488440,-0.16000,82.1250,144,68,0.66716
5488450,-0.15500,81.5625,144,68,0.65519
5488460,-0.15500,80.3750,144,68,0.62930
5488470,-0.14500,79.8125,144,68,0.61343
5488480,0.06000,79.1875,144,68,0.59585
5488490,0.56500,78.6250,144,68,0.57729
5488500,1.02000,77.3750,144,68,0.53968
5488510,0.79500,76.7500,144,68,0.52186
5488520,0.09500,76.1250,144,68,0.50525
5488530,-0.36000,75.5000,144,68,0.49011
5488540,-0.45000,74.7188,144,68,0.47402
5488550,-0.38333,73.9063,144,68,0.45907
5488560,-0.28000,73.1875,144,68,0.44737
5488570,-0.26000,72.6875,144,68,0.44103
5488580,-0.25000,71.6875,144,68,0.42833
5488590,-0.24000,71.1875,144,68,0.42198
5488600,-0.23500,70.6250,144,68,0.41563
5488610,-0.23500,70.1875,144,68,0.40928
5488620,-0.23000,69.4375,144,68,0.39634
5488630,-0.21000,69.2500,144,68,0.38999
5488640,-0.20000,69.4375,144,68,0.38339
5488650,-0.18500,70.1875,144,68,0.37705
5488660,-0.18000,76.0625,144,68,0.36728
5488670,-0.18000,81.8750,144,68,0.36190
5488680,-0.18500,89.1875,144,68,0.35653
5488690,-0.19000,97.3750,144,68,0.35116
5488700,-0.19500,114.3125,144,68,0.34090
5488710,-0.19500,122.2500,144,68,0.33602
5488720,-0.19500,129.3125,144,68,0.33138
5488730,-0.18500,135.3125,144,68,0.32650
5488740,-0.17000,143.6875,144,68,0.31697
5488750,-0.15500,146.0625,144,68,0.31258
5488760,-0.13500,147.3750,144,68,0.30940
5488770,-0.12500,147.8125,144,68,0.30672
5488780,-0.12500,146.8750,144,68,0.29963
5488790,-0.12000,145.7500,144,68,0.29597
5488800,-0.12500,144.4375,144,68,0.29231
5488810,-0.12000,143.0000,144,68,0.28840
5488820,-0.11000,139.8750,144,68,0.28107
5488830,-0.09500,138.3125,144,68,0.27766
5488840,-0.08000,136.6875,144,68,0.27448
5488850,-0.07500,135.0625,144,68,0.27155
5488860,-0.07500,131.8125,144,68,0.26813
5488870,-0.08000,130.2500,144,68,0.26593
5488880,-0.10000,128.5625,144,68,0.26300
5488890,-0.11500,126.6875,144,68,0.25958
5488900,-0.11500,122.1250,144,68,0.25519
5488910,-0.10000,119.1250,144,68,0.25641
5488920,-0.07500,115.5625,144,68,0.26203
5488930,-0.04500,111.5000,144,68,0.27350
5488940,-0.02000,103.3750,144,68,0.31770
5488950,0.00000,99.9375,144,68,0.34994
5488960,0.01500,97.1875,144,68,0.38217
5488970,0.02000,95.0625,144,68,0.41514
5488980,0.02000,92.4375,144,68,0.49328
5488990,0.02000,91.6875,144,68,0.53211
5489000,0.03500,91.1875,145,68,0.56801
5489010,0.05000,90.8750,145,68,0.60024
5489020,0.07500,90.5000,145,68,0.65201
5489030,0.11500,90.1875,145,68,0.67155
5489040,0.13000,89.8750,145,68,0.68718
5489050,0.13500,89.4375,145,68,0.69915
5489060,0.12000,88.4375,145,68,0.71038
5489070,0.08000,87.8125,145,68,0.71331
5489080,0.01500,87.1875,145,68,0.71477
5489090,-0.04500,86.5000,145,68,0.71453
5489100,-0.07500,85.0000,145,68,0.71038
5489110,-0.09000,84.2500,145,68,0.70647
5489120,-0.09500,83.5000,145,68,0.70159
5489130,-0.10000,82.7500,145,68,0.69573
5489140,-0.10000,81.4375,145,68,0.68083
5489150,-0.10000,80.8125,145,68,0.67131
5489160,-0.09500,80.3125,145,68,0.66154
5489170,-0.08500,79.7500,145,68,0.65079
5489180,-0.08500,78.6875,145,68,0.62222
5489190,-0.05500,78.1875,145,68,0.60488
5489200,0.21000,77.6250,145,68,0.58632
5489210,0.78500,77.0625,145,68,0.56703
5489220,1.13000,75.9375,145,68,0.52845
5489230,0.73500,75.3125,145,68,0.51013
5489240,0.01000,74.6875,145,68,0.49328
5489250,-0.38500,74.0625,145,68,0.47814
5489260,-0.41500,72.8125,145,68,0.45665
5489270,-0.30500,72.2500,145,68,0.44762
5489280,-0.22000,71.6250,145,68,0.43932
5489290,-0.19500,71.0625,145,68,0.43175
5489300,-0.17500,70.0625,145,68,0.41783
5489310,-0.15500,69.5625,145,68,0.41148
5489320,-0.13500,69.0625,145,68,0.40537
5489330,-0.12500,68.6250,145,68,0.39927
5489340,-0.11500,68.0000,145,68,0.38706
5489350,-0.10000,67.9375,145,68,0.38120
5489360,-0.08500,68.2500,145,68,0.37631
5489370,-0.08000,69.3125,145,68,0.37192
5489380,-0.08000,76.3125,145,68,0.36093
5489390,-0.08500,82.6250,145,68,0.35507
5489400,-0.08000,90.3125,145,68,0.34921
5489410,-0.07500,98.7500,145,68,0.34383
5489420,-0.06000,116.0000,145,68,0.33333
5489430,-0.04500,123.8750,145,68,0.32821
5489440,-0.02500,130.8750,145,68,0.32357
5489450,0.00000,136.8125,145,68,0.31917
5489460,0.02000,144.8750,145,68,0.31306
5489470,0.04000,147.1875,145,68,0.30965
5489480,0.05000,148.5000,145,68,0.30574
5489490,0.05500,148.9375,145,68,0.30208
5489500,0.05500,148.1250,145,68,0.29426
5489510,0.05500,147.1250,145,68,0.29060
5489520,0.05000,145.8750,145,68,0.28669
5489530,0.05500,144.4375,145,68,0.28303
5489540,0.06500,141.3125,145,68,0.27595
5489550,0.08000,139.6875,145,68,0.27253
5489560,0.08500,138.0625,145,68,0.27033
5489570,0.07333,135.7083,145,68,0.26752
5489580,0.05000,133.3750,145,68,0.26447
5489590,0.02000,131.8125,145,68,0.26154
5489600,-0.01500,130.1875,145,68,0.25836
5489610,-0.03500,126.3750,145,68,0.25495
5489620,-0.03500,124.0000,145,68,0.25153
5489630,-0.02000,121.0625,145,68,0.25421
5489640,-0.00500,117.5000,145,68,0.26178
5489650,0.01000,113.4375,145,68,0.27570
5489660,0.02000,105.1250,145,68,0.31526
5489670,0.02000,101.6250,145,68,0.34603
5489680,0.02500,98.7500,145,68,0.38315
5489690,0.02000,96.5625,145,68,0.42418
5489700,0.02000,93.7500,145,68,0.50842
5489710,0.03000,92.9375,145,68,0.54823
5489720,0.04000,92.3750,145,68,0.58437
5489730,0.05500,92.0000,145,68,0.61661
5489740,0.08000,91.5000,145,68,0.66813
5489750,0.10500,91.1875,145,68,0.68767
5489760,0.11000,90.8125,145,68,0.70134
5489770,0.10500,90.3750,145,68,0.71062
5489780,0.07500,89.3125,145,68,0.72503
5489790,0.02000,88.6875,145,68,0.72943
5489800,-0.04500,88.0000,145,68,0.73162
5489810,-0.09500,87.2500,145,68,0.73211
5489820,-0.12500,85.8125,145,68,0.72869
5489830,-0.13500,85.0625,145,68,0.72503
5489840,-0.14500,84.3125,145,68,0.72015
5489850,-0.15000,83.6250,145,68,0.71429
5489860,-0.14500,82.2500,145,68,0.69988
5489870,-0.14500,81.6250,145,68,0.69109
5489880,-0.13500,81.0625,145,68,0.68083
5489890,-0.13000,80.5000,145,68,0.66886
5489900,-0.13500,79.3750,145,68,0.63932
5489910,-0.06500,78.8750,145,68,0.62198
5489920,0.29000,78.3125,145,68,0.60342
5489930,0.91000,77.6875,145,68,0.58388
5489940,1.10500,76.5000,145,68,0.54505
5489950,0.49500,75.8750,145,68,0.52845
5489960,-0.18500,75.1875,145,68,0.51380
5489970,-0.46000,74.5625,145,68,0.50134
5489980,-0.42500,73.3125,145,68,0.47937
5489990,-0.30000,72.7500,145,68,0.46911
5490000,-0.23000,72.1875,145,68,0.46007
5490010,-0.20000,71.6250,145,68,0.45177
5490020,-0.17500,70.5625,145,68,0.43687
5490030,-0.15500,70.0625,145,68,0.43004
5490040,-0.13500,69.6250,145,68,0.42344
5490050,-0.11500,69.2500,145,68,0.41709
5490060,-0.09500,68.7500,145,68,0.40635
5490070,-0.07500,68.8750,145,68,0.40049
5490080,-0.05500,69.7500,145,68,0.39390
5490090,-0.05000,71.8750,145,68,0.38730
5490100,-0.06000,81.7500,145,68,0.37387
5490110,-0.07000,89.3125,145,68,0.36728
5490120,-0.07000,97.8750,145,68,0.36093
5490130,-0.06500,106.8125,145,68,0.35482
5490140,-0.05500,123.8750,145,68,0.34383
5490150,-0.04000,131.2500,145,68,0.33993
5490160,-0.01500,137.5000,145,68,0.33651
5490170,0.01000,142.5000,145,68,0.33260
5490180,0.04500,148.6875,145,68,0.32430
5490190,0.08000,150.1875,145,68,0.31990
5490200,0.10000,150.8125,145,68,0.31551
5490210,0.10500,150.8125,145,68,0.31087
5490220,0.10000,149.4375,145,68,0.30183
5490230,0.08500,148.3125,145,68,0.29719
5490240,0.08000,147.0625,145,68,0.29280
5490250,0.07500,144.1250,145,68,0.28864
5490260,0.08000,142.6250,145,68,0.28376
5490270,0.08500,141.1250,145,68,0.28083
5490280,0.08500,139.5625,145,68,0.27790
5490290,0.07000,138.1250,145,68,0.27473
5490300,0.05000,135.1250,145,68,0.26862
5490310,0.02000,133.5625,145,68,0.26545
5490320,-0.00500,131.9375,145,68,0.26203
5490330,-0.03500,130.0625,145,68,0.25910
5490340,-0.04000,125.1250,145,68,0.25910
5490350,-0.02500,121.8125,145,68,0.26422
5490360,-0.00500,118.0000,145,68,0.27375
5490370,0.01000,113.8750,145,68,0.29011
5490380,0.02500,105.8750,145,68,0.34554
5490390,0.03500,102.6250,145,68,0.38364
5490400,0.04000,100.1250,145,68,0.42613
5490410,0.03000,98.1875,145,68,0.47082
5490420,0.01000,95.7500,145,68,0.55751
5490430,0.01000,95.0000,145,68,0.59634
5490440,0.03000,94.5625,145,68,0.63077
5490450,0.04000,94.2500,145,68,0.66056
5490460,0.06500,93.6875,145,68,0.69963
5490470,0.08500,93.3750,145,68,0.71575
5490480,0.09000,93.0000,145,68,0.72967
5490490,0.08500,92.5000,145,68,0.74090
5490500,0.07000,91.3125,145,68,0.75531
5490510,0.02000,90.6875,145,68,0.75873
5490520,-0.03500,89.9375,145,68,0.75971
5490530,-0.08500,89.1875,145,68,0.75873
5490540,-0.10500,87.6250,145,68,0.75287
5490550,-0.12500,86.8125,145,68,0.74799
5490560,-0.13500,86.0625,145,68,0.74212
5490570,-0.14500,85.3125,145,68,0.73578
5490580,-0.14500,83.9375,145,68,0.72039
5490590,-0.14500,83.1875,145,68,0.71216
5490600,-0.13667,82.6875,145,68,0.70347
5490610,-0.13000,82.0625,145,68,0.68669
5490620,-0.13500,80.9375,145,68,0.65421
5490630,0.01000,80.3750,145,68,0.63541
5490640,0.48500,79.8125,145,68,0.61538
5490650,1.05500,79.2500,145,68,0.59487
5490660,0.98000,78.0625,145,68,0.55971
5490670,0.23000,77.4375,145,68,0.54212
5490680,-0.33500,76.8125,145,68,0.52527
5490690,-0.46500,76.1875,145,68,0.51013
5490700,-0.37000,75.0000,145,68,0.48474
5490710,-0.27500,74.4375,145,68,0.47448
5490720,-0.25000,73.9375,145,68,0.46545
5490730,-0.23500,73.4375,145,68,0.45714
5490740,-0.21000,72.4375,145,68,0.44200
5490750,-0.20000,72.0000,145,68,0.43590
5490760,-0.19000,71.5000,145,68,0.43028
5490770,-0.19000,71.1250,145,68,0.42418
5490780,-0.18000,70.8125,145,68,0.41074
5490790,-0.17000,71.3125,145,68,0.40415
5490800,-0.15500,72.8125,145,68,0.39756
5490810,-0.14500,76.1250,145,68,0.39121
5490820,-0.13500,88.7500,145,68,0.37802
5490830,-0.13500,97.3750,145,68,0.37167
5490840,-0.12500,106.6250,145,68,0.36532
5490850,-0.11000,115.8750,145,68,0.35922
5490860,-0.09500,132.5625,145,68,0.35067
5490870,-0.07500,139.3750,145,68,0.34628
5490880,-0.06000,144.8125,145,68,0.34188
5490890,-0.03500,148.9375,145,68,0.33748
5490900,-0.01000,153.4375,145,68,0.32869
5490910,0.01000,154.2500,145,68,0.32430
5490920,0.02500,154.3750,145,68,0.31990
5490930,0.03000,154.0000,145,68,0.31526
5490940,0.03000,152.3125,145,68,0.30647
5490950,0.03000,151.1250,145,68,0.30330
5490960,0.03000,149.8125,145,68,0.30061
5490970,0.02000,148.4375,145,68,0.29744
5490980,0.02500,145.5000,145,68,0.29109
5490990,0.02500,144.0625,145,68,0.28791
5491000,0.02000,142.5625,146,68,0.28498
5491010,0.00500,141.0625,146,68,0.28205
5491020,-0.01500,138.1250,146,68,0.27521
5491030,-0.04500,136.5625,146,68,0.27155
5491040,-0.07000,134.8125,146,68,0.26813
5491050,-0.09000,132.7500,146,68,0.26618
5491060,-0.09500,127.2500,146,68,0.27033
5491070,-0.09500,123.6250,146,68,0.27863
5491080,-0.08000,119.5000,146,68,0.29353
5491090,-0.06500,115.0625,146,68,0.31600
5491100,-0.05500,107.0625,146,68,0.38339
5491110,-0.05500,103.9375,146,68,0.42540
5491120,-0.06000,101.5000,146,68,0.47009
5491130,-0.06500,99.7500,146,68,0.51526
5491140,-0.06000,97.6875,146,68,0.59902
5491150,-0.04500,97.1875,146,68,0.63077
5491160,-0.02500,96.8125,146,68,0.65641
5491170,0.00000,96.6250,146,68,0.68181
5491180,0.03000,96.1250,146,68,0.72405
5491190,0.04500,95.8125,146,68,0.73993
5491200,0.04000,95.3750,146,68,0.75263
5491210,0.02000,94.8750,146,68,0.76215
5491220,-0.02000,93.5000,146,68,0.77338
5491230,-0.08500,92.6875,146,68,0.77558
5491240,-0.14500,91.8125,146,68,0.77558
5491250,-0.18000,90.9375,146,68,0.77387
5491260,-0.20000,89.1875,146,68,0.76508
5491270,-0.21500,88.3125,146,68,0.75922
5491280,-0.22000,87.5000,146,68,0.75287
5491290,-0.21500,86.7500,146,68,0.74603
5491300,-0.21500,85.2500,146,68,0.72943
5491310,-0.20500,84.6250,146,68,0.71917
5491320,-0.19500,84.0000,146,68,0.70696
5491330,-0.20000,83.4375,146,68,0.69255
5491340,-0.16000,82.3125,146,68,0.65690
5491350,0.17500,81.8125,146,68,0.63858
5491360,0.81000,81.3125,146,68,0.62051
5491370,1.06000,80.6875,146,68,0.60049
5491380,0.50500,79.5000,146,68,0.55946
5491390,-0.23000,78.9375,146,68,0.54042
5491400,-0.54000,78.3125,146,68,0.52308
5491410,-0.47500,77.6875,146,68,0.50794
5491420,-0.34500,76.4375,146,68,0.48327
5491430,-0.29000,75.8750,146,68,0.47350
5491440,-0.27000,75.3125,146,68,0.46496
5491450,-0.25000,74.7500,146,68,0.45714
5491460,-0.23500,73.7500,146,68,0.44469
5491470,-0.23000,73.2500,146,68,0.43834
5491480,-0.22500,72.8125,146,68,0.43150
5491490,-0.22000,72.5000,146,68,0.42442
5491500,-0.21500,72.5625,146,68,0.41026
5491510,-0.21000,73.6875,146,68,0.40293
5491520,-0.20500,76.5000,146,68,0.39560
5491530,-0.19000,81.3750,146,68,0.38852
5491540,-0.18000,96.9375,146,68,0.37436
5491550,-0.18000,106.2500,146,68,0.36899
5491560,-0.16500,115.7500,146,68,0.36435
5491570,-0.14500,124.8125,146,68,0.35897
5491580,-0.12500,140.0000,146,68,0.34774
5491590,-0.10000,145.6250,146,68,0.34237
5491600,-0.07000,149.8750,146,68,0.33724
5491610,-0.04500,152.6875,146,68,0.33260
5491620,-0.02416,154.5104,146,68,0.32576
5491630,-0.01000,155.2500,146,68,0.31893
5491640,-0.00500,154.8125,146,68,0.31429
5491650,-0.01500,154.0000,146,68,0.30989
5491660,-0.02500,151.7500,146,68,0.30452
5491670,-0.03500,150.3750,146,68,0.30110
5491680,-0.04500,148.9375,146,68,0.29719
5491690,-0.04500,147.5000,146,68,0.29328
5491700,-0.04500,144.4375,146,68,0.28571
5491710,-0.05500,142.8750,146,68,0.28230
5491720,-0.07000,141.3750,146,68,0.27888
5491730,-0.10500,138.2500,146,68,0.27546
5491740,-0.13500,136.5625,146,68,0.26813
5491750,-0.17000,134.7500,146,68,0.26593
5491760,-0.20500,132.5625,146,68,0.26471
5491770,-0.22500,129.9375,146,68,0.26422
5491780,-0.22500,122.8750,146,68,0.27326
5491790,-0.21000,118.4375,146,68,0.28669
5491800,-0.18000,113.8125,146,68,0.30769
5491810,-0.16000,109.3125,146,68,0.33675
5491820,-0.15000,102.0000,146,68,0.41368
5491830,-0.14500,99.5625,146,68,0.45812
5491840,-0.15500,97.7500,146,68,0.50330
5491850,-0.17000,96.5000,146,68,0.54164
5491860,-0.18000,95.3750,146,68,0.60928
5491870,-0.17000,95.1875,146,68,0.64127
5491880,-0.14500,95.0625,146,68,0.66960
5491890,-0.11500,95.0000,146,68,0.69377
5491900,-0.06500,94.5625,146,68,0.72943
5491910,-0.01500,94.1250,146,68,0.74164
5491920,0.01000,93.6250,146,68,0.75067
5491930,0.02000,92.9375,146,68,0.75678
5491940,0.00500,91.3750,146,68,0.76166
5491950,-0.04500,90.5000,146,68,0.76044
5491960,-0.09500,89.6250,146,68,0.75751
5491970,-0.13500,88.7500,146,68,0.75385
5491980,-0.15000,86.9375,146,68,0.74383
5491990,-0.15500,86.0625,146,68,0.73773
5492000,-0.16000,85.2500,146,68,0.73065
5492010,-0.15500,84.4375,146,68,0.72234
5492020,-0.14500,83.0000,146,68,0.68620
5492030,-0.12500,82.3125,146,68,0.66886
5492040,-0.10500,81.7500,146,68,0.65201
5492050,-0.10500,81.1875,146,68,0.63590
5492060,-0.04000,80.0625,146,68,0.60073
5492070,0.33000,79.5625,146,68,0.58046
5492080,0.98000,79.0625,146,68,0.55922
5492090,1.14500,78.5625,146,68,0.53797
5492100,0.51500,77.4375,146,68,0.49890
5492110,-0.20500,76.8125,146,68,0.48230
5492120,-0.47000,76.1875,146,68,0.46789
5492130,-0.38000,75.5625,146,68,0.45543
5492140,-0.23500,74.3750,146,68,0.43639
5492150,-0.18000,73.8125,146,68,0.42979
5492160,-0.17000,73.2500,146,68,0.42418
5492170,-0.15000,72.6875,146,68,0.41807
5492180,-0.13000,71.6250,146,68,0.40610
5492190,-0.11500,71.1250,146,68,0.40000
5492200,-0.10500,70.6875,146,68,0.39365
5492210,-0.09000,70.3125,146,68,0.38706
5492220,-0.07500,70.3750,146,68,0.37363
5492230,-0.05500,71.4375,146,68,0.36679
5492240,-0.04500,74.0000,146,68,0.35995
5492250,-0.05000,78.6250,146,68,0.35433
5492260,-0.05500,93.5625,146,68,0.34383
5492270,-0.05500,102.6875,146,68,0.33822
5492280,-0.04500,112.0000,146,68,0.33236
5492290,-0.03000,121.0625,146,68,0.32650
5492300,-0.01500,136.4375,146,68,0.31600
5492310,0.01000,142.3125,146,68,0.31111
5492320,0.03500,146.8750,146,68,0.30647
5492330,0.06000,150.0000,146,68,0.30208
5492340,0.08500,152.9375,146,68,0.29377
5492350,0.10000,153.1250,146,68,0.29084
5492360,0.11000,152.8125,146,68,0.28864
5492370,0.11000,152.0000,146,68,0.28571
5492380,0.11000,149.5625,146,68,0.27888
5492390,0.11000,148.1875,146,68,0.27546
5492400,0.11000,146.6875,146,68,0.27204
5492410,0.11000,145.1250,146,68,0.26862
5492420,0.12000,141.9375,146,68,0.26203
5492430,0.12000,140.3750,146,68,0.25885
5492440,0.11000,138.8750,146,68,0.25568
5492450,0.08000,137.3750,146,68,0.25348
5492460,0.05500,134.3125,146,68,0.24957
5492470,0.02500,132.5000,146,68,0.24664
5492480,0.01000,130.4375,146,68,0.24396
5492490,0.00500,124.6250,146,68,0.24249
5492500,0.01500,120.8125,146,68,0.24957
5492510,0.03000,116.5000,146,68,0.26154
5492520,0.04000,112.0625,146,68,0.28107
5492530,0.05000,107.8750,146,68,0.30818
5492540,0.05500,101.3125,146,68,0.38120
5492550,0.05500,99.1250,146,68,0.41807
5492560,0.05500,97.5000,146,68,0.45348
5492570,0.06000,96.4375,146,68,0.49304
5492580,0.07000,95.4375,146,68,0.56923
5492590,0.08500,95.2500,146,68,0.60269
5492600,0.10000,95.1250,146,68,0.63175
5492610,0.13000,94.9375,146,68,0.65617
5492620,0.16000,94.3750,146,68,0.69206
5492630,0.16500,93.9375,146,68,0.70403
5492640,0.16000,93.1375,146,68,0.71243
5492650,0.12167,92.1437,146,68,0.71761
5492660,0.06000,91.1250,146,68,0.71990
5492670,-0.01500,90.2500,146,68,0.71966
5492680,-0.05500,89.3125,146,68,0.71795
5492690,-0.06500,88.4375,146,68,0.71477
5492700,-0.07000,86.6875,146,68,0.70598
5492710,-0.06500,85.8750,146,68,0.70037
5492720,-0.06500,85.1250,146,68,0.69377
5492730,-0.05500,84.4375,146,68,0.68620
5492740,-0.04000,83.1250,146,68,0.66716
5492750,-0.02000,82.5625,146,68,0.65592
5492760,-0.01000,82.0000,146,68,0.64371
5492770,0.00000,81.4375,146,68,0.62930
5492780,0.20500,80.3750,146,68,0.59389
5492790,0.75500,79.8750,146,68,0.57436
5492800,1.22000,79.3125,146,68,0.55433
5492810,0.89000,78.7500,146,68,0.53455
5492820,0.14500,77.5625,146,68,0.49792
5492830,-0.28500,77.0000,146,68,0.48230
5492840,-0.37000,76.3750,146,68,0.46862
5492850,-0.25500,75.7500,146,68,0.45812
5492860,-0.15500,74.6250,146,68,0.44151
5492870,-0.11500,74.0625,146,68,0.43419
5492880,-0.09500,73.5625,146,68,0.42735
5492890,-0.07000,72.5625,146,68,0.42076
5492900,-0.05500,72.1250,146,68,0.40830
5492910,-0.04500,71.6875,146,68,0.40195
5492920,-0.04000,71.3750,146,68,0.39560
5492930,-0.02500,71.1875,146,68,0.38901
5492940,-0.01000,71.9375,146,68,0.37558
5492950,-0.01500,73.8125,146,68,0.36996
5492960,-0.02500,77.3750,146,68,0.36508
5492970,-0.03500,83.0000,146,68,0.35922
5492980,-0.04500,98.8125,146,68,0.34725
5492990,-0.04500,107.7500,146,68,0.34139
5493000,-0.04000,116.6250,146,69,0.33578
5493010,-0.03000,124.9375,146,69,0.33016
5493020,-0.01500,138.6875,146,69,0.32015
5493030,0.00500,143.6250,146,69,0.31575
5493040,0.03500,147.1250,146,69,0.31160
5493050,0.06000,149.4375,146,69,0.30867
5493060,0.08000,151.0625,146,69,0.30305
5493070,0.08000,150.8125,146,69,0.29939
5493080,0.07500,150.0625,146,69,0.29548
5493090,0.06500,149.0625,146,69,0.29158
5493100,0.06000,146.1875,146,69,0.28376
5493110,0.06000,144.5625,146,69,0.28010
5493120,0.07000,142.8125,146,69,0.27668
5493130,0.08000,141.0625,146,69,0.27326
5493140,0.09000,137.7500,146,69,0.26667
5493150,0.08000,136.1250,146,69,0.26447
5493160,0.06000,134.5000,146,69,0.26300
5493170,0.03000,132.8750,146,69,0.26105
5493180,0.01000,129.1875,146,69,0.25592
5493190,-0.00500,126.8125,146,69,0.25324
5493200,-0.00500,123.9375,146,69,0.25177
5493210,0.01000,120.4375,146,69,0.25226
5493220,0.03000,112.3750,146,69,0.26618
5493230,0.04500,108.4375,146,69,0.28230
5493240,0.05500,105.0000,146,69,0.30574
5493250,0.06000,102.1875,146,69,0.33138
5493260,0.06500,98.4375,146,69,0.39585
5493270,0.06000,97.3125,146,69,0.43590
5493280,0.04500,96.5625,146,69,0.47717
5493290,0.04000,96.1250,146,69,0.51722
5493300,0.04500,95.6250,146,69,0.58803
5493310,0.06000,95.4375,146,69,0.61709
5493320,0.07500,95.2500,146,69,0.64176
5493330,0.10500,94.9375,146,69,0.66227
5493340,0.12500,94.0000,146,69,0.69133
5493350,0.12000,93.4375,146,69,0.69915
5493360,0.10500,92.7500,146,69,0.70330
5493370,0.06000,92.0000,146,69,0.70623
5493380,-0.01500,90.4375,146,69,0.70720
5493390,-0.07500,89.5625,146,69,0.70549
5493400,-0.11500,88.6875,146,69,0.70256
5493410,-0.13500,87.8125,146,69,0.69841
5493420,-0.15500,86.1250,146,69,0.68742
5493430,-0.16000,85.3750,146,69,0.68059
5493440,-0.16000,84.6250,146,69,0.67253
5493450,-0.15500,83.9375,146,69,0.66349
5493460,-0.15500,82.7500,146,69,0.64200
5493470,-0.14500,82.1875,146,69,0.62833
5493480,-0.14500,81.6875,146,69,0.61270
5493490,-0.12500,81.1875,146,69,0.59536
5493500,0.12000,80.1875,146,69,0.55800
5493510,0.68000,79.6875,146,69,0.53968
5493520,1.05000,79.1250,146,69,0.52186
5493530,0.64500,78.5625,146,69,0.50549
5493540,-0.04500,77.3750,146,69,0.47766
5493550,-0.40500,76.8125,146,69,0.46716
5493560,-0.45000,76.2500,146,69,0.45861
5493570,-0.34500,75.6875,146,69,0.45055
5493580,-0.27000,74.5625,146,69,0.43590
5493590,-0.25000,74.0000,146,69,0.42955
5493600,-0.23000,73.4375,146,69,0.42320
5493610,-0.22000,72.9375,146,69,0.41709
5493620,-0.21000,72.0000,146,69,0.40488
5493630,-0.21000,71.5625,146,69,0.39878
5493640,-0.20000,71.2500,146,69,0.39267
5493650,-0.19000,71.1250,146,69,0.38730
5493660,-0.18000,72.1250,146,69,0.38017
5493670,-0.17417,74.5313,146,69,0.37233
5493680,-0.17000,78.6250,146,69,0.36484
5493690,-0.16500,84.6875,146,69,0.35873
5493700,-0.15500,100.9375,146,69,0.34676
5493710,-0.14500,109.8125,146,69,0.34115
5493720,-0.12500,118.5625,146,69,0.33553
5493730,-0.10500,126.6875,146,69,0.33040
5493740,-0.09000,139.8750,146,69,0.32234
5493750,-0.07500,144.5625,146,69,0.31966
5493760,-0.05500,147.9375,146,69,0.31624
5493770,-0.03500,150.1250,146,69,0.31258
5493780,-0.02500,151.5000,146,69,0.30525
5493790,-0.02000,151.1250,146,69,0.30183
5493800,-0.02000,150.2500,146,69,0.29841
5493810,-0.02500,149.1250,146,69,0.29499
5493820,-0.02500,146.3750,146,69,0.28840
5493830,-0.01500,144.8125,146,69,0.28474
5493840,-0.00500,143.2500,146,69,0.28107
5493850,0.01000,141.6875,146,69,0.27863
5493860,0.01500,138.6250,146,69,0.27424
5493870,0.00000,137.0625,146,69,0.27155
5493880,-0.01500,135.5000,146,69,0.26886
5493890,-0.03500,133.8125,146,69,0.26618
5493900,-0.05500,130.0000,146,69,0.26056
5493910,-0.06500,127.5625,146,69,0.25836
5493920,-0.06000,124.6250,146,69,0.25739
5493930,-0.04500,121.1250,146,69,0.25910
5493940,-0.03000,112.9375,146,69,0.27399
5493950,-0.01500,108.9375,146,69,0.28791
5493960,-0.00500,105.3750,146,69,0.30965
5493970,0.00000,102.4375,146,69,0.33846
5493980,0.00000,98.5000,146,69,0.41294
5493990,-0.00500,97.2500,146,69,0.45446
5494000,-0.01000,96.3750,147,69,0.49597
5494010,-0.00500,95.7500,147,69,0.53578
5494020,0.00500,95.0000,147,69,0.60537
5494030,0.02500,94.6875,147,69,0.63394
5494040,0.05500,94.3125,147,69,0.65812
5494050,0.09000,93.9375,147,69,0.67546
5494060,0.10500,92.8750,147,69,0.70525
5494070,0.10000,92.2500,147,69,0.72381
5494080,0.08000,91.5625,147,69,0.73529
5494090,0.02000,90.8750,147,69,0.74212
5494100,-0.05000,89.3750,147,69,0.74554
5494110,-0.11000,88.6250,147,69,0.74408
5494120,-0.15500,87.8125,147,69,0.74090
5494130,-0.18000,87.0000,147,69,0.73651
5494140,-0.20000,85.5000,147,69,0.72479
5494150,-0.21000,84.8125,147,69,0.71746
5494160,-0.22000,84.1250,147,69,0.70940
5494170,-0.23000,83.5000,147,69,0.69988
5494180,-0.23000,82.1875,147,69,0.67570
5494190,-0.24500,81.5625,147,69,0.66056
5494200,-0.27000,81.0000,147,69,0.64396
5494210,-0.22000,80.3750,147,69,0.62564
5494220,0.10000,79.1875,147,69,0.58608
5494230,0.67500,78.5000,147,69,0.56630
5494240,0.86000,77.8125,147,69,0.54725
5494250,0.28500,77.1250,147,69,0.53114
5494260,-0.36500,75.6250,147,69,0.50379
5494270,-0.64000,74.9375,147,69,0.49133
5494280,-0.62000,74.2500,147,69,0.48034
5494290,-0.50500,73.5625,147,69,0.47033
5494300,-0.43000,72.3125,147,69,0.45372
5494310,-0.40000,71.7500,147,69,0.44615
5494320,-0.36000,71.1875,147,69,0.43907
5494330,-0.32000,70.6250,147,69,0.43199
5494340,-0.28000,69.6875,147,69,0.41856
5494350,-0.24500,69.3125,147,69,0.41343
5494360,-0.21500,69.0000,147,69,0.40733
5494370,-0.18500,68.9375,147,69,0.40098
5494380,-0.16000,70.3750,147,69,0.38779
5494390,-0.14500,72.9375,147,69,0.38120
5494400,-0.13000,77.4375,147,69,0.37485
5494410,-0.12500,83.9375,147,69,0.36850
5494420,-0.11000,100.5625,147,69,0.35678
5494430,-0.10500,106.3542,147,69,0.35291
5494440,-0.10000,109.5000,147,69,0.35116
5494450,-0.08500,118.1875,147,69,0.34579
5494460,-0.06000,133.1250,147,69,0.33871
5494470,-0.02500,138.9375,147,69,0.33431
5494480,0.00500,143.3750,147,69,0.32991
5494490,0.03000,146.6250,147,69,0.32552
5494500,0.04000,149.6250,147,69,0.31697
5494510,0.05000,149.8750,147,69,0.31282
5494520,0.05000,149.5625,147,69,0.30842
5494530,0.04500,148.7500,147,69,0.30427
5494540,0.04500,146.3125,147,69,0.29524
5494550,0.05000,144.8125,147,69,0.29206
5494560,0.06000,143.2500,147,69,0.28938
5494570,0.07500,141.6875,147,69,0.28596
5494580,0.08000,138.5000,147,69,0.27814
5494590,0.07500,136.9375,147,69,0.27448
5494600,0.05000,135.3125,147,69,0.27106
5494610,0.02500,133.7500,147,69,0.26764
5494620,0.00000,130.3750,147,69,0.26032
5494630,-0.01000,128.3750,147,69,0.25690
5494640,-0.01500,126.0000,147,69,0.25421
5494650,0.00000,123.0625,147,69,0.25324
5494660,0.01500,115.5000,147,69,0.26007
5494670,0.03000,111.3125,147,69,0.27057
5494680,0.03000,111.3125,147,69,0.27057
5494690,0.03000,111.3125,147,69,0.27057
5494700,0.04833,104.2917,147,69,0.34078
5494710,0.06500,96.8750,147,69,0.42589
5494720,0.06000,95.6875,147,69,0.47057
5494730,0.06000,94.8750,147,69,0.51502
5494740,0.07000,93.8750,147,69,0.59560
5494750,0.08500,93.5000,147,69,0.62564
5494760,0.11000,93.1250,147,69,0.64982
5494770,0.14500,92.2500,147,69,0.67326
5494780,0.15500,91.6250,147,69,0.71136
5494790,0.15500,91.0000,147,69,0.72527
5494800,0.13500,90.2500,147,69,0.73578
5494810,0.08000,89.5625,147,69,0.74310
5494820,0.01000,88.0000,147,69,0.74945
5494830,-0.05000,87.2500,147,69,0.74921
5494840,-0.08500,86.5625,147,69,0.74725
5494850,-0.10000,85.1250,147,69,0.74383
5494860,-0.11500,84.4375,147,69,0.73309
5494870,-0.11500,83.7500,147,69,0.72674
5494880,-0.12000,83.1250,147,69,0.71966
5494890,-0.11500,82.5000,147,69,0.71136
5494900,-0.11000,81.3750,147,69,0.69035
5494910,-0.09500,80.8125,147,69,0.67692
5494920,-0.11000,80.3125,147,69,0.66154
5494930,-0.02000,79.7500,147,69,0.64420
5494940,0.38500,78.6875,147,69,0.60537
5494950,1.00000,78.0625,147,69,0.58730
5494960,1.04500,77.5000,147,69,0.57021
5494970,0.41000,76.8750,147,69,0.55214
5494980,-0.21000,75.5625,147,69,0.51795
5494990,-0.45000,74.8750,147,69,0.50281
5495000,-0.40500,74.1875,147,69,0.48938
5495010,-0.29000,73.5625,147,69,0.47741
5495020,-0.23000,72.4375,147,69,0.45763
5495030,-0.21000,71.8750,147,69,0.44908
5495040,-0.19000,71.3750,147,69,0.44103
5495050,-0.17500,70.8125,147,69,0.43321
5495060,-0.16000,69.8125,147,69,0.42125
5495070,-0.14500,69.3750,147,69,0.41514
5495080,-0.13500,69.0000,147,69,0.40830
5495090,-0.11500,68.8125,147,69,0.40147
5495100,-0.10500,69.5625,147,69,0.38755
5495110,-0.10500,71.4375,147,69,0.38095
5495120,-0.10500,75.0625,147,69,0.37436
5495130,-0.09500,80.7500,147,69,0.36801
5495140,-0.08500,96.5625,147,69,0.35580
5495150,-0.07500,105.5000,147,69,0.35116
5495160,-0.06500,114.3750,147,69,0.34750
5495170,-0.04500,122.7500,147,69,0.34335
5495180,-0.02500,136.7500,147,69,0.33480
5495190,0.00000,141.8750,147,69,0.33065
5495200,0.02000,145.6875,147,69,0.32650
5495210,0.04000,148.2500,147,69,0.32210
5495220,0.04500,150.3750,147,69,0.31331
5495230,0.05000,150.3750,147,69,0.30891
5495240,0.05000,149.8750,147,69,0.30476
5495250,0.04500,149.0000,147,69,0.30061
5495260,0.04500,146.7500,147,69,0.29548
5495270,0.05500,145.3750,147,69,0.29255
5495280,0.06000,144.0000,147,69,0.28913
5495290,0.07000,142.5000,147,69,0.28571
5495300,0.06500,139.5000,147,69,0.27888
5495310,0.05500,138.0625,147,69,0.27546
5495320,0.03000,136.5625,147,69,0.27228
5495330,0.00500,135.0625,147,69,0.26911
5495340,-0.02500,131.8750,147,69,0.26227
5495350,-0.04000,129.8750,147,69,0.26007
5495360,-0.04500,127.5000,147,69,0.25934
5495370,-0.04000,124.6250,147,69,0.25934
5495380,-0.03000,117.0000,147,69,0.27009
5495390,-0.01500,112.6250,147,69,0.28425
5495400,-0.01000,108.4375,147,69,0.30598
5495410,-0.00500,104.8125,147,69,0.33553
5495420,0.00000,99.5000,147,69,0.41343
5495430,-0.00500,97.7500,147,69,0.45812
5495440,-0.00500,96.5000,147,69,0.50354
5495450,-0.00500,95.6250,147,69,0.54237
5495460,0.00000,94.3750,147,69,0.61074
5495470,0.02000,93.9375,147,69,0.64347
5495480,0.05500,93.4375,147,69,0.67228
5495490,0.08500,92.9375,147,69,0.69695
5495500,0.08500,91.7500,147,69,0.73407
5495510,0.08000,91.0625,147,69,0.74701
5495520,0.05000,90.3125,147,69,0.75629
5495530,-0.00500,89.6250,147,69,0.76264
5495540,-0.06500,88.1250,147,69,0.76752
5495550,-0.11000,87.3750,147,69,0.76630
5495560,-0.14000,86.6875,147,69,0.76337
5495570,-0.15000,85.9375,147,69,0.75971
5495580,-0.14500,84.5625,147,69,0.75043
5495590,-0.14000,83.9375,147,69,0.74457
5495600,-0.13500,83.3125,147,69,0.73748
5495610,-0.12500,82.7500,147,69,0.72918
5495620,-0.10500,81.6875,147,69,0.70720
5495630,-0.09500,81.1875,147,69,0.69328
5495640,-0.09500,80.6250,147,69,0.67717
5495650,0.08000,80.0625,147,69,0.66105
5495660,0.59500,78.8125,147,69,0.61734
5495670,1.14000,78.2500,147,69,0.60098
5495680,0.96500,77.6250,147,69,0.58217
5495690,0.26500,77.0000,147,69,0.56264
5495700,-0.21000,75.6875,147,69,0.52650
5495710,-0.32500,75.1250,147,69,0.51062
5495720,-0.24250,74.6250,147,69,0.49809
5495730,-0.10500,73.9375,147,69,0.48400
5495740,-0.05500,72.8125,147,69,0.46349
5495750,-0.00500,72.2500,147,69,0.45543
5495760,0.04000,71.7500,147,69,0.44835
5495770,0.05500,71.2500,147,69,0.44078
5495780,0.05000,70.2500,147,69,0.42515
5495790,0.06000,69.8750,147,69,0.41734
5495800,0.07000,69.6875,147,69,0.40952
5495810,0.08500,69.6875,147,69,0.40195
5495820,0.09000,71.6250,147,69,0.38779
5495830,0.08000,74.5625,147,69,0.38095
5495840,0.06500,79.5000,147,69,0.37436
5495850,0.05000,86.4375,147,69,0.36923
5495860,0.04000,103.7500,147,69,0.35971
5495870,0.04000,112.9375,147,69,0.35433
5495880,0.05000,121.7500,147,69,0.34896
5495890,0.06000,129.7500,147,69,0.34359
5495900,0.07000,142.3750,147,69,0.33407
5495910,0.09000,146.7500,147,69,0.32943
5495920,0.09500,149.8125,147,69,0.32503
5495930,0.09500,151.8125,147,69,0.32063
5495940,0.08500,153.3125,147,69,0.31184
5495950,0.07000,153.2500,147,69,0.30867
5495960,0.06000,152.6875,147,69,0.30623
5495970,0.05000,151.8750,147,69,0.30281
5495980,0.04000,149.6250,147,69,0.29548
5495990,0.03000,148.3125,147,69,0.29158
5496000,0.03500,146.9375,149,70,0.28791
5496010,0.03500,145.5625,149,70,0.28425
5496020,0.03000,142.8125,149,70,0.27717
5496030,0.01000,141.4375,149,70,0.27375
5496040,-0.01000,140.1250,149,70,0.27057
5496050,-0.04000,138.6875,149,70,0.26862
5496060,-0.06500,135.5000,149,70,0.26520
5496070,-0.08500,133.4375,149,70,0.26300
5496080,-0.08500,130.8750,149,70,0.26203
5496090,-0.08000,127.6875,149,70,0.26374
5496100,-0.07500,119.4375,149,70,0.28230
5496110,-0.06000,114.8750,149,70,0.30232
5496120,-0.05500,110.6250,149,70,0.32894
5496130,-0.05500,106.9375,149,70,0.36166
5496140,-0.04500,101.6250,149,70,0.44347
5496150,-0.03500,99.8750,149,70,0.48205
5496160,-0.01500,98.6875,149,70,0.51770
5496170,0.00000,97.8125,149,70,0.55604
5496180,0.02000,96.8125,149,70,0.62857
5496190,0.04500,96.5000,149,70,0.65958
5496200,0.06500,96.1875,149,70,0.68620
5496210,0.06000,95.8125,149,70,0.70867
5496220,0.04000,94.8750,149,70,0.74115
5496230,0.00000,94.2500,149,70,0.75189
5496240,-0.06500,93.5625,149,70,0.75946
5496250,-0.13000,92.8125,149,70,0.76313
5496260,-0.17500,91.3125,149,70,0.76435
5496270,-0.20000,90.5000,149,70,0.76361
5496280,-0.22000,89.6875,149,70,0.76166
5496290,-0.22000,88.9375,149,70,0.75849
5496300,-0.21500,87.5000,149,70,0.74921
5496310,-0.21000,86.8125,149,70,0.74310
5496320,-0.21000,86.1875,149,70,0.73578
5496330,-0.20500,85.5625,149,70,0.72698
5496340,-0.20500,84.3750,149,70,0.70427
5496350,-0.19500,83.7500,149,70,0.69109
5496360,0.01000,83.1250,149,70,0.67692
5496370,0.52500,82.5000,149,70,0.65983
5496380,0.97000,81.1875,149,70,0.62027
5496390,0.73500,80.4375,149,70,0.59951
5496400,0.02000,79.6875,149,70,0.57875
5496410,-0.43000,79.0000,149,70,0.55873
5496420,-0.51000,77.5625,149,70,0.52283
5496430,-0.41500,76.9375,149,70,0.50769
5496440,-0.33500,76.2500,149,70,0.49426
5496450,-0.30500,75.6250,149,70,0.48352
5496460,-0.29500,74.4375,149,70,0.46593
5496470,-0.28000,73.8750,149,70,0.45763
5496480,-0.27500,73.3750,149,70,0.44982
5496490,-0.27500,72.8750,149,70,0.44225
5496500,-0.27000,72.0625,149,70,0.42735
5496510,-0.25500,71.8750,149,70,0.42027
5496520,-0.25000,71.9375,149,70,0.41294
5496530,-0.24000,72.6250,149,70,0.40562
5496540,-0.23000,78.1250,149,70,0.39121
5496550,-0.21500,83.8125,149,70,0.38559
5496560,-0.20000,91.1875,149,70,0.38071
5496570,-0.18000,99.6250,149,70,0.37509
5496580,-0.16500,117.4375,149,70,0.36337
5496590,-0.15000,125.7500,149,70,0.35751
5496600,-0.13000,133.1875,149,70,0.35189
5496610,-0.10000,139.4375,149,70,0.34652
5496620,-0.07500,148.0000,149,70,0.33675
5496630,-0.05500,150.3750,149,70,0.33211
5496640,-0.04500,151.6875,149,70,0.32723
5496650,-0.03500,152.1875,149,70,0.32381
5496660,-0.04000,151.3750,149,70,0.31697
5496670,-0.04000,150.4375,149,70,0.31258
5496680,-0.03500,149.3125,149,70,0.30672
5496690,-0.03000,148.0625,149,70,0.30134
5496700,-0.02000,145.3125,149,70,0.29328
5496710,-0.00500,143.8750,149,70,0.28913
5496720,-0.00500,142.5000,149,70,0.28523
5496730,-0.01500,141.0625,149,70,0.28156
5496740,-0.03417,138.9583,149,70,0.27664
5496750,-0.05500,136.8125,149,70,0.27228
5496760,-0.07000,135.2500,149,70,0.27033
5496770,-0.08000,133.5000,149,70,0.26740
5496780,-0.08500,129.0000,149,70,0.26203
5496790,-0.08000,126.0000,149,70,0.26154
5496800,-0.07000,122.3750,149,70,0.26447
5496810,-0.05500,118.2500,149,70,0.27228
5496820,-0.04500,109.8125,149,70,0.30842
5496830,-0.03500,106.1875,149,70,0.33773
5496840,-0.03000,103.1875,149,70,0.37338
5496850,-0.02500,100.8750,149,70,0.40781
5496860,-0.02000,97.8125,149,70,0.48181
5496870,-0.00500,96.8750,149,70,0.52259
5496880,0.01500,96.1875,149,70,0.56190
5496890,0.03500,95.6875,149,70,0.59805
5496900,0.07000,94.8750,149,70,0.65739
5496910,0.09000,94.3750,149,70,0.68010
5496920,0.09000,93.8750,149,70,0.69866
5496930,0.08000,93.3125,149,70,0.71306
5496940,0.04000,92.0000,149,70,0.73162
5496950,-0.02500,91.2500,149,70,0.73529
5496960,-0.08500,90.5000,149,70,0.73651
5496970,-0.13000,89.7500,149,70,0.73700
5496980,-0.16000,88.2500,149,70,0.73431
5496990,-0.17000,87.5625,149,70,0.73089
5497000,-0.17000,86.8125,149,70,0.72674
5497010,-0.17000,86.1250,149,70,0.72137
5497020,-0.17500,84.7500,149,70,0.70769
5497030,-0.17000,84.1250,149,70,0.69915
5497040,-0.16500,83.5625,149,70,0.68889
5497050,-0.16000,83.0000,149,70,0.67790
5497060,-0.13500,81.8750,149,70,0.65153
5497070,0.10000,81.3125,149,70,0.63492
5497080,0.66500,80.7500,149,70,0.61636
5497090,1.08000,80.1250,149,70,0.59658
5497100,0.72000,78.8750,149,70,0.55604
5497110,-0.00500,78.2500,149,70,0.53651
5497120,-0.40500,77.5625,149,70,0.51819
5497130,-0.44000,76.9375,149,70,0.50134
5497140,-0.33000,75.6875,149,70,0.47424
5497150,-0.26000,75.1250,149,70,0.46422
5497160,-0.24500,74.6250,149,70,0.45446
5497170,-0.23000,74.0625,149,70,0.44518
5497180,-0.22000,73.0000,149,70,0.42833
5497190,-0.22000,72.5000,149,70,0.42076
5497200,-0.21500,72.0000,149,70,0.41343
5497210,-0.21000,71.6250,149,70,0.40610
5497220,-0.20000,71.1250,149,70,0.39170
5497230,-0.19000,71.4375,149,70,0.38486
5497240,-0.18000,72.6875,149,70,0.37802
5497250,-0.17500,75.5000,149,70,0.37241
5497260,-0.16000,87.3125,149,70,0.36215
5497270,-0.15000,95.7500,149,70,0.35629
5497280,-0.13500,104.9375,149,70,0.35043
5497290,-0.11500,114.2500,149,70,0.34481
5497300,-0.09500,131.1875,149,70,0.33382
5497310,-0.07000,138.1250,149,70,0.32894
5497320,-0.05000,143.6875,149,70,0.32405
5497330,-0.02500,147.8750,149,70,0.31941
5497340,0.00000,152.4375,149,70,0.31160
5497350,0.01500,153.2500,149,70,0.30916
5497360,0.02000,153.3750,149,70,0.30598
5497370,0.02000,153.0625,149,70,0.30256
5497380,0.02000,151.5000,149,70,0.29524
5497390,0.01500,150.4375,149,70,0.29158
5497400,0.01000,149.2500,149,70,0.28767
5497410,0.01500,148.0000,149,70,0.28376
5497420,0.03000,145.3125,149,70,0.27595
5497430,0.04000,143.8750,149,70,0.27253
5497440,0.03000,142.4375,149,70,0.26935
5497450,0.00500,141.0000,149,70,0.26740
5497460,-0.02000,138.1250,149,70,0.26325
5497470,-0.04500,136.5000,149,70,0.26032
5497480,-0.06000,134.7500,149,70,0.25714
5497490,-0.06500,132.6250,149,70,0.25421
5497500,-0.06500,126.8125,149,70,0.25372
5497510,-0.05500,123.0000,149,70,0.25934
5497520,-0.04000,118.6875,149,70,0.27106
5497530,-0.03000,114.1250,149,70,0.29011
5497540,-0.02500,105.9375,149,70,0.34603
5497550,-0.02500,102.8125,149,70,0.37778
5497560,-0.02000,100.4375,149,70,0.41709
5497570,-0.01500,98.6875,149,70,0.46032
5497580,-0.01000,96.7500,149,70,0.54676
5497590,0.01000,96.2500,149,70,0.58584
5497600,0.02500,95.8750,149,70,0.62051
5497610,0.05500,95.6250,149,70,0.65079
5497620,0.08000,95.0000,149,70,0.69719
5497630,0.08500,94.5625,149,70,0.71404
5497640,0.08000,94.0625,149,70,0.72723
5497650,0.05000,93.4375,149,70,0.73529
5497660,-0.01000,92.0000,149,70,0.74432
5497670,-0.07500,91.1875,149,70,0.74701
5497680,-0.12500,90.3750,149,70,0.74799
5497690,-0.15500,89.5625,149,70,0.74750
5497700,-0.16500,88.0000,149,70,0.74017
5497710,-0.17000,87.2500,149,70,0.73455
5497720,-0.17000,86.5000,149,70,0.72991
5497730,-0.16000,85.8125,149,70,0.72381
5497740,-0.15500,84.5000,149,70,0.70745
5497750,-0.15000,83.8750,149,70,0.69792
5497760,-0.14500,83.3125,149,70,0.68669
5497770,-0.07583,82.4688,149,70,0.66488
5497780,0.15000,81.6250,149,70,0.64029
5497790,0.62500,81.0625,149,70,0.62076
5497800,1.10500,80.4375,149,70,0.60000
5497810,0.84500,79.8750,149,70,0.57851
5497820,0.06000,78.5625,149,70,0.53675
5497830,-0.41000,77.8750,149,70,0.51770
5497840,-0.45000,77.2500,149,70,0.50061
5497850,-0.33500,76.6250,149,70,0.48669
5497860,-0.26500,75.4375,149,70,0.46447
5497870,-0.25000,74.8750,149,70,0.45446
5497880,-0.24000,74.3125,149,70,0.44542
5497890,-0.22500,73.8125,149,70,0.43712
5497900,-0.22000,72.7500,149,70,0.42247
5497910,-0.22000,72.2500,149,70,0.41563
5497920,-0.21000,71.8750,149,70,0.40855
5497930,-0.20000,71.5625,149,70,0.40147
5497940,-0.19500,71.7500,149,70,0.38852
5497950,-0.18500,73.1250,149,70,0.38315
5497960,-0.18000,76.2500,149,70,0.37680
5497970,-0.17000,81.5625,149,70,0.37021
5497980,-0.16500,97.7500,149,70,0.35678
5497990,-0.15500,107.1875,149,70,0.35067
5498000,-0.13500,116.6250,149,70,0.34481
5498010,-0.11500,125.5625,149,70,0.33895
5498020,-0.09500,140.1250,149,70,0.32845
5498030,-0.07500,145.3750,149,70,0.32357
5498040,-0.05500,149.1875,149,70,0.31893
5498050,-0.03500,151.6875,149,70,0.31551
5498060,-0.02500,153.6875,149,70,0.30891
5498070,-0.02500,153.5625,149,70,0.30501
5498080,-0.03500,153.0625,149,70,0.30085
5498090,-0.04000,152.1875,149,70,0.29695
5498100,-0.05000,149.8125,149,70,0.28913
5498110,-0.06000,148.4375,149,70,0.28523
5498120,-0.05500,147.0625,149,70,0.28132
5498130,-0.05500,144.1250,149,70,0.27741
5498140,-0.06500,142.6250,149,70,0.27155
5498150,-0.09500,141.1250,149,70,0.26984
5498160,-0.13000,139.6250,149,70,0.26740
5498170,-0.17000,138.0625,149,70,0.26422
5498180,-0.21000,134.6875,149,70,0.25714
5498190,-0.24000,132.6875,149,70,0.25372
5498200,-0.26000,130.3125,149,70,0.25079
5498210,-0.25500,127.3750,149,70,0.24957
5498220,-0.24000,119.7500,149,70,0.25739
5498230,-0.21500,115.2500,149,70,0.26984
5498240,-0.19500,110.7500,149,70,0.28962
5498250,-0.17500,106.6250,149,70,0.31258
5498260,-0.16000,100.3125,149,70,0.37436
5498270,-0.15500,98.1250,149,70,0.41441
5498280,-0.15500,96.5625,149,70,0.45714
5498290,-0.15000,95.5000,149,70,0.49963
5498300,-0.13500,94.3750,149,70,0.57729
5498310,-0.10500,94.1250,149,70,0.61026
5498320,-0.06000,93.9375,149,70,0.63858
5498330,-0.01000,93.6875,149,70,0.66203
5498340,0.01500,92.8750,149,70,0.69377
5498350,0.03000,92.3125,149,70,0.70232
5498360,0.02000,91.6250,149,70,0.70989
5498370,-0.02000,90.8750,149,70,0.71551
5498380,-0.07500,89.2500,149,70,0.72112
5498390,-0.11000,88.4375,149,70,0.72112
5498400,-0.12500,87.5625,149,70,0.71941
5498410,-0.13000,86.7500,149,70,0.71673
5498420,-0.13000,85.0625,149,70,0.70745
5498430,-0.12500,84.3125,149,70,0.70134
5498440,-0.12500,83.5625,149,70,0.69426
5498450,-0.10500,82.8750,149,70,0.68645
5498460,-0.09000,81.6250,149,70,0.66667
5498470,-0.08000,81.0000,149,70,0.65446
5498480,-0.08500,80.4375,149,70,0.64029
5498490,0.10500,79.8750,149,70,0.62442
5498500,0.67000,78.7500,149,70,0.58730
5498510,1.23500,78.1875,149,70,0.56703
5498520,0.97000,77.6250,149,70,0.54628
5498530,0.13500,77.0625,149,70,0.52601
5498540,-0.38500,75.8125,149,70,0.49060
5498550,-0.43500,75.1250,149,70,0.47692
5498560,-0.29500,74.5000,149,70,0.46349
5498570,-0.20000,73.1875,149,70,0.45104
5498580,-0.18000,72.6250,149,70,0.43053
5498590,-0.16500,72.0625,149,70,0.42198
5498600,-0.15000,71.5000,149,70,0.41441
5498610,-0.13000,71.0000,149,70,0.40708
5498620,-0.11500,70.0000,149,70,0.39292
5498630,-0.09500,69.5625,149,70,0.38608
5498640,-0.08000,69.2500,149,70,0.37949
5498650,-0.06000,69.1250,149,70,0.37411
5498660,-0.04500,70.9375,149,70,0.36386
5498670,-0.04500,74.1875,149,70,0.35800
5498680,-0.05500,79.5000,149,70,0.35165
5498690,-0.06000,86.9375,149,70,0.34505
5498700,-0.05500,105.2500,149,70,0.33187
5498710,-0.04500,114.7500,149,70,0.32576
5498720,-0.03500,123.6250,149,70,0.32015
5498730,-0.01000,131.5000,149,70,0.31355
5498740,0.01500,143.2500,149,70,0.30476
5498750,0.04500,146.9375,149,70,0.30208
5498760,0.07000,149.3750,149,70,0.29841
5498770,0.09500,150.6875,149,70,0.29451
5498780,0.11000,151.0625,149,70,0.28718
5498790,0.11417,150.5833,149,70,0.28303
5498800,0.11000,149.6250,149,70,0.28010
5498810,0.10000,148.5625,149,70,0.27643
5498820,0.10000,146.0625,149,70,0.26960
5498830,0.10000,144.6250,149,70,0.26618
5498840,0.11000,143.1875,149,70,0.26252
5498850,0.11500,141.6875,149,70,0.26007
5498860,0.11000,138.6875,149,70,0.25641
5498870,0.10000,137.1875,149,70,0.25372
5498880,0.07500,135.6875,149,70,0.25079
5498890,0.04500,134.0625,149,70,0.24762
5498900,0.02000,130.3750,149,70,0.24127
5498910,0.00500,127.9375,149,70,0.23858
5498920,0.00000,125.0625,149,70,0.23712
5498930,0.01500,117.4375,149,70,0.23858
5498940,0.03000,113.0625,149,70,0.25421
5498950,0.04500,108.7500,149,70,0.26935
5498960,0.06000,104.8125,149,70,0.29280
5498970,0.06000,101.5000,149,70,0.32381
5498980,0.06000,97.0000,149,70,0.40317
5498990,0.06000,95.6875,149,70,0.44737
5499000,0.06500,94.7500,149,70,0.49133
5499010,0.08000,94.2500,149,70,0.53309
5499020,0.10000,93.7500,149,70,0.60513
5499030,0.13500,93.5625,149,70,0.63394
5499040,0.17000,93.3750,149,70,0.65519
5499050,0.17500,93.0625,149,70,0.67082
5499060,0.17000,92.1250,149,70,0.69695
5499070,0.14000,91.4375,149,70,0.70647
5499080,0.07000,90.6875,149,70,0.71331
5499090,0.00000,89.8750,149,70,0.71770
5499100,-0.05500,88.0625,149,70,0.72015
5499110,-0.08500,87.1875,149,70,0.71893
5499120,-0.09500,86.2500,149,70,0.71648
5499130,-0.10000,84.5625,149,70,0.71258
5499140,-0.10500,83.7500,149,70,0.70159
5499150,-0.10000,83.0625,149,70,0.69451
5499160,-0.09000,82.3750,149,70,0.68669
5499170,-0.08500,81.6875,149,70,0.67766
5499180,-0.08500,80.5000,149,70,0.65495
5499190,-0.10000,80.0000,149,70,0.64078
5499200,0.03500,79.4375,149,70,0.62491
5499210,0.53000,78.9375,149,70,0.60708
5499220,1.09000,77.8125,149,70,0.56801
5499230,0.93000,77.2500,149,70,0.54774
5499240,0.19000,76.6875,149,70,0.52991
5499250,-0.32500,76.0625,149,70,0.51404
5499260,-0.46000,74.8125,149,70,0.48230
5499270,-0.35000,74.1250,149,70,0.46862
5499280,-0.22000,73.5000,149,70,0.45641
5499290,-0.18000,72.8750,149,70,0.44591
5499300,-0.15500,71.7500,149,70,0.42882
5499310,-0.13500,71.1875,149,70,0.42173
5499320,-0.10500,70.6875,149,70,0.41490
5499330,-0.08500,70.1875,149,70,0.40855
5499340,-0.06000,69.3125,149,70,0.39658
5499350,-0.03500,69.0000,149,70,0.39145
5499360,0.00000,69.0000,149,70,0.38559
5499370,0.01500,69.5000,149,70,0.37900
5499380,0.02000,74.6250,149,70,0.36557
5499390,0.00500,80.1875,149,70,0.35897
5499400,-0.01000,87.6250,149,70,0.35238
5499410,-0.01500,96.3125,149,70,0.34603
5499420,-0.01500,114.5000,149,70,0.33358
5499430,-0.01000,122.9375,149,70,0.32772
5499440,0.01000,130.3750,149,70,0.32332
5499450,0.03000,136.6250,149,70,0.31966
5499460,0.05500,144.8750,149,70,0.31062
5499470,0.08000,147.0625,149,70,0.30623
5499480,0.11000,148.1875,149,70,0.30208
5499490,0.12000,148.5625,149,70,0.29792
5499500,0.13000,147.6250,149,70,0.29060
5499510,0.12000,146.5625,149,70,0.28694
5499520,0.11500,145.3750,149,70,0.28327
5499530,0.11500,143.9375,149,70,0.27961
5499540,0.11500,140.9375,149,70,0.27277
5499550,0.12000,139.3750,149,70,0.27057
5499560,0.12000,137.7500,149,70,0.26789
5499570,0.11000,136.1875,149,70,0.26496
5499580,0.08500,133.0000,149,70,0.25885
5499590,0.06000,131.3125,149,70,0.25568
5499600,0.03500,129.5625,149,70,0.25250
5499610,0.02500,127.5000,149,70,0.24908
5499620,0.03500,122.1250,149,70,0.24298
5499630,0.05000,118.6250,149,70,0.24200
5499640,0.07000,114.5625,149,70,0.24371
5499650,0.09000,110.3750,149,70,0.24908
5499660,0.10000,103.0000,149,70,0.27643
5499670,0.10000,100.1875,149,70,0.30085
5499680,0.09000,98.1250,149,70,0.33236
5499690,0.08000,96.6250,149,70,0.36996
5499700,0.07000,94.9375,149,70,0.45470
5499710,0.06000,94.5625,149,70,0.49744
5499720,0.06000,94.3125,149,70,0.53797
5499730,0.07500,94.1250,149,70,0.57485
5499740,0.10000,93.6875,149,70,0.63150
5499750,0.13000,93.3750,149,70,0.65348
5499760,0.14500,92.9375,149,70,0.67253
5499770,0.14500,92.3750,149,70,0.68474
5499780,0.13000,91.0625,149,70,0.70330
5499790,0.07500,90.3125,149,70,0.70891
5499800,0.00000,89.5000,149,70,0.71233
5499810,-0.05500,88.6250,149,70,0.71380
5499820,-0.09750,87.3333,149,70,0.71205
5499830,-0.12500,86.0625,149,70,0.70818
5499840,-0.13500,85.2500,149,70,0.70330
5499850,-0.14000,84.4375,149,70,0.69719
5499860,-0.14000,83.0625,149,70,0.68278
5499870,-0.14500,82.4375,149,70,0.67350
5499880,-0.14500,81.8750,149,70,0.66276
5499890,-0.14500,81.3125,149,70,0.65031
5499900,-0.15500,80.3125,149,70,0.62002
5499910,-0.11500,79.8125,149,70,0.60220
5499920,0.29000,79.3750,149,70,0.58339
5499930,0.77500,78.8750,149,70,0.56435
5499940,1.02000,77.8125,149,70,0.52918
5499950,0.49500,77.1875,149,70,0.51453
