RelativeTimeMilliseconds,ECG,ART,ART (Sys),ART (Dia),PPG
5714980,-0.16000,69.6250,158,72,0.42149
5714990,-0.14500,72.6250,158,72,0.41294
5715000,-0.13000,78.2500,157,72,0.40440
5715010,-0.10500,86.6250,157,72,0.39634
5715020,-0.08000,107.9375,157,72,0.38095
5715030,-0.05500,118.5625,157,72,0.37363
5715040,-0.03000,128.1250,157,72,0.36654
5715050,-0.00500,136.1875,157,72,0.35995
5715060,0.01500,147.1875,157,72,0.34823
5715070,0.03000,150.2500,157,72,0.34383
5715080,0.04500,152.0625,157,72,0.33871
5715090,0.05000,152.9375,157,72,0.33309
5715100,0.05000,152.9375,157,72,0.32210
5715110,0.04500,152.5000,157,72,0.31648
5715120,0.04000,151.8125,157,72,0.31111
5715130,0.04000,151.0000,157,72,0.30598
5715140,0.04500,149.0625,157,72,0.29621
5715150,0.05000,148.0000,157,72,0.29158
5715160,0.06000,146.8750,157,72,0.28816
5715170,0.05000,145.6875,157,72,0.28547
5715180,0.03000,143.0625,157,72,0.27839
5715190,0.00000,141.6250,157,72,0.27448
5715200,-0.02000,140.0000,157,72,0.27057
5715210,-0.03500,138.0000,157,72,0.26667
5715220,-0.04000,132.7500,157,72,0.25885
5715230,-0.03500,129.1250,157,72,0.25495
5715240,-0.02500,124.7500,157,72,0.25201
5715250,-0.01500,119.8125,157,72,0.25201
5715260,-0.00500,109.6875,157,72,0.26300
5715270,0.01000,105.3750,157,72,0.27424
5715280,0.03000,101.9375,157,72,0.29231
5715290,0.06000,99.3125,157,72,0.31770
5715300,0.09500,96.1250,157,72,0.38755
5715310,0.12500,95.1875,157,72,0.42857
5715320,0.15500,94.5000,157,72,0.47057
5715330,0.16000,93.9375,157,72,0.51184
5715340,0.15500,92.9375,157,72,0.58584
5715350,0.13000,92.3750,157,72,0.61685
5715360,0.07000,91.7500,157,72,0.64005
5715370,-0.00500,91.0625,157,72,0.65788
5715380,-0.06500,89.5000,157,72,0.68962
5715390,-0.10500,88.6875,157,72,0.70232
5715400,-0.12500,87.8125,157,72,0.71233
5715410,-0.13500,86.9375,157,72,0.71990
5715420,-0.13500,85.3125,157,72,0.72918
5715430,-0.13500,84.5625,157,72,0.73114
5715440,-0.13000,83.8750,157,72,0.73138
5715450,-0.12500,83.1875,157,72,0.73016
5715460,-0.12500,81.7500,157,72,0.72283
5715470,-0.13500,81.0625,157,72,0.71697
5715480,-0.10500,80.3750,157,72,0.70965
5715490,0.17500,79.6250,157,72,0.70061
5715500,0.74500,78.1250,157,72,0.67692
5715510,1.02500,77.3750,157,72,0.66178
5715520,0.59000,76.6250,157,72,0.64469
5715530,-0.08500,75.8750,157,72,0.62613
5715540,-0.42000,74.5000,157,72,0.58608
5715550,-0.42500,73.7500,157,72,0.56606
5715560,-0.30500,73.1250,157,72,0.54896
5715570,-0.23000,72.4375,157,72,0.53382
5715580,-0.21000,71.1875,157,72,0.50379
5715590,-0.20000,70.5625,157,72,0.49011
5715600,-0.19000,69.9375,157,72,0.47790
5715610,-0.19000,69.3750,157,72,0.46667
5715620,-0.18500,68.4375,157,72,0.44737
5715630,-0.18000,68.1250,157,72,0.43834
5715640,-0.17000,68.2500,157,72,0.42979
5715650,-0.15500,69.1875,157,72,0.42149
5715660,-0.14000,77.0000,157,72,0.40830
5715670,-0.12000,84.8125,157,72,0.40122
5715680,-0.09500,94.6875,157,72,0.39365
5715690,-0.07500,105.3750,157,72,0.38608
5715700,-0.05500,125.3125,157,72,0.37192
5715710,-0.03500,133.4375,157,72,0.36532
5715720,-0.01500,139.9375,157,72,0.35897
5715730,0.00000,144.7500,157,72,0.35287
5715740,0.02000,149.8750,157,72,0.34139
5715750,0.02500,150.7500,157,72,0.33602
5715760,0.02000,151.0000,157,72,0.33162
5715770,0.01500,150.7500,157,72,0.32796
5715780,0.01500,149.4375,157,72,0.31893
5715790,0.01500,148.5000,157,72,0.31404
5715800,0.02000,147.5000,157,72,0.30916
5715810,0.03000,146.3750,157,72,0.30427
5715820,0.04000,143.9375,157,72,0.29475
5715830,0.03000,142.6875,157,72,0.28987
5715840,0.01500,141.3750,157,72,0.28523
5715850,-0.01000,140.0000,157,72,0.28107
5715860,-0.03500,136.6875,157,72,0.27619
5715870,-0.05500,134.6250,157,72,0.27302
5715880,-0.06500,132.1250,157,72,0.26935
5715890,-0.06500,129.0625,157,72,0.26545
5715900,-0.06000,120.8125,157,72,0.25788
5715910,-0.04500,115.8125,157,72,0.25592
5715920,-0.03500,110.6875,157,72,0.25690
5715930,-0.02500,101.8750,157,72,0.26276
5715940,-0.00500,98.8125,157,72,0.29377
5715950,0.02500,96.5625,157,72,0.31990
5715960,0.06000,95.0000,157,72,0.34774
5715970,0.08000,93.9375,157,72,0.37802
5715980,0.10833,92.8854,157,72,0.43508
5715990,0.13000,92.0000,157,72,0.49499
5716000,0.13000,91.4375,157,72,0.53382
5716010,0.12000,90.8750,157,72,0.56947
5716020,0.09000,89.5000,157,72,0.62882
5716030,0.02000,88.6875,157,72,0.65201
5716040,-0.05000,87.8750,157,72,0.67106
5716050,-0.10500,87.0000,157,72,0.68645
5716060,-0.13500,85.3125,157,72,0.70354
5716070,-0.15500,84.5000,157,72,0.70965
5716080,-0.15500,83.6875,157,72,0.71453
5716090,-0.14500,82.1250,157,72,0.71795
5716100,-0.14500,81.3750,157,72,0.71990
5716110,-0.14500,80.7500,157,72,0.71868
5716120,-0.13500,80.1250,157,72,0.71600
5716130,-0.13000,79.5000,157,72,0.71184
5716140,-0.14500,78.1875,157,72,0.69792
5716150,-0.06500,77.5000,157,72,0.68816
5716160,0.41000,76.8125,157,72,0.67766
5716170,0.88500,76.1250,157,72,0.66593
5716180,1.02500,74.6875,157,72,0.63516
5716190,0.40500,74.0000,157,72,0.61709
5716200,-0.23000,73.2500,157,72,0.59780
5716210,-0.46000,71.8750,157,72,0.57827
5716220,-0.42500,71.1875,157,72,0.53993
5716230,-0.30500,70.5625,157,72,0.52234
5716240,-0.23500,69.9375,157,72,0.50623
5716250,-0.22000,69.3125,157,72,0.49158
5716260,-0.21000,68.2500,157,72,0.47009
5716270,-0.20000,67.6875,157,72,0.46032
5716280,-0.19000,67.1250,157,72,0.45079
5716290,-0.19000,66.6875,157,72,0.44176
5716300,-0.18000,66.1250,157,72,0.42466
5716310,-0.16500,66.5000,157,72,0.41636
5716320,-0.15000,68.1250,157,72,0.40830
5716330,-0.13500,71.9375,157,72,0.40049
5716340,-0.11500,87.6250,157,72,0.38510
5716350,-0.09500,98.1875,157,72,0.37778
5716360,-0.07500,109.0000,157,72,0.37167
5716370,-0.05000,119.1875,157,72,0.36630
5716380,-0.02000,135.5625,157,72,0.35336
5716390,0.00000,141.2500,157,72,0.34701
5716400,0.02000,145.2500,157,72,0.34090
5716410,0.02500,147.8125,157,72,0.33529
5716420,0.03500,149.8750,157,72,0.32479
5716430,0.03500,149.8750,157,72,0.31990
5716440,0.03000,149.5000,157,72,0.31502
5716450,0.02000,148.8125,157,72,0.31013
5716460,0.01000,147.0000,157,72,0.30354
5716470,0.02000,146.0000,157,72,0.29939
5716480,0.03000,144.8750,157,72,0.29499
5716490,0.03500,143.7500,157,72,0.29035
5716500,0.03000,141.2500,157,72,0.28107
5716510,0.01000,139.8125,157,72,0.27668
5716520,-0.01500,138.3125,157,72,0.27277
5716530,-0.03500,136.6250,157,72,0.26911
5716540,-0.05500,132.4375,157,72,0.26203
5716550,-0.05500,129.6250,157,72,0.25836
5716560,-0.05000,126.3125,157,72,0.25592
5716570,-0.04000,122.3125,157,72,0.25421
5716580,-0.02500,112.6875,157,72,0.25153
5716590,-0.01500,107.7500,157,72,0.25372
5716600,-0.00500,103.3750,157,72,0.26081
5716610,0.01000,99.8750,157,72,0.27448
5716620,0.02000,95.3125,157,72,0.32381
5716630,0.04000,94.0625,157,72,0.35873
5716640,0.06000,93.1875,157,72,0.39829
5716650,0.08500,92.5625,157,72,0.44029
5716660,0.11000,91.6250,157,72,0.51136
5716670,0.11000,91.1250,157,72,0.54676
5716680,0.10000,90.5625,157,72,0.58071
5716690,0.06500,90.0000,157,72,0.61123
5716700,0.00000,88.5625,157,72,0.66056
5716710,-0.07000,87.7500,157,72,0.67961
5716720,-0.13500,86.9375,157,72,0.69499
5716730,-0.16000,86.0625,157,72,0.70696
5716740,-0.17000,84.3750,157,72,0.72259
5716750,-0.18000,83.5000,157,72,0.72674
5716760,-0.18000,82.6250,157,72,0.72821
5716770,-0.18000,81.8125,157,72,0.72772
5716780,-0.18000,80.3750,157,72,0.72430
5716790,-0.17500,79.6875,157,72,0.72112
5716800,-0.16500,79.0000,157,72,0.71648
5716810,-0.18000,78.3750,157,72,0.71038
5716820,-0.12500,77.0625,157,72,0.69255
5716830,0.24500,76.3750,157,72,0.68034
5716840,0.90000,75.7500,157,72,0.66105
5716850,1.10000,75.0625,157,72,0.64200
5716860,0.49000,73.6875,157,72,0.61441
5716870,-0.23000,73.0000,157,72,0.59170
5716880,-0.53000,72.3750,157,72,0.57045
5716890,-0.49000,71.7500,157,72,0.55507
5716900,-0.35000,70.6250,157,72,0.52283
5716910,-0.28000,70.1250,157,72,0.50794
5716920,-0.26000,69.6250,157,72,0.49451
5716930,-0.24500,69.0625,157,72,0.48230
5716940,-0.23000,68.0000,157,72,0.46105
5716950,-0.22500,67.5000,157,72,0.45153
5716960,-0.21500,67.0625,157,72,0.44347
5716970,-0.20000,66.7500,157,72,0.43443
5716980,-0.19000,67.5000,157,72,0.41954
5716990,-0.18500,69.8125,157,72,0.41245
5717000,-0.17650,78.2750,156,71,0.40261
5717010,-0.16350,90.2250,156,71,0.39177
5717020,-0.14500,103.0000,156,71,0.38169
5717030,-0.12000,113.9375,156,71,0.37411
5717040,-0.09500,123.9375,156,71,0.36703
5717050,-0.07000,132.5625,156,71,0.36044
5717060,-0.04500,144.6875,156,71,0.35116
5717070,-0.01500,148.2500,156,71,0.34628
5717080,-0.00500,150.3750,156,71,0.34090
5717090,0.00000,151.5000,156,71,0.33431
5717100,0.00500,151.7500,156,71,0.32210
5717110,0.00500,151.3750,156,71,0.31819
5717120,0.00000,150.8125,156,71,0.31209
5717130,0.00500,150.0625,156,71,0.30647
5717140,0.01000,148.2500,156,71,0.29817
5717150,0.02000,147.1875,156,71,0.29377
5717160,0.03000,146.0625,156,71,0.28962
5717170,0.03000,144.8750,156,71,0.28669
5717180,0.02000,142.3125,156,71,0.27888
5717190,0.00000,140.8750,156,71,0.27497
5717200,-0.01500,139.2500,156,71,0.27228
5717210,-0.03500,137.4375,156,71,0.26935
5717220,-0.04500,132.6250,156,71,0.26129
5717230,-0.04500,129.3750,156,71,0.25812
5717240,-0.04000,125.5000,156,71,0.25617
5717250,-0.03000,120.9375,156,71,0.25690
5717260,-0.01500,111.0625,156,71,0.27033
5717270,0.00000,106.5625,156,71,0.28547
5717280,0.01500,102.8125,156,71,0.30818
5717290,0.03000,99.9375,156,71,0.33944
5717300,0.05500,96.3125,156,71,0.42051
5717310,0.08500,95.3125,156,71,0.45372
5717320,0.11000,94.6250,156,71,0.49255
5717330,0.14000,94.0000,156,71,0.54383
5717340,0.15500,93.0000,156,71,0.62418
5717350,0.14500,92.3750,156,71,0.65177
5717360,0.13000,91.7500,156,71,0.67302
5717370,0.09000,90.9375,156,71,0.69304
5717380,0.02000,89.3125,156,71,0.72601
5717390,-0.04500,88.4375,156,71,0.73822
5717400,-0.09500,87.5625,156,71,0.74774
5717410,-0.12000,86.6875,156,71,0.75482
5717420,-0.13000,84.9375,156,71,0.76264
5717430,-0.13500,84.0625,156,71,0.76361
5717440,-0.14000,83.3125,156,71,0.76288
5717450,-0.14500,81.9375,156,71,0.76020
5717460,-0.14000,81.2500,156,71,0.75116
5717470,-0.13000,80.6250,156,71,0.74481
5717480,-0.13500,80.0000,156,71,0.73675
5717490,-0.13500,79.4375,156,71,0.72674
5717500,0.04000,78.1875,156,71,0.70012
5717510,0.54500,77.5625,156,71,0.68352
5717520,1.05500,76.9375,156,71,0.66520
5717530,0.88500,76.3125,156,71,0.64542
5717540,0.13000,74.8750,156,71,0.60635
5717550,-0.38000,74.1875,156,71,0.58926
5717560,-0.45500,73.5000,156,71,0.57118
5717570,-0.33500,72.8125,156,71,0.55360
5717580,-0.24000,71.5000,156,71,0.52234
5717590,-0.21000,70.8750,156,71,0.50867
5717600,-0.19500,70.2500,156,71,0.49621
5717610,-0.18000,69.6875,156,71,0.48474
5717620,-0.18000,68.5000,156,71,0.46447
5717630,-0.17500,68.0000,156,71,0.45495
5717640,-0.17000,67.6250,156,71,0.44567
5717650,-0.16500,67.5625,156,71,0.43761
5717660,-0.16000,70.3125,156,71,0.42271
5717670,-0.14000,74.8750,156,71,0.41441
5717680,-0.12500,82.2500,156,71,0.40610
5717690,-0.10000,92.1250,156,71,0.39805
5717700,-0.07500,114.0625,156,71,0.38242
5717710,-0.05500,124.1250,156,71,0.37534
5717720,-0.03000,132.7500,156,71,0.36825
5717730,0.00000,139.7500,156,71,0.36166
5717740,0.02000,148.4375,156,71,0.35067
5717750,0.04500,150.6250,156,71,0.34652
5717760,0.05500,151.7500,156,71,0.34164
5717770,0.06000,152.1875,156,71,0.33651
5717780,0.05500,151.8750,156,71,0.32674
5717790,0.05000,151.3750,156,71,0.32186
5717800,0.05000,150.6875,156,71,0.31722
5717810,0.05000,149.0625,156,71,0.31258
5717820,0.05500,148.1250,156,71,0.30354
5717830,0.06500,147.0625,156,71,0.29915
5717840,0.07000,145.9375,156,71,0.29475
5717850,0.06000,144.7500,156,71,0.29182
5717860,0.04000,142.1250,156,71,0.28596
5717870,0.01500,140.5000,156,71,0.28230
5717880,-0.01000,138.7500,156,71,0.27814
5717890,-0.02500,134.2500,156,71,0.27399
5717900,-0.03500,131.2500,156,71,0.26593
5717910,-0.04000,127.5000,156,71,0.26300
5717920,-0.03500,123.1250,156,71,0.26276
5717930,-0.02500,118.1875,156,71,0.26691
5717940,-0.02000,108.0000,156,71,0.29158
5717950,-0.00500,103.6875,156,71,0.31111
5717960,0.01000,100.2500,156,71,0.33944
5717970,0.03500,97.6250,156,71,0.37485
5717980,0.07000,94.5625,156,71,0.45910
5717990,0.10000,93.6875,156,71,0.50305
5718000,0.13000,93.0625,156,71,0.54554
5718010,0.15500,92.0625,156,71,0.58486
5718020,0.15000,91.4125,156,71,0.62772
5718030,0.14000,90.9313,156,71,0.66777
5718040,0.11000,90.4375,156,71,0.69866
5718050,0.04500,89.7500,156,71,0.71404
5718060,-0.02500,88.1250,156,71,0.73578
5718070,-0.08500,87.3125,156,71,0.74481
5718080,-0.11500,86.5000,156,71,0.75165
5718090,-0.12500,85.6250,156,71,0.75678
5718100,-0.13000,84.0000,156,71,0.76142
5718110,-0.13500,83.2500,156,71,0.76142
5718120,-0.13500,82.5000,156,71,0.75971
5718130,-0.13500,81.8125,156,71,0.75653
5718140,-0.13000,80.5625,156,71,0.74530
5718150,-0.12500,79.9375,156,71,0.73748
5718160,-0.13000,79.2500,156,71,0.72821
5718170,-0.06500,78.6250,156,71,0.71722
5718180,0.28500,77.2500,156,71,0.68913
5718190,0.87500,76.5000,156,71,0.67179
5718200,1.01000,75.7500,156,71,0.65250
5718210,0.43000,74.9375,156,71,0.63175
5718220,-0.20500,73.4375,156,71,0.58950
5718230,-0.46000,72.7500,156,71,0.56899
5718240,-0.41000,72.0625,156,71,0.54969
5718250,-0.29000,71.4375,156,71,0.53382
5718260,-0.23500,70.1875,156,71,0.50623
5718270,-0.21500,69.5625,156,71,0.49304
5718280,-0.20000,68.9375,156,71,0.48107
5718290,-0.19500,68.3750,156,71,0.47009
5718300,-0.20000,67.2500,156,71,0.45031
5718310,-0.20000,66.8750,156,71,0.44103
5718320,-0.20000,66.6250,156,71,0.43199
5718330,-0.18500,66.8125,156,71,0.42320
5718340,-0.17500,71.1250,156,71,0.40757
5718350,-0.16000,76.8750,156,71,0.40122
5718360,-0.14500,85.2500,156,71,0.39390
5718370,-0.11500,95.4375,156,71,0.38632
5718380,-0.09500,116.3125,156,71,0.37192
5718390,-0.07500,125.3750,156,71,0.36508
5718400,-0.04500,132.9375,156,71,0.35849
5718410,-0.02000,138.8750,156,71,0.35214
5718420,0.00000,146.0625,156,71,0.33993
5718430,0.01000,147.6875,156,71,0.33407
5718440,0.02000,148.5000,156,71,0.32845
5718450,0.02000,148.6250,156,71,0.32430
5718460,0.01500,147.6875,156,71,0.31648
5718470,0.01000,146.8750,156,71,0.31184
5718480,0.01000,145.9375,156,71,0.30696
5718490,0.02000,144.9375,156,71,0.30208
5718500,0.03000,142.6250,156,71,0.29255
5718510,0.04000,141.3750,156,71,0.28767
5718520,0.03000,140.0625,156,71,0.28327
5718530,0.01500,138.6875,156,71,0.27888
5718540,-0.00500,135.6250,156,71,0.27155
5718550,-0.02500,133.8750,156,71,0.26935
5718560,-0.04000,131.7500,156,71,0.26618
5718570,-0.04500,129.1875,156,71,0.26252
5718580,-0.04500,122.3125,156,71,0.25543
5718590,-0.04000,117.8125,156,71,0.25372
5718600,-0.03000,112.9375,156,71,0.25495
5718610,-0.01500,107.9375,156,71,0.26081
5718620,-0.01000,99.5625,156,71,0.29255
5718630,0.00000,96.6250,156,71,0.31966
5718640,0.02000,94.5000,156,71,0.35360
5718650,0.05000,93.0625,156,71,0.38730
5718660,0.07000,91.4375,156,71,0.46105
5718670,0.10000,90.8750,156,71,0.50232
5718680,0.13000,90.3125,156,71,0.54237
5718690,0.13500,89.8125,156,71,0.57924
5718700,0.12000,88.6250,156,71,0.64103
5718710,0.09000,87.9375,156,71,0.66569
5718720,0.03000,87.1875,156,71,0.68620
5718730,-0.04000,86.4375,156,71,0.70281
5718740,-0.10500,84.8125,156,71,0.72503
5718750,-0.14000,84.0000,156,71,0.73040
5718760,-0.16000,83.1875,156,71,0.73480
5718770,-0.17000,82.4375,156,71,0.73797
5718780,-0.16500,80.8750,156,71,0.73993
5718790,-0.16000,80.1875,156,71,0.73871
5718800,-0.16000,79.5000,156,71,0.73578
5718810,-0.15500,78.8125,156,71,0.73138
5718820,-0.15500,77.5625,156,71,0.71795
5718830,-0.16000,76.9375,156,71,0.70818
5718840,-0.13000,76.3125,156,71,0.69646
5718850,0.15000,75.0000,156,71,0.68376
5718860,0.76000,74.3750,156,71,0.65299
5718870,1.11000,73.6875,156,71,0.63394
5718880,0.62500,73.0000,156,71,0.61368
5718890,-0.11500,72.3125,156,71,0.59292
5718900,-0.47500,70.9375,156,71,0.55263
5718910,-0.49500,70.3125,156,71,0.53431
5718920,-0.37000,69.6875,156,71,0.51795
5718930,-0.27500,69.1250,156,71,0.50305
5718940,-0.24500,67.9375,156,71,0.47839
5718950,-0.23000,67.3750,156,71,0.46911
5718960,-0.22000,66.8125,156,71,0.45934
5718970,-0.21500,66.3125,156,71,0.45006
5718980,-0.21500,65.4375,156,71,0.43223
5718990,-0.21000,65.1875,156,71,0.42344
5719000,-0.20000,65.3125,156,71,0.41465
5719010,-0.18000,66.5000,156,71,0.40610
5719020,-0.16500,75.1875,156,71,0.38950
5719030,-0.14500,83.5625,156,71,0.38193
5719040,-0.13000,93.7500,156,71,0.37436
5719050,-0.11417,109.4479,156,71,0.36569
5719060,-0.09500,124.3750,156,71,0.35751
5719070,-0.07000,132.2500,156,71,0.35140
5719080,-0.04500,138.4375,156,71,0.34554
5719090,-0.02500,142.8750,156,71,0.33968
5719100,-0.01500,147.5000,156,71,0.32821
5719110,-0.01000,148.1875,156,71,0.32308
5719120,-0.01000,148.2500,156,71,0.31795
5719130,-0.01500,147.8750,156,71,0.31282
5719140,-0.02000,146.4375,156,71,0.30330
5719150,-0.02000,145.5625,156,71,0.30012
5719160,-0.01500,144.5625,156,71,0.29597
5719170,-0.00500,143.5000,156,71,0.29133
5719180,-0.00500,141.1875,156,71,0.28205
5719190,-0.00500,139.9375,156,71,0.27741
5719200,-0.01500,138.6250,156,71,0.27326
5719210,-0.03500,137.1875,156,71,0.26960
5719220,-0.06500,133.9375,156,71,0.26252
5719230,-0.07500,131.8750,156,71,0.25861
5719240,-0.08500,129.4375,156,71,0.25470
5719250,-0.08500,126.4375,156,71,0.25226
5719260,-0.07500,118.4375,156,71,0.24933
5719270,-0.05500,113.6875,156,71,0.24982
5719280,-0.03500,108.8750,156,71,0.25446
5719290,-0.02500,104.4375,156,71,0.26520
5719300,-0.01500,97.8750,156,71,0.30867
5719310,0.00000,95.8125,156,71,0.34188
5719320,0.02000,94.4375,156,71,0.38095
5719330,0.05000,93.4375,156,71,0.42393
5719340,0.07000,92.0625,156,71,0.50208
5719350,0.10000,91.5000,156,71,0.53407
5719360,0.12000,90.9375,156,71,0.56777
5719370,0.11500,90.3125,156,71,0.59976
5719380,0.09500,88.9375,156,71,0.65372
5719390,0.05500,88.1875,156,71,0.67497
5719400,-0.01500,87.4375,156,71,0.69231
5719410,-0.08500,86.6250,156,71,0.70623
5719420,-0.13500,85.0625,156,71,0.72479
5719430,-0.16000,84.3125,156,71,0.73016
5719440,-0.17000,83.5625,156,71,0.73260
5719450,-0.17000,82.8125,156,71,0.73309
5719460,-0.17000,81.2500,156,71,0.73211
5719470,-0.17000,80.5625,156,71,0.72991
5719480,-0.17000,79.8125,156,71,0.72625
5719490,-0.16500,79.1875,156,71,0.72137
5719500,-0.16500,78.0000,156,71,0.70623
5719510,-0.18000,77.3750,156,71,0.69548
5719520,-0.04000,76.8125,156,71,0.68254
5719530,0.42500,76.2500,156,71,0.66740
5719540,1.02500,75.1250,156,71,0.63419
5719550,1.00000,74.5000,156,71,0.61783
5719560,0.24000,73.8750,156,71,0.59951
5719570,-0.36500,73.2500,156,71,0.58046
5719580,-0.51000,72.0625,156,71,0.54408
5719590,-0.41000,71.5000,156,71,0.52772
5719600,-0.29000,70.9375,156,71,0.51282
5719610,-0.24000,70.4375,156,71,0.49939
5719620,-0.22500,69.3750,156,71,0.47668
5719630,-0.21000,68.8125,156,71,0.46667
5719640,-0.20000,68.3125,156,71,0.45836
5719650,-0.19000,67.7500,156,71,0.45079
5719660,-0.19000,66.9375,156,71,0.43419
5719670,-0.18000,67.0000,156,71,0.42589
5719680,-0.17000,67.9375,156,71,0.41758
5719690,-0.16000,70.6250,156,71,0.40952
5719700,-0.14500,84.0625,156,71,0.39390
5719710,-0.12500,94.3750,156,71,0.38657
5719720,-0.10500,105.5625,156,71,0.37949
5719730,-0.07500,116.5000,156,71,0.37265
5719740,-0.04500,134.5000,156,71,0.36093
5719750,-0.01500,141.0000,156,71,0.35653
5719760,0.01000,145.8125,156,71,0.35140
5719770,0.03000,148.9375,156,71,0.34603
5719780,0.04500,151.6875,156,71,0.33553
5719790,0.05000,151.8750,156,71,0.33040
5719800,0.05000,151.6875,156,71,0.32576
5719810,0.05000,151.2500,156,71,0.32112
5719820,0.04500,149.9375,156,71,0.31233
5719830,0.04500,149.1250,156,71,0.30794
5719840,0.05000,148.2500,156,71,0.30476
5719850,0.06500,147.3125,156,71,0.30232
5719860,0.07000,145.2500,156,71,0.29597
5719870,0.06000,144.1875,156,71,0.29255
5719880,0.03500,142.9375,156,71,0.28913
5719890,0.01000,141.6250,156,71,0.28547
5719900,-0.01000,138.4375,156,71,0.27839
5719910,-0.02500,136.3750,156,71,0.27448
5719920,-0.03500,133.7500,156,71,0.27082
5719930,-0.03500,130.5625,156,71,0.26740
5719940,-0.03500,122.1875,156,71,0.26642
5719950,-0.02500,117.1875,156,71,0.27057
5719960,-0.01500,112.1250,156,71,0.27961
5719970,-0.01000,107.3750,156,71,0.29524
5719980,-0.00500,100.1875,156,71,0.34896
5719990,0.01000,97.9375,156,71,0.38584
5720000,0.03000,96.3750,155,71,0.42686
5720010,0.06000,94.5625,155,71,0.51258
5720020,0.08000,94.0000,155,71,0.55336
5720030,0.11000,93.5625,155,71,0.59048
5720040,0.13000,93.1250,155,71,0.61954
5720050,0.13000,92.5625,155,71,0.64322
5720060,0.11500,91.3125,155,71,0.68718
5720070,0.08000,90.5500,155,71,0.71057
5720080,0.01500,89.8563,155,71,0.72252
5720090,-0.05500,88.8125,155,71,0.73211
5720100,-0.10500,87.0000,155,71,0.74847
5720110,-0.12500,86.0625,155,71,0.75336
5720120,-0.13500,85.1875,155,71,0.75653
5720130,-0.13500,84.3125,155,71,0.75824
5720140,-0.14500,82.6875,155,71,0.75556
5720150,-0.14500,82.0000,155,71,0.75189
5720160,-0.14000,81.3750,155,71,0.74750
5720170,-0.13500,80.8125,155,71,0.74164
5720180,-0.13500,79.6250,155,71,0.72527
5720190,-0.13500,79.0625,155,71,0.71429
5720200,0.02000,78.5000,155,71,0.70110
5720210,0.49000,77.8750,155,71,0.68596
5720220,1.02500,76.5000,155,71,0.64982
5720230,0.90500,75.7500,155,71,0.62979
5720240,0.17000,75.0625,155,71,0.61148
5720250,-0.35000,74.3125,155,71,0.59414
5720260,-0.46000,72.9375,155,71,0.55775
5720270,-0.35500,72.2500,155,71,0.54090
5720280,-0.25000,71.6250,155,71,0.52527
5720290,-0.21500,71.0000,155,71,0.51087
5720300,-0.20000,69.8125,155,71,0.48620
5720310,-0.18500,69.1875,155,71,0.47570
5720320,-0.17500,68.6250,155,71,0.46593
5720330,-0.16500,68.0625,155,71,0.45641
5720340,-0.16000,67.2500,155,71,0.43932
5720350,-0.15500,67.3125,155,71,0.43223
5720360,-0.14000,68.2500,155,71,0.42442
5720370,-0.12500,70.9375,155,71,0.41612
5720380,-0.11500,84.2500,155,71,0.40024
5720390,-0.09500,94.3125,155,71,0.39219
5720400,-0.07500,105.2500,155,71,0.38462
5720410,-0.05000,115.8125,155,71,0.37729
5720420,-0.02500,133.4375,155,71,0.36361
5720430,0.00500,139.8125,155,71,0.35726
5720440,0.03000,144.4375,155,71,0.35238
5720450,0.05000,147.5000,155,71,0.34847
5720460,0.06000,150.1250,155,71,0.33871
5720470,0.06000,150.3750,155,71,0.33358
5720480,0.05000,150.1875,155,71,0.32845
5720490,0.04000,149.6875,155,71,0.32332
5720500,0.03500,148.1875,155,71,0.31380
5720510,0.03500,147.2500,155,71,0.30916
5720520,0.04000,146.2500,155,71,0.30452
5720530,0.05000,145.2500,155,71,0.29988
5720540,0.05000,143.0000,155,71,0.29206
5720550,0.04000,141.8125,155,71,0.28962
5720560,0.01500,140.5000,155,71,0.28645
5720570,-0.01000,139.1250,155,71,0.28278
5720580,-0.03000,135.6875,155,71,0.27497
5720590,-0.04500,133.5000,155,71,0.27106
5720600,-0.05500,130.8125,155,71,0.26716
5720610,-0.05500,127.4375,155,71,0.26349
5720620,-0.04500,118.6875,155,71,0.26081
5720630,-0.03500,113.6250,155,71,0.26496
5720640,-0.02000,108.7500,155,71,0.27302
5720650,-0.00500,104.3750,155,71,0.28596
5720660,0.01000,98.0000,155,71,0.33504
5720670,0.03000,95.9375,155,71,0.36996
5720680,0.05500,94.4375,155,71,0.40952
5720690,0.08000,93.4375,155,71,0.45177
5720700,0.10000,92.0625,155,71,0.53455
5720710,0.13000,91.5000,155,71,0.57192
5720720,0.14000,90.9375,155,71,0.60513
5720730,0.13500,90.3750,155,71,0.63419
5720740,0.11000,89.0000,155,71,0.67717
5720750,0.05000,88.2500,155,71,0.69084
5720760,-0.02500,87.4375,155,71,0.70379
5720770,-0.09000,86.5625,155,71,0.71526
5720780,-0.12500,84.8125,155,71,0.73114
5720790,-0.14500,83.9375,155,71,0.73553
5720800,-0.15500,83.0625,155,71,0.73797
5720810,-0.16000,82.2500,155,71,0.73895
5720820,-0.16000,80.8125,155,71,0.73626
5720830,-0.15500,80.1875,155,71,0.73309
5720840,-0.15500,79.5625,155,71,0.72845
5720850,-0.14500,79.0000,155,71,0.72234
5720860,-0.14500,77.7500,155,71,0.70574
5720870,-0.12500,77.1250,155,71,0.69475
5720880,0.14000,76.5000,155,71,0.68132
5720890,0.72000,75.8125,155,71,0.66593
5720900,1.06500,74.3750,155,71,0.63004
5720910,0.66000,73.6875,155,71,0.61050
5720920,-0.05000,72.9375,155,71,0.59072
5720930,-0.43000,72.2500,155,71,0.57118
5720940,-0.46000,70.8750,155,71,0.53626
5720950,-0.34000,70.2500,155,71,0.52234
5720960,-0.25000,69.6875,155,71,0.50867
5720970,-0.22500,69.1250,155,71,0.49573
5720980,-0.21000,68.0000,155,71,0.47204
5720990,-0.20000,67.3750,155,71,0.46178
5721000,-0.19000,66.8750,154,70,0.45201
5721010,-0.18500,65.9375,154,70,0.43346
5721020,-0.18000,65.7500,154,70,0.42466
5721030,-0.16500,66.0000,154,70,0.41587
5721040,-0.16000,67.2500,154,70,0.40855
5721050,-0.14500,70.3750,154,70,0.40220
5721060,-0.13000,84.4375,154,70,0.38755
5721070,-0.11000,94.4375,154,70,0.37998
5721080,-0.08500,105.0000,154,70,0.37265
5721090,-0.06000,115.1250,154,70,0.36557
5721100,-0.03917,127.3542,154,70,0.35572
5721110,-0.02000,137.6250,154,70,0.34628
5721120,0.00000,141.8750,154,70,0.34042
5721130,0.01000,144.6875,154,70,0.33480
5721140,0.01000,147.0000,154,70,0.32674
5721150,0.01000,147.0625,154,70,0.32259
5721160,0.01000,146.7500,154,70,0.31819
5721170,0.01000,146.1250,154,70,0.31355
5721180,0.01000,144.3750,154,70,0.30403
5721190,0.01500,143.3125,154,70,0.29915
5721200,0.02500,142.1875,154,70,0.29426
5721210,0.03500,141.0000,154,70,0.28938
5721220,0.03500,138.5625,154,70,0.28059
5721230,0.02000,137.2500,154,70,0.27668
5721240,-0.00500,135.8750,154,70,0.27399
5721250,-0.03000,134.3125,154,70,0.27204
5721260,-0.05000,130.5000,154,70,0.26545
5721270,-0.05500,128.0000,154,70,0.26154
5721280,-0.05500,124.8750,154,70,0.25763
5721290,-0.04500,121.0625,154,70,0.25421
5721300,-0.03000,111.6250,154,70,0.25250
5721310,-0.01500,106.6250,154,70,0.25739
5721320,-0.00500,102.1250,154,70,0.26813
5721330,0.01000,98.3750,154,70,0.28596
5721340,0.02000,93.5625,154,70,0.33187
5721350,0.04000,92.2500,154,70,0.36484
5721360,0.06000,91.4375,154,70,0.40317
5721370,0.08000,90.8750,154,70,0.44396
5721380,0.11000,90.0625,154,70,0.52332
5721390,0.14000,89.6250,154,70,0.55727
5721400,0.13500,89.1875,154,70,0.58852
5721410,0.12000,88.6250,154,70,0.61636
5721420,0.08500,87.2500,154,70,0.66007
5721430,0.01500,86.4375,154,70,0.67619
5721440,-0.05500,85.6250,154,70,0.68718
5721450,-0.11000,84.8125,154,70,0.69451
5721460,-0.14000,83.1250,154,70,0.70672
5721470,-0.15000,82.3125,154,70,0.71038
5721480,-0.16000,81.5000,154,70,0.71282
5721490,-0.16500,80.7500,154,70,0.71355
5721500,-0.17000,79.3125,154,70,0.71111
5721510,-0.17000,78.6875,154,70,0.70769
5721520,-0.16500,78.0625,154,70,0.70281
5721530,-0.16000,77.4375,154,70,0.69621
5721540,-0.17500,76.2500,154,70,0.67863
5721550,-0.11000,75.6875,154,70,0.66691
5721560,0.28500,75.1250,154,70,0.65299
5721570,0.93000,74.5625,154,70,0.63687
5721580,1.04500,73.3125,154,70,0.60000
5721590,0.40500,72.6875,154,70,0.58022
5721600,-0.27500,72.0625,154,70,0.56068
5721610,-0.52000,71.4375,154,70,0.54212
5721620,-0.52000,70.1875,154,70,0.50891
5721630,-0.38000,69.5625,154,70,0.49451
5721640,-0.29000,69.0000,154,70,0.48278
5721650,-0.27000,68.5000,154,70,0.47302
5721660,-0.25000,67.4375,154,70,0.45446
5721670,-0.24000,66.8750,154,70,0.44567
5721680,-0.23000,66.3750,154,70,0.43712
5721690,-0.22000,65.9375,154,70,0.42906
5721700,-0.20500,65.6250,154,70,0.41319
5721710,-0.19000,66.3125,154,70,0.40513
5721720,-0.17500,68.4375,154,70,0.39731
5721730,-0.16000,72.9375,154,70,0.38974
5721740,-0.14500,89.8125,154,70,0.37827
5721750,-0.13000,100.5625,154,70,0.37216
5721760,-0.10500,111.3125,154,70,0.36606
5721770,-0.08000,121.1875,154,70,0.35995
5721780,-0.05500,136.5625,154,70,0.34750
5721790,-0.03000,141.7500,154,70,0.34188
5721800,-0.01500,145.2500,154,70,0.33651
5721810,0.00000,147.4375,154,70,0.33114
5721820,0.00500,149.0000,154,70,0.32112
5721830,0.00500,148.9375,154,70,0.31624
5721840,0.00500,148.5000,154,70,0.31282
5721850,0.00500,147.8750,154,70,0.31013
5721860,0.01000,146.2500,154,70,0.30281
5721870,0.01000,145.3125,154,70,0.29890
5721880,0.02000,144.2500,154,70,0.29499
5721890,0.03000,143.1250,154,70,0.29109
5721900,0.03000,140.8750,154,70,0.28352
5721910,0.01500,139.6250,154,70,0.27985
5721920,-0.00500,138.2500,154,70,0.27595
5721930,-0.03500,136.6875,154,70,0.27228
5721940,-0.05000,132.7500,154,70,0.26838
5721950,-0.05500,130.1250,154,70,0.26569
5721960,-0.05500,127.0000,154,70,0.26252
5721970,-0.05000,123.1250,154,70,0.25983
5721980,-0.03000,113.8750,154,70,0.26081
5721990,-0.01000,109.1250,154,70,0.26764
5722000,0.00000,104.8125,154,70,0.28083
5722010,0.01000,101.2500,154,70,0.30110
5722020,0.02000,96.5625,154,70,0.36264
5722030,0.04000,95.3125,154,70,0.40122
5722040,0.06500,94.4375,154,70,0.43712
5722050,0.09000,93.8125,154,70,0.47131
5722060,0.11000,92.7500,154,70,0.54628
5722070,0.13500,92.1875,154,70,0.58120
5722080,0.14000,91.5625,154,70,0.61245
5722090,0.13000,90.9375,154,70,0.63956
5722100,0.10000,89.4375,154,70,0.68181
5722110,0.04500,88.5625,154,70,0.69768
5722120,-0.02500,87.4313,154,70,0.71140
5722130,-0.08167,86.2250,154,70,0.72217
5722140,-0.12000,85.1250,154,70,0.72918
5722150,-0.13500,84.3125,154,70,0.73162
5722160,-0.14500,83.5000,154,70,0.73333
5722170,-0.15000,82.6875,154,70,0.73382
5722180,-0.15500,81.2500,154,70,0.73089
5722190,-0.15500,80.5625,154,70,0.72723
5722200,-0.14500,79.9375,154,70,0.72210
5722210,-0.14000,79.3125,154,70,0.71502
5722220,-0.13500,78.1875,154,70,0.69597
5722230,-0.10500,77.6250,154,70,0.68327
5722240,0.15000,77.0000,154,70,0.66984
5722250,0.73500,76.3750,154,70,0.65568
5722260,1.10500,75.1250,154,70,0.62051
5722270,0.66500,74.4375,154,70,0.60147
5722280,-0.07500,73.8125,154,70,0.58242
5722290,-0.43500,73.1875,154,70,0.56386
5722300,-0.43500,71.8750,154,70,0.53114
5722310,-0.30000,71.2500,154,70,0.51697
5722320,-0.22000,70.6250,154,70,0.50427
5722330,-0.21000,70.0625,154,70,0.49255
5722340,-0.20000,68.8750,154,70,0.47424
5722350,-0.20000,68.3125,154,70,0.46545
5722360,-0.19000,67.8125,154,70,0.45665
5722370,-0.18000,67.3125,154,70,0.44811
5722380,-0.17500,66.9375,154,70,0.43150
5722390,-0.16500,67.6250,154,70,0.42344
5722400,-0.15000,69.8125,154,70,0.41538
5722410,-0.13500,74.4375,154,70,0.40757
5722420,-0.11500,91.5625,154,70,0.39316
5722430,-0.08500,102.3750,154,70,0.38584
5722440,-0.05500,113.0625,154,70,0.37998
5722450,-0.02500,122.8125,154,70,0.37460
5722460,0.00000,138.1250,154,70,0.36239
5722470,0.02500,143.2500,154,70,0.35629
5722480,0.04500,146.8125,154,70,0.35043
5722490,0.05500,148.9375,154,70,0.34481
5722500,0.06500,150.5625,154,70,0.33480
5722510,0.06500,150.5625,154,70,0.33016
5722520,0.06500,150.2500,154,70,0.32576
5722530,0.06000,149.7500,154,70,0.32137
5722540,0.05500,148.3750,154,70,0.31502
5722550,0.05500,147.5625,154,70,0.31136
5722560,0.06000,146.6250,154,70,0.30745
5722570,0.07000,145.7500,154,70,0.30330
5722580,0.07000,143.6250,154,70,0.29499
5722590,0.05000,142.4375,154,70,0.29109
5722600,0.02000,141.1250,154,70,0.28718
5722610,-0.00500,139.6875,154,70,0.28352
5722620,-0.02000,135.9375,154,70,0.27570
5722630,-0.03500,133.5000,154,70,0.27179
5722640,-0.04500,130.4375,154,70,0.26911
5722650,-0.04500,126.8125,154,70,0.26789
5722660,-0.03500,117.5625,154,70,0.26911
5722670,-0.02500,112.4375,154,70,0.27570
5722680,-0.01000,107.6250,154,70,0.28816
5722690,0.00000,103.3750,154,70,0.30794
5722700,0.01000,97.5000,154,70,0.36801
5722710,0.03000,95.6875,154,70,0.40586
5722720,0.05500,94.4375,154,70,0.44664
5722730,0.08000,93.5625,154,70,0.48816
5722740,0.10000,92.4375,154,70,0.55433
5722750,0.13000,92.0000,154,70,0.58584
5722760,0.13500,91.5000,154,70,0.61538
5722770,0.12500,90.4375,154,70,0.66496
5722780,0.10500,89.7500,154,70,0.68449
5722790,0.05000,89.0000,154,70,0.70061
5722800,-0.02000,88.1875,154,70,0.71380
5722810,-0.08000,87.3750,154,70,0.72430
5722820,-0.12000,85.6250,154,70,0.73797
5722830,-0.14000,84.8125,154,70,0.74188
5722840,-0.15000,83.9375,154,70,0.74310
5722850,-0.15500,83.1250,154,70,0.74261
5722860,-0.15500,81.6250,154,70,0.73919
5722870,-0.15500,80.9375,154,70,0.73553
5722880,-0.15500,80.3125,154,70,0.73065
5722890,-0.15000,79.6875,154,70,0.72430
5722900,-0.15000,78.4375,154,70,0.70598
5722910,-0.13500,77.8125,154,70,0.69377
5722920,0.07000,77.1875,154,70,0.67937
5722930,0.60500,76.5000,154,70,0.66300
5722940,1.05000,75.0000,154,70,0.62979
5722950,0.72000,74.3125,154,70,0.61123
5722960,-0.00500,73.5625,154,70,0.59194
5722970,-0.40500,72.8750,154,70,0.57265
5722980,-0.46500,71.5000,154,70,0.53651
5722990,-0.35500,70.9375,154,70,0.52015
5723000,-0.25500,70.3125,153,70,0.50549
5723010,-0.22500,69.7500,153,70,0.49231
5723020,-0.22000,68.5625,153,70,0.46960
5723030,-0.21500,68.0000,153,70,0.46105
5723040,-0.20500,67.4375,153,70,0.45348
5723050,-0.20000,66.9375,153,70,0.44542
5723060,-0.19000,66.3750,153,70,0.42906
5723070,-0.18000,66.6875,153,70,0.42100
5723080,-0.17000,68.1250,153,70,0.41294
5723090,-0.15500,71.5625,153,70,0.40488
5723100,-0.14000,86.3125,153,70,0.38950
5723110,-0.12000,96.5000,153,70,0.38193
5723120,-0.09500,106.9375,153,70,0.37460
5723130,-0.07000,116.8125,153,70,0.36728
5723140,-0.04500,126.9875,153,70,0.35978
5723150,-0.01833,136.0437,153,70,0.35255
5723160,0.00500,142.5625,153,70,0.34603
5723170,0.02000,145.1250,153,70,0.34066
5723180,0.03000,147.1250,153,70,0.33016
5723190,0.03000,147.1875,153,70,0.32527
5723200,0.03000,146.8750,153,70,0.32039
5723210,0.03000,146.2500,153,70,0.31551
5723220,0.03000,144.6250,153,70,0.30525
5723230,0.03500,143.6250,153,70,0.30159
5723240,0.05000,142.5625,153,70,0.29890
5723250,0.05500,141.4375,153,70,0.29524
5723260,0.05000,139.0625,153,70,0.28718
5723270,0.04000,137.7500,153,70,0.28327
5723280,0.02000,136.3125,153,70,0.27937
5723290,-0.00500,134.7500,153,70,0.27521
5723300,-0.03500,130.9375,153,70,0.26740
5723310,-0.05500,128.3750,153,70,0.26349
5723320,-0.05500,125.3125,153,70,0.25983
5723330,-0.05500,121.5625,153,70,0.25690
5723340,-0.04000,112.3750,153,70,0.25739
5723350,-0.02500,107.5000,153,70,0.26178
5723360,-0.01500,103.1250,153,70,0.27082
5723370,-0.00500,99.4375,153,70,0.28620
5723380,0.01000,94.5625,153,70,0.33773
5723390,0.02500,93.1875,153,70,0.37241
5723400,0.04500,92.1875,153,70,0.41099
5723410,0.07000,91.5000,153,70,0.45104
5723420,0.09500,90.4375,153,70,0.52918
5723430,0.12000,89.9375,153,70,0.56044
5723440,0.13000,89.4375,153,70,0.58657
5723450,0.12000,88.8125,153,70,0.61221
5723460,0.09500,87.5000,153,70,0.65617
5723470,0.03500,86.7500,153,70,0.67350
5723480,-0.03500,85.9375,153,70,0.68742
5723490,-0.09500,85.1250,153,70,0.69841
5723500,-0.13500,83.5000,153,70,0.71282
5723510,-0.15500,82.6875,153,70,0.71722
5723520,-0.15500,81.8750,153,70,0.71990
5723530,-0.15500,81.1250,153,70,0.72088
5723540,-0.15500,79.7500,153,70,0.71624
5723550,-0.16000,79.0625,153,70,0.71233
5723560,-0.16000,78.5000,153,70,0.70745
5723570,-0.15500,77.8750,153,70,0.70110
5723580,-0.15500,76.6250,153,70,0.68327
5723590,-0.14000,75.9375,153,70,0.67131
5723600,0.11000,75.3125,153,70,0.65690
5723610,0.69000,74.6875,153,70,0.64029
5723620,1.07500,73.3125,153,70,0.60269
5723630,0.66000,72.6250,153,70,0.58486
5723640,-0.07000,71.9375,153,70,0.56825
5723650,-0.45000,71.2500,153,70,0.55067
5723660,-0.50000,69.8750,153,70,0.51722
5723670,-0.38500,69.3125,153,70,0.50232
5723680,-0.28500,68.7500,153,70,0.48889
5723690,-0.26000,68.1875,153,70,0.47668
5723700,-0.24000,67.0625,153,70,0.45568
5723710,-0.22500,66.5000,153,70,0.44640
5723720,-0.21000,66.0000,153,70,0.43761
5723730,-0.20000,65.1875,153,70,0.42906
5723740,-0.19000,65.0625,153,70,0.41514
5723750,-0.18500,65.5000,153,70,0.40757
5723760,-0.17000,67.1875,153,70,0.40000
5723770,-0.16000,70.8125,153,70,0.39243
5723780,-0.14000,85.7500,153,70,0.37802
5723790,-0.12500,95.8750,153,70,0.37118
5723800,-0.10000,106.2500,153,70,0.36459
5723810,-0.07500,116.0625,153,70,0.35824
5723820,-0.05000,131.8750,153,70,0.34579
5723830,-0.02500,137.5000,153,70,0.34090
5723840,0.00000,141.5000,153,70,0.33675
5723850,0.01000,144.1250,153,70,0.33211
5723860,0.01500,146.3125,153,70,0.32210
5723870,0.01500,146.3750,153,70,0.31722
5723880,0.01500,146.0625,153,70,0.31233
5723890,0.00000,145.5000,153,70,0.30769
5723900,0.00000,143.8750,153,70,0.29841
5723910,0.00000,142.8750,153,70,0.29377
5723920,0.01000,141.8750,153,70,0.28889
5723930,0.02000,140.7500,153,70,0.28425
5723940,0.02000,138.3125,153,70,0.27863
5723950,0.01000,136.9375,153,70,0.27570
5723960,-0.01000,135.5625,153,70,0.27228
5723970,-0.04000,134.0000,153,70,0.26886
5723980,-0.06000,130.1875,153,70,0.26178
5723990,-0.07500,127.6875,153,70,0.25812
5724000,-0.07000,124.6250,152,69,0.25446
5724010,-0.06500,120.8750,152,69,0.25128
5724020,-0.04500,111.9375,152,69,0.25055
5724030,-0.03500,107.2500,152,69,0.25519
5724040,-0.02000,103.0000,152,69,0.26422
5724050,-0.01000,99.4375,152,69,0.27937
5724060,0.00000,94.7500,152,69,0.33040
5724070,0.02000,93.3750,152,69,0.36508
5724080,0.04000,92.4375,152,69,0.40391
5724090,0.05000,91.7500,152,69,0.44518
5724100,0.07500,90.6875,152,69,0.52576
5724110,0.10000,90.1875,152,69,0.56215
5724120,0.11000,89.6250,152,69,0.59487
5724130,0.10000,89.0625,152,69,0.62320
5724140,0.07000,87.6875,152,69,0.66081
5724150,0.01500,86.9375,152,69,0.67643
5724160,-0.05500,86.1875,152,69,0.68987
5724170,-0.10800,85.1688,152,69,0.70259
5724180,-0.14450,84.0500,152,69,0.71328
5724190,-0.16500,83.0000,152,69,0.72063
5724200,-0.17000,82.1875,152,69,0.72332
5724210,-0.17000,81.3750,152,69,0.72430
5724220,-0.17000,79.9375,152,69,0.72137
5724230,-0.17000,79.2500,152,69,0.71746
5724240,-0.16000,78.6875,152,69,0.71233
5724250,-0.16000,78.0625,152,69,0.70598
5724260,-0.16000,76.9375,152,69,0.68864
5724270,-0.14500,76.3125,152,69,0.67717
5724280,0.10000,75.7500,152,69,0.66349
5724290,0.68000,75.1875,152,69,0.64762
5724300,1.11000,74.0000,152,69,0.61123
5724310,0.73000,73.3125,152,69,0.59170
5724320,-0.02500,72.6875,152,69,0.57216
5724330,-0.44000,72.0625,152,69,0.55336
5724340,-0.49000,70.9375,152,69,0.52357
5724350,-0.36500,70.3750,152,69,0.50989
5724360,-0.27000,69.8125,152,69,0.49695
5724370,-0.24000,69.2500,152,69,0.48498
5724380,-0.22000,68.1875,152,69,0.46374
5724390,-0.20000,67.6250,152,69,0.45421
5724400,-0.19000,67.1250,152,69,0.44493
5724410,-0.18500,66.6875,152,69,0.43614
5724420,-0.18000,66.3125,152,69,0.41954
5724430,-0.17000,66.8750,152,69,0.41270
5724440,-0.15500,68.8125,152,69,0.40659
5724450,-0.14500,73.0625,152,69,0.39976
5724460,-0.12000,89.4375,152,69,0.38584
5724470,-0.09500,100.1250,152,69,0.37851
5724480,-0.06500,110.8125,152,69,0.37143
5724490,-0.04000,120.7500,152,69,0.36459
5724500,-0.01000,136.3750,152,69,0.35165
5724510,0.01000,141.7500,152,69,0.34554
5724520,0.03000,145.4375,152,69,0.33968
5724530,0.04500,147.8125,152,69,0.33407
5724540,0.05500,149.6250,152,69,0.32650
5724550,0.05000,149.7500,152,69,0.32234
5724560,0.05000,149.5000,152,69,0.31795
5724570,0.04000,149.1250,152,69,0.31355
5724580,0.03500,147.8125,152,69,0.30525
5724590,0.03500,147.0000,152,69,0.30085
5724600,0.04000,146.1250,152,69,0.29670
5724610,0.05000,145.1875,152,69,0.29255
5724620,0.05000,143.0625,152,69,0.28474
5724630,0.03000,141.8125,152,69,0.28205
5724640,0.01000,140.5000,152,69,0.28010
5724650,-0.01500,138.9375,152,69,0.27741
5724660,-0.03500,135.2500,152,69,0.27106
5724670,-0.05000,132.9375,152,69,0.26764
5724680,-0.05500,130.0625,152,69,0.26398
5724690,-0.05000,126.6250,152,69,0.26105
5724700,-0.04000,117.7500,152,69,0.26154
5724710,-0.03000,112.6875,152,69,0.26789
5724720,-0.01500,107.8125,152,69,0.28059
5724730,-0.00500,103.5625,152,69,0.30061
5724740,0.00500,97.5625,152,69,0.34969
5724750,0.02000,95.7500,152,69,0.38413
5724760,0.04000,94.5625,152,69,0.42344
5724770,0.06000,93.7500,152,69,0.46496
5724780,0.08500,92.6875,152,69,0.54579
5724790,0.12000,92.3125,152,69,0.58242
5724800,0.14000,91.8125,152,69,0.61514
5724810,0.13000,91.3125,152,69,0.64371
5724820,0.12000,90.0000,152,69,0.68816
5724830,0.08000,89.2500,152,69,0.70232
5724840,0.01500,88.4375,152,69,0.71258
5724850,-0.05500,87.6250,152,69,0.72210
5724860,-0.10500,85.8750,152,69,0.73651
5724870,-0.13000,85.0000,152,69,0.74090
5724880,-0.14000,84.1250,152,69,0.74359
5724890,-0.14000,83.3125,152,69,0.74457
5724900,-0.14000,81.8125,152,69,0.74212
5724910,-0.14000,81.1250,152,69,0.73895
5724920,-0.14000,80.5000,152,69,0.73431
5724930,-0.13500,79.8750,152,69,0.72821
5724940,-0.13500,78.6250,152,69,0.71160
5724950,-0.14000,78.0000,152,69,0.70061
5724960,-0.02500,77.3750,152,69,0.68767
5724970,0.41000,76.6875,152,69,0.67253
5724980,1.00000,75.3750,152,69,0.63687
5724990,0.96000,74.6875,152,69,0.61734
5725000,0.27500,74.0000,152,69,0.59731
5725010,-0.29000,73.3125,152,69,0.57753
5725020,-0.46000,72.0000,152,69,0.54115
5725030,-0.37500,71.3750,152,69,0.52650
5725040,-0.27000,70.7500,152,69,0.51380
5725050,-0.23500,70.1875,152,69,0.50134
5725060,-0.22000,69.0625,152,69,0.47888
5725070,-0.21000,68.5000,152,69,0.46886
5725080,-0.20000,67.9375,152,69,0.45934
5725090,-0.20000,67.4375,152,69,0.45055
5725100,-0.19500,66.7500,152,69,0.43346
5725110,-0.18500,66.8750,152,69,0.42515
5725120,-0.17000,67.8750,152,69,0.41661
5725130,-0.15500,70.6875,152,69,0.40952
5725140,-0.13500,84.2500,152,69,0.39609
5725150,-0.11500,94.2500,152,69,0.38901
5725160,-0.09500,104.9375,152,69,0.38193
5725170,-0.06500,115.2500,152,69,0.37509
5725180,-0.04000,132.3750,152,69,0.36215
5725190,-0.02000,141.0938,152,69,0.35495
5725200,0.00084,144.6250,152,69,0.34994
5725210,0.02000,146.1875,152,69,0.34359
5725220,0.03500,149.0000,152,69,0.33236
5725230,0.04000,149.3750,152,69,0.32821
5725240,0.03000,149.3125,152,69,0.32479
5725250,0.02000,148.9375,152,69,0.32063
5725260,0.02000,147.8125,152,69,0.31160
5725270,0.02000,147.0625,152,69,0.30720
5725280,0.03000,146.2500,152,69,0.30281
5725290,0.04000,145.3125,152,69,0.29817
5725300,0.04000,143.3125,152,69,0.28889
5725310,0.03500,142.1875,152,69,0.28449
5725320,0.01500,140.8750,152,69,0.28034
5725330,-0.01000,139.4375,152,69,0.27766
5725340,-0.03000,136.0000,152,69,0.27253
5725350,-0.04500,133.8125,152,69,0.26886
5725360,-0.06000,131.1875,152,69,0.26496
5725370,-0.06500,128.0000,152,69,0.26129
5725380,-0.05500,119.7500,152,69,0.25788
5725390,-0.04500,114.8125,152,69,0.26081
5725400,-0.03500,109.8750,152,69,0.26911
5725410,-0.02000,101.4375,152,69,0.28400
5725420,-0.00500,98.3125,152,69,0.33504
5725430,0.01000,96.0000,152,69,0.36484
5725440,0.04000,94.3750,152,69,0.39609
5725450,0.06000,93.1875,152,69,0.43346
5725460,0.08000,91.7500,152,69,0.51282
5725470,0.11500,91.2500,152,69,0.55043
5725480,0.13500,90.7500,152,69,0.58559
5725490,0.13000,90.2500,152,69,0.61734
5725500,0.11000,89.0625,152,69,0.66740
5725510,0.06500,88.3125,152,69,0.68669
5725520,-0.00500,87.5625,152,69,0.70232
5725530,-0.07500,86.7500,152,69,0.71282
5725540,-0.12000,85.0625,152,69,0.72601
5725550,-0.15000,84.1875,152,69,0.73114
5725560,-0.16000,83.3750,152,69,0.73480
5725570,-0.16000,82.6250,152,69,0.73700
5725580,-0.15500,81.1250,152,69,0.73700
5725590,-0.15500,80.5000,152,69,0.73480
5725600,-0.15500,79.8750,152,69,0.73114
5725610,-0.15500,79.2500,152,69,0.72601
5725620,-0.15000,78.0000,152,69,0.71062
5725630,-0.15500,77.3750,152,69,0.70085
5725640,-0.03000,76.6875,152,69,0.68987
5725650,0.42500,75.9375,152,69,0.67643
5725660,0.99500,74.5000,152,69,0.64322
5725670,0.91000,73.8125,152,69,0.62442
5725680,0.21500,73.0625,152,69,0.60464
5725690,-0.32500,72.3750,152,69,0.58486
5725700,-0.50000,70.9375,152,69,0.54628
5725710,-0.42000,70.3125,152,69,0.52869
5725720,-0.29500,69.6875,152,69,0.51282
5725730,-0.24500,69.0625,152,69,0.49963
5725740,-0.23000,67.9375,152,69,0.47766
5725750,-0.22000,67.3750,152,69,0.46716
5725760,-0.20500,66.8125,152,69,0.45739
5725770,-0.19500,66.3125,152,69,0.44811
5725780,-0.18000,65.6250,152,69,0.43004
5725790,-0.17500,65.7500,152,69,0.42125
5725800,-0.16000,66.6250,152,69,0.41245
5725810,-0.15500,69.1250,152,69,0.40391
5725820,-0.14000,81.5625,152,69,0.38803
5725830,-0.12500,91.0625,152,69,0.38169
5725840,-0.10000,101.4375,152,69,0.37631
5725850,-0.08000,111.6250,152,69,0.37021
5725860,-0.05500,128.8750,152,69,0.35775
5725870,-0.02500,135.3125,152,69,0.35165
5725880,0.00000,140.0625,152,69,0.34579
5725890,0.01000,143.3750,152,69,0.34017
5725900,0.02000,146.3750,152,69,0.32918
5725910,0.02000,146.7500,152,69,0.32357
5725920,0.02000,146.5625,152,69,0.31819
5725930,0.01500,146.1250,152,69,0.31429
5725940,0.01000,144.6875,152,69,0.30647
5725950,0.01000,143.8125,152,69,0.30183
5725960,0.02500,143.5104,152,69,0.30033
5725970,0.03500,142.7500,152,69,0.29719
5725980,0.04500,140.5000,152,69,0.28767
5725990,0.04500,139.2500,152,69,0.28303
5726000,0.03000,138.0000,151,68,0.27863
5726010,0.00500,136.6875,151,68,0.27424
5726020,-0.02000,133.7500,151,68,0.26667
5726030,-0.04000,131.9375,151,68,0.26276
5726040,-0.05500,129.8750,151,68,0.26032
5726050,-0.05000,127.2500,151,68,0.25836
5726060,-0.03500,120.1250,151,68,0.25275
5726070,-0.02000,115.6875,151,68,0.25128
5726080,-0.00500,111.0000,151,68,0.25275
5726090,0.01000,106.3750,151,68,0.25861
5726100,0.01500,99.0000,151,68,0.28987
5726110,0.03000,96.4375,151,68,0.31624
5726120,0.05000,94.5625,151,68,0.34921
5726130,0.07000,93.3125,151,68,0.38706
5726140,0.08500,91.6875,151,68,0.45568
5726150,0.11500,91.0625,151,68,0.49255
5726160,0.14000,90.5625,151,68,0.52943
5726170,0.13500,89.3125,151,68,0.56410
5726180,0.11000,88.5625,151,68,0.62320
5726190,0.07000,87.8750,151,68,0.64664
5726200,0.00000,87.1250,151,68,0.66618
5726210,-0.06500,86.3750,151,68,0.68205
5726220,-0.11600,85.3375,151,68,0.69648
5726230,-0.15150,84.1937,151,68,0.70803
5726240,-0.17000,83.1250,151,68,0.71526
5726250,-0.17000,82.3125,151,68,0.71673
5726260,-0.17500,80.7500,151,68,0.71795
5726270,-0.18000,80.0625,151,68,0.71697
5726280,-0.18000,79.3750,151,68,0.71502
5726290,-0.17500,78.1875,151,68,0.70647
5726300,-0.17000,77.6250,151,68,0.69963
5726310,-0.18500,77.0625,151,68,0.69109
5726320,-0.10500,76.4375,151,68,0.68059
5726330,0.27500,75.8750,151,68,0.66789
5726340,0.91000,74.6875,151,68,0.64078
5726350,1.08000,74.0625,151,68,0.62418
5726360,0.43500,73.4375,151,68,0.60611
5726370,-0.25500,72.1250,151,68,0.58706
5726380,-0.51500,71.5000,151,68,0.54969
5726390,-0.47000,70.8750,151,68,0.53236
5726400,-0.33500,70.3125,151,68,0.51624
5726410,-0.26500,69.7500,151,68,0.50159
5726420,-0.25000,68.6250,151,68,0.47643
5726430,-0.23000,68.0625,151,68,0.46569
5726440,-0.22000,67.5000,151,68,0.45690
5726450,-0.20500,67.0000,151,68,0.44933
5726460,-0.20000,66.1875,151,68,0.43297
5726470,-0.19000,65.9375,151,68,0.42466
5726480,-0.18000,66.0625,151,68,0.41612
5726490,-0.17000,67.0625,151,68,0.40781
5726500,-0.16000,75.1250,151,68,0.39145
5726510,-0.14500,83.1250,151,68,0.38364
5726520,-0.12000,93.0625,151,68,0.37582
5726530,-0.09500,103.8125,151,68,0.36825
5726540,-0.06500,123.6875,151,68,0.35775
5726550,-0.03500,131.6875,151,68,0.35238
5726560,-0.01000,138.0625,151,68,0.34676
5726570,0.01000,142.7500,151,68,0.34115
5726580,0.02000,147.7500,151,68,0.33040
5726590,0.02500,148.6875,151,68,0.32552
5726600,0.02500,149.0000,151,68,0.32063
5726610,0.02000,148.5000,151,68,0.31575
5726620,0.01500,147.9375,151,68,0.30647
5726630,0.01500,147.2500,151,68,0.30305
5726640,0.02000,146.4375,151,68,0.30037
5726650,0.03000,145.5625,151,68,0.29695
5726660,0.03500,143.5625,151,68,0.28913
5726670,0.04000,142.4375,151,68,0.28498
5726680,0.02500,141.2500,151,68,0.28107
5726690,0.00000,139.9375,151,68,0.27741
5726700,-0.02500,137.0000,151,68,0.27033
5726710,-0.04500,135.2500,151,68,0.26667
5726720,-0.05500,133.1875,151,68,0.26300
5726730,-0.06000,130.6250,151,68,0.25934
5726740,-0.05500,123.7500,151,68,0.25592
5726750,-0.03500,119.4375,151,68,0.25543
5726760,-0.02500,114.6250,151,68,0.25739
5726770,-0.00500,109.8125,151,68,0.26398
5726780,0.01000,101.6875,151,68,0.29621
5726790,0.02500,98.8125,151,68,0.32332
5726800,0.04000,96.7500,151,68,0.35702
5726810,0.06500,95.3125,151,68,0.39560
5726820,0.08500,93.6250,151,68,0.47888
5726830,0.10000,93.0625,151,68,0.51477
5726840,0.13000,92.5625,151,68,0.54603
5726850,0.15000,92.0625,151,68,0.57827
5726860,0.14500,90.8750,151,68,0.63565
5726870,0.13000,90.1875,151,68,0.65934
5726880,0.08000,89.4375,151,68,0.67912
5726890,0.00500,88.6250,151,68,0.69548
5726900,-0.06500,87.0000,151,68,0.71893
5726910,-0.10500,86.1875,151,68,0.72674
5726920,-0.13000,85.3125,151,68,0.73236
5726930,-0.14500,84.5000,151,68,0.73578
5726940,-0.15000,82.8125,151,68,0.73553
5726950,-0.15000,82.0625,151,68,0.73382
5726960,-0.15000,81.3125,151,68,0.73138
5726970,-0.15000,80.6250,151,68,0.72796
5726980,-0.14500,79.3750,151,68,0.71673
5726990,-0.14000,78.7500,151,68,0.70842
5727000,-0.13000,78.1250,151,68,0.69866
5727010,0.07500,77.5625,151,68,0.68669
5727020,0.63000,76.3125,151,68,0.65690
5727030,1.09500,75.6875,151,68,0.64127
5727040,0.77000,75.0000,151,68,0.62540
5727050,0.01500,74.3750,151,68,0.60733
5727060,-0.40500,73.0625,151,68,0.56923
5727070,-0.45000,72.4375,151,68,0.55116
5727080,-0.32000,71.8125,151,68,0.53455
5727090,-0.22500,71.1875,151,68,0.51941
5727100,-0.21000,70.0000,151,68,0.49353
5727110,-0.20000,69.4375,151,68,0.48230
5727120,-0.18500,68.9375,151,68,0.47204
5727130,-0.17500,68.3750,151,68,0.46252
5727140,-0.17000,67.2500,151,68,0.44737
5727150,-0.17000,66.8750,151,68,0.43956
5727160,-0.17000,66.7500,151,68,0.43150
5727170,-0.16000,67.1875,151,68,0.42344
5727180,-0.14500,72.8750,151,68,0.40781
5727190,-0.12000,79.5625,151,68,0.40024
5727200,-0.09500,88.6875,151,68,0.39267
5727210,-0.06500,99.2500,151,68,0.38535
5727220,-0.03500,119.8125,151,68,0.37045
5727230,-0.00500,128.5000,151,68,0.36459
5727240,0.02000,135.6875,151,68,0.35971
5727250,0.04250,142.5833,151,68,0.35149
5727260,0.06000,147.5625,151,68,0.34310
5727270,0.07000,149.0000,151,68,0.33773
5727280,0.06500,149.7500,151,68,0.33236
5727290,0.06000,149.7500,151,68,0.32259
5727300,0.06000,149.3750,151,68,0.31770
5727310,0.06000,148.8125,151,68,0.31306
5727320,0.06000,148.1250,151,68,0.30842
5727330,0.07000,147.3125,151,68,0.30403
5727340,0.08000,145.5625,151,68,0.29817
5727350,0.07500,144.5625,151,68,0.29475
5727360,0.06000,143.5000,151,68,0.29084
5727370,0.03500,142.3750,151,68,0.28694
5727380,0.00500,139.6875,151,68,0.27961
5727390,-0.01500,138.0625,151,68,0.27570
5727400,-0.02500,136.2500,151,68,0.27204
5727410,-0.03000,134.0000,151,68,0.26813
5727420,-0.03000,127.8750,151,68,0.26105
5727430,-0.03000,123.8125,151,68,0.25983
5727440,-0.02500,119.1250,151,68,0.26081
5727450,-0.01500,113.9375,151,68,0.26471
5727460,-0.01000,103.8750,151,68,0.28889
5727470,0.00000,99.8750,151,68,0.31160
5727480,0.01500,96.8125,151,68,0.34115
5727490,0.04000,94.6875,151,68,0.37680
5727500,0.07000,92.3750,151,68,0.45739
5727510,0.10000,91.8125,151,68,0.49841
5727520,0.12500,91.4375,151,68,0.53773
5727530,0.14000,91.1250,151,68,0.57387
5727540,0.13000,90.3750,151,68,0.63053
5727550,0.11500,89.8125,151,68,0.65519
5727560,0.07000,89.2500,151,68,0.67692
5727570,-0.00500,88.5625,151,68,0.69548
5727580,-0.07500,86.9375,151,68,0.72308
5727590,-0.11500,86.1250,151,68,0.73260
5727600,-0.14000,85.3125,151,68,0.73993
5727610,-0.15500,84.5000,151,68,0.74481
5727620,-0.15500,82.8750,151,68,0.74896
5727630,-0.15500,82.1250,151,68,0.74799
5727640,-0.15500,81.4375,151,68,0.74530
5727650,-0.15000,80.7500,151,68,0.74212
5727660,-0.14500,79.5000,151,68,0.73309
5727670,-0.14500,78.8750,151,68,0.72625
5727680,-0.15000,78.2500,151,68,0.71770
5727690,0.00500,77.5625,151,68,0.70720
5727700,0.49000,76.1250,151,68,0.67961
5727710,1.01000,75.3750,151,68,0.66252
5727720,0.82500,74.5625,151,68,0.64371
5727730,0.12000,73.8125,151,68,0.62369
5727740,-0.36500,72.3125,151,68,0.58730
5727750,-0.48000,71.6250,151,68,0.56825
5727760,-0.38000,70.9375,151,68,0.54921
5727770,-0.26500,70.2500,151,68,0.53114
5727780,-0.23000,69.0000,151,68,0.49939
5727790,-0.21500,68.3750,151,68,0.48620
5727800,-0.20000,67.8125,151,68,0.47448
5727810,-0.19000,67.1875,151,68,0.46422
5727820,-0.19000,66.0625,151,68,0.44591
5727830,-0.18000,65.6250,151,68,0.43858
5727840,-0.17000,65.3125,151,68,0.43199
5727850,-0.15500,65.4375,151,68,0.42466
5727860,-0.13500,69.1250,151,68,0.40879
5727870,-0.11500,74.3750,151,68,0.40073
5727880,-0.09500,82.2500,151,68,0.39292
5727890,-0.07500,92.0625,151,68,0.38510
5727900,-0.05500,112.6250,151,68,0.37045
5727910,-0.02500,121.7500,151,68,0.36361
5727920,0.00000,129.5000,151,68,0.35726
5727930,0.02000,135.6250,151,68,0.35116
5727940,0.03500,143.2500,151,68,0.34261
5727950,0.04500,145.1250,151,68,0.33797
5727960,0.05000,146.0625,151,68,0.33309
5727970,0.04500,146.3125,151,68,0.32772
5727980,0.04000,145.6250,151,68,0.31648
5727990,0.04000,144.9375,151,68,0.31111
5728000,0.04000,144.1250,150,68,0.30574
5728010,0.04000,143.1875,150,68,0.30061
5728020,0.05000,141.1250,150,68,0.29060
5728030,0.05000,139.9375,150,68,0.28718
5728040,0.04000,138.7500,150,68,0.28449
5728050,0.02000,137.5000,150,68,0.28107
5728060,-0.01000,134.5625,150,68,0.27375
5728070,-0.03500,132.9375,150,68,0.26984
5728080,-0.05000,131.0625,150,68,0.26593
5728090,-0.06500,128.8125,150,68,0.26203
5728100,-0.06500,122.8125,150,68,0.25397
5728110,-0.05500,118.7500,150,68,0.25079
5728120,-0.03500,114.1250,150,68,0.24982
5728130,-0.02000,109.2500,150,68,0.25226
5728140,-0.00500,100.3125,150,68,0.26886
5728150,0.00000,97.0000,150,68,0.28669
5728160,0.01000,94.5625,150,68,0.31184
5728170,0.03000,92.8750,150,68,0.34359
5728180,0.05000,90.9375,150,68,0.42149
5728190,0.07500,90.3750,150,68,0.46325
5728200,0.11000,89.8750,150,68,0.50452
5728210,0.12000,89.3750,150,68,0.54335
5728220,0.11000,88.3750,150,68,0.60952
5728230,0.09000,87.7500,150,68,0.63297
5728240,0.04000,87.0000,150,68,0.65128
5728250,-0.03500,86.2500,150,68,0.66886
5728260,-0.09500,84.6875,150,68,0.69719
5728270,-0.13417,83.7188,150,68,0.71018
5728280,-0.15500,83.0000,150,68,0.71575
5728290,-0.16000,82.1875,150,68,0.72186
5728300,-0.16000,80.5625,150,68,0.72772
5728310,-0.16000,79.8125,150,68,0.72796
5728320,-0.16000,79.1250,150,68,0.72674
5728330,-0.16000,78.5000,150,68,0.72405
5728340,-0.15500,77.3125,150,68,0.71404
5728350,-0.15500,76.7500,150,68,0.70696
5728360,-0.15000,76.1875,150,68,0.69841
5728370,0.05000,75.6250,150,68,0.68791
5728380,0.60500,74.4375,150,68,0.66032
5728390,1.10000,73.7500,150,68,0.64347
5728400,0.81500,73.1250,150,68,0.62491
5728410,0.04500,72.4375,150,68,0.60513
5728420,-0.42500,71.0625,150,68,0.56459
5728430,-0.51000,70.4375,150,68,0.54725
5728440,-0.39500,69.8125,150,68,0.53211
5728450,-0.28500,69.1875,150,68,0.51697
5728460,-0.25000,68.0625,150,68,0.48913
5728470,-0.23500,67.5000,150,68,0.47717
5728480,-0.22000,66.9375,150,68,0.46642
5728490,-0.20500,66.4375,150,68,0.45641
5728500,-0.20000,65.4375,150,68,0.43785
5728510,-0.19000,65.0625,150,68,0.42882
5728520,-0.18000,64.8750,150,68,0.42027
5728530,-0.16500,65.1250,150,68,0.41294
5728540,-0.15500,69.5000,150,68,0.39927
5728550,-0.13500,75.2500,150,68,0.39170
5728560,-0.12000,83.5625,150,68,0.38413
5728570,-0.09500,93.5625,150,68,0.37656
5728580,-0.07500,114.1875,150,68,0.36264
5728590,-0.04500,123.1250,150,68,0.35604
5728600,-0.02500,130.6875,150,68,0.34994
5728610,-0.00500,136.6250,150,68,0.34408
5728620,0.01000,143.8125,150,68,0.33284
5728630,0.02500,145.4375,150,68,0.32894
5728640,0.02000,146.2500,150,68,0.32576
5728650,0.01000,146.3750,150,68,0.32161
5728660,0.00000,145.5625,150,68,0.31209
5728670,-0.00500,144.8125,150,68,0.30696
5728680,-0.00500,143.9375,150,68,0.30208
5728690,0.00000,142.9375,150,68,0.29719
5728700,0.01000,140.8750,150,68,0.28791
5728710,0.01000,139.7500,150,68,0.28376
5728720,0.00000,138.5625,150,68,0.27985
5728730,-0.02000,137.3125,150,68,0.27717
5728740,-0.04500,134.5625,150,68,0.27277
5728750,-0.06500,132.9375,150,68,0.26984
5728760,-0.08500,131.1250,150,68,0.26667
5728770,-0.08500,128.8750,150,68,0.26300
5728780,-0.08500,122.8125,150,68,0.25568
5728790,-0.07500,118.8125,150,68,0.25275
5728800,-0.05500,114.1875,150,68,0.25153
5728810,-0.03500,109.4375,150,68,0.25421
5728820,-0.01500,100.9375,150,68,0.27668
5728830,-0.00500,97.8125,150,68,0.29499
5728840,0.00500,95.5625,150,68,0.31819
5728850,0.03000,94.0000,150,68,0.34969
5728860,0.05000,92.2500,150,68,0.42882
5728870,0.07000,91.6875,150,68,0.47131
5728880,0.10000,91.1875,150,68,0.51306
5728890,0.12000,90.6875,150,68,0.55238
5728900,0.11000,89.6250,150,68,0.61954
5728910,0.10000,88.9375,150,68,0.64664
5728920,0.05500,88.1875,150,68,0.66960
5728930,-0.01500,87.4375,150,68,0.68596
5728940,-0.08500,85.8125,150,68,0.70842
5728950,-0.13000,85.0000,150,68,0.71770
5728960,-0.15500,84.1250,150,68,0.72503
5728970,-0.17000,83.2500,150,68,0.73040
5728980,-0.17000,81.5625,150,68,0.73626
5728990,-0.16000,80.8125,150,68,0.73700
5729000,-0.15500,80.0625,150,68,0.73602
5729010,-0.15000,79.3750,150,68,0.73333
5729020,-0.15000,78.1875,150,68,0.72308
5729030,-0.14500,77.6250,150,68,0.71600
5729040,-0.15500,77.1250,150,68,0.70745
5729050,-0.03000,76.5625,150,68,0.69695
5729060,0.44000,75.5000,150,68,0.66984
5729070,1.05500,74.9375,150,68,0.65324
5729080,0.98500,74.3750,150,68,0.63516
5729090,0.24500,73.1250,150,68,0.61587
5729100,-0.33500,72.5000,150,68,0.57631
5729110,-0.49000,71.8125,150,68,0.55775
5729120,-0.38500,71.1875,150,68,0.54066
5729130,-0.26500,70.5625,150,68,0.52625
5729140,-0.22500,69.4375,150,68,0.50159
5729150,-0.21000,68.9375,150,68,0.49011
5729160,-0.20000,68.3750,150,68,0.47937
5729170,-0.19000,67.8125,150,68,0.46960
5729180,-0.18000,66.7500,150,68,0.45177
5729190,-0.17500,66.3125,150,68,0.44322
5729200,-0.17000,66.0625,150,68,0.43492
5729210,-0.16000,66.2500,150,68,0.42686
5729220,-0.14500,70.3750,150,68,0.41099
5729230,-0.13000,76.0000,150,68,0.40415
5729240,-0.10500,84.2500,150,68,0.39805
5729250,-0.07500,94.3125,150,68,0.39096
5729260,-0.04500,115.3125,150,68,0.37656
5729270,-0.01500,124.5000,150,68,0.36972
5729280,0.01500,132.3125,150,68,0.36313
5729290,0.04000,138.4375,150,68,0.35678
5729300,0.06084,143.9479,150,68,0.34803
5729310,0.07500,147.7500,150,68,0.33968
5729320,0.08000,148.7500,150,68,0.33455
5729330,0.08000,149.1250,150,68,0.33089
5729340,0.08000,148.8125,150,68,0.32430
5729350,0.07500,148.3750,150,68,0.32015
5729360,0.07500,147.8125,150,68,0.31575
5729370,0.08500,147.1250,150,68,0.31136
5729380,0.09000,145.4375,150,68,0.30256
5729390,0.09000,144.4375,150,68,0.29841
5729400,0.08000,143.3750,150,68,0.29426
5729410,0.05500,142.1875,150,68,0.29035
5729420,0.02500,139.5625,150,68,0.28303
5729430,0.00000,138.0625,150,68,0.28059
5729440,-0.01500,136.3125,150,68,0.27888
5729450,-0.03500,134.3125,150,68,0.27619
5729460,-0.04500,128.8125,150,68,0.26911
5729470,-0.04000,125.1250,150,68,0.26618
5729480,-0.03500,120.8125,150,68,0.26496
5729490,-0.02500,111.1875,150,68,0.26691
5729500,-0.01500,106.6250,150,68,0.28694
5729510,-0.00500,102.6875,150,68,0.30769
5729520,0.01000,99.5000,150,68,0.33578
5729530,0.03000,97.0625,150,68,0.36557
5729540,0.05500,94.0625,150,68,0.43590
5729550,0.08000,93.1250,150,68,0.47741
5729560,0.11000,92.4375,150,68,0.51917
5729570,0.13500,91.8750,150,68,0.55897
5729580,0.12500,90.8125,150,68,0.62759
5729590,0.11000,90.2500,150,68,0.65568
5729600,0.07000,89.6250,150,68,0.67961
5729610,0.00000,88.9375,150,68,0.69963
5729620,-0.06500,87.3750,150,68,0.72918
5729630,-0.11000,86.5625,150,68,0.73773
5729640,-0.14000,85.7500,150,68,0.74310
5729650,-0.15500,84.9375,150,68,0.74799
5729660,-0.16000,83.3125,150,68,0.75409
5729670,-0.16000,82.5625,150,68,0.75482
5729680,-0.15500,81.8750,150,68,0.75409
5729690,-0.15000,81.1875,150,68,0.75214
5729700,-0.14500,79.9375,150,68,0.74383
5729710,-0.14500,79.3125,150,68,0.73748
5729720,-0.15500,78.7500,150,68,0.72943
5729730,-0.06000,78.0625,150,68,0.72015
5729740,0.35000,76.8125,150,68,0.69646
5729750,0.93000,76.1250,150,68,0.68132
5729760,0.92000,75.4375,150,68,0.66422
5729770,0.26500,74.6875,150,68,0.64542
5729780,-0.30500,73.2500,150,68,0.60562
5729790,-0.50000,72.5625,150,68,0.58584
5729800,-0.41500,71.8125,150,68,0.56679
5729810,-0.30000,71.1875,150,68,0.54872
5729820,-0.25000,69.9375,150,68,0.51697
5729830,-0.23500,69.3750,150,68,0.50476
5729840,-0.22000,68.7500,150,68,0.49426
5729850,-0.21000,68.1250,150,68,0.48376
5729860,-0.20500,67.0625,150,68,0.46398
5729870,-0.20000,66.5625,150,68,0.45495
5729880,-0.19500,66.3125,150,68,0.44591
5729890,-0.19000,66.3125,150,68,0.43736
5729900,-0.17500,69.4375,150,68,0.42051
5729910,-0.16000,74.1250,150,68,0.41245
5729920,-0.13500,81.5000,150,68,0.40464
5729930,-0.11500,101.3750,150,68,0.39805
5729940,-0.08500,111.5625,150,68,0.38559
5729950,-0.05500,120.8750,150,68,0.37875
5729960,-0.02500,128.8125,150,68,0.37216
5729970,0.00000,135.2500,150,68,0.36581
5729980,0.02000,143.3750,150,68,0.35360
5729990,0.03000,145.3750,150,68,0.34774
5730000,0.04000,146.5000,149,68,0.34212
5730010,0.04000,146.8750,149,68,0.33675
5730020,0.03000,146.4375,149,68,0.32650
5730030,0.03000,145.7500,149,68,0.32283
5730040,0.03000,144.9375,149,68,0.31966
5730050,0.03500,144.0000,149,68,0.31551
5730060,0.04000,141.8750,149,68,0.30598
5730070,0.04000,140.7500,149,68,0.30110
5730080,0.02500,139.5000,149,68,0.29621
5730090,0.00500,138.1875,149,68,0.29158
5730100,-0.02000,135.3750,149,68,0.28327
5730110,-0.03500,133.6875,149,68,0.27937
5730120,-0.05500,131.7500,149,68,0.27570
5730130,-0.05500,129.5625,149,68,0.27302
5730140,-0.05500,123.7500,149,68,0.26813
5730150,-0.04500,119.8750,149,68,0.26496
5730160,-0.03500,115.4375,149,68,0.26276
5730170,-0.02000,110.6875,149,68,0.26276
5730180,-0.00500,101.8125,149,68,0.27717
5730190,0.01000,98.3750,149,68,0.29451
5730200,0.02500,95.6875,149,68,0.31917
5730210,0.04500,93.6875,149,68,0.35043
5730220,0.06500,91.3750,149,68,0.42198
5730230,0.09000,90.6250,149,68,0.45543
5730240,0.12000,90.0625,149,68,0.49304
5730250,0.14000,89.5625,149,68,0.53089
5730260,0.13000,88.5000,149,68,0.59902
5730270,0.12000,87.8750,149,68,0.62759
5730280,0.07000,87.1875,149,68,0.65226
5730290,0.00000,86.5000,149,68,0.67277
5730300,-0.06500,84.9375,149,68,0.70330
5730310,-0.11500,84.1875,149,68,0.71380
5730320,-0.13750,83.5104,149,68,0.72120
5730330,-0.14500,82.5625,149,68,0.72625
5730340,-0.15000,81.0000,149,68,0.72967
5730350,-0.15000,80.2500,149,68,0.72991
5730360,-0.15000,79.5000,149,68,0.72869
5730370,-0.15000,78.8750,149,68,0.72625
5730380,-0.14500,77.6250,149,68,0.71746
5730390,-0.13500,77.0625,149,68,0.71062
5730400,-0.14500,76.4375,149,68,0.70183
5730410,-0.07500,75.8125,149,68,0.69133
5730420,0.27500,74.5000,149,68,0.66545
5730430,0.87500,73.8750,149,68,0.65153
5730440,1.02500,73.1875,149,68,0.63541
5730450,0.42500,72.5000,149,68,0.61734
5730460,-0.22000,71.1875,149,68,0.57875
5730470,-0.48000,70.5000,149,68,0.55995
5730480,-0.44500,69.8125,149,68,0.54188
5730490,-0.32000,69.1875,149,68,0.52527
5730500,-0.25000,68.0000,149,68,0.49597
5730510,-0.23000,67.4375,149,68,0.48327
5730520,-0.22000,66.8750,149,68,0.47155
5730530,-0.21000,66.3750,149,68,0.46227
5730540,-0.20000,65.3125,149,68,0.44567
5730550,-0.19000,64.8750,149,68,0.43712
5730560,-0.18500,64.5625,149,68,0.42833
5730570,-0.17500,64.5625,149,68,0.41978
5730580,-0.16000,67.4375,149,68,0.40342
5730590,-0.14500,71.8750,149,68,0.39560
5730600,-0.12500,78.9375,149,68,0.38803
5730610,-0.10500,88.1250,149,68,0.38046
5730620,-0.08000,108.3750,149,68,0.36752
5730630,-0.05500,117.6250,149,68,0.36288
5730640,-0.03000,125.6875,149,68,0.35751
5730650,-0.01000,132.2500,149,68,0.35165
5730660,0.00000,140.7500,149,68,0.34042
5730670,0.01500,143.0000,149,68,0.33504
5730680,0.02500,144.1875,149,68,0.32991
5730690,0.02000,144.6875,149,68,0.32503
5730700,0.01500,144.3125,149,68,0.31502
5730710,0.01000,143.6875,149,68,0.31013
5730720,0.01000,142.8125,149,68,0.30525
5730730,0.01500,141.8750,149,68,0.30159
5730740,0.03000,139.6875,149,68,0.29475
5730750,0.03500,138.5000,149,68,0.29060
5730760,0.03000,137.2500,149,68,0.28645
5730770,0.01000,136.0000,149,68,0.28254
5730780,-0.01500,133.1250,149,68,0.27497
5730790,-0.03500,131.5000,149,68,0.27131
5730800,-0.05500,129.6875,149,68,0.26789
5730810,-0.06500,127.6250,149,68,0.26398
5730820,-0.06500,121.8125,149,68,0.25739
5730830,-0.05500,118.0000,149,68,0.25568
5730840,-0.04000,113.6250,149,68,0.25397
5730850,-0.03000,108.9375,149,68,0.25397
5730860,-0.01500,100.3125,149,68,0.26691
5730870,-0.00500,97.0000,149,68,0.28278
5730880,0.01000,94.5625,149,68,0.30598
5730890,0.03000,92.8125,149,68,0.33578
5730900,0.04000,90.7500,149,68,0.41099
5730910,0.06000,90.1250,149,68,0.45250
5730920,0.08500,89.5625,149,68,0.49377
5730930,0.11000,89.0625,149,68,0.52869
5730940,0.11000,88.0000,149,68,0.58926
5730950,0.09500,87.3125,149,68,0.61758
5730960,0.05500,86.6250,149,68,0.64249
5730970,-0.01000,85.9375,149,68,0.66398
5730980,-0.07500,84.4375,149,68,0.69695
5730990,-0.12500,83.6250,149,68,0.70891
5731000,-0.15500,82.8125,149,68,0.71795
5731010,-0.16000,82.0000,149,68,0.72454
5731020,-0.17000,80.5000,149,68,0.73016
5731030,-0.17000,79.7500,149,68,0.72943
5731040,-0.17000,79.0000,149,68,0.72821
5731050,-0.16500,77.7500,149,68,0.72259
5731060,-0.16000,77.1875,149,68,0.71746
5731070,-0.15500,76.6250,149,68,0.71111
5731080,-0.17000,76.0625,149,68,0.70281
5731090,-0.08500,75.5000,149,68,0.69280
5731100,0.29000,74.3750,149,68,0.66642
5731110,0.92000,73.8125,149,68,0.65031
5731120,1.07500,73.1875,149,68,0.63248
5731130,0.41500,71.9375,149,68,0.61563
5731140,-0.27000,71.2500,149,68,0.58120
5731150,-0.52000,70.6250,149,68,0.56288
5731160,-0.47500,70.0625,149,68,0.54505
5731170,-0.34500,69.5000,149,68,0.52869
5731180,-0.27500,68.3750,149,68,0.49963
5731190,-0.25500,67.8750,149,68,0.48718
5731200,-0.24000,67.3750,149,68,0.47595
5731210,-0.22500,66.8750,149,68,0.46569
5731220,-0.22000,65.9375,149,68,0.44811
5731230,-0.20500,65.5625,149,68,0.44103
5731240,-0.19000,65.3125,149,68,0.43297
5731250,-0.18000,65.3750,149,68,0.42466
5731260,-0.17000,68.9375,149,68,0.40855
5731270,-0.16000,74.0000,149,68,0.40073
5731280,-0.14500,81.7500,149,68,0.39316
5731290,-0.12500,91.5000,149,68,0.38608
5731300,-0.09500,112.2500,149,68,0.37241
5731310,-0.07000,121.5625,149,68,0.36581
5731320,-0.04000,129.5000,149,68,0.35946
5731330,-0.01000,135.8750,149,68,0.35482
5731340,0.01500,141.0062,149,68,0.34874
5731350,0.03000,144.7125,149,68,0.34210
5731360,0.03500,146.8125,149,68,0.33578
5731370,0.03000,147.1250,149,68,0.33065
5731380,0.03000,146.6875,149,68,0.32063
5731390,0.02000,146.0625,149,68,0.31600
5731400,0.02500,145.3125,149,68,0.31136
5731410,0.03000,144.5000,149,68,0.30696
5731420,0.04000,142.5000,149,68,0.29963
5731430,0.05000,141.3750,149,68,0.29744
5731440,0.05000,140.1875,149,68,0.29426
5731450,0.02500,138.8750,149,68,0.29084
5731460,0.00000,136.0000,149,68,0.28400
5731470,-0.02500,134.3750,149,68,0.28034
5731480,-0.04500,132.5625,149,68,0.27692
5731490,-0.06000,130.4375,149,68,0.27350
5731500,-0.06500,124.8750,149,68,0.26618
5731510,-0.05500,121.1875,149,68,0.26300
5731520,-0.04500,116.9375,149,68,0.26154
5731530,-0.03500,112.3125,149,68,0.26276
5731540,-0.02000,103.3125,149,68,0.27790
5731550,-0.00500,99.7500,149,68,0.29475
5731560,0.00500,97.0000,149,68,0.31868
5731570,0.02000,94.9375,149,68,0.34969
5731580,0.04000,92.5000,149,68,0.42759
5731590,0.06000,91.7500,149,68,0.47033
5731600,0.08000,91.1875,149,68,0.51258
5731610,0.11000,90.6875,149,68,0.55287
5731620,0.13500,89.6250,149,68,0.61978
5731630,0.13000,89.0000,149,68,0.64225
5731640,0.12000,88.3750,149,68,0.66325
5731650,0.07000,87.6250,149,68,0.68254
5731660,0.00000,86.0000,149,68,0.71355
5731670,-0.06500,85.1250,149,68,0.72454
5731680,-0.10500,84.2500,149,68,0.73309
5731690,-0.13000,83.3750,149,68,0.73919
5731700,-0.14000,81.6250,149,68,0.74530
5731710,-0.14500,80.8125,149,68,0.74579
5731720,-0.15000,80.0000,149,68,0.74505
5731730,-0.15500,79.2500,149,68,0.74212
5731740,-0.14500,77.9375,149,68,0.73260
5731750,-0.13500,77.3125,149,68,0.72601
5731760,-0.13500,76.7500,149,68,0.71819
5731770,-0.14000,75.6875,149,68,0.70867
5731780,0.01000,75.1250,149,68,0.68327
5731790,0.49500,74.5625,149,68,0.66764
5731800,1.05500,74.0000,149,68,0.65031
5731810,0.91000,73.3750,149,68,0.63175
5731820,0.17500,72.1250,149,68,0.59438
5731830,-0.34500,71.4375,149,68,0.57778
5731840,-0.46500,70.8125,149,68,0.56044
5731850,-0.35500,70.1875,149,68,0.54335
5731860,-0.24500,69.0000,149,68,0.51282
5731870,-0.22000,68.3750,149,68,0.49963
5731880,-0.20500,67.8125,149,68,0.48791
5731890,-0.20000,67.2500,149,68,0.47717
5731900,-0.19000,66.1250,149,68,0.45763
5731910,-0.19000,65.5625,149,68,0.44860
5731920,-0.17500,65.1250,149,68,0.43980
5731930,-0.16500,64.8750,149,68,0.43223
5731940,-0.15000,66.0625,149,68,0.41832
5731950,-0.13500,68.9375,149,68,0.41050
5731960,-0.11500,74.3750,149,68,0.40244
5731970,-0.09500,82.4375,149,68,0.39463
5731980,-0.07000,103.0625,149,68,0.37924
5731990,-0.04500,113.3125,149,68,0.37167
5732000,-0.01500,122.4375,149,68,0.36459
5732010,0.01500,130.1250,149,68,0.35775
5732020,0.04000,140.7500,149,68,0.34676
5732030,0.06000,143.8125,149,68,0.34286
5732040,0.07000,145.7500,149,68,0.33822
5732050,0.08000,146.8125,149,68,0.33333
5732060,0.08000,147.3750,149,68,0.32332
5732070,0.07000,147.1875,149,68,0.31868
5732080,0.07000,146.8125,149,68,0.31404
5732090,0.07000,146.2500,149,68,0.30965
5732100,0.06500,144.8125,149,68,0.30037
5732110,0.06500,143.8750,149,68,0.29548
5732120,0.06500,142.8125,149,68,0.29206
5732130,0.05000,140.3750,149,68,0.28938
5732140,0.03000,139.0000,149,68,0.28303
5732150,0.00000,137.5000,149,68,0.27961
5732160,-0.01500,135.8750,149,68,0.27619
5732170,-0.03500,134.0625,149,68,0.27253
5732180,-0.04500,129.5000,149,68,0.26496
5732190,-0.04500,126.4375,149,68,0.26105
5732200,-0.04500,122.8125,149,68,0.25788
5732210,-0.03500,118.5000,149,68,0.25617
5732220,-0.02000,108.8750,149,68,0.26252
5732230,-0.00500,104.3125,149,68,0.27204
5732240,0.01000,100.4375,149,68,0.28840
5732250,0.03000,97.3125,149,68,0.31233
5732260,0.06000,93.3125,149,68,0.37973
5732270,0.09000,92.1875,149,68,0.42051
5732280,0.12500,91.3750,149,68,0.46300
5732290,0.15500,90.8125,149,68,0.50525
5732300,0.16000,89.8750,149,68,0.58242
5732310,0.15000,89.4375,149,68,0.61563
5732320,0.12500,88.9375,149,68,0.64127
5732330,0.07000,88.3750,149,68,0.66154
5732340,0.00000,87.1250,149,68,0.69841
5732350,-0.06000,86.3750,149,68,0.71306
5732360,-0.09500,85.6250,149,68,0.72503
5732370,-0.12083,84.4375,149,68,0.73708
5732380,-0.13500,83.2500,149,68,0.74603
5732390,-0.13500,82.5000,149,68,0.74872
5732400,-0.13500,81.8125,149,68,0.74945
5732410,-0.13500,81.1250,149,68,0.74847
5732420,-0.13000,79.9375,149,68,0.74237
5732430,-0.12500,79.3125,149,68,0.73724
5732440,-0.12500,78.6875,149,68,0.73114
5732450,-0.09000,78.1250,149,68,0.72332
5732460,0.17500,76.8750,149,68,0.70256
5732470,0.73500,76.2500,149,68,0.68938
5732480,1.04500,75.5625,149,68,0.67399
5732490,0.59000,74.8750,149,68,0.65665
5732500,-0.09000,73.4375,149,68,0.61758
5732510,-0.42000,72.7500,149,68,0.59707
5732520,-0.43000,72.1250,149,68,0.57900
5732530,-0.31500,71.5000,149,68,0.56264
5732540,-0.23500,70.3125,149,68,0.52918
5732550,-0.22000,69.6875,149,68,0.51380
5732560,-0.20000,69.1250,149,68,0.49988
5732570,-0.19000,68.5625,149,68,0.48718
5732580,-0.17500,67.4375,149,68,0.46520
5732590,-0.17000,66.9375,149,68,0.45543
5732600,-0.17000,66.5625,149,68,0.44615
5732610,-0.16000,66.5000,149,68,0.43736
5732620,-0.15000,68.6875,149,68,0.42222
5732630,-0.13500,72.5000,149,68,0.41612
5732640,-0.11500,78.9375,149,68,0.40928
5732650,-0.09000,87.7500,149,68,0.40244
5732660,-0.06500,107.9375,149,68,0.38852
5732670,-0.04500,117.3125,149,68,0.38169
5732680,-0.01500,125.5625,149,68,0.37509
5732690,0.00500,132.3750,149,68,0.36874
5732700,0.02500,141.3750,149,68,0.35653
5732710,0.04000,143.8125,149,68,0.35067
5732720,0.04000,145.1250,149,68,0.34603
5732730,0.04000,145.6875,149,68,0.34212
5732740,0.04000,145.3125,149,68,0.33284
5732750,0.03000,144.6250,149,68,0.32796
5732760,0.03500,143.8125,149,68,0.32332
5732770,0.04000,142.8125,149,68,0.31868
5732780,0.05000,140.6250,149,68,0.30965
5732790,0.05500,139.3750,149,68,0.30525
5732800,0.05500,138.1875,149,68,0.30085
5732810,0.03500,136.8750,149,68,0.29670
5732820,0.01000,134.1250,149,68,0.28962
5732830,-0.02000,132.5625,149,68,0.28718
5732840,-0.04000,130.8125,149,68,0.28400
5732850,-0.05000,128.7500,149,68,0.28034
5732860,-0.05000,123.3125,149,68,0.27253
5732870,-0.04500,119.6250,149,68,0.26886
5732880,-0.03500,115.3125,149,68,0.26618
5732890,-0.02500,110.6250,149,68,0.26569
5732900,-0.00500,101.8125,149,68,0.27692
5732910,0.00500,98.4375,149,68,0.29158
5732920,0.02500,95.8750,149,68,0.30989
5732930,0.04500,94.0000,149,68,0.33236
5732940,0.07000,91.7500,149,68,0.39878
5732950,0.09000,91.0000,149,68,0.43834
5732960,0.12000,90.5000,149,68,0.47888
5732970,0.14000,90.0000,149,68,0.51868
5732980,0.13000,89.0625,149,68,0.58999
5732990,0.11500,88.5000,149,68,0.61978
5733000,0.07000,87.8750,148,67,0.64542
5733010,-0.00500,87.2500,148,67,0.66691
5733020,-0.07500,85.8125,148,67,0.69670
5733030,-0.12500,85.1250,148,67,0.70501
5733040,-0.15000,84.3750,148,67,0.71258
5733050,-0.15500,83.6250,148,67,0.71868
5733060,-0.16000,82.1250,148,67,0.72601
5733070,-0.16000,81.3750,148,67,0.72747
5733080,-0.16000,80.6875,148,67,0.72747
5733090,-0.15500,80.0625,148,67,0.72625
5733100,-0.14500,78.8125,148,67,0.71893
5733110,-0.14500,78.1875,148,67,0.71258
5733120,-0.15500,77.5625,148,67,0.70476
5733130,0.02000,76.8750,148,67,0.69548
5733140,0.49500,75.5000,148,67,0.67057
5733150,0.97500,74.8125,148,67,0.65543
5733160,0.81000,74.1250,148,67,0.63834
5733170,0.11000,73.4375,148,67,0.62027
5733180,-0.37000,72.0000,148,67,0.58169
5733190,-0.48000,71.3125,148,67,0.56264
5733200,-0.39000,70.6250,148,67,0.54457
5733210,-0.28500,70.0000,148,67,0.52747
5733220,-0.24500,68.8125,148,67,0.49963
5733230,-0.23000,68.2500,148,67,0.48913
5733240,-0.22000,67.6250,148,67,0.47888
5733250,-0.21500,67.0625,148,67,0.46911
5733260,-0.20500,66.0000,148,67,0.45079
5733270,-0.19500,65.6250,148,67,0.44225
5733280,-0.18000,65.4375,148,67,0.43394
5733290,-0.17000,65.7500,148,67,0.42564
5733300,-0.15500,70.3750,148,67,0.41001
5733310,-0.13500,76.0625,148,67,0.40244
5733320,-0.11000,84.1250,148,67,0.39634
5733330,-0.08500,93.6875,148,67,0.39096
5733340,-0.06500,113.1875,148,67,0.37900
5733350,-0.04500,121.6875,148,67,0.37289
5733360,-0.02000,128.8750,148,67,0.36703
5733370,0.00000,134.5625,148,67,0.36117
5733380,0.02000,141.5000,148,67,0.34969
5733390,0.03001,144.5250,148,67,0.34317
5733400,0.03250,144.9437,148,67,0.33875
5733410,0.03000,144.0625,148,67,0.33358
5733420,0.02500,143.1875,148,67,0.32479
5733430,0.01500,142.3750,148,67,0.32161
5733440,0.01500,141.4375,148,67,0.31770
5733450,0.02000,140.4375,148,67,0.31355
5733460,0.03500,138.0625,148,67,0.30427
5733470,0.03500,136.8125,148,67,0.29963
5733480,0.02000,135.5000,148,67,0.29524
5733490,-0.00500,134.1250,148,67,0.29084
5733500,-0.02500,131.1875,148,67,0.28254
5733510,-0.04500,129.5000,148,67,0.27814
5733520,-0.05500,127.5625,148,67,0.27521
5733530,-0.06000,125.2500,148,67,0.27302
5733540,-0.05000,118.9375,148,67,0.26618
5733550,-0.03500,114.8750,148,67,0.26276
5733560,-0.02000,110.2500,148,67,0.26081
5733570,-0.01500,105.5625,148,67,0.26203
5733580,-0.00500,97.4375,148,67,0.27961
5733590,0.00500,94.5625,148,67,0.29817
5733600,0.02500,92.5000,148,67,0.32381
5733610,0.05000,91.0000,148,67,0.35580
5733620,0.07000,89.2500,148,67,0.42735
5733630,0.10000,88.6875,148,67,0.46056
5733640,0.12000,88.2500,148,67,0.49744
5733650,0.12000,87.8125,148,67,0.53455
5733660,0.11000,86.7500,148,67,0.60122
5733670,0.08000,86.1875,148,67,0.62882
5733680,0.01500,85.5000,148,67,0.65177
5733690,-0.06000,84.8125,148,67,0.67057
5733700,-0.11500,83.2500,148,67,0.69817
5733710,-0.14500,82.5000,148,67,0.70769
5733720,-0.16000,81.7500,148,67,0.71306
5733730,-0.17000,80.9375,148,67,0.71600
5733740,-0.17500,79.4375,148,67,0.71966
5733750,-0.17500,78.6875,148,67,0.71941
5733760,-0.17500,78.0625,148,67,0.71795
5733770,-0.17000,77.4375,148,67,0.71526
5733780,-0.16500,76.1875,148,67,0.70549
5733790,-0.18000,75.6250,148,67,0.69841
5733800,-0.11500,75.0625,148,67,0.68938
5733810,0.25500,74.5000,148,67,0.67839
5733820,0.87500,73.2500,148,67,0.65177
5733830,1.04000,72.6250,148,67,0.63736
5733840,0.45500,71.9375,148,67,0.62051
5733850,-0.22000,71.2500,148,67,0.60195
5733860,-0.50500,69.9375,148,67,0.56264
5733870,-0.47000,69.3125,148,67,0.54335
5733880,-0.33500,68.6875,148,67,0.52503
5733890,-0.26000,68.1250,148,67,0.50842
5733900,-0.24000,67.0000,148,67,0.48034
5733910,-0.23500,66.4375,148,67,0.46886
5733920,-0.22500,65.8750,148,67,0.45958
5733930,-0.22000,65.3125,148,67,0.45177
5733940,-0.21000,64.4375,148,67,0.43516
5733950,-0.21000,64.1875,148,67,0.42686
5733960,-0.19500,64.3125,148,67,0.41880
5733970,-0.19000,65.2500,148,67,0.41074
5733980,-0.18000,73.0000,148,67,0.39414
5733990,-0.16000,80.6875,148,67,0.38632
5734000,-0.14000,90.2500,148,67,0.37900
5734010,-0.11500,100.5625,148,67,0.37192
5734020,-0.09000,119.5625,148,67,0.36142
5734030,-0.06500,127.2500,148,67,0.35556
5734040,-0.04500,133.3750,148,67,0.34969
5734050,-0.02500,138.0000,148,67,0.34383
5734060,-0.01000,143.1250,148,67,0.33284
5734070,0.00000,144.1250,148,67,0.32772
5734080,0.01000,144.3750,148,67,0.32259
5734090,0.00000,144.1875,148,67,0.31770
5734100,0.00000,142.9375,148,67,0.30769
5734110,0.00000,142.0000,148,67,0.30256
5734120,0.00500,140.9375,148,67,0.29866
5734130,0.01000,139.7500,148,67,0.29548
5734140,0.02000,137.1875,148,67,0.28742
5734150,0.01000,135.8750,148,67,0.28327
5734160,-0.00500,134.5000,148,67,0.27937
5734170,-0.04000,133.0625,148,67,0.27570
5734180,-0.06000,130.0625,148,67,0.26886
5734190,-0.07500,128.3125,148,67,0.26545
5734200,-0.08000,126.3125,148,67,0.26178
5734210,-0.08000,123.8750,148,67,0.25788
5734220,-0.07500,117.2500,148,67,0.25372
5734230,-0.06500,113.0625,148,67,0.25177
5734240,-0.05500,108.5000,148,67,0.25153
5734250,-0.04500,104.0000,148,67,0.25495
5734260,-0.03500,96.6250,148,67,0.27937
5734270,-0.01500,94.0625,148,67,0.30232
5734280,0.01000,92.2500,148,67,0.33260
5734290,0.03500,90.1250,148,67,0.40904
5734300,0.05000,89.5000,148,67,0.45128
5734310,0.08000,89.0000,148,67,0.49328
5734320,0.10000,88.5000,148,67,0.52845
5734330,0.09000,88.0000,148,67,0.55873
5734340,0.07000,86.8125,148,67,0.61856
5734350,0.02000,86.1250,148,67,0.64420
5734360,-0.05000,85.3750,148,67,0.66618
5734370,-0.11500,84.6250,148,67,0.68449
5734380,-0.15500,83.1250,148,67,0.71062
5734390,-0.17000,82.3125,148,67,0.71917
5734400,-0.17500,81.6250,148,67,0.72503
5734410,-0.18000,80.8750,148,67,0.72869
5734420,-0.18250,79.8438,148,67,0.72869
5734430,-0.18000,78.8750,148,67,0.72650
5734440,-0.17000,78.3125,148,67,0.72357
5734450,-0.16500,77.6875,148,67,0.71966
5734460,-0.16500,76.6250,148,67,0.70842
5734470,-0.17000,76.1250,148,67,0.70085
5734480,0.02000,75.5625,148,67,0.69158
5734490,0.57000,75.0000,148,67,0.68034
5734500,1.10500,73.8125,148,67,0.65104
5734510,0.86500,73.1875,148,67,0.63346
5734520,0.08500,72.5000,148,67,0.61661
5734530,-0.42000,71.8125,148,67,0.60000
5734540,-0.52000,70.5000,148,67,0.56288
5734550,-0.39000,69.8125,148,67,0.54457
5734560,-0.27500,69.2500,148,67,0.52723
5734570,-0.24000,68.6250,148,67,0.51111
5734580,-0.22000,67.5625,148,67,0.48327
5734590,-0.21000,67.0000,148,67,0.47131
5734600,-0.20000,66.5000,148,67,0.46032
5734610,-0.19000,66.0625,148,67,0.45031
5734620,-0.18500,65.3125,148,67,0.43492
5734630,-0.17500,65.3125,148,67,0.42711
5734640,-0.16000,65.9375,148,67,0.41929
5734650,-0.14500,68.0625,148,67,0.41148
5734660,-0.12500,80.0000,148,67,0.39634
5734670,-0.10500,89.6250,148,67,0.38877
5734680,-0.08500,100.2500,148,67,0.38120
5734690,-0.05500,110.6875,148,67,0.37387
5734700,-0.02000,128.3125,148,67,0.36020
5734710,0.01000,134.8750,148,67,0.35385
5734720,0.03000,139.7500,148,67,0.34896
5734730,0.05000,143.1875,148,67,0.34481
5734740,0.06500,146.4375,148,67,0.33504
5734750,0.07000,146.9375,148,67,0.32991
5734760,0.07000,147.0625,148,67,0.32503
5734770,0.06500,146.8125,148,67,0.32039
5734780,0.06500,145.7500,148,67,0.31111
5734790,0.07000,144.9375,148,67,0.30647
5734800,0.08000,143.9375,148,67,0.30208
5734810,0.09000,142.9375,148,67,0.29768
5734820,0.09000,140.5625,148,67,0.29231
5734830,0.07500,139.2500,148,67,0.28889
5734840,0.05000,137.8750,148,67,0.28523
5734850,0.01500,136.3125,148,67,0.28156
5734860,-0.00500,132.8750,148,67,0.27448
5734870,-0.02000,130.8125,148,67,0.27106
5734880,-0.02500,128.5000,148,67,0.26740
5734890,-0.03000,125.6875,148,67,0.26374
5734900,-0.03000,118.3750,148,67,0.25763
5734910,-0.02500,113.9375,148,67,0.25763
5734920,-0.01500,109.2500,148,67,0.26105
5734930,-0.00500,104.7500,148,67,0.26862
5734940,0.01000,97.6250,148,67,0.30379
5734950,0.03500,95.1875,148,67,0.33211
5734960,0.07000,93.5000,148,67,0.36679
5734970,0.10000,92.3125,148,67,0.40635
5734980,0.13000,90.8125,148,67,0.49109
5734990,0.16000,90.3125,148,67,0.53211
5735000,0.16500,89.8125,148,67,0.57045
5735010,0.15500,89.3750,148,67,0.60513
5735020,0.13000,88.2500,148,67,0.65275
5735030,0.07000,87.6250,148,67,0.67350
5735040,-0.00500,86.9375,148,67,0.69182
5735050,-0.06500,86.1875,148,67,0.70769
5735060,-0.10500,84.6875,148,67,0.73114
5735070,-0.11500,83.9375,148,67,0.73895
5735080,-0.12500,83.1875,148,67,0.74432
5735090,-0.12500,82.4375,148,67,0.74750
5735100,-0.13000,81.0625,148,67,0.74823
5735110,-0.12500,80.3750,148,67,0.74652
5735120,-0.12500,79.7500,148,67,0.74286
5735130,-0.12000,79.1875,148,67,0.73773
5735140,-0.13000,77.9375,148,67,0.72405
5735150,-0.10000,77.3125,148,67,0.71502
5735160,0.18500,76.6875,148,67,0.70427
5735170,0.77000,76.0000,148,67,0.69158
5735180,1.06500,74.6250,148,67,0.66081
5735190,0.61000,73.8750,148,67,0.64274
5735200,-0.09500,73.1875,148,67,0.62344
5735210,-0.44500,72.4375,148,67,0.60342
5735220,-0.42500,71.0625,148,67,0.56850
5735230,-0.30000,70.4375,148,67,0.55116
5735240,-0.23000,69.7500,148,67,0.53431
5735250,-0.21000,69.1250,148,67,0.51868
5735260,-0.20500,67.8750,148,67,0.49182
5735270,-0.19500,67.2500,148,67,0.48010
5735280,-0.19000,66.6875,148,67,0.46935
5735290,-0.19000,66.1250,148,67,0.45958
5735300,-0.18500,65.5625,148,67,0.44103
5735310,-0.18000,65.8750,148,67,0.43248
5735320,-0.16500,67.3125,148,67,0.42515
5735330,-0.14500,70.6875,148,67,0.41880
5735340,-0.13000,85.1250,148,67,0.40440
5735350,-0.10500,95.0625,148,67,0.39707
5735360,-0.08500,105.3125,148,67,0.38999
5735370,-0.05500,115.0625,148,67,0.38315
5735380,-0.02500,130.8125,148,67,0.36972
5735390,0.00500,136.4375,148,67,0.36337
5735400,0.03000,140.5000,148,67,0.35726
5735410,0.05500,143.1875,148,67,0.35116
5735420,0.06000,145.5625,148,67,0.34237
5735430,0.06000,145.8125,148,67,0.33748
5735440,0.06000,145.4375,148,67,0.33089
5735450,0.06000,144.6563,148,67,0.32369
5735460,0.06000,143.6875,148,67,0.31697
5735470,0.06000,142.7500,148,67,0.31184
5735480,0.06000,141.6250,148,67,0.30696
5735490,0.06500,140.5000,148,67,0.30208
5735500,0.06000,138.0000,148,67,0.29255
5735510,0.04000,136.6250,148,67,0.28816
5735520,0.01500,135.2500,148,67,0.28498
5735530,-0.01000,133.7500,148,67,0.28254
5735540,-0.03000,130.2500,148,67,0.27570
5735550,-0.04000,128.0625,148,67,0.27179
5735560,-0.05000,125.3750,148,67,0.26764
5735570,-0.05000,122.0625,148,67,0.26349
5735580,-0.04500,113.6250,148,67,0.25763
5735590,-0.03000,108.8125,148,67,0.25861
5735600,-0.01500,104.3125,148,67,0.26447
5735610,-0.00500,100.3750,148,67,0.27668
5735620,0.01000,94.8125,148,67,0.31355
5735630,0.04000,93.0625,148,67,0.34237
5735640,0.06500,91.8750,148,67,0.37753
5735650,0.09000,91.0000,148,67,0.41709
5735660,0.12500,89.8125,148,67,0.50012
5735670,0.14000,89.3750,148,67,0.53968
5735680,0.14000,88.8750,148,67,0.57607
5735690,0.12000,88.3125,148,67,0.60855
5735700,0.06500,87.0000,148,67,0.66056
5735710,-0.00500,86.3125,148,67,0.67766
5735720,-0.07500,85.5000,148,67,0.69035
5735730,-0.12000,84.6875,148,67,0.70208
5735740,-0.14500,83.0000,148,67,0.71990
5735750,-0.15500,82.1875,148,67,0.72576
5735760,-0.16000,81.4375,148,67,0.72943
5735770,-0.16000,80.6250,148,67,0.73138
5735780,-0.16000,79.1875,148,67,0.73040
5735790,-0.16000,78.5625,148,67,0.72796
5735800,-0.16000,77.9375,148,67,0.72405
5735810,-0.15500,77.3125,148,67,0.71868
5735820,-0.15500,76.0625,148,67,0.70403
5735830,0.00000,75.4375,148,67,0.69402
5735840,0.47500,74.8750,148,67,0.68205
5735850,1.00000,74.1875,148,67,0.66838
5735860,0.84500,72.8750,148,67,0.63492
5735870,0.14000,72.1875,148,67,0.61612
5735880,-0.36000,71.5000,148,67,0.59658
5735890,-0.49000,70.7500,148,67,0.57705
5735900,-0.39500,69.3750,148,67,0.53944
5735910,-0.27500,68.7500,148,67,0.52381
5735920,-0.23500,68.1250,148,67,0.51038
5735930,-0.22500,67.5000,148,67,0.49695
5735940,-0.22000,66.2500,148,67,0.47302
5735950,-0.21000,65.6875,148,67,0.46252
5735960,-0.20500,65.1250,148,67,0.45275
5735970,-0.20000,64.6875,148,67,0.44347
5735980,-0.19000,64.4375,148,67,0.42637
5735990,-0.18000,65.3750,148,67,0.41807
5736000,-0.16000,67.8125,147,67,0.40977
5736010,-0.14500,72.5625,147,67,0.40195
5736020,-0.12500,89.0625,147,67,0.38950
5736030,-0.10500,99.0625,147,67,0.38266
5736040,-0.08000,108.8750,147,67,0.37558
5736050,-0.05500,117.8750,147,67,0.36825
5736060,-0.03000,131.8750,147,67,0.35433
5736070,-0.00500,136.6250,147,67,0.34750
5736080,0.01000,139.9375,147,67,0.34115
5736090,0.02000,142.0625,147,67,0.33529
5736100,0.02000,143.5625,147,67,0.32479
5736110,0.02000,143.4375,147,67,0.32088
5736120,0.01500,142.9375,147,67,0.31770
5736130,0.01000,142.1250,147,67,0.31355
5736140,0.01500,140.1250,147,67,0.30379
5736150,0.02000,138.9375,147,67,0.29866
5736160,0.02500,137.6875,147,67,0.29377
5736170,0.03000,136.4375,147,67,0.28889
5736180,0.02000,133.7500,147,67,0.27961
5736190,0.00000,132.3750,147,67,0.27521
5736200,-0.02500,130.9375,147,67,0.27082
5736210,-0.05000,129.3125,147,67,0.26667
5736220,-0.06500,125.3125,147,67,0.26203
5736230,-0.07500,122.6875,147,67,0.25910
5736240,-0.07500,119.4375,147,67,0.25543
5736250,-0.06000,115.5625,147,67,0.25177
5736260,-0.04500,106.5625,147,67,0.24811
5736270,-0.03500,102.1875,147,67,0.25079
5736280,-0.01500,98.4375,147,67,0.25861
5736290,-0.00500,95.5000,147,67,0.27326
5736300,0.01000,91.8125,147,67,0.32430
5736310,0.03500,90.8750,147,67,0.35433
5736320,0.05500,90.1875,147,67,0.38584
5736330,0.08500,89.7500,147,67,0.42344
5736340,0.11000,89.0000,147,67,0.50330
5736350,0.11500,88.5625,147,67,0.54115
5736360,0.10000,88.1250,147,67,0.57558
5736370,0.06500,87.5625,147,67,0.60635
5736380,-0.00500,86.1250,147,67,0.65495
5736390,-0.07500,85.3750,147,67,0.67326
5736400,-0.13000,84.5625,147,67,0.68791
5736410,-0.15500,82.8750,147,67,0.69915
5736420,-0.17000,82.0000,147,67,0.71013
5736430,-0.17000,81.1250,147,67,0.71306
5736440,-0.17500,80.3750,147,67,0.71502
5736450,-0.18000,79.5625,147,67,0.71551
5736460,-0.18500,78.6750,147,67,0.71365
5736470,-0.18167,77.7938,147,67,0.70991
5736480,-0.18000,77.0000,147,67,0.70476
5736490,-0.19000,76.3750,147,67,0.69866
5736500,-0.13000,75.1875,147,67,0.68059
5736510,0.22500,74.6250,147,67,0.66960
5736520,0.86000,74.0625,147,67,0.65739
5736530,1.06500,73.4375,147,67,0.64274
5736540,0.43500,72.1875,147,67,0.60757
5736550,-0.28000,71.5625,147,67,0.58852
5736560,-0.56500,70.9375,147,67,0.56923
5736570,-0.53000,70.3750,147,67,0.55043
5736580,-0.38500,69.2500,147,67,0.51600
5736590,-0.30000,68.6250,147,67,0.50110
5736600,-0.27000,68.1250,147,67,0.48767
5736610,-0.26000,67.5625,147,67,0.47570
5736620,-0.25000,66.5625,147,67,0.45812
5736630,-0.24000,66.0625,147,67,0.44982
5736640,-0.23000,65.6250,147,67,0.44176
5736650,-0.22000,65.3125,147,67,0.43394
5736660,-0.21000,65.9375,147,67,0.41856
5736670,-0.19000,68.0000,147,67,0.41074
5736680,-0.17500,72.3125,147,67,0.40317
5736690,-0.16000,79.3750,147,67,0.39585
5736700,-0.14000,99.0625,147,67,0.38095
5736710,-0.11500,109.3125,147,67,0.37460
5736720,-0.09000,118.7500,147,67,0.36923
5736730,-0.06000,126.8750,147,67,0.36288
5736740,-0.03500,138.4375,147,67,0.35018
5736750,-0.01500,141.9375,147,67,0.34432
5736760,0.00000,144.1250,147,67,0.33871
5736770,0.01000,145.2500,147,67,0.33333
5736780,0.01000,145.7500,147,67,0.32283
5736790,0.00000,145.4375,147,67,0.31795
5736800,0.00000,144.8750,147,67,0.31331
5736810,0.00000,144.1875,147,67,0.30867
5736820,0.00500,142.2500,147,67,0.30281
5736830,0.02000,141.1250,147,67,0.29939
5736840,0.03000,139.9375,147,67,0.29573
5736850,0.03000,137.3125,147,67,0.29182
5736860,0.02000,135.8750,147,67,0.28376
5736870,0.00000,134.3125,147,67,0.28010
5736880,-0.01500,132.6875,147,67,0.27643
5736890,-0.03500,130.8125,147,67,0.27277
5736900,-0.04500,126.2500,147,67,0.26496
5736910,-0.04500,123.3125,147,67,0.26252
5736920,-0.03500,119.8125,147,67,0.26081
5736930,-0.02000,115.6875,147,67,0.25885
5736940,-0.00500,106.8125,147,67,0.26032
5736950,0.00500,102.7500,147,67,0.26716
5736960,0.02000,99.3750,147,67,0.28034
5736970,0.03500,96.7500,147,67,0.30085
5736980,0.06000,93.6250,147,67,0.36239
5736990,0.09000,92.7500,147,67,0.40098
5737000,0.10500,92.1250,147,67,0.44225
5737010,0.13000,91.6250,147,67,0.48376
5737020,0.15000,90.6875,147,67,0.55018
5737030,0.14500,90.1875,147,67,0.58193
5737040,0.13000,89.5625,147,67,0.61197
5737050,0.09500,88.9375,147,67,0.63858
5737060,0.02500,87.5625,147,67,0.68132
5737070,-0.04000,86.8125,147,67,0.69719
5737080,-0.09000,86.0625,147,67,0.70965
5737090,-0.11500,85.3125,147,67,0.71941
5737100,-0.13000,83.8125,147,67,0.73114
5737110,-0.14000,83.0000,147,67,0.73260
5737120,-0.14500,82.2500,147,67,0.73236
5737130,-0.14500,81.5625,147,67,0.73162
5737140,-0.14500,80.2500,147,67,0.72698
5737150,-0.14000,79.6250,147,67,0.72259
5737160,-0.14000,78.9375,147,67,0.71697
5737170,-0.14500,78.3125,147,67,0.70965
5737180,-0.01500,77.0000,147,67,0.68962
5737190,0.42000,76.3750,147,67,0.67619
5737200,1.00000,75.6875,147,67,0.66081
5737210,0.98000,75.0625,147,67,0.64347
5737220,0.25500,73.6875,147,67,0.61074
5737230,-0.33500,73.0000,147,67,0.59292
5737240,-0.48000,72.3750,147,67,0.57460
5737250,-0.38500,71.6875,147,67,0.55678
5737260,-0.27000,70.4375,147,67,0.52381
5737270,-0.22000,69.8750,147,67,0.50940
5737280,-0.21000,69.3125,147,67,0.49621
5737290,-0.20500,68.2500,147,67,0.48449
5737300,-0.20000,67.6875,147,67,0.46398
5737310,-0.19000,67.1875,147,67,0.45592
5737320,-0.19000,66.8125,147,67,0.44908
5737330,-0.18000,66.5625,147,67,0.44176
5737340,-0.17000,67.9375,147,67,0.42686
5737350,-0.15000,71.0625,147,67,0.41929
5737360,-0.13500,76.7500,147,67,0.41172
5737370,-0.11000,85.0625,147,67,0.40440
5737380,-0.08500,105.6250,147,67,0.39023
5737390,-0.05500,115.6875,147,67,0.38339
5737400,-0.02000,124.6875,147,67,0.37680
5737410,0.01000,132.1875,147,67,0.37045
5737420,0.03500,142.3750,147,67,0.36117
5737430,0.06000,145.2500,147,67,0.35604
5737440,0.08000,146.9375,147,67,0.35067
5737450,0.08500,147.8750,147,67,0.34505
5737460,0.08000,148.1250,147,67,0.33407
5737470,0.07500,147.8125,147,67,0.32894
5737480,0.07500,147.3125,147,67,0.32381
5737490,0.07584,146.1771,147,67,0.31628
5737500,0.08000,144.8750,147,67,0.30940
5737510,0.09000,143.8750,147,67,0.30623
5737520,0.09000,142.8125,147,67,0.30354
5737530,0.08000,141.6875,147,67,0.30012
5737540,0.05500,139.0625,147,67,0.29280
5737550,0.02500,137.6250,147,67,0.28889
5737560,0.00000,136.0625,147,67,0.28498
5737570,-0.01500,134.3125,147,67,0.28132
5737580,-0.02500,129.8125,147,67,0.27326
5737590,-0.02500,126.8125,147,67,0.26911
5737600,-0.02500,123.1250,147,67,0.26545
5737610,-0.01500,118.8125,147,67,0.26398
5737620,-0.01000,109.3125,147,67,0.26911
5737630,0.00000,104.9375,147,67,0.27839
5737640,0.01500,101.2500,147,67,0.29402
5737650,0.03500,98.3750,147,67,0.31697
5737660,0.06000,94.6875,147,67,0.38339
5737670,0.09000,93.6250,147,67,0.42344
5737680,0.11500,92.8750,147,67,0.46545
5737690,0.14000,92.3125,147,67,0.50720
5737700,0.14500,91.3125,147,67,0.58364
5737710,0.13500,90.8125,147,67,0.61221
5737720,0.10500,90.1875,147,67,0.63492
5737730,0.05000,89.5000,147,67,0.65714
5737740,-0.02500,88.0000,147,67,0.69426
5737750,-0.08500,87.1875,147,67,0.70818
5737760,-0.12000,86.3750,147,67,0.71941
5737770,-0.13500,85.5625,147,67,0.72845
5737780,-0.14000,83.8750,147,67,0.74628
5737790,-0.14500,83.1250,147,67,0.75092
5737800,-0.14500,82.3750,147,67,0.75263
5737810,-0.14500,81.0625,147,67,0.75165
5737820,-0.14500,80.4375,147,67,0.74530
5737830,-0.14000,79.8125,147,67,0.74090
5737840,-0.14000,79.2500,147,67,0.73529
5737850,-0.11000,78.6250,147,67,0.72821
5737860,0.15500,77.2500,147,67,0.70867
5737870,0.72500,76.5625,147,67,0.69573
5737880,1.04000,75.8750,147,67,0.68059
5737890,0.62000,75.1250,147,67,0.66349
5737900,-0.07500,73.6875,147,67,0.62491
5737910,-0.44500,72.9375,147,67,0.60684
5737920,-0.43500,72.2500,147,67,0.58974
5737930,-0.31500,71.5625,147,67,0.57192
5737940,-0.23000,70.1875,147,67,0.53773
5737950,-0.20500,69.5625,147,67,0.52234
5737960,-0.19000,68.9375,147,67,0.50818
5737970,-0.18000,68.3750,147,67,0.49548
5737980,-0.18000,67.1875,147,67,0.47350
5737990,-0.18000,66.6875,147,67,0.46398
5738000,-0.17000,66.3125,146,67,0.45470
5738010,-0.16000,66.2500,146,67,0.44689
5738020,-0.14500,68.8125,146,67,0.43199
5738030,-0.13000,72.9375,146,67,0.42369
5738040,-0.11500,79.5625,146,67,0.41563
5738050,-0.08500,88.3750,146,67,0.40781
5738060,-0.06000,108.2500,146,67,0.39292
5738070,-0.03000,117.5000,146,67,0.38559
5738080,-0.00500,125.5625,146,67,0.37851
5738090,0.02000,132.2500,146,67,0.37167
5738100,0.04000,141.0625,146,67,0.35849
5738110,0.06000,143.4375,146,67,0.35360
5738120,0.07000,144.8125,146,67,0.34945
5738130,0.07000,145.3750,146,67,0.34457
5738140,0.06000,145.1875,146,67,0.33431
5738150,0.06000,144.6250,146,67,0.32943
5738160,0.05500,143.9375,146,67,0.32430
5738170,0.06000,143.1250,146,67,0.31917
5738180,0.06500,141.2500,146,67,0.30916
5738190,0.07500,140.1875,146,67,0.30403
5738200,0.07000,139.1250,146,67,0.29915
5738210,0.05500,137.9375,146,67,0.29597
5738220,0.03000,135.3125,146,67,0.29011
5738230,0.00000,133.7500,146,67,0.28669
5738240,-0.01500,131.9375,146,67,0.28278
5738250,-0.02500,129.8750,146,67,0.27863
5738260,-0.03500,124.1875,146,67,0.26984
5738270,-0.03500,120.3750,146,67,0.26520
5738280,-0.02500,116.0000,146,67,0.26129
5738290,-0.01500,111.2500,146,67,0.25958
5738300,0.00000,102.3750,146,67,0.26838
5738310,0.01000,98.9375,146,67,0.27961
5738320,0.03000,96.3125,146,67,0.29597
5738330,0.06000,94.3750,146,67,0.31990
5738340,0.08000,92.1250,146,67,0.38657
5738350,0.10500,91.4375,146,67,0.42637
5738360,0.13000,90.8750,146,67,0.46740
5738370,0.13500,90.3750,146,67,0.50794
5738380,0.12500,89.2500,146,67,0.58144
5738390,0.10500,88.6250,146,67,0.61245
5738400,0.04000,87.9375,146,67,0.63907
5738410,-0.03000,87.1875,146,67,0.65910
5738420,-0.09500,85.5625,146,67,0.68864
5738430,-0.13500,84.6875,146,67,0.70134
5738440,-0.16000,83.7500,146,67,0.71184
5738450,-0.16000,82.8750,146,67,0.71990
5738460,-0.16000,81.1875,146,67,0.72967
5738470,-0.16000,80.5000,146,67,0.73162
5738480,-0.16500,79.7500,146,67,0.73162
5738490,-0.16000,79.1250,146,67,0.72991
5738500,-0.16000,77.8750,146,67,0.72308
5738510,-0.17000,77.2125,146,67,0.71937
5738520,-0.14333,76.7562,146,67,0.71397
5738530,0.08000,76.1250,146,67,0.70208
5738540,0.66000,74.9375,146,67,0.67888
5738550,1.08000,74.3125,146,67,0.66422
5738560,0.68000,73.6250,146,67,0.64762
5738570,-0.07500,73.0000,146,67,0.62930
5738580,-0.48000,71.6875,146,67,0.58999
5738590,-0.53000,71.0000,146,67,0.57045
5738600,-0.40500,70.3750,146,67,0.55165
5738610,-0.29000,69.1875,146,67,0.53578
5738620,-0.25500,68.6250,146,67,0.50794
5738630,-0.24000,68.0625,146,67,0.49475
5738640,-0.23500,67.5000,146,67,0.48254
5738650,-0.22500,66.9375,146,67,0.47106
5738660,-0.22000,66.0000,146,67,0.45104
5738670,-0.20500,65.6875,146,67,0.44200
5738680,-0.20000,65.6875,146,67,0.43346
5738690,-0.18500,66.4375,146,67,0.42515
5738700,-0.17000,73.0000,146,67,0.40830
5738710,-0.16000,80.0000,146,67,0.40147
5738720,-0.14500,89.1250,146,67,0.39536
5738730,-0.12000,99.3750,146,67,0.38852
5738740,-0.09500,118.8750,146,67,0.37387
5738750,-0.07000,126.9375,146,67,0.36679
5738760,-0.04500,133.5625,146,67,0.35971
5738770,-0.02500,138.5625,146,67,0.35287
5738780,-0.01500,144.2500,146,67,0.34066
5738790,-0.00500,145.5000,146,67,0.33529
5738800,0.00000,145.9375,146,67,0.33016
5738810,0.00000,145.9375,146,67,0.32625
5738820,-0.00500,145.0000,146,67,0.31917
5738830,-0.00500,144.3125,146,67,0.31502
5738840,-0.00500,143.5625,146,67,0.31038
5738850,0.01000,142.6875,146,67,0.30574
5738860,0.02000,140.7500,146,67,0.29695
5738870,0.02000,139.6250,146,67,0.29255
5738880,0.00500,138.3750,146,67,0.28840
5738890,-0.02000,137.0625,146,67,0.28449
5738900,-0.05500,134.0000,146,67,0.27668
5738910,-0.07500,132.1875,146,67,0.27424
5738920,-0.09000,130.0625,146,67,0.27228
5738930,-0.09500,127.5625,146,67,0.26911
5738940,-0.08500,120.6250,146,67,0.26203
5738950,-0.07000,116.2500,146,67,0.25934
5738960,-0.05500,111.5625,146,67,0.25836
5738970,-0.03500,106.9375,146,67,0.26081
5738980,-0.02000,99.4375,146,67,0.28156
5738990,0.00000,96.8750,146,67,0.30256
5739000,0.03000,95.1875,146,67,0.33089
5739010,0.05500,94.0000,146,67,0.36020
5739020,0.08000,92.7500,146,67,0.42906
5739030,0.11000,92.3125,146,67,0.46960
5739040,0.13000,91.9375,146,67,0.51013
5739050,0.12500,91.4375,146,67,0.54896
5739060,0.10500,90.2500,146,67,0.61612
5739070,0.06500,89.5625,146,67,0.64347
5739080,-0.00500,88.8125,146,67,0.66667
5739090,-0.07500,88.0000,146,67,0.68620
5739100,-0.12500,86.3125,146,67,0.71477
5739110,-0.14500,85.4375,146,67,0.72283
5739120,-0.15500,84.5625,146,67,0.72796
5739130,-0.15500,83.6250,146,67,0.73236
5739140,-0.15500,82.0000,146,67,0.73748
5739150,-0.15500,81.2500,146,67,0.73797
5739160,-0.16000,80.5625,146,67,0.73700
5739170,-0.15500,79.9375,146,67,0.73455
5739180,-0.15500,78.7500,146,67,0.72454
5739190,-0.16000,78.1875,146,67,0.71697
5739200,0.00000,77.6250,146,67,0.70769
5739210,0.49000,77.1250,146,67,0.69744
5739220,1.05500,76.0000,146,67,0.67155
5739230,0.95000,75.4375,146,67,0.65519
5739240,0.17500,74.8125,146,67,0.63687
5739250,-0.39000,74.1875,146,67,0.61758
5739260,-0.51000,73.0625,146,67,0.57827
5739270,-0.39000,72.5000,146,67,0.55971
5739280,-0.29333,71.9375,146,67,0.54237
5739290,-0.23000,70.8750,146,67,0.52650
5739300,-0.21000,70.3125,146,67,0.49963
5739310,-0.20500,69.7500,146,67,0.48938
5739320,-0.19500,69.1875,146,67,0.48083
5739330,-0.19000,68.6875,146,67,0.47228
5739340,-0.18000,67.8750,146,67,0.45568
5739350,-0.17000,67.8750,146,67,0.44762
5739360,-0.15500,68.6250,146,67,0.43980
5739370,-0.14500,71.0000,146,67,0.43175
5739380,-0.12500,83.6250,146,67,0.41514
5739390,-0.10500,93.4375,146,67,0.40684
5739400,-0.08500,104.1875,146,67,0.39878
5739410,-0.06000,114.6875,146,67,0.39243
5739420,-0.03000,132.0625,146,67,0.38046
5739430,-0.00500,138.5000,146,67,0.37411
5739440,0.02500,143.3125,146,67,0.36777
5739450,0.04500,146.5625,146,67,0.36166
5739460,0.06000,149.6250,146,67,0.34994
5739470,0.07000,150.1250,146,67,0.34457
5739480,0.07000,150.1875,146,67,0.33919
5739490,0.07000,150.0625,146,67,0.33407
5739500,0.07000,149.2500,146,67,0.32601
5739510,0.07000,148.7500,146,67,0.32332
5739520,0.07500,148.1250,146,67,0.32015
5739530,0.08000,147.4375,146,67,0.31648
5739540,0.07917,146.1667,146,67,0.31099
5739550,0.07000,144.7500,146,67,0.30549
5739560,0.05000,143.6250,146,67,0.30183
5739570,0.02000,142.3750,146,67,0.29841
5739580,-0.00500,139.3125,146,67,0.29158
5739590,-0.02000,137.3750,146,67,0.28791
5739600,-0.03500,135.0625,146,67,0.28425
5739610,-0.04500,132.1875,146,67,0.28156
5739620,-0.04500,124.6250,146,67,0.27766
5739630,-0.04000,119.8750,146,67,0.27643
5739640,-0.03000,114.8750,146,67,0.27863
5739650,-0.01500,110.0625,146,67,0.28596
5739660,0.00000,102.2500,146,67,0.32137
5739670,0.02000,99.6250,146,67,0.35018
5739680,0.05500,97.6875,146,67,0.38535
5739690,0.08000,96.3750,146,67,0.42515
5739700,0.11500,94.9375,146,67,0.50452
5739710,0.14000,94.4375,146,67,0.53797
5739720,0.14500,93.9375,146,67,0.57314
5739730,0.13500,93.4375,146,67,0.60684
5739740,0.10500,92.3125,146,67,0.66349
5739750,0.04500,91.5625,146,67,0.68596
5739760,-0.02500,90.8125,146,67,0.70476
5739770,-0.08000,89.9375,146,67,0.72015
5739780,-0.11000,88.1875,146,67,0.74212
5739790,-0.13000,87.3125,146,67,0.74969
5739800,-0.14000,86.4375,146,67,0.75531
5739810,-0.14500,85.6250,146,67,0.75775
5739820,-0.15000,84.1875,146,67,0.75482
5739830,-0.14500,83.4375,146,67,0.74921
5739840,-0.13500,82.7500,146,67,0.74481
5739850,-0.13500,82.0625,146,67,0.74042
5739860,-0.13500,80.7500,146,67,0.72894
5739870,-0.07500,80.1250,146,67,0.72088
5739880,0.26500,79.4375,146,67,0.71111
5739890,0.86500,78.8125,146,67,0.69890
5739900,1.05000,77.4375,146,67,0.67009
5739910,0.45500,76.7500,146,67,0.65446
5739920,-0.21000,76.0625,146,67,0.63663
5739930,-0.46000,75.3125,146,67,0.61734
5739940,-0.41000,73.9375,146,67,0.57827
5739950,-0.28500,73.3125,146,67,0.55971
5739960,-0.22000,72.6250,146,67,0.54188
5739970,-0.21000,72.0000,146,67,0.52552
5739980,-0.19500,70.7500,146,67,0.49695
5739990,-0.18500,70.1250,146,67,0.48474
5740000,-0.17000,69.6250,146,67,0.47375
5740010,-0.16000,69.1250,146,67,0.46496
5740020,-0.15500,68.8125,146,67,0.44957
5740030,-0.15000,69.6250,146,67,0.44127
5740040,-0.13500,71.9375,146,67,0.43297
5740050,-0.11500,76.5625,146,67,0.42491
5740060,-0.09500,93.1250,146,67,0.40904
5740070,-0.07500,103.3750,146,67,0.40122
5740080,-0.04500,113.5625,146,67,0.39341
5740090,-0.01500,122.8125,146,67,0.38584
5740100,0.01000,137.3125,146,67,0.37241
5740110,0.03500,142.1875,146,67,0.36728
5740120,0.06000,145.5625,146,67,0.36166
5740130,0.07000,147.6875,146,67,0.35580
5740140,0.07500,149.3750,146,67,0.34457
5740150,0.07000,149.3750,146,67,0.33895
5740160,0.07000,149.0625,146,67,0.33358
5740170,0.06500,148.5625,146,67,0.32821
5740180,0.06000,147.2500,146,67,0.31746
5740190,0.06000,146.4375,146,67,0.31233
5740200,0.07000,145.5625,146,67,0.30720
5740210,0.07000,144.6250,146,67,0.30330
5740220,0.06000,142.4375,146,67,0.29670
5740230,0.04000,141.2500,146,67,0.29280
5740240,0.01000,139.9375,146,67,0.28889
5740250,-0.01500,138.4375,146,67,0.28498
5740260,-0.03500,134.8125,146,67,0.27717
5740270,-0.05000,132.4375,146,67,0.27302
5740280,-0.05500,129.5625,146,67,0.26886
5740290,-0.05000,125.9375,146,67,0.26496
5740300,-0.03500,116.8750,146,67,0.26154
5740310,-0.03000,111.8125,146,67,0.26374
5740320,-0.02000,107.1250,146,67,0.26984
5740330,-0.01000,103.1250,146,67,0.28205
5740340,0.01000,97.6250,146,67,0.32698
5740350,0.04500,96.0000,146,67,0.35922
5740360,0.07500,94.8125,146,67,0.39634
5740370,0.10000,94.0000,146,67,0.43614
5740380,0.13500,92.8750,146,67,0.51624
5740390,0.14000,92.4375,146,67,0.55336
5740400,0.13500,91.8750,146,67,0.58657
5740410,0.10500,91.3125,146,67,0.61221
5740420,0.05000,89.8750,146,67,0.65201
5740430,-0.02500,89.0625,146,67,0.66960
5740440,-0.08500,88.3125,146,67,0.68449
5740450,-0.11500,87.5000,146,67,0.69670
5740460,-0.13500,85.9375,146,67,0.71355
5740470,-0.15000,85.1875,146,67,0.71893
5740480,-0.15500,84.3750,146,67,0.72259
5740490,-0.16000,83.6250,146,67,0.72454
5740500,-0.16000,82.1875,146,67,0.72308
5740510,-0.15500,81.5000,146,67,0.71990
5740520,-0.15000,80.8125,146,67,0.71575
5740530,-0.15500,80.1250,146,67,0.71038
5740540,-0.12500,78.7500,146,67,0.69548
5740550,0.15500,78.0625,146,67,0.68571
5740560,0.73500,77.0875,146,67,0.66882
5740570,0.88167,76.0062,146,67,0.64803
5740580,0.60000,75.0000,146,67,0.62662
5740590,-0.10500,74.2500,146,67,0.60781
5740600,-0.46000,73.5000,146,67,0.58803
5740610,-0.47000,72.7500,146,67,0.57021
5740620,-0.34500,71.4375,146,67,0.53675
5740630,-0.25000,70.8125,146,67,0.52015
5740640,-0.22500,70.1875,146,67,0.50501
5740650,-0.22000,69.5625,146,67,0.49109
5740660,-0.21000,68.4375,146,67,0.46642
5740670,-0.21000,67.9375,146,67,0.45592
5740680,-0.20000,67.5625,146,67,0.44640
5740690,-0.19000,67.3125,146,67,0.43712
5740700,-0.17500,68.0000,146,67,0.42100
5740710,-0.16000,70.0625,146,67,0.41416
5740720,-0.15000,74.1875,146,67,0.40684
5740730,-0.13000,80.9375,146,67,0.39927
5740740,-0.10500,99.8750,146,67,0.38437
5740750,-0.08500,110.0000,146,67,0.37705
5740760,-0.06000,119.3125,146,67,0.36996
5740770,-0.03500,127.5000,146,67,0.36313
5740780,-0.01500,139.4375,146,67,0.34969
5740790,0.00500,143.1250,146,67,0.34359
5740800,0.02000,145.5000,146,67,0.33773
5740810,0.02500,146.8750,146,67,0.33333
5740820,0.03000,147.5625,146,67,0.32503
5740830,0.02500,147.3125,146,67,0.32015
5740840,0.02000,146.7500,146,67,0.31502
5740850,0.02000,146.0000,146,67,0.30965
5740860,0.02000,144.0625,146,67,0.29915
5740870,0.03000,143.0000,146,67,0.29426
5740880,0.04000,141.8750,146,67,0.28938
5740890,0.03500,140.6250,146,67,0.28449
5740900,0.01000,137.8750,146,67,0.27668
5740910,-0.02000,136.3750,146,67,0.27424
5740920,-0.04500,134.7500,146,67,0.27106
5740930,-0.06500,133.0000,146,67,0.26764
5740940,-0.07500,128.5625,146,67,0.26056
5740950,-0.07500,125.6875,146,67,0.25665
5740960,-0.06500,122.1250,146,67,0.25299
5740970,-0.05500,117.8750,146,67,0.25006
5740980,-0.03500,108.5625,146,67,0.25128
5740990,-0.02500,104.2500,146,67,0.25836
5741000,-0.01500,100.6875,146,67,0.27155
5741010,0.00500,97.8750,146,67,0.28816
5741020,0.03500,94.5000,146,67,0.33822
5741030,0.05500,93.6250,146,67,0.37314
5741040,0.07500,93.0000,146,67,0.41148
5741050,0.10000,92.5000,146,67,0.45153
5741060,0.11000,91.5625,146,67,0.52918
5741070,0.09500,91.0625,146,67,0.56386
5741080,0.07000,90.5000,146,67,0.59463
5741090,0.01000,89.8750,146,67,0.62125
5741100,-0.05500,88.5000,146,67,0.66032
5741110,-0.13000,87.6250,146,67,0.67228
5741120,-0.15500,86.7500,146,67,0.68352
5741130,-0.17500,85.8750,146,67,0.69280
5741140,-0.18500,84.1250,146,67,0.70525
5741150,-0.19000,83.3125,146,67,0.70867
5741160,-0.19000,82.5000,146,67,0.71038
5741170,-0.19000,81.7500,146,67,0.71062
5741180,-0.18500,80.4375,146,67,0.70696
5741190,-0.18000,79.8125,146,67,0.70281
5741200,-0.19000,79.2500,146,67,0.69744
5741210,-0.16000,78.6875,146,67,0.69084
5741220,0.13000,77.5625,146,67,0.67228
5741230,0.76000,77.0000,146,67,0.66007
5741240,1.11000,76.3750,146,67,0.64567
5741250,0.59000,75.7500,146,67,0.62930
5741260,-0.18000,74.4375,146,67,0.59267
5741270,-0.54000,73.7500,146,67,0.57363
5741280,-0.55500,73.0625,146,67,0.55458
5741290,-0.42500,71.7500,146,67,0.53626
5741300,-0.31500,71.1250,146,67,0.50452
5741310,-0.28500,70.5000,146,67,0.49231
5741320,-0.26500,69.8750,146,67,0.48010
5741330,-0.25000,69.3125,146,67,0.46862
5741340,-0.23000,68.2500,146,67,0.44811
5741350,-0.22500,67.8750,146,67,0.43883
5741360,-0.21500,67.6250,146,67,0.43004
5741370,-0.21000,67.6875,146,67,0.42149
5741380,-0.20000,71.3125,146,67,0.40562
5741390,-0.18500,76.4375,146,67,0.39805
5741400,-0.16500,84.3125,146,67,0.39170
5741410,-0.15000,94.1875,146,67,0.38608
5741420,-0.12500,115.0625,146,67,0.37289
5741430,-0.09500,124.3750,146,67,0.36606
5741440,-0.07000,132.3125,146,67,0.35897
5741450,-0.04000,138.7500,146,67,0.35214
5741460,-0.01500,146.8125,146,67,0.33895
5741470,0.00000,148.7500,146,67,0.33284
5741480,0.01000,149.8125,146,67,0.32723
5741490,0.01000,150.1875,146,67,0.32210
5741500,0.01000,149.7500,146,67,0.31331
5741510,0.01000,149.1875,146,67,0.31038
5741520,0.01000,148.4375,146,67,0.30672
5741530,0.01000,147.6250,146,67,0.30281
5741540,0.02000,145.7500,146,67,0.29451
5741550,0.03500,144.7500,146,67,0.29060
5741560,0.04000,143.6250,146,67,0.28645
5741570,0.02000,142.5000,146,67,0.28254
5741580,-0.00500,140.8000,146,67,0.27722
5741590,-0.03167,138.7625,146,67,0.27175
5741600,-0.05500,136.6250,146,67,0.26740
5741610,-0.07000,134.6250,146,67,0.26545
5741620,-0.07500,129.1250,146,67,0.25910
5741630,-0.06500,125.3125,146,67,0.25543
5741640,-0.05500,120.8750,146,67,0.25250
5741650,-0.03500,116.1250,146,67,0.25153
5741660,-0.02500,107.0000,146,67,0.26203
5741670,-0.00500,103.4375,146,67,0.27619
5741680,0.01500,100.6875,146,67,0.29768
5741690,0.04000,98.7500,146,67,0.32625
5741700,0.06500,96.5000,146,67,0.39390
5741710,0.08500,95.8125,146,67,0.42686
5741720,0.11500,95.2500,146,67,0.46422
5741730,0.12500,94.8125,146,67,0.50232
5741740,0.11500,93.7500,146,67,0.57167
5741750,0.09500,93.1875,146,67,0.60098
5741760,0.05500,92.5000,146,67,0.62637
5741770,-0.01500,91.7500,146,67,0.64786
5741780,-0.08000,90.1250,146,67,0.67985
5741790,-0.12500,89.3125,146,67,0.69109
5741800,-0.14500,88.5625,146,67,0.69817
5741810,-0.16000,87.7500,146,67,0.70232
5741820,-0.16500,86.1875,146,67,0.70842
5741830,-0.17000,85.5000,146,67,0.70965
5741840,-0.16500,84.7500,146,67,0.70965
5741850,-0.16000,84.1250,146,67,0.70842
5741860,-0.15500,82.8125,146,67,0.70232
5741870,-0.15500,82.2500,146,67,0.69817
5741880,-0.14500,81.6250,146,67,0.69304
5741890,0.09500,81.0000,146,67,0.68523
5741900,0.67000,79.7500,146,67,0.66447
5741910,1.09500,79.1250,146,67,0.65226
5741920,0.73500,78.4375,146,67,0.63736
5741930,-0.03000,77.7500,146,67,0.62051
5741940,-0.44500,76.4375,146,67,0.58291
5741950,-0.45500,75.7500,146,67,0.56386
5741960,-0.32000,75.1250,146,67,0.54530
5741970,-0.23000,74.5000,146,67,0.52772
5741980,-0.21500,73.3125,146,67,0.49744
5741990,-0.21000,72.6875,146,67,0.48474
5742000,-0.20000,72.0625,146,67,0.47448
5742010,-0.19500,71.5000,146,67,0.46593
5742020,-0.18500,70.5625,146,67,0.44933
5742030,-0.18000,70.2500,146,67,0.44103
5742040,-0.17000,70.5000,146,67,0.43297
5742050,-0.16000,71.7500,146,67,0.42491
5742060,-0.14500,80.9375,146,67,0.40879
5742070,-0.12500,89.5000,146,67,0.40049
5742080,-0.09500,99.8125,146,67,0.39243
5742090,-0.06500,110.6250,146,67,0.38486
5742100,-0.03500,130.1250,146,67,0.37216
5742110,0.00000,137.8125,146,67,0.36728
5742120,0.03000,143.8750,146,67,0.36166
5742130,0.05500,148.4375,146,67,0.35604
5742140,0.08000,153.4375,146,67,0.34481
5742150,0.09000,154.5625,146,67,0.33944
5742160,0.10000,155.0625,146,67,0.33407
5742170,0.09500,155.1250,146,67,0.32869
5742180,0.09000,154.5000,146,67,0.31844
5742190,0.09000,154.5000,146,67,0.31844
5742200,0.09000,154.5000,146,67,0.31844
5742210,0.09000,151.5000,146,67,0.30305
5742220,0.09000,150.5000,146,67,0.29890
5742230,0.08500,149.5000,146,67,0.29475
5742240,0.07000,148.4375,146,67,0.29060
5742250,0.04000,147.2500,146,67,0.28669
5742260,0.01000,144.5625,146,67,0.27937
5742270,-0.01500,142.8750,146,67,0.27546
5742280,-0.03500,140.9375,146,67,0.27131
5742290,-0.05000,138.6250,146,67,0.26716
5742300,-0.05000,132.0000,146,67,0.26081
5742310,-0.04500,127.5625,146,67,0.26007
5742320,-0.03500,122.5625,146,67,0.26032
5742330,-0.03000,117.4375,146,67,0.26374
5742340,-0.01500,108.5000,146,67,0.28596
5742350,0.01000,105.1875,146,67,0.30720
5742360,0.04000,102.6250,146,67,0.33480
5742370,0.07500,100.8125,146,67,0.36752
5742380,0.11000,98.5625,146,67,0.44127
5742390,0.14500,97.8750,146,67,0.47863
5742400,0.14500,97.3125,146,67,0.50989
5742410,0.13500,96.7500,146,67,0.53651
5742420,0.10500,95.6250,146,67,0.58852
5742430,0.04500,94.9375,146,67,0.61074
5742440,-0.02500,94.2500,146,67,0.63004
5742450,-0.08500,93.5000,146,67,0.64640
5742460,-0.12000,91.9375,146,67,0.67082
5742470,-0.13500,91.1250,146,67,0.67961
5742480,-0.14500,90.3125,146,67,0.68645
5742490,-0.14500,89.5625,146,67,0.69133
5742500,-0.14500,88.1250,146,67,0.69573
5742510,-0.14000,87.4375,146,67,0.69499
5742520,-0.14000,86.7500,146,67,0.69377
5742530,-0.14000,86.0625,146,67,0.69206
5742540,-0.15000,84.6250,146,67,0.68596
5742550,-0.06000,83.8750,146,67,0.68083
5742560,0.31000,83.1250,146,67,0.67424
5742570,0.88500,82.3750,146,67,0.66545
5742580,0.97500,80.8125,146,67,0.64127
5742590,0.33500,80.0000,146,67,0.62613
5742600,-0.27000,79.2500,146,67,0.61123
5742610,-0.46850,78.3063,146,67,0.58950
5742620,-0.42150,77.3187,146,67,0.56508
5742630,-0.29000,76.4375,146,67,0.54212
5742640,-0.23500,75.8125,146,67,0.52479
5742650,-0.22000,75.1250,146,67,0.50891
5742660,-0.20500,73.8125,146,67,0.48107
5742670,-0.19500,73.1875,146,67,0.46935
5742680,-0.19000,72.6250,146,67,0.45885
5742690,-0.18000,72.1875,146,67,0.44908
5742700,-0.17500,72.0000,146,67,0.43223
5742710,-0.16000,73.0625,146,67,0.42564
5742720,-0.15000,75.6875,146,67,0.41832
5742730,-0.13000,80.7500,146,67,0.41074
5742740,-0.10500,97.9375,146,67,0.39585
5742750,-0.08500,108.3750,146,67,0.38852
5742760,-0.05500,118.6875,146,67,0.38144
5742770,-0.03000,128.0625,146,67,0.37460
5742780,0.00000,142.8750,146,67,0.36166
5742790,0.03000,148.0625,146,67,0.35580
5742800,0.05500,151.7500,146,67,0.35116
5742810,0.07000,154.1875,146,67,0.34725
5742820,0.08500,156.2500,146,67,0.33797
5742830,0.09000,156.3750,146,67,0.33284
5742840,0.08000,156.1250,146,67,0.32772
5742850,0.07000,155.5625,146,67,0.32283
5742860,0.07000,154.0000,146,67,0.31306
5742870,0.07000,153.0000,146,67,0.30818
5742880,0.07000,152.0000,146,67,0.30305
5742890,0.06500,150.9375,146,67,0.29817
5742900,0.05500,148.6875,146,67,0.29255
5742910,0.02500,147.5000,146,67,0.28913
5742920,-0.00500,146.1250,146,67,0.28547
5742930,-0.03500,144.6875,146,67,0.28205
5742940,-0.05500,140.8750,146,67,0.27448
5742950,-0.06500,138.3125,146,67,0.27057
5742960,-0.06500,135.1250,146,67,0.26642
5742970,-0.05500,131.1875,146,67,0.26252
5742980,-0.04500,121.3750,146,67,0.25910
5742990,-0.04500,116.2500,146,67,0.26227
5743000,-0.03500,111.5625,146,67,0.26911
5743010,-0.01500,107.6875,146,67,0.28010
5743020,0.01000,102.3750,146,67,0.32088
5743030,0.04000,100.7500,146,67,0.34945
5743040,0.07000,99.5625,146,67,0.38193
5743050,0.10500,98.7500,146,67,0.41612
5743060,0.13500,97.4375,146,67,0.48254
5743070,0.13000,96.8125,146,67,0.51233
5743080,0.12000,96.2500,146,67,0.53919
5743090,0.09000,95.6250,146,67,0.56288
5743100,0.03000,94.1875,146,67,0.59512
5743110,-0.04000,93.4375,146,67,0.60855
5743120,-0.09500,92.6250,146,67,0.62076
5743130,-0.12000,91.8750,146,67,0.63126
5743140,-0.13500,90.2500,146,67,0.64689
5743150,-0.14500,89.4375,146,67,0.65250
5743160,-0.15000,88.6875,146,67,0.65665
5743170,-0.15500,87.8750,146,67,0.65958
5743180,-0.16000,86.4375,146,67,0.66154
5743190,-0.16000,85.7500,146,67,0.66056
5743200,-0.15500,85.0000,146,67,0.65836
5743210,-0.16000,84.2500,146,67,0.65495
5743220,-0.04500,82.6875,146,67,0.64444
5743230,0.38500,81.8750,146,67,0.63663
5743240,0.94500,81.0625,146,67,0.62662
5743250,0.88500,80.3125,146,67,0.61441
5743260,0.08000,78.7500,146,67,0.58462
5743270,-0.32500,77.9375,146,67,0.56801
5743280,-0.50000,77.2500,146,67,0.55116
5743290,-0.41500,76.5000,146,67,0.53455
5743300,-0.30000,75.1875,146,67,0.50769
5743310,-0.25000,74.5000,146,67,0.49475
5743320,-0.24000,73.8750,146,67,0.48230
5743330,-0.22500,73.2500,146,67,0.47082
5743340,-0.21000,72.1250,146,67,0.45104
5743350,-0.20500,71.6250,146,67,0.44200
5743360,-0.20500,71.1875,146,67,0.43370
5743370,-0.20000,71.0625,146,67,0.42613
5743380,-0.19000,72.9375,146,67,0.41148
5743390,-0.17500,76.3125,146,67,0.40440
5743400,-0.15500,82.3125,146,67,0.39853
5743410,-0.13500,90.7500,146,67,0.39341
5743420,-0.11000,111.3750,146,67,0.38217
5743430,-0.08500,121.5625,146,67,0.37631
5743440,-0.05500,130.7500,146,67,0.37045
5743450,-0.02500,138.6250,146,67,0.36459
5743460,0.00000,149.9375,146,67,0.35336
5743470,0.02500,153.4375,146,67,0.34799
5743480,0.03500,155.6875,146,67,0.34286
5743490,0.04000,157.0625,146,67,0.33797
5743500,0.04500,157.6250,146,67,0.33089
5743510,0.04000,157.2500,146,67,0.32674
5743520,0.04000,156.5625,146,67,0.32234
5743530,0.04000,155.6875,146,67,0.31770
5743540,0.04500,153.5000,146,67,0.30842
5743550,0.05000,152.2500,146,67,0.30403
5743560,0.05000,151.0000,146,67,0.30012
5743570,0.04000,149.7500,146,67,0.29646
5743580,0.01500,147.0625,146,67,0.28938
5743590,-0.00500,145.5625,146,67,0.28596
5743600,-0.02500,144.0000,146,67,0.28376
5743610,-0.05000,142.1250,146,67,0.28230
5743620,-0.06500,137.1875,146,67,0.27643
5743630,-0.07000,133.9750,146,67,0.27121
5743640,-0.06500,130.4938,146,67,0.26786
5743650,-0.05500,124.7500,146,67,0.26764
5743660,-0.04500,114.7500,146,67,0.27179
5743670,-0.04000,110.3750,146,67,0.28083
5743680,-0.02000,106.6875,146,67,0.29573
5743690,0.00500,103.9375,146,67,0.31673
5743700,0.03500,100.3750,146,67,0.36337
5743710,0.06000,99.2500,146,67,0.39267
5743720,0.10000,98.4375,146,67,0.42393
5743730,0.12000,97.7500,146,67,0.45495
5743740,0.11500,96.5000,146,67,0.51160
5743750,0.10000,95.9375,146,67,0.53553
5743760,0.06000,95.2500,146,67,0.55629
5743770,-0.01500,93.8750,146,67,0.57411
5743780,-0.08000,93.0625,146,67,0.60147
5743790,-0.12500,92.3125,146,67,0.61172
5743800,-0.15000,91.5000,146,67,0.61905
5743810,-0.16000,90.6875,146,67,0.62393
5743820,-0.16000,89.1250,146,67,0.63223
5743830,-0.16500,88.4375,146,67,0.63492
5743840,-0.16500,87.6875,146,67,0.63663
5743850,-0.16500,87.0000,146,67,0.63761
5743860,-0.16000,85.6250,146,67,0.63663
5743870,-0.17000,84.9375,146,67,0.63468
5743880,-0.17000,84.2500,146,67,0.63126
5743890,0.03833,83.5729,146,67,0.62646
5743900,0.44500,82.8750,146,67,0.62027
5743910,1.04000,82.1250,146,67,0.61270
5743920,0.93000,81.4375,146,67,0.60317
5743930,0.18500,80.6875,146,67,0.60073
5743940,-0.37500,79.1875,146,67,0.59170
5743950,-0.55000,78.4375,146,67,0.57851
5743960,-0.45500,77.7500,146,67,0.56337
5743970,-0.32000,77.0625,146,67,0.54750
5743980,-0.27000,75.7500,146,67,0.51697
5743990,-0.26000,75.1250,146,67,0.50305
5744000,-0.25000,74.5000,147,67,0.49060
5744010,-0.23500,73.8750,147,67,0.48059
5744020,-0.22000,72.7500,147,67,0.46374
5744030,-0.21000,72.2500,147,67,0.45568
5744040,-0.20000,71.9375,147,67,0.44786
5744050,-0.19500,72.0000,147,67,0.44054
5744060,-0.19000,75.3750,147,67,0.42589
5744070,-0.17500,80.4375,147,67,0.41856
5744080,-0.15500,88.3125,147,67,0.41148
5744090,-0.12500,98.3125,147,67,0.40440
5744100,-0.09500,120.0000,147,67,0.39194
5744110,-0.07000,129.9375,147,67,0.38730
5744120,-0.04500,138.5625,147,67,0.38193
5744130,-0.01500,145.8125,147,67,0.37656
5744140,0.00500,155.6875,147,67,0.36581
5744150,0.02000,158.5000,147,67,0.36068
5744160,0.03000,160.2500,147,67,0.35580
5744170,0.02500,161.0625,147,67,0.35043
5744180,0.01500,161.0000,147,67,0.34017
5744190,0.01000,160.3750,147,67,0.33553
5744200,0.01000,159.5625,147,67,0.33089
5744210,0.02500,158.5625,147,67,0.32772
5744220,0.03500,156.4375,147,67,0.32137
5744230,0.04000,155.3125,147,67,0.31746
5744240,0.03000,154.1250,147,67,0.31306
5744250,0.01000,152.8750,147,67,0.30891
5744260,-0.02000,150.1875,147,67,0.30085
5744270,-0.05000,148.6250,147,67,0.29695
5744280,-0.07500,146.8750,147,67,0.29328
5744290,-0.08500,144.8125,147,67,0.28962
5744300,-0.08500,139.3750,147,67,0.28303
5744310,-0.07500,135.6875,147,67,0.28132
5744320,-0.06000,131.2500,147,67,0.27961
5744330,-0.05000,126.1875,147,67,0.27912
5744340,-0.03500,115.8125,147,67,0.28816
5744350,-0.01000,111.3125,147,67,0.30110
5744360,0.02000,107.7500,147,67,0.32039
5744370,0.05000,105.0625,147,67,0.34579
5744380,0.08000,101.8750,147,67,0.40977
5744390,0.11000,101.0000,147,67,0.44444
5744400,0.14000,100.3125,147,67,0.47839
5744410,0.14000,99.6875,147,67,0.50647
5744420,0.12000,98.6250,147,67,0.55385
5744430,0.08500,98.0625,147,67,0.57534
5744440,0.01500,97.4375,147,67,0.59414
5744450,-0.05500,96.6875,147,67,0.61050
5744460,-0.10500,95.1875,147,67,0.63639
5744470,-0.12500,94.4375,147,67,0.64640
5744480,-0.14000,93.6875,147,67,0.65446
5744490,-0.14500,92.8125,147,67,0.66081
5744500,-0.15000,91.1875,147,67,0.66862
5744510,-0.14500,90.4375,147,67,0.67009
5744520,-0.14000,89.6875,147,67,0.67155
5744530,-0.13000,88.9375,147,67,0.67253
5744540,-0.12500,87.5000,147,67,0.67204
5744550,-0.13500,86.8125,147,67,0.67009
5744560,0.00000,86.1250,147,67,0.66642
5744570,0.46500,85.3750,147,67,0.66105
5744580,1.04500,83.9375,147,67,0.64493
5744590,0.99000,83.1875,147,67,0.63394
5744600,0.22500,82.4375,147,67,0.62125
5744610,-0.35500,81.6875,147,67,0.60855
5744620,-0.48000,80.1875,147,67,0.58071
5744630,-0.36500,79.5000,147,67,0.56484
5744640,-0.25000,78.8750,147,67,0.54921
5744650,-0.21000,78.1875,147,67,0.53407
5744660,-0.18850,77.3875,147,67,0.51683
5744670,-0.17900,76.5812,147,67,0.49990
5744680,-0.17500,75.8750,147,67,0.48571
5744690,-0.17000,75.3750,147,67,0.47668
5744700,-0.17000,74.5000,147,67,0.46252
5744710,-0.16000,74.3125,147,67,0.45690
5744720,-0.15000,74.6875,147,67,0.45079
5744730,-0.13500,80.0000,147,67,0.44444
5744740,-0.12500,86.5000,147,67,0.43199
5744750,-0.09500,95.5625,147,67,0.42540
5744760,-0.06500,106.3125,147,67,0.41880
5744770,-0.03000,117.5000,147,67,0.41245
5744780,0.00000,137.6875,147,67,0.40000
5744790,0.03000,145.8750,147,67,0.39390
5744800,0.06500,152.5000,147,67,0.38926
5744810,0.09000,157.5625,147,67,0.38559
5744820,0.10500,163.6250,147,67,0.37729
5744830,0.11500,164.9375,147,67,0.37289
5744840,0.11000,165.5625,147,67,0.36850
5744850,0.11000,165.6250,147,67,0.36386
5744860,0.10000,164.6250,147,67,0.35482
5744870,0.10000,163.8125,147,67,0.35018
5744880,0.10000,162.8750,147,67,0.34579
5744890,0.10500,161.8125,147,67,0.34164
5744900,0.10000,159.5625,147,67,0.33455
5744910,0.08500,158.3125,147,67,0.33211
5744920,0.06000,157.0000,147,67,0.32869
5744930,0.03000,155.6250,147,67,0.32527
5744940,0.00500,152.5000,147,67,0.31844
5744950,-0.01500,150.6875,147,67,0.31502
5744960,-0.03500,148.5000,147,67,0.31160
