cp,st,dt,sw10,dw10,sw10+dw10,dw10/sw10,sw25,dw25,sw25+dw25,dw25/sw25,sw33,dw33,sw33+dw33,dw33/sw33,sw50,dw50,sw50+dw50,dw50/sw50,sw66,dw66,sw66+dw66,dw66/sw66,sw75,dw75,sw75+dw75,dw75/sw75,sys,dia
760,210,520,200,440,640,2.2,180,350,530,1.9444,180,300,480,1.6667,160,210,370,1.3125,140,140,280,1.0,140,120,260,0.85714,122,60
740,240,480,220,420,640,1.9091,200,320,520,1.6,190,270,460,1.4211,190,190,380,1.0,170,120,290,0.7058800000000001,150,100,250,0.66667,126,62
690,260,450,250,370,620,1.48,220,290,510,1.3182,210,250,460,1.1905,190,180,370,0.94737,170,120,290,0.7058800000000001,150,90,240,0.6,134,66
700,240,460,230,380,610,1.6522,210,300,510,1.4286,200,260,460,1.3,180,190,370,1.0556,150,130,280,0.86667,140,100,240,0.71429,137,68
710,240,460,220,460,680,2.0909,200,340,540,1.7,190,290,480,1.5263,170,200,370,1.1765,150,140,290,0.93333,130,100,230,0.76923,137,68
690,250,450,230,360,590,1.5652,210,280,490,1.3333,200,240,440,1.2,180,160,340,0.88889,150,110,260,0.73333,130,90,220,0.69231,143,71
700,240,450,230,370,600,1.6087,200,280,480,1.4,200,240,440,1.2,170,170,340,1.0,150,110,260,0.73333,120,100,220,0.8333299999999999,146,73
690,250,440,220,370,590,1.6818,210,280,490,1.3333,200,240,440,1.2,180,160,340,0.88889,150,110,260,0.73333,140,80,220,0.57143,146,73
690,250,450,230,360,590,1.5652,200,270,470,1.35,190,230,420,1.2105,170,160,330,0.94118,150,110,260,0.73333,130,90,220,0.69231,151,76
690,240,450,220,360,580,1.6364,200,270,470,1.35,190,230,420,1.2105,170,160,330,0.94118,150,100,250,0.66667,120,90,210,0.75,153,78
690,240,450,220,380,600,1.7273,200,290,490,1.45,190,240,430,1.2632,170,170,340,1.0,150,110,260,0.73333,130,90,220,0.69231,153,78
700,240,450,220,370,590,1.6818,200,280,480,1.4,190,240,430,1.2632,170,160,330,0.94118,140,110,250,0.78571,120,90,210,0.75,157,80
690,250,430,230,360,590,1.5652,210,260,470,1.2381,200,220,420,1.1,180,150,330,0.8333299999999999,160,100,260,0.625,130,80,210,0.61538,158,81
680,260,440,230,360,590,1.5652,210,260,470,1.2381,200,220,420,1.1,170,150,320,0.88235,150,100,250,0.66667,130,80,210,0.61538,160,83
680,240,440,220,350,570,1.5909,200,260,460,1.3,200,220,420,1.1,170,150,320,0.88235,140,100,240,0.71429,130,90,220,0.69231,160,83
680,240,440,220,350,570,1.5909,210,260,470,1.2381,190,220,410,1.1579,180,150,330,0.8333299999999999,150,100,250,0.66667,130,90,220,0.69231,161,83
680,240,440,220,360,580,1.6364,200,260,460,1.3,190,220,410,1.1579,170,150,320,0.88235,150,100,250,0.66667,130,90,220,0.69231,163,84
680,240,450,210,360,570,1.7143,190,260,450,1.3684,180,220,400,1.2222,170,150,320,0.88235,140,110,250,0.78571,130,90,220,0.69231,163,84
680,230,450,210,360,570,1.7143,190,260,450,1.3684,180,220,400,1.2222,160,150,310,0.9375,140,110,250,0.78571,130,90,220,0.69231,164,85
680,230,440,210,370,580,1.7619,190,270,460,1.4211,180,220,400,1.2222,160,150,310,0.9375,140,110,250,0.78571,130,90,220,0.69231,166,86
670,240,440,210,350,560,1.6667,190,250,440,1.3158,180,210,390,1.1667,170,140,310,0.8235299999999999,140,110,250,0.78571,130,90,220,0.69231,166,86
690,230,460,200,380,580,1.9,190,270,460,1.4211,170,230,400,1.3529,160,160,320,1.0,130,120,250,0.92308,120,100,220,0.8333299999999999,168,86
670,230,450,210,380,590,1.8095,180,270,450,1.5,170,230,400,1.3529,160,150,310,0.9375,140,110,250,0.78571,130,90,220,0.69231,169,87
680,220,450,200,370,570,1.85,180,260,440,1.4444,170,220,390,1.2941,160,140,300,0.875,140,100,240,0.71429,120,90,210,0.75,169,87
660,230,440,200,350,550,1.75,190,260,450,1.3684,180,220,400,1.2222,160,140,300,0.875,140,100,240,0.71429,120,90,210,0.75,170,88
660,200,460,180,400,580,2.2222,150,310,460,2.0667,140,270,410,1.9286,120,190,310,1.5833,100,140,240,1.4,90,110,200,1.2222,101,48
660,200,460,180,440,620,2.4444,160,350,510,2.1875,150,300,450,2.0,120,220,340,1.8333,110,150,260,1.3636,90,110,200,1.2222,101,48
670,200,460,180,410,590,2.2778,150,320,470,2.1333,140,280,420,2.0,130,200,330,1.5385,100,150,250,1.5,100,120,220,1.2,101,48
660,210,450,190,390,580,2.0526,170,300,470,1.7647,160,260,420,1.625,130,190,320,1.4615,110,130,240,1.1818,100,110,210,1.1,102,48
660,210,460,190,390,580,2.0526,160,290,450,1.8125,150,250,400,1.6667,140,190,330,1.3571,110,140,250,1.2727,100,110,210,1.1,102,48
680,200,470,190,410,600,2.1579,160,310,470,1.9375,150,270,420,1.8,130,200,330,1.5385,110,140,250,1.2727,90,120,210,1.3333,102,48
640,210,450,190,390,580,2.0526,170,300,470,1.7647,160,250,410,1.5625,130,190,320,1.4615,110,130,240,1.1818,100,110,210,1.1,101,47
670,190,460,170,400,570,2.3529,150,300,450,2.0,140,270,410,1.9286,130,190,320,1.4615,100,140,240,1.4,90,110,200,1.2222,101,47
660,210,450,180,400,580,2.2222,160,310,470,1.9375,150,280,430,1.8667,130,180,310,1.3846,110,130,240,1.1818,100,100,200,1.0,100,47
670,210,460,180,420,600,2.3333,160,320,480,2.0,150,280,430,1.8667,130,200,330,1.5385,100,140,240,1.4,100,120,220,1.2,100,47
660,210,450,190,410,600,2.1579,170,300,470,1.7647,150,260,410,1.7333,130,190,320,1.4615,120,130,250,1.0833,100,110,210,1.1,100,47
660,210,460,190,390,580,2.0526,160,310,470,1.9375,160,270,430,1.6875,130,190,320,1.4615,110,140,250,1.2727,100,110,210,1.1,100,47
690,200,480,180,410,590,2.2778,160,320,480,2.0,150,280,430,1.8667,130,210,340,1.6154,100,150,250,1.5,90,130,220,1.4444,101,47
670,210,460,190,400,590,2.1053,170,320,490,1.8824,160,280,440,1.75,140,200,340,1.4286,120,150,270,1.25,100,120,220,1.2,101,47
650,210,450,190,390,580,2.0526,170,300,470,1.7647,150,260,410,1.7333,130,190,320,1.4615,110,130,240,1.1818,100,110,210,1.1,100,47
680,200,470,180,400,580,2.2222,150,320,470,2.1333,140,270,410,1.9286,120,190,310,1.5833,100,140,240,1.4,90,110,200,1.2222,99,47
680,210,470,180,480,660,2.6667,160,330,490,2.0625,140,280,420,2.0,130,200,330,1.5385,100,140,240,1.4,100,120,220,1.2,99,47
670,210,460,190,400,590,2.1053,170,310,480,1.8235,150,270,420,1.8,140,190,330,1.3571,110,130,240,1.1818,100,110,210,1.1,99,47
680,210,460,190,400,590,2.1053,170,310,480,1.8235,150,260,410,1.7333,130,190,320,1.4615,110,130,240,1.1818,100,110,210,1.1,99,47
660,220,450,200,410,610,2.05,170,330,500,1.9412,170,280,450,1.6471,140,200,340,1.4286,120,140,260,1.1667,110,110,220,1.0,99,47
690,210,480,190,420,610,2.2105,160,320,480,2.0,150,280,430,1.8667,130,200,330,1.5385,110,150,260,1.3636,100,120,220,1.2,100,47
680,210,480,190,410,600,2.1579,160,320,480,2.0,150,280,430,1.8667,130,200,330,1.5385,110,140,250,1.2727,90,120,210,1.3333,99,47
660,200,460,180,390,570,2.1667,160,300,460,1.875,150,260,410,1.7333,130,180,310,1.3846,110,130,240,1.1818,100,100,200,1.0,99,47
680,200,470,180,410,590,2.2778,150,320,470,2.1333,140,280,420,2.0,120,200,320,1.6667,100,140,240,1.4,90,120,210,1.3333,99,46
680,210,470,180,420,600,2.3333,160,330,490,2.0625,150,280,430,1.8667,130,200,330,1.5385,110,150,260,1.3636,100,120,220,1.2,99,46
680,210,470,180,400,580,2.2222,160,320,480,2.0,150,280,430,1.8667,140,200,340,1.4286,110,150,260,1.3636,100,120,220,1.2,99,46
680,210,470,190,400,590,2.1053,170,310,480,1.8235,160,270,430,1.6875,140,200,340,1.4286,120,140,260,1.1667,100,110,210,1.1,99,46
680,210,470,190,400,590,2.1053,170,310,480,1.8235,160,270,430,1.6875,140,200,340,1.4286,120,140,260,1.1667,100,110,210,1.1,99,46
680,210,480,190,410,600,2.1579,170,320,490,1.8824,150,280,430,1.8667,130,200,330,1.5385,110,150,260,1.3636,100,120,220,1.2,99,46
650,200,450,180,400,580,2.2222,160,310,470,1.9375,150,260,410,1.7333,140,190,330,1.3571,110,130,240,1.1818,100,110,210,1.1,98,46
680,200,470,180,400,580,2.2222,150,310,460,2.0667,150,270,420,1.8,120,190,310,1.5833,110,140,250,1.2727,90,110,200,1.2222,98,46
670,210,460,190,410,600,2.1579,160,320,480,2.0,150,270,420,1.8,130,200,330,1.5385,110,140,250,1.2727,100,110,210,1.1,98,46
670,210,470,180,420,600,2.3333,160,330,490,2.0625,150,280,430,1.8667,130,200,330,1.5385,100,150,250,1.5,100,120,220,1.2,98,46
680,200,470,180,410,590,2.2778,160,330,490,2.0625,150,280,430,1.8667,130,210,340,1.6154,100,150,250,1.5,90,130,220,1.4444,99,46
690,210,480,190,410,600,2.1579,170,320,490,1.8824,160,280,440,1.75,130,200,330,1.5385,120,140,260,1.1667,100,120,220,1.2,99,46
680,210,480,190,400,590,2.1053,170,320,490,1.8824,150,280,430,1.8667,130,200,330,1.5385,110,150,260,1.3636,100,120,220,1.2,99,46
660,200,460,180,400,580,2.2222,160,320,480,2.0,150,280,430,1.8667,130,200,330,1.5385,110,140,250,1.2727,100,120,220,1.2,99,47
680,200,470,190,420,610,2.2105,160,320,480,2.0,150,270,420,1.8,120,190,310,1.5833,110,140,250,1.2727,90,110,200,1.2222,98,46
680,210,470,180,460,640,2.5556,160,360,520,2.25,150,300,450,2.0,130,220,350,1.6923,110,150,260,1.3636,100,120,220,1.2,98,46
690,210,470,180,420,600,2.3333,160,330,490,2.0625,150,280,430,1.8667,130,200,330,1.5385,110,140,250,1.2727,100,120,220,1.2,99,46
670,220,460,200,390,590,1.95,170,300,470,1.7647,160,260,420,1.625,140,190,330,1.3571,120,130,250,1.0833,110,110,220,1.0,99,47
690,210,470,190,410,600,2.1579,160,310,470,1.9375,160,270,430,1.6875,130,200,330,1.5385,110,140,250,1.2727,100,120,220,1.2,99,47
700,220,480,190,410,600,2.1579,170,330,500,1.9412,160,280,440,1.75,140,210,350,1.5,120,150,270,1.25,100,110,210,1.1,100,47
670,220,470,190,410,600,2.1579,170,320,490,1.8824,160,270,430,1.6875,140,200,340,1.4286,110,140,250,1.2727,100,110,210,1.1,99,47
680,200,480,170,420,590,2.4706,150,330,480,2.2,140,280,420,2.0,120,200,320,1.6667,100,150,250,1.5,90,120,210,1.3333,99,47
690,200,480,180,410,590,2.2778,160,320,480,2.0,140,270,410,1.9286,130,200,330,1.5385,110,140,250,1.2727,100,110,210,1.1,98,46
690,210,470,190,420,610,2.2105,160,320,480,2.0,150,270,420,1.8,140,190,330,1.3571,110,140,250,1.2727,110,110,220,1.0,98,46
680,220,470,200,410,610,2.05,160,310,470,1.9375,160,270,430,1.6875,140,200,340,1.4286,120,140,260,1.1667,110,110,220,1.0,98,46
690,210,480,190,420,610,2.2105,160,320,480,2.0,160,280,440,1.75,130,200,330,1.5385,120,140,260,1.1667,100,120,220,1.2,99,46
710,210,490,190,420,610,2.2105,170,330,500,1.9412,160,290,450,1.8125,130,210,340,1.6154,110,150,260,1.3636,100,130,230,1.3,99,46
690,220,490,200,420,620,2.1,170,320,490,1.8824,160,280,440,1.75,140,200,340,1.4286,120,140,260,1.1667,100,110,210,1.1,99,46
680,200,480,180,410,590,2.2778,160,320,480,2.0,150,280,430,1.8667,130,200,330,1.5385,110,140,250,1.2727,90,120,210,1.3333,99,46
680,200,480,180,410,590,2.2778,160,320,480,2.0,150,270,420,1.8,130,200,330,1.5385,110,130,240,1.1818,90,110,200,1.2222,98,46
690,210,490,190,420,610,2.2105,170,330,500,1.9412,150,280,430,1.8667,130,210,340,1.6154,110,150,260,1.3636,90,130,220,1.4444,98,46
720,200,510,180,440,620,2.4444,160,340,500,2.125,150,290,440,1.9333,130,210,340,1.6154,110,160,270,1.4545,100,120,220,1.2,98,46
700,210,480,190,420,610,2.2105,170,330,500,1.9412,160,280,440,1.75,140,210,350,1.5,110,150,260,1.3636,100,120,220,1.2,98,46
680,220,480,190,410,600,2.1579,160,320,480,2.0,160,270,430,1.6875,130,200,330,1.5385,110,140,250,1.2727,100,120,220,1.2,98,46
700,200,490,190,420,610,2.2105,160,320,480,2.0,150,270,420,1.8,130,190,320,1.4615,110,140,250,1.2727,90,110,200,1.2222,97,46
600,210,470,200,460,660,2.3,180,360,540,2.0,160,320,480,2.0,140,220,360,1.5714,120,150,270,1.25,100,120,220,1.2,97,46
680,220,480,190,410,600,2.1579,170,320,490,1.8824,160,270,430,1.6875,140,200,340,1.4286,120,140,260,1.1667,100,120,220,1.2,96,45
690,200,490,190,420,610,2.2105,170,320,490,1.8824,150,270,420,1.8,130,190,320,1.4615,110,130,240,1.1818,90,110,200,1.2222,95,45
710,200,500,180,490,670,2.7222,150,400,550,2.6667,140,320,460,2.2857,130,210,340,1.6154,100,160,260,1.6,90,120,210,1.3333,95,45
700,210,490,180,440,620,2.4444,160,340,500,2.125,150,290,440,1.9333,130,210,340,1.6154,110,160,270,1.4545,90,130,220,1.4444,95,45
700,210,490,190,430,620,2.2632,160,340,500,2.125,150,290,440,1.9333,130,210,340,1.6154,110,150,260,1.3636,90,130,220,1.4444,95,45
720,210,500,190,430,620,2.2632,170,330,500,1.9412,160,290,450,1.8125,130,210,340,1.6154,110,160,270,1.4545,90,130,220,1.4444,95,45
700,220,490,190,430,620,2.2632,170,330,500,1.9412,160,290,450,1.8125,130,210,340,1.6154,110,150,260,1.3636,100,130,230,1.3,96,45
700,210,490,190,430,620,2.2632,170,330,500,1.9412,160,280,440,1.75,130,210,340,1.6154,110,150,260,1.3636,100,120,220,1.2,95,45
680,210,480,180,410,590,2.2778,170,320,490,1.8824,150,270,420,1.8,130,190,320,1.4615,110,140,250,1.2727,90,120,210,1.3333,95,45
710,200,490,180,430,610,2.3889,160,330,490,2.0625,150,280,430,1.8667,130,200,330,1.5385,100,140,240,1.4,90,120,210,1.3333,94,45
700,220,490,200,440,640,2.2,170,340,510,2.0,160,300,460,1.875,140,220,360,1.5714,120,150,270,1.25,100,120,220,1.2,94,44
700,210,480,190,440,630,2.3158,170,340,510,2.0,160,300,460,1.875,140,220,360,1.5714,110,160,270,1.4545,100,120,220,1.2,95,44
700,220,490,190,420,610,2.2105,170,320,490,1.8824,160,280,440,1.75,140,210,350,1.5,120,150,270,1.25,100,120,220,1.2,95,44
720,210,510,180,430,610,2.3889,160,330,490,2.0625,150,290,440,1.9333,140,210,350,1.5,110,160,270,1.4545,100,120,220,1.2,95,45
710,210,500,200,420,620,2.1,180,320,500,1.7778,160,280,440,1.75,140,200,340,1.4286,110,140,250,1.2727,100,120,220,1.2,95,45
680,210,480,190,410,600,2.1579,170,310,480,1.8235,160,270,430,1.6875,130,190,320,1.4615,120,130,250,1.0833,100,110,210,1.1,95,45
730,200,490,180,420,600,2.3333,160,320,480,2.0,150,280,430,1.8667,130,200,330,1.5385,110,140,250,1.2727,90,120,210,1.3333,94,44
670,240,450,220,420,640,1.9091,190,320,510,1.6842,180,280,460,1.5556,160,200,360,1.25,140,130,270,0.92857,120,100,220,0.8333299999999999,94,44
700,220,480,190,420,610,2.2105,170,330,500,1.9412,160,290,450,1.8125,130,210,340,1.6154,110,150,260,1.3636,100,120,220,1.2,94,44
710,220,490,190,420,610,2.2105,170,320,490,1.8824,150,280,430,1.8667,140,200,340,1.4286,110,150,260,1.3636,100,110,210,1.1,94,44
720,220,500,200,420,620,2.1,180,320,500,1.7778,160,280,440,1.75,140,200,340,1.4286,120,150,270,1.25,110,120,230,1.0909,94,44
710,220,490,200,420,620,2.1,180,320,500,1.7778,160,280,440,1.75,140,200,340,1.4286,120,150,270,1.25,100,120,220,1.2,94,44
690,220,480,190,410,600,2.1579,170,320,490,1.8824,160,280,440,1.75,130,200,330,1.5385,120,140,260,1.1667,100,110,210,1.1,94,44
710,210,490,180,440,620,2.4444,170,330,500,1.9412,150,280,430,1.8667,140,200,340,1.4286,120,140,260,1.1667,100,120,220,1.2,93,44
700,220,480,200,440,640,2.2,170,340,510,2.0,160,290,450,1.8125,140,210,350,1.5,120,140,260,1.1667,100,120,220,1.2,93,44
700,220,490,190,430,620,2.2632,160,330,490,2.0625,150,280,430,1.8667,140,210,350,1.5,110,150,260,1.3636,100,120,220,1.2,93,44
720,210,490,190,440,630,2.3158,170,340,510,2.0,150,290,440,1.9333,130,210,340,1.6154,110,160,270,1.4545,90,130,220,1.4444,93,44
720,230,500,200,420,620,2.1,170,330,500,1.9412,170,290,460,1.7059,140,210,350,1.5,120,150,270,1.25,100,120,220,1.2,94,44
720,220,510,210,450,660,2.1429,170,360,530,2.1176,170,310,480,1.8235,140,230,370,1.6429,120,170,290,1.4167,100,130,230,1.3,93,44
690,210,480,190,410,600,2.1579,170,320,490,1.8824,160,270,430,1.6875,130,200,330,1.5385,120,130,250,1.0833,100,110,210,1.1,93,44
710,210,490,190,420,610,2.2105,170,320,490,1.8824,150,280,430,1.8667,140,200,340,1.4286,110,140,250,1.2727,100,120,220,1.2,93,44
710,220,490,190,450,640,2.3684,170,320,490,1.8824,160,280,440,1.75,130,190,320,1.4615,120,130,250,1.0833,100,110,210,1.1,92,44
700,220,480,200,420,620,2.1,170,330,500,1.9412,160,290,450,1.8125,140,210,350,1.5,120,140,260,1.1667,110,120,230,1.0909,92,44
710,220,480,190,420,610,2.2105,170,320,490,1.8824,160,280,440,1.75,140,200,340,1.4286,120,150,270,1.25,100,120,220,1.2,93,44
710,230,490,210,410,620,1.9524,170,310,480,1.8235,170,290,460,1.7059,140,210,350,1.5,130,150,280,1.1538,110,120,230,1.0909,93,44
700,220,500,200,430,630,2.15,160,340,500,2.125,160,290,450,1.8125,130,210,340,1.6154,120,150,270,1.25,100,130,230,1.3,92,44
700,200,490,180,430,610,2.3889,150,330,480,2.2,140,280,420,2.0,130,210,340,1.6154,100,160,260,1.6,90,120,210,1.3333,92,44
700,210,490,190,420,610,2.2105,160,320,480,2.0,160,270,430,1.6875,130,210,340,1.6154,120,140,260,1.1667,100,110,210,1.1,92,44
700,210,480,180,440,620,2.4444,170,340,510,2.0,150,280,430,1.8667,140,200,340,1.4286,110,150,260,1.3636,100,120,220,1.2,92,44
700,220,490,190,430,620,2.2632,160,340,500,2.125,160,290,450,1.8125,130,210,340,1.6154,110,150,260,1.3636,90,130,220,1.4444,92,44
700,210,480,180,440,620,2.4444,160,340,500,2.125,150,290,440,1.9333,140,220,360,1.5714,110,150,260,1.3636,100,120,220,1.2,93,44
720,220,500,190,430,620,2.2632,160,330,490,2.0625,160,290,450,1.8125,130,220,350,1.6923,110,150,260,1.3636,100,130,230,1.3,93,44
700,220,490,200,420,620,2.1,170,330,500,1.9412,160,280,440,1.75,140,210,350,1.5,120,150,270,1.25,100,120,220,1.2,93,44
680,210,480,190,410,600,2.1579,170,320,490,1.8824,150,270,420,1.8,130,200,330,1.5385,110,140,250,1.2727,100,120,220,1.2,92,44
700,200,490,180,430,610,2.3889,160,320,480,2.0,150,280,430,1.8667,130,200,330,1.5385,100,150,250,1.5,90,120,210,1.3333,92,44
720,220,490,190,430,620,2.2632,170,330,500,1.9412,160,290,450,1.8125,130,210,340,1.6154,120,150,270,1.25,100,120,220,1.2,92,44
700,230,480,210,410,620,1.9524,180,320,500,1.7778,170,270,440,1.5882,150,200,350,1.3333,130,130,260,1.0,110,100,210,0.90909,92,44
670,220,470,190,410,600,2.1579,170,320,490,1.8824,160,270,430,1.6875,140,200,340,1.4286,110,150,260,1.3636,100,110,210,1.1,92,44
710,200,490,180,430,610,2.3889,150,330,480,2.2,140,280,420,2.0,130,200,330,1.5385,100,150,250,1.5,90,120,210,1.3333,91,44
690,220,480,190,450,640,2.3684,170,350,520,2.0588,160,290,450,1.8125,130,210,340,1.6154,110,140,250,1.2727,90,120,210,1.3333,91,44
710,210,490,180,450,630,2.5,160,360,520,2.25,150,300,450,2.0,130,220,350,1.6923,100,160,260,1.6,100,120,220,1.2,91,44
690,220,480,190,410,600,2.1579,170,320,490,1.8824,160,270,430,1.6875,130,200,330,1.5385,110,140,250,1.2727,100,120,220,1.2,92,44
720,210,500,190,430,620,2.2632,170,330,500,1.9412,150,280,430,1.8667,140,210,350,1.5,110,160,270,1.4545,100,120,220,1.2,92,44
700,220,480,190,430,620,2.2632,170,330,500,1.9412,160,290,450,1.8125,140,210,350,1.5,110,160,270,1.4545,100,120,220,1.2,92,44
680,220,480,190,420,610,2.2105,170,320,490,1.8824,160,280,440,1.75,140,200,340,1.4286,120,140,260,1.1667,100,120,220,1.2,92,44
700,200,490,200,420,620,2.1,160,320,480,2.0,160,270,430,1.6875,140,190,330,1.3571,120,140,260,1.1667,100,110,210,1.1,92,44
700,210,490,180,440,620,2.4444,160,330,490,2.0625,150,280,430,1.8667,140,200,340,1.4286,110,140,250,1.2727,100,120,220,1.2,92,44
700,210,490,190,440,630,2.3158,160,340,500,2.125,150,290,440,1.9333,130,210,340,1.6154,110,150,260,1.3636,90,130,220,1.4444,92,44
700,210,480,180,460,640,2.5556,170,360,530,2.1176,150,310,460,2.0667,140,220,360,1.5714,110,160,270,1.4545,100,130,230,1.3,92,44
710,220,490,190,420,610,2.2105,160,330,490,2.0625,160,280,440,1.75,130,220,350,1.6923,110,150,260,1.3636,100,130,230,1.3,92,44
710,220,510,200,470,670,2.35,170,350,520,2.0588,160,310,470,1.9375,140,230,370,1.6429,110,160,270,1.4545,100,130,230,1.3,92,44
690,200,490,180,420,600,2.3333,160,330,490,2.0625,150,280,430,1.8667,130,210,340,1.6154,100,150,250,1.5,90,120,210,1.3333,92,44
690,200,480,180,420,600,2.3333,150,310,460,2.0667,150,270,420,1.8,120,190,310,1.5833,110,140,250,1.2727,90,110,200,1.2222,92,44
700,210,490,180,440,620,2.4444,160,320,480,2.0,150,270,420,1.8,120,190,310,1.5833,110,140,250,1.2727,90,110,200,1.2222,92,44
710,210,490,190,440,630,2.3158,170,340,510,2.0,150,290,440,1.9333,130,210,340,1.6154,110,150,260,1.3636,100,120,220,1.2,92,44
710,220,490,190,410,600,2.1579,170,320,490,1.8824,160,280,440,1.75,130,210,340,1.6154,120,150,270,1.25,100,120,220,1.2,92,44
710,220,490,200,430,630,2.15,170,330,500,1.9412,160,290,450,1.8125,140,210,350,1.5,120,150,270,1.25,110,120,230,1.0909,92,44
720,220,500,190,430,620,2.2632,170,330,500,1.9412,160,280,440,1.75,140,210,350,1.5,110,150,260,1.3636,110,120,230,1.0909,92,44
720,220,510,200,430,630,2.15,170,340,510,2.0,160,290,450,1.8125,140,210,350,1.5,110,150,260,1.3636,100,120,220,1.2,92,44
700,210,490,190,430,620,2.2632,170,330,500,1.9412,150,280,430,1.8667,130,200,330,1.5385,110,150,260,1.3636,100,110,210,1.1,92,44
710,210,490,190,430,620,2.2632,170,330,500,1.9412,160,280,440,1.75,130,210,340,1.6154,110,140,250,1.2727,100,120,220,1.2,91,44
720,220,500,190,440,630,2.3158,170,340,510,2.0,160,300,460,1.875,130,220,350,1.6923,120,150,270,1.25,100,120,220,1.2,91,44
710,220,490,200,440,640,2.2,170,340,510,2.0,160,300,460,1.875,140,220,360,1.5714,120,140,260,1.1667,110,120,230,1.0909,91,44
720,220,500,190,430,620,2.2632,170,330,500,1.9412,150,290,440,1.9333,140,210,350,1.5,110,150,260,1.3636,100,120,220,1.2,91,44
730,220,510,190,440,630,2.3158,160,330,490,2.0625,150,280,430,1.8667,130,210,340,1.6154,110,150,260,1.3636,100,130,230,1.3,92,44
730,220,510,200,420,620,2.1,170,320,490,1.8824,160,270,430,1.6875,140,200,340,1.4286,120,140,260,1.1667,110,110,220,1.0,91,44
690,220,490,210,420,630,2.0,170,320,490,1.8824,170,280,450,1.6471,140,200,340,1.4286,120,130,250,1.0833,110,110,220,1.0,91,44
720,210,500,190,490,680,2.5789,170,380,550,2.2353,150,320,470,2.1333,130,230,360,1.7692,100,160,260,1.6,90,130,220,1.4444,90,43
710,220,490,190,440,630,2.3158,170,330,500,1.9412,160,290,450,1.8125,140,210,350,1.5,110,150,260,1.3636,100,120,220,1.2,91,43
720,220,500,200,430,630,2.15,170,330,500,1.9412,160,290,450,1.8125,130,210,340,1.6154,120,150,270,1.25,100,130,230,1.3,91,43
730,220,510,210,440,650,2.0952,180,330,510,1.8333,170,290,460,1.7059,130,210,340,1.6154,110,160,270,1.4545,100,130,230,1.3,91,43
710,220,500,200,420,620,2.1,180,320,500,1.7778,160,280,440,1.75,140,200,340,1.4286,120,150,270,1.25,100,120,220,1.2,90,43
690,210,480,190,420,610,2.2105,170,320,490,1.8824,150,280,430,1.8667,130,200,330,1.5385,110,140,250,1.2727,100,120,220,1.2,90,43
720,210,500,180,420,600,2.3333,160,320,480,2.0,150,280,430,1.8667,130,200,330,1.5385,100,150,250,1.5,100,120,220,1.2,90,43
710,220,490,200,440,640,2.2,180,340,520,1.8889,160,290,450,1.8125,140,200,340,1.4286,120,150,270,1.25,100,120,220,1.2,90,43
700,220,490,200,430,630,2.15,170,330,500,1.9412,160,280,440,1.75,140,210,350,1.5,120,150,270,1.25,100,120,220,1.2,90,43
720,210,500,190,430,620,2.2632,160,330,490,2.0625,150,290,440,1.9333,130,210,340,1.6154,110,150,260,1.3636,100,130,230,1.3,90,43
730,220,510,190,430,620,2.2632,170,340,510,2.0,160,290,450,1.8125,140,220,360,1.5714,110,150,260,1.3636,100,120,220,1.2,91,43
700,220,490,210,420,630,2.0,180,320,500,1.7778,170,290,460,1.7059,150,210,360,1.4,120,150,270,1.25,110,120,230,1.0909,90,43
700,210,480,180,420,600,2.3333,160,320,480,2.0,150,280,430,1.8667,130,200,330,1.5385,110,150,260,1.3636,100,120,220,1.2,90,43
710,220,490,190,420,610,2.2105,170,320,490,1.8824,160,270,430,1.6875,130,200,330,1.5385,120,140,260,1.1667,100,110,210,1.1,90,43
710,220,490,190,470,660,2.4737,170,370,540,2.1765,160,310,470,1.9375,140,210,350,1.5,110,140,250,1.2727,110,120,230,1.0909,90,43
710,220,490,200,420,620,2.1,170,320,490,1.8824,160,280,440,1.75,140,200,340,1.4286,120,150,270,1.25,100,120,220,1.2,90,43
710,220,490,200,430,630,2.15,170,330,500,1.9412,160,290,450,1.8125,140,210,350,1.5,120,150,270,1.25,100,120,220,1.2,90,43
730,220,500,200,420,620,2.1,170,320,490,1.8824,160,270,430,1.6875,140,190,330,1.3571,120,140,260,1.1667,100,130,230,1.3,90,43
710,230,490,200,420,620,2.1,170,330,500,1.9412,170,290,460,1.7059,140,210,350,1.5,120,150,270,1.25,110,120,230,1.0909,90,43
700,220,490,200,420,620,2.1,170,320,490,1.8824,160,270,430,1.6875,140,200,340,1.4286,120,140,260,1.1667,100,110,210,1.1,90,43
710,210,490,190,440,630,2.3158,170,340,510,2.0,160,290,450,1.8125,140,210,350,1.5,110,150,260,1.3636,100,120,220,1.2,90,43
720,220,490,190,450,640,2.3684,170,340,510,2.0,160,290,450,1.8125,130,210,340,1.6154,120,150,270,1.25,100,120,220,1.2,90,43
750,220,530,190,450,640,2.3684,160,340,500,2.125,160,300,460,1.875,130,220,350,1.6923,110,160,270,1.4545,90,140,230,1.5556,90,43
710,220,500,200,430,630,2.15,180,330,510,1.8333,170,280,450,1.6471,150,200,350,1.3333,120,140,260,1.1667,110,120,230,1.0909,90,43
710,210,490,190,420,610,2.2105,160,320,480,2.0,150,280,430,1.8667,130,200,330,1.5385,110,150,260,1.3636,100,120,220,1.2,90,43
720,220,490,200,410,610,2.05,170,320,490,1.8824,160,270,430,1.6875,130,190,320,1.4615,120,130,250,1.0833,100,110,210,1.1,90,43
710,230,490,200,440,640,2.2,170,330,500,1.9412,170,290,460,1.7059,140,210,350,1.5,130,140,270,1.0769,110,120,230,1.0909,89,43
720,220,490,200,430,630,2.15,170,340,510,2.0,160,280,440,1.75,140,220,360,1.5714,120,150,270,1.25,100,130,230,1.3,90,43
720,230,490,200,420,620,2.1,170,320,490,1.8824,160,280,440,1.75,140,200,340,1.4286,120,140,260,1.1667,110,120,230,1.0909,90,43
730,230,500,200,420,620,2.1,180,340,520,1.8889,160,290,450,1.8125,140,210,350,1.5,120,150,270,1.25,110,120,230,1.0909,90,43
710,230,500,210,430,640,2.0476,170,330,500,1.9412,170,290,460,1.7059,140,210,350,1.5,130,150,280,1.1538,110,120,230,1.0909,90,43
700,210,490,190,420,610,2.2105,160,320,480,2.0,150,270,420,1.8,130,200,330,1.5385,110,140,250,1.2727,90,120,210,1.3333,90,43
720,210,500,180,460,640,2.5556,160,350,510,2.1875,150,290,440,1.9333,130,200,330,1.5385,110,150,260,1.3636,100,120,220,1.2,90,43
720,220,490,190,440,630,2.3158,170,340,510,2.0,160,290,450,1.8125,140,210,350,1.5,110,160,270,1.4545,100,120,220,1.2,90,43
720,230,490,200,420,620,2.1,180,320,500,1.7778,170,280,450,1.6471,140,200,340,1.4286,120,150,270,1.25,100,120,220,1.2,90,43
720,230,500,200,420,620,2.1,180,320,500,1.7778,170,280,450,1.6471,140,210,350,1.5,120,150,270,1.25,100,120,220,1.2,90,43
730,220,510,200,440,640,2.2,180,320,500,1.7778,160,280,440,1.75,140,200,340,1.4286,120,150,270,1.25,100,120,220,1.2,90,43
730,220,510,190,430,620,2.2632,170,340,510,2.0,150,290,440,1.9333,140,210,350,1.5,110,150,260,1.3636,100,130,230,1.3,90,43
710,220,490,200,420,620,2.1,170,310,480,1.8235,160,260,420,1.625,130,190,320,1.4615,120,140,260,1.1667,100,100,200,1.0,90,43
720,220,500,190,420,610,2.2105,170,320,490,1.8824,160,270,430,1.6875,140,190,330,1.3571,110,140,250,1.2727,110,110,220,1.0,90,43
720,220,500,190,450,640,2.3684,170,340,510,2.0,150,290,440,1.9333,140,200,340,1.4286,110,150,260,1.3636,100,120,220,1.2,89,43
730,220,500,190,460,650,2.4211,160,350,510,2.1875,150,310,460,2.0667,130,230,360,1.7692,110,160,270,1.4545,90,130,220,1.4444,89,43
730,230,500,200,430,630,2.15,170,330,500,1.9412,160,280,440,1.75,140,210,350,1.5,120,150,270,1.25,110,120,230,1.0909,89,43
720,230,510,210,450,660,2.1429,170,340,510,2.0,170,290,460,1.7059,140,210,350,1.5,120,160,280,1.3333,110,130,240,1.1818,89,43
720,210,500,210,430,640,2.0476,170,330,500,1.9412,170,290,460,1.7059,140,210,350,1.5,120,150,270,1.25,100,120,220,1.2,89,43
720,220,500,200,430,630,2.15,170,330,500,1.9412,170,270,440,1.5882,140,200,340,1.4286,120,140,260,1.1667,100,110,210,1.1,88,42
720,220,490,200,470,670,2.35,170,330,500,1.9412,160,280,440,1.75,140,200,340,1.4286,120,140,260,1.1667,100,120,220,1.2,88,42
720,230,490,200,450,650,2.25,170,340,510,2.0,170,290,460,1.7059,140,210,350,1.5,120,150,270,1.25,100,120,220,1.2,88,42
720,230,490,200,420,620,2.1,170,320,490,1.8824,170,270,440,1.5882,140,200,340,1.4286,120,140,260,1.1667,110,120,230,1.0909,88,42
720,230,500,200,420,620,2.1,170,320,490,1.8824,170,280,450,1.6471,140,210,350,1.5,120,150,270,1.25,110,120,230,1.0909,88,42
730,220,510,190,460,650,2.4211,170,360,530,2.1176,160,310,470,1.9375,130,230,360,1.7692,110,170,280,1.5455,90,130,220,1.4444,88,42
710,220,500,200,430,630,2.15,180,320,500,1.7778,160,280,440,1.75,140,200,340,1.4286,110,150,260,1.3636,100,120,220,1.2,88,42
720,210,510,230,420,650,1.8261,170,320,490,1.8824,170,270,440,1.5882,130,190,320,1.4615,110,160,270,1.4545,100,130,230,1.3,87,42
720,210,500,190,420,610,2.2105,170,310,480,1.8235,160,270,430,1.6875,130,190,320,1.4615,110,140,250,1.2727,100,110,210,1.1,87,42
710,220,490,190,450,640,2.3684,170,340,510,2.0,160,290,450,1.8125,130,210,340,1.6154,120,150,270,1.25,100,120,220,1.2,87,42
730,220,500,190,450,640,2.3684,160,350,510,2.1875,160,300,460,1.875,130,220,350,1.6923,110,170,280,1.5455,90,140,230,1.5556,88,42
730,230,500,200,430,630,2.15,170,320,490,1.8824,170,280,450,1.6471,140,210,350,1.5,120,140,260,1.1667,100,120,220,1.2,88,42
720,230,500,200,430,630,2.15,180,320,500,1.7778,170,280,450,1.6471,140,200,340,1.4286,120,150,270,1.25,100,110,210,1.1,88,42
720,220,500,210,430,640,2.0476,180,320,500,1.7778,170,280,450,1.6471,140,200,340,1.4286,130,150,280,1.1538,110,120,230,1.0909,88,42
720,220,500,190,420,610,2.2105,170,320,490,1.8824,160,270,430,1.6875,140,200,340,1.4286,110,140,250,1.2727,100,120,220,1.2,87,42
720,220,500,200,420,620,2.1,180,320,500,1.7778,160,270,430,1.6875,140,200,340,1.4286,120,140,260,1.1667,100,110,210,1.1,87,42
730,220,510,200,480,680,2.4,180,360,540,2.0,160,300,460,1.875,140,210,350,1.5,110,160,270,1.4545,100,120,220,1.2,87,42
730,220,500,190,450,640,2.3684,170,340,510,2.0,160,290,450,1.8125,140,210,350,1.5,110,150,260,1.3636,100,120,220,1.2,88,42
740,230,510,200,430,630,2.15,170,340,510,2.0,160,290,450,1.8125,140,210,350,1.5,120,150,270,1.25,100,120,220,1.2,88,42
720,230,510,200,430,630,2.15,180,330,510,1.8333,160,280,440,1.75,140,200,340,1.4286,120,150,270,1.25,100,120,220,1.2,88,42
730,210,510,200,440,640,2.2,170,330,500,1.9412,160,280,440,1.75,140,210,350,1.5,110,160,270,1.4545,100,120,220,1.2,87,42
730,220,510,190,430,620,2.2632,170,310,480,1.8235,150,270,420,1.8,140,190,330,1.3571,110,140,250,1.2727,100,110,210,1.1,86,42
730,220,510,200,440,640,2.2,170,330,500,1.9412,160,290,450,1.8125,140,210,350,1.5,120,140,260,1.1667,100,120,220,1.2,86,42
740,220,510,200,450,650,2.25,170,350,520,2.0588,160,290,450,1.8125,130,210,340,1.6154,120,160,280,1.3333,100,120,220,1.2,86,42
740,230,510,200,470,670,2.35,180,360,540,2.0,160,320,480,2.0,150,230,380,1.5333,110,170,280,1.5455,110,140,250,1.2727,86,42
740,230,520,210,440,650,2.0952,180,330,510,1.8333,170,290,460,1.7059,140,210,350,1.5,130,160,290,1.2308,110,130,240,1.1818,87,42
740,220,520,190,440,630,2.3158,170,350,520,2.0588,150,300,450,2.0,130,230,360,1.7692,110,160,270,1.4545,100,140,240,1.4,87,42
730,220,520,220,440,660,2.0,180,330,510,1.8333,170,290,460,1.7059,140,210,350,1.5,120,160,280,1.3333,110,130,240,1.1818,86,42
740,210,520,190,440,630,2.3158,170,330,500,1.9412,150,280,430,1.8667,140,200,340,1.4286,110,150,260,1.3636,100,120,220,1.2,85,41
740,220,510,200,460,660,2.3,170,350,520,2.0588,160,300,460,1.875,140,220,360,1.5714,120,150,270,1.25,100,130,230,1.3,85,41
740,230,510,210,500,710,2.381,190,380,570,2.0,170,320,490,1.8824,140,230,370,1.6429,120,160,280,1.3333,100,130,230,1.3,85,41
740,230,510,200,440,640,2.2,170,340,510,2.0,160,260,420,1.625,140,210,350,1.5,120,150,270,1.25,100,130,230,1.3,86,41
750,230,520,210,430,640,2.0476,190,350,540,1.8421,170,300,470,1.7647,140,210,350,1.5,120,160,280,1.3333,100,120,220,1.2,86,41
730,230,510,210,440,650,2.0952,180,330,510,1.8333,170,290,460,1.7059,150,210,360,1.4,130,150,280,1.1538,110,120,230,1.0909,86,41
720,220,510,200,440,640,2.2,180,330,510,1.8333,160,280,440,1.75,140,210,350,1.5,110,150,260,1.3636,100,120,220,1.2,86,41
750,210,520,180,460,640,2.5556,160,350,510,2.1875,150,300,450,2.0,130,210,340,1.6154,100,150,250,1.5,100,120,220,1.2,85,41
730,230,500,210,460,670,2.1905,170,350,520,2.0588,170,290,460,1.7059,140,210,350,1.5,130,150,280,1.1538,110,120,230,1.0909,85,41
750,230,520,200,450,650,2.25,180,350,530,1.9444,160,300,460,1.875,140,220,360,1.5714,110,160,270,1.4545,100,130,230,1.3,85,41
730,230,510,210,440,650,2.0952,180,330,510,1.8333,170,290,460,1.7059,150,210,360,1.4,130,150,280,1.1538,120,130,250,1.0833,85,41
750,220,530,190,480,670,2.5263,170,370,540,2.1765,160,320,480,2.0,140,230,370,1.6429,110,160,270,1.4545,100,140,240,1.4,86,41
720,220,510,210,410,620,1.9524,180,310,490,1.7222,170,260,430,1.5294,140,190,330,1.3571,130,130,260,1.0,110,110,220,1.0,86,41
740,210,520,230,450,680,1.9565,190,310,500,1.6316,170,270,440,1.5882,140,190,330,1.3571,110,140,250,1.2727,90,120,210,1.3333,86,41
730,220,510,190,470,660,2.4737,170,360,530,2.1176,160,310,470,1.9375,140,210,350,1.5,110,150,260,1.3636,110,120,230,1.0909,85,41
740,220,430,200,410,610,2.05,170,310,480,1.8235,160,270,430,1.6875,140,200,340,1.4286,120,140,260,1.1667,100,120,220,1.2,85,41
730,310,500,210,490,700,2.3333,180,380,560,2.1111,170,320,490,1.8824,140,240,380,1.7143,120,160,280,1.3333,100,130,230,1.3,85,41
740,230,510,200,450,650,2.25,180,340,520,1.8889,160,300,460,1.875,140,220,360,1.5714,110,150,260,1.3636,110,130,240,1.1818,85,41
730,230,510,210,420,630,2.0,180,310,490,1.7222,170,290,460,1.7059,150,210,360,1.4,130,160,290,1.2308,110,130,240,1.1818,86,41
730,220,520,200,440,640,2.2,170,340,510,2.0,160,290,450,1.8125,140,210,350,1.5,110,160,270,1.4545,100,130,230,1.3,86,41
720,210,510,190,430,620,2.2632,170,320,490,1.8824,160,280,440,1.75,130,200,330,1.5385,110,150,260,1.3636,100,120,220,1.2,85,41
740,210,510,190,440,630,2.3158,170,340,510,2.0,150,300,450,2.0,130,220,350,1.6923,110,150,260,1.3636,100,130,230,1.3,85,41
720,230,490,200,450,650,2.25,170,340,510,2.0,170,290,460,1.7059,140,210,350,1.5,120,150,270,1.25,110,120,230,1.0909,85,41
720,230,490,200,440,640,2.2,170,330,500,1.9412,160,290,450,1.8125,140,210,350,1.5,120,160,280,1.3333,100,130,230,1.3,85,41
750,230,520,200,430,630,2.15,170,330,500,1.9412,170,290,460,1.7059,130,210,340,1.6154,120,150,270,1.25,100,130,230,1.3,86,42
720,230,500,210,430,640,2.0476,180,340,520,1.8889,170,290,460,1.7059,150,210,360,1.4,120,150,270,1.25,110,120,230,1.0909,86,42
730,220,510,200,430,630,2.15,170,340,510,2.0,160,290,450,1.8125,140,220,360,1.5714,120,150,270,1.25,100,130,230,1.3,86,42
710,220,490,190,430,620,2.2632,170,330,500,1.9412,160,280,440,1.75,130,200,330,1.5385,110,140,250,1.2727,100,120,220,1.2,86,42
730,220,500,200,430,630,2.15,170,320,490,1.8824,160,280,440,1.75,130,200,330,1.5385,120,140,260,1.1667,100,120,220,1.2,86,42
730,230,500,200,450,650,2.25,170,350,520,2.0588,160,300,460,1.875,140,210,350,1.5,120,160,280,1.3333,100,130,230,1.3,86,42
730,230,500,200,440,640,2.2,180,330,510,1.8333,160,280,440,1.75,140,210,350,1.5,120,160,280,1.3333,100,120,220,1.2,86,42
740,230,510,200,430,630,2.15,180,320,500,1.7778,170,280,450,1.6471,150,200,350,1.3333,120,150,270,1.25,110,120,230,1.0909,87,42
730,230,510,200,440,640,2.2,170,330,500,1.9412,160,300,460,1.875,140,220,360,1.5714,120,160,280,1.3333,100,130,230,1.3,87,42
720,220,510,190,440,630,2.3158,170,330,500,1.9412,160,280,440,1.75,140,210,350,1.5,110,160,270,1.4545,100,120,220,1.2,86,42
730,210,510,200,440,640,2.2,170,330,500,1.9412,160,280,440,1.75,140,200,340,1.4286,110,150,260,1.3636,100,120,220,1.2,86,42
720,220,500,190,470,660,2.4737,170,360,530,2.1176,150,310,460,2.0667,140,220,360,1.5714,110,150,260,1.3636,110,110,220,1.0,86,42
750,220,510,190,450,640,2.3684,170,350,520,2.0588,160,300,460,1.875,140,230,370,1.6429,110,160,270,1.4545,100,130,230,1.3,86,42
720,240,490,210,460,670,2.1905,180,350,530,1.9444,180,300,480,1.6667,150,210,360,1.4,130,150,280,1.1538,110,120,230,1.0909,86,42
740,230,520,200,490,690,2.45,180,370,550,2.0556,170,320,490,1.8824,140,220,360,1.5714,120,160,280,1.3333,110,120,230,1.0909,86,42
730,220,520,200,450,650,2.25,170,340,510,2.0,160,290,450,1.8125,140,220,360,1.5714,120,160,280,1.3333,100,130,230,1.3,86,42
710,210,510,230,450,680,1.9565,190,360,550,1.8947,170,310,480,1.8235,140,230,370,1.6429,120,170,290,1.4167,110,130,240,1.1818,86,42
730,200,510,190,480,670,2.5263,160,350,510,2.1875,150,310,460,2.0667,130,220,350,1.6923,120,150,270,1.25,100,120,220,1.2,86,42
730,220,510,190,460,650,2.4211,170,350,520,2.0588,160,300,460,1.875,130,220,350,1.6923,120,160,280,1.3333,100,130,230,1.3,85,41
740,220,490,190,500,690,2.6316,170,300,470,1.7647,160,250,410,1.5625,140,200,340,1.4286,110,140,250,1.2727,100,120,220,1.2,85,41
720,250,500,210,480,690,2.2857,190,370,560,1.9474,170,300,470,1.7647,150,220,370,1.4667,120,150,270,1.25,110,120,230,1.0909,85,41
750,220,520,200,420,620,2.1,170,330,500,1.9412,160,300,460,1.875,140,220,360,1.5714,120,150,270,1.25,110,120,230,1.0909,86,41
730,230,510,250,430,680,1.72,190,350,540,1.8421,170,350,520,2.0588,150,240,390,1.6,120,170,290,1.4167,110,140,250,1.2727,85,41
720,220,510,200,430,630,2.15,160,330,490,2.0625,160,290,450,1.8125,130,210,340,1.6154,120,140,260,1.1667,100,120,220,1.2,85,41
730,210,510,200,430,630,2.15,170,320,490,1.8824,160,280,440,1.75,130,200,330,1.5385,120,140,260,1.1667,100,110,210,1.1,85,41
730,220,510,200,490,690,2.45,170,400,570,2.3529,160,340,500,2.125,140,250,390,1.7857,120,150,270,1.25,100,120,220,1.2,85,41
720,220,500,200,430,630,2.15,180,320,500,1.7778,160,280,440,1.75,140,210,350,1.5,110,160,270,1.4545,100,120,220,1.2,85,41
730,220,510,190,440,630,2.3158,170,330,500,1.9412,160,290,450,1.8125,140,210,350,1.5,110,160,270,1.4545,100,130,230,1.3,85,41
730,220,520,200,440,640,2.2,170,330,500,1.9412,160,280,440,1.75,140,200,340,1.4286,110,150,260,1.3636,100,110,210,1.1,86,42
720,210,510,200,430,630,2.15,160,340,500,2.125,160,290,450,1.8125,130,210,340,1.6154,110,150,260,1.3636,100,120,220,1.2,86,42
700,210,490,190,420,610,2.2105,160,310,470,1.9375,160,270,430,1.6875,140,200,340,1.4286,120,140,260,1.1667,110,110,220,1.0,86,42
720,230,510,220,430,650,1.9545,180,360,540,2.0,180,310,490,1.7222,150,220,370,1.4667,130,160,290,1.2308,110,120,230,1.0909,87,42
710,210,490,190,420,610,2.2105,170,320,490,1.8824,160,280,440,1.75,140,200,340,1.4286,110,150,260,1.3636,100,120,220,1.2,86,42
720,220,500,200,420,620,2.1,170,320,490,1.8824,160,280,440,1.75,130,200,330,1.5385,120,140,260,1.1667,100,110,210,1.1,86,42
730,220,500,190,490,680,2.5789,170,390,560,2.2941,160,310,470,1.9375,130,210,340,1.6154,120,160,280,1.3333,100,130,230,1.3,86,42
720,230,490,200,440,640,2.2,180,330,510,1.8333,170,280,450,1.6471,140,210,350,1.5,120,150,270,1.25,100,120,220,1.2,86,42
720,230,500,200,430,630,2.15,180,320,500,1.7778,170,280,450,1.6471,140,200,340,1.4286,120,150,270,1.25,100,120,220,1.2,86,42
730,220,510,200,430,630,2.15,180,320,500,1.7778,160,280,440,1.75,140,200,340,1.4286,120,160,280,1.3333,100,120,220,1.2,87,42
730,220,510,190,440,630,2.3158,170,340,510,2.0,150,300,450,2.0,140,220,360,1.5714,110,160,270,1.4545,100,130,230,1.3,87,42
700,220,490,190,420,610,2.2105,160,320,480,2.0,160,270,430,1.6875,130,200,330,1.5385,120,140,260,1.1667,100,120,220,1.2,86,42
730,210,510,180,440,620,2.4444,160,330,490,2.0625,150,280,430,1.8667,130,210,340,1.6154,100,160,260,1.6,100,120,220,1.2,86,42
740,220,510,190,440,630,2.3158,170,340,510,2.0,160,290,450,1.8125,140,210,350,1.5,110,150,260,1.3636,110,120,230,1.0909,86,42
720,230,490,210,430,640,2.0476,170,330,500,1.9412,170,280,450,1.6471,140,210,350,1.5,130,150,280,1.1538,110,120,230,1.0909,86,42
730,230,510,200,450,650,2.25,170,340,510,2.0,160,300,460,1.875,130,210,340,1.6154,110,160,270,1.4545,90,130,220,1.4444,87,42
750,220,520,200,440,640,2.2,180,340,520,1.8889,160,300,460,1.875,140,220,360,1.5714,110,160,270,1.4545,100,130,230,1.3,87,42
730,230,500,210,440,650,2.0952,180,330,510,1.8333,170,290,460,1.7059,150,210,360,1.4,130,150,280,1.1538,110,120,230,1.0909,86,42
710,230,490,200,420,620,2.1,180,320,500,1.7778,160,270,430,1.6875,140,200,340,1.4286,120,140,260,1.1667,100,120,220,1.2,86,42
730,220,510,190,430,620,2.2632,170,330,500,1.9412,160,280,440,1.75,130,210,340,1.6154,110,140,250,1.2727,100,120,220,1.2,86,42
730,220,510,200,470,670,2.35,170,350,520,2.0588,160,300,460,1.875,140,220,360,1.5714,120,160,280,1.3333,100,120,220,1.2,86,42
730,220,500,190,430,620,2.2632,170,330,500,1.9412,160,280,440,1.75,140,210,350,1.5,110,150,260,1.3636,100,120,220,1.2,86,42
730,230,510,200,440,640,2.2,180,330,510,1.8333,160,290,450,1.8125,140,210,350,1.5,120,150,270,1.25,110,120,230,1.0909,87,42
760,220,530,200,430,630,2.15,170,320,490,1.8824,160,270,430,1.6875,130,220,350,1.6923,120,160,280,1.3333,100,130,230,1.3,87,42
730,230,520,210,430,640,2.0476,180,330,510,1.8333,170,290,460,1.7059,150,210,360,1.4,130,150,280,1.1538,110,130,240,1.1818,86,42
720,210,500,190,420,610,2.2105,170,320,490,1.8824,160,280,440,1.75,140,200,340,1.4286,110,140,250,1.2727,100,120,220,1.2,86,42
740,220,510,200,450,650,2.25,170,360,530,2.1176,160,290,450,1.8125,140,200,340,1.4286,110,150,260,1.3636,100,120,220,1.2,86,42
730,230,500,200,450,650,2.25,170,340,510,2.0,160,300,460,1.875,140,220,360,1.5714,120,150,270,1.25,100,120,220,1.2,86,42
730,230,510,200,450,650,2.25,170,360,530,2.1176,170,310,480,1.8235,140,220,360,1.5714,130,160,290,1.2308,110,130,240,1.1818,86,42
730,220,510,200,470,670,2.35,180,360,540,2.0,160,310,470,1.9375,140,230,370,1.6429,120,160,280,1.3333,100,130,230,1.3,86,42
730,220,510,190,450,640,2.3684,170,350,520,2.0588,160,310,470,1.9375,140,230,370,1.6429,110,160,270,1.4545,100,130,230,1.3,86,42
720,220,520,210,440,650,2.0952,180,340,520,1.8889,170,290,460,1.7059,140,210,350,1.5,120,150,270,1.25,110,120,230,1.0909,86,42
720,200,500,200,430,630,2.15,160,340,500,2.125,160,290,450,1.8125,130,210,340,1.6154,120,150,270,1.25,100,120,220,1.2,85,41
740,220,510,190,460,650,2.4211,160,350,510,2.1875,160,300,460,1.875,130,220,350,1.6923,110,150,260,1.3636,90,130,220,1.4444,85,41
730,230,510,200,460,660,2.3,180,340,520,1.8889,170,300,470,1.7647,140,210,350,1.5,120,160,280,1.3333,100,120,220,1.2,86,41
730,220,500,200,430,630,2.15,180,330,510,1.8333,160,290,450,1.8125,140,210,350,1.5,120,150,270,1.25,110,120,230,1.0909,86,42
740,230,500,200,450,650,2.25,170,340,510,2.0,160,300,460,1.875,140,220,360,1.5714,120,150,270,1.25,100,130,230,1.3,86,42
730,240,510,220,420,640,1.9091,190,320,510,1.6842,180,280,460,1.5556,150,230,380,1.5333,130,160,290,1.2308,110,120,230,1.0909,86,42
720,220,510,190,430,620,2.2632,170,330,500,1.9412,160,290,450,1.8125,140,210,350,1.5,110,150,260,1.3636,110,120,230,1.0909,85,42
730,210,510,190,430,620,2.2632,160,330,490,2.0625,150,280,430,1.8667,130,200,330,1.5385,110,150,260,1.3636,100,120,220,1.2,85,41
730,220,500,200,470,670,2.35,170,380,550,2.2353,160,320,480,2.0,140,230,370,1.6429,120,170,290,1.4167,100,130,230,1.3,85,41
730,230,500,200,440,640,2.2,170,340,510,2.0,170,290,460,1.7059,140,210,350,1.5,120,150,270,1.25,110,120,230,1.0909,85,41
720,230,500,210,430,640,2.0476,180,320,500,1.7778,170,280,450,1.6471,140,200,340,1.4286,120,140,260,1.1667,110,120,230,1.0909,85,42
750,220,520,210,440,650,2.0952,180,340,520,1.8889,170,290,460,1.7059,140,220,360,1.5714,120,160,280,1.3333,100,120,220,1.2,85,42
730,230,510,210,430,640,2.0476,180,330,510,1.8333,170,290,460,1.7059,150,210,360,1.4,130,150,280,1.1538,110,120,230,1.0909,85,42
730,220,510,190,440,630,2.3158,170,340,510,2.0,160,290,450,1.8125,140,200,340,1.4286,120,150,270,1.25,100,120,220,1.2,85,42
730,220,510,190,440,630,2.3158,170,340,510,2.0,160,290,450,1.8125,140,200,340,1.4286,110,150,260,1.3636,110,110,220,1.0,85,42
740,220,520,200,470,670,2.35,170,350,520,2.0588,160,300,460,1.875,130,220,350,1.6923,120,160,280,1.3333,100,130,230,1.3,85,42
740,220,510,190,470,660,2.4737,170,350,520,2.0588,160,300,460,1.875,140,220,360,1.5714,120,160,280,1.3333,100,130,230,1.3,85,42
750,230,520,200,440,640,2.2,170,330,500,1.9412,160,290,450,1.8125,140,210,350,1.5,120,150,270,1.25,100,120,220,1.2,86,42
730,230,510,210,450,660,2.1429,180,350,530,1.9444,170,290,460,1.7059,150,210,360,1.4,130,150,280,1.1538,110,120,230,1.0909,85,42
740,220,520,220,440,660,2.0,180,340,520,1.8889,160,290,450,1.8125,140,220,360,1.5714,120,160,280,1.3333,100,130,230,1.3,85,42
720,220,510,190,430,620,2.2632,170,320,490,1.8824,160,280,440,1.75,140,200,340,1.4286,120,140,260,1.1667,100,120,220,1.2,85,42
730,210,510,190,440,630,2.3158,170,330,500,1.9412,150,280,430,1.8667,140,200,340,1.4286,110,150,260,1.3636,100,120,220,1.2,85,42
730,220,510,190,470,660,2.4737,170,380,550,2.2353,160,330,490,2.0625,140,240,380,1.7143,110,180,290,1.6364,110,150,260,1.3636,85,42
730,220,500,200,440,640,2.2,170,340,510,2.0,160,290,450,1.8125,140,220,360,1.5714,120,150,270,1.25,110,120,230,1.0909,85,42
730,220,510,200,440,640,2.2,180,340,520,1.8889,160,300,460,1.875,140,220,360,1.5714,110,150,260,1.3636,110,120,230,1.0909,84,42
720,220,500,200,440,640,2.2,170,330,500,1.9412,160,280,440,1.75,140,200,340,1.4286,120,140,260,1.1667,100,110,210,1.1,84,42
730,220,500,200,470,670,2.35,170,370,540,2.1765,160,310,470,1.9375,130,220,350,1.6923,120,150,270,1.25,100,130,230,1.3,84,42
730,230,500,200,440,640,2.2,170,330,500,1.9412,170,290,460,1.7059,140,210,350,1.5,120,150,270,1.25,100,120,220,1.2,84,42
740,230,510,200,440,640,2.2,180,340,520,1.8889,170,290,460,1.7059,140,220,360,1.5714,120,160,280,1.3333,100,120,220,1.2,84,42
740,230,510,200,440,640,2.2,170,340,510,2.0,160,290,450,1.8125,140,210,350,1.5,120,150,270,1.25,110,120,230,1.0909,84,42
720,230,510,200,450,650,2.25,180,340,520,1.8889,170,300,470,1.7647,140,210,350,1.5,120,160,280,1.3333,100,120,220,1.2,83,42
730,210,520,210,440,650,2.0952,180,320,500,1.7778,160,280,440,1.75,140,220,360,1.5714,110,160,270,1.4545,100,130,230,1.3,83,42
730,210,510,190,440,630,2.3158,160,340,500,2.125,150,290,440,1.9333,140,210,350,1.5,110,150,260,1.3636,100,120,220,1.2,83,42
730,220,510,190,440,630,2.3158,160,340,500,2.125,160,280,440,1.75,130,200,330,1.5385,120,140,260,1.1667,100,110,210,1.1,83,42
730,220,510,200,490,690,2.45,170,390,560,2.2941,160,330,490,2.0625,140,250,390,1.7857,120,180,300,1.5,100,150,250,1.5,83,41
730,220,510,200,440,640,2.2,170,330,500,1.9412,160,280,440,1.75,140,200,340,1.4286,120,150,270,1.25,100,120,220,1.2,83,41
740,220,510,190,450,640,2.3684,170,350,520,2.0588,160,300,460,1.875,140,220,360,1.5714,110,150,260,1.3636,110,120,230,1.0909,83,41
720,230,500,210,430,640,2.0476,180,330,510,1.8333,170,290,460,1.7059,150,210,360,1.4,130,150,280,1.1538,120,120,240,1.0,83,41
720,220,510,200,450,650,2.25,170,330,500,1.9412,160,290,450,1.8125,130,210,340,1.6154,120,160,280,1.3333,100,130,230,1.3,82,41
730,210,500,190,440,630,2.3158,170,330,500,1.9412,150,280,430,1.8667,130,200,330,1.5385,110,150,260,1.3636,90,120,210,1.3333,82,41
730,230,510,200,520,720,2.6,180,390,570,2.1667,170,320,490,1.8824,140,220,360,1.5714,120,160,280,1.3333,100,120,220,1.2,82,41
730,220,500,200,440,640,2.2,180,330,510,1.8333,160,290,450,1.8125,140,210,350,1.5,120,150,270,1.25,110,110,220,1.0,82,41
730,230,500,210,440,650,2.0952,180,350,530,1.9444,170,300,470,1.7647,150,220,370,1.4667,120,150,270,1.25,110,120,230,1.0909,82,41
730,230,500,200,450,650,2.25,170,340,510,2.0,170,300,470,1.7647,140,210,350,1.5,120,150,270,1.25,100,130,230,1.3,82,41
720,230,500,200,430,630,2.15,180,330,510,1.8333,170,290,460,1.7059,140,210,350,1.5,120,160,280,1.3333,110,120,230,1.0909,82,41
720,220,510,210,440,650,2.0952,180,320,500,1.7778,160,280,440,1.75,140,210,350,1.5,120,160,280,1.3333,100,120,220,1.2,81,41
720,210,500,190,440,630,2.3158,170,320,490,1.8824,160,280,440,1.75,140,200,340,1.4286,110,140,250,1.2727,100,120,220,1.2,81,41
730,220,510,190,460,650,2.4211,170,360,530,2.1176,150,310,460,2.0667,140,220,360,1.5714,110,160,270,1.4545,100,120,220,1.2,81,41
730,220,500,190,490,680,2.5789,170,390,560,2.2941,160,340,500,2.125,140,240,380,1.7143,110,180,290,1.6364,100,120,220,1.2,82,41
720,230,500,200,430,630,2.15,170,330,500,1.9412,160,280,440,1.75,140,210,350,1.5,120,150,270,1.25,110,120,230,1.0909,82,41
740,220,520,200,440,640,2.2,170,340,510,2.0,160,290,450,1.8125,140,220,360,1.5714,120,150,270,1.25,100,130,230,1.3,82,41
740,220,520,220,440,660,2.0,180,330,510,1.8333,170,280,450,1.6471,140,200,340,1.4286,120,140,260,1.1667,100,120,220,1.2,82,41
710,220,500,200,430,630,2.15,170,340,510,2.0,160,280,440,1.75,140,200,340,1.4286,120,140,260,1.1667,110,120,230,1.0909,81,41
740,210,510,200,440,640,2.2,160,330,490,2.0625,150,270,420,1.8,130,190,320,1.4615,110,150,260,1.3636,100,110,210,1.1,81,41
730,230,500,200,510,710,2.55,170,400,570,2.3529,170,330,500,1.9412,140,220,360,1.5714,130,150,280,1.1538,110,120,230,1.0909,81,41
720,230,500,210,440,650,2.0952,180,330,510,1.8333,170,280,450,1.6471,140,200,340,1.4286,130,150,280,1.1538,110,120,230,1.0909,82,41
740,220,510,210,470,680,2.2381,180,360,540,2.0,160,300,460,1.875,140,220,360,1.5714,120,160,280,1.3333,100,130,230,1.3,82,41
740,230,510,200,430,630,2.15,180,340,520,1.8889,170,300,470,1.7647,150,220,370,1.4667,120,150,270,1.25,110,120,230,1.0909,82,41
720,230,510,210,440,650,2.0952,180,330,510,1.8333,170,290,460,1.7059,140,210,350,1.5,120,160,280,1.3333,110,120,230,1.0909,82,41
730,210,510,190,440,630,2.3158,170,340,510,2.0,150,290,440,1.9333,140,210,350,1.5,110,160,270,1.4545,100,120,220,1.2,82,41
730,220,510,190,430,620,2.2632,170,320,490,1.8824,160,280,440,1.75,140,190,330,1.3571,110,140,250,1.2727,100,110,210,1.1,82,41
730,220,500,200,460,660,2.3,180,340,520,1.8889,160,290,450,1.8125,140,210,350,1.5,120,140,260,1.1667,110,110,220,1.0,82,41
730,230,510,200,480,680,2.4,170,370,540,2.1765,160,320,480,2.0,140,230,370,1.6429,120,160,280,1.3333,100,130,230,1.3,82,41
750,220,520,190,450,640,2.3684,170,350,520,2.0588,160,300,460,1.875,140,220,360,1.5714,110,160,270,1.4545,100,130,230,1.3,82,41
730,230,510,210,440,650,2.0952,180,330,510,1.8333,170,290,460,1.7059,140,210,350,1.5,130,150,280,1.1538,110,120,230,1.0909,82,41
740,220,520,220,440,660,2.0,180,330,510,1.8333,170,280,450,1.6471,140,200,340,1.4286,120,150,270,1.25,100,120,220,1.2,82,41
720,220,500,200,430,630,2.15,180,330,510,1.8333,160,290,450,1.8125,140,210,350,1.5,120,140,260,1.1667,110,120,230,1.0909,82,41
720,220,500,190,430,620,2.2632,160,320,480,2.0,160,280,440,1.75,130,200,330,1.5385,120,140,260,1.1667,100,110,210,1.1,82,41
740,220,500,200,480,680,2.4,170,380,550,2.2353,160,320,480,2.0,140,220,360,1.5714,120,160,280,1.3333,100,130,230,1.3,82,41
720,240,500,210,440,650,2.0952,180,330,510,1.8333,170,280,450,1.6471,140,200,340,1.4286,120,150,270,1.25,110,120,230,1.0909,82,41
740,220,510,200,470,670,2.35,170,360,530,2.1176,160,310,470,1.9375,140,220,360,1.5714,110,160,270,1.4545,100,130,230,1.3,82,41
730,230,500,200,440,640,2.2,170,330,500,1.9412,160,290,450,1.8125,140,210,350,1.5,120,150,270,1.25,110,120,230,1.0909,82,41
720,230,500,210,430,640,2.0476,180,330,510,1.8333,170,290,460,1.7059,140,210,350,1.5,120,150,270,1.25,110,120,230,1.0909,82,41
710,220,500,200,420,620,2.1,170,330,500,1.9412,160,290,450,1.8125,130,210,340,1.6154,120,140,260,1.1667,100,120,220,1.2,82,41
700,210,490,180,470,650,2.6111,160,380,540,2.375,140,340,480,2.4286,130,250,380,1.9231,100,190,290,1.9,90,160,250,1.7778,93,46
700,210,490,190,440,630,2.3158,160,340,500,2.125,150,290,440,1.9333,130,220,350,1.6923,110,150,260,1.3636,90,130,220,1.4444,94,46
700,210,480,180,430,610,2.3889,160,330,490,2.0625,150,280,430,1.8667,140,210,350,1.5,110,160,270,1.4545,100,120,220,1.2,94,46
710,220,490,190,420,610,2.2105,160,310,470,1.9375,160,260,420,1.625,130,180,310,1.3846,110,120,230,1.0909,100,90,190,0.9,94,46
690,220,480,190,420,610,2.2105,160,330,490,2.0625,150,280,430,1.8667,140,210,350,1.5,110,150,260,1.3636,100,120,220,1.2,94,46
670,210,470,180,410,590,2.2778,160,320,480,2.0,150,270,420,1.8,130,200,330,1.5385,110,140,250,1.2727,90,120,210,1.3333,94,46
680,200,480,190,390,580,2.0526,150,290,440,1.9333,150,250,400,1.6667,120,170,290,1.4167,110,120,230,1.0909,90,100,190,1.1111,93,46
690,200,480,180,410,590,2.2778,150,310,460,2.0667,150,270,420,1.8,120,190,310,1.5833,110,140,250,1.2727,90,110,200,1.2222,93,46
710,210,470,190,410,600,2.1579,160,300,460,1.875,150,260,410,1.7333,130,180,310,1.3846,110,130,240,1.1818,100,100,200,1.0,93,46
640,240,440,210,390,600,1.8571,190,280,470,1.4737,180,230,410,1.2778,150,160,310,1.0667,130,110,240,0.84615,110,90,200,0.81818,94,46
680,200,480,170,430,600,2.5294,150,320,470,2.1333,140,270,410,1.9286,120,190,310,1.5833,100,150,250,1.5,80,120,200,1.5,95,47
690,200,490,180,420,600,2.3333,150,310,460,2.0667,150,270,420,1.8,120,190,310,1.5833,110,140,250,1.2727,90,110,200,1.2222,95,47
670,200,480,180,410,590,2.2778,160,300,460,1.875,150,250,400,1.6667,120,170,290,1.4167,110,110,220,1.0,90,90,180,1.0,95,47
660,190,470,170,400,570,2.3529,150,300,450,2.0,140,240,380,1.7143,110,170,280,1.5455,100,130,230,1.3,90,110,200,1.2222,97,48
680,190,480,170,410,580,2.4118,150,290,440,1.9333,130,250,380,1.9231,120,170,290,1.4167,90,130,220,1.4444,90,100,190,1.1111,97,48
670,200,470,180,410,590,2.2778,160,300,460,1.875,150,260,410,1.7333,130,180,310,1.3846,110,130,240,1.1818,90,110,200,1.2222,98,48
670,200,470,180,410,590,2.2778,160,300,460,1.875,140,260,400,1.8571,120,180,300,1.5,110,140,250,1.2727,90,110,200,1.2222,100,49
670,200,470,180,420,600,2.3333,150,320,470,2.1333,150,270,420,1.8,120,190,310,1.5833,110,140,250,1.2727,90,110,200,1.2222,101,50
680,200,480,180,400,580,2.2222,150,300,450,2.0,140,250,390,1.7857,130,170,300,1.3077,100,120,220,1.2,90,110,200,1.2222,101,50
670,200,480,180,450,630,2.5,150,340,490,2.2667,140,280,420,2.0,120,200,320,1.6667,100,140,240,1.4,90,120,210,1.3333,101,50
650,190,470,190,410,600,2.1579,160,320,480,2.0,140,270,410,1.9286,130,190,320,1.4615,100,130,230,1.3,90,110,200,1.2222,102,50
670,180,470,200,400,600,2.0,160,300,460,1.875,140,250,390,1.7857,120,170,290,1.4167,100,140,240,1.4,90,120,210,1.3333,102,50
660,200,460,170,410,580,2.4118,160,320,480,2.0,140,270,410,1.9286,130,180,310,1.3846,110,130,240,1.1818,90,100,190,1.1111,102,50
660,200,460,180,410,590,2.2778,150,310,460,2.0667,150,270,420,1.8,120,190,310,1.5833,110,140,250,1.2727,90,110,200,1.2222,103,50
650,200,450,180,410,590,2.2778,160,330,490,2.0625,150,280,430,1.8667,130,170,300,1.3077,110,130,240,1.1818,90,100,190,1.1111,103,50
640,200,450,180,390,570,2.1667,150,290,440,1.9333,140,240,380,1.7143,130,180,310,1.3846,100,130,230,1.3,100,110,210,1.1,104,51
660,190,470,170,400,570,2.3529,140,310,450,2.2143,140,260,400,1.8571,120,190,310,1.5833,100,140,240,1.4,80,120,200,1.5,104,51
640,190,450,190,390,580,2.0526,160,310,470,1.9375,150,270,420,1.8,120,180,300,1.5,110,130,240,1.1818,90,100,190,1.1111,104,51
630,190,450,160,380,540,2.375,150,280,430,1.8667,130,220,350,1.6923,120,160,280,1.3333,100,120,220,1.2,80,90,170,1.125,103,51
640,180,440,160,390,550,2.4375,150,280,430,1.8667,130,230,360,1.7692,110,150,260,1.3636,100,110,210,1.1,90,100,190,1.1111,103,51
630,200,430,170,420,590,2.4706,150,320,470,2.1333,140,260,400,1.8571,120,170,290,1.4167,110,120,230,1.0909,90,100,190,1.1111,103,51
640,200,440,170,400,570,2.3529,140,320,460,2.2857,140,260,400,1.8571,120,180,300,1.5,100,130,230,1.3,90,110,200,1.2222,104,51
630,200,430,180,380,560,2.1111,150,290,440,1.9333,140,240,380,1.7143,120,170,290,1.4167,100,120,220,1.2,100,100,200,1.0,104,51
580,200,430,170,390,560,2.2941,150,310,460,2.0667,140,260,400,1.8571,130,170,300,1.3077,100,130,230,1.3,90,110,200,1.2222,105,52
620,190,440,170,380,550,2.2353,150,310,460,2.0667,130,260,390,2.0,120,180,300,1.5,100,130,230,1.3,90,110,200,1.2222,106,52
620,180,430,160,380,540,2.375,140,310,450,2.2143,130,260,390,2.0,110,170,280,1.5455,90,130,220,1.4444,80,110,190,1.375,107,53
610,190,420,170,370,540,2.1765,150,290,440,1.9333,130,250,380,1.9231,120,170,290,1.4167,100,120,220,1.2,90,100,190,1.1111,107,53
620,190,430,160,390,550,2.4375,140,310,450,2.2143,140,270,410,1.9286,110,180,290,1.6364,100,120,220,1.2,90,110,200,1.2222,108,53
600,190,410,170,380,550,2.2353,150,300,450,2.0,140,260,400,1.8571,120,180,300,1.5,110,130,240,1.1818,100,100,200,1.0,111,55
610,190,420,160,360,520,2.25,140,290,430,2.0714,130,250,380,1.9231,120,180,300,1.5,100,140,240,1.4,80,110,190,1.375,111,55
600,190,410,170,360,530,2.1176,150,290,440,1.9333,140,250,390,1.7857,130,180,310,1.3846,100,130,230,1.3,90,110,200,1.2222,113,56
600,190,420,170,370,540,2.1765,140,290,430,2.0714,130,260,390,2.0,120,190,310,1.5833,100,140,240,1.4,90,120,210,1.3333,116,57
600,180,420,170,370,540,2.1765,150,290,440,1.9333,130,260,390,2.0,120,180,300,1.5,100,130,230,1.3,90,110,200,1.2222,116,57
590,180,410,170,360,530,2.1176,140,290,430,2.0714,130,250,380,1.9231,120,170,290,1.4167,100,120,220,1.2,90,90,180,1.0,118,59
600,180,410,160,360,520,2.25,140,290,430,2.0714,130,250,380,1.9231,110,170,280,1.5455,90,120,210,1.3333,80,100,180,1.25,118,59
600,190,410,160,380,540,2.375,150,300,450,2.0,130,260,390,2.0,120,180,300,1.5,100,130,230,1.3,90,100,190,1.1111,121,60
590,190,400,170,410,580,2.4118,150,340,490,2.2667,140,260,400,1.8571,120,180,300,1.5,110,130,240,1.1818,90,100,190,1.1111,123,61
590,190,410,170,360,530,2.1176,150,290,440,1.9333,140,260,400,1.8571,120,190,310,1.5833,110,130,240,1.1818,90,110,200,1.2222,123,61
600,180,400,170,360,530,2.1176,140,280,420,2.0,140,240,380,1.7143,120,170,290,1.4167,100,120,220,1.2,100,110,210,1.1,127,63
580,200,400,170,390,560,2.2941,150,310,460,2.0667,140,280,420,2.0,130,190,320,1.4615,110,130,240,1.1818,100,110,210,1.1,127,63
590,180,410,170,350,520,2.0588,150,290,440,1.9333,140,250,390,1.7857,120,180,300,1.5,110,130,240,1.1818,100,100,200,1.0,128,64
580,180,410,170,350,520,2.0588,150,290,440,1.9333,140,250,390,1.7857,120,180,300,1.5,110,120,230,1.0909,90,110,200,1.2222,128,64
590,170,410,170,360,530,2.1176,140,290,430,2.0714,130,250,380,1.9231,120,170,290,1.4167,100,120,220,1.2,90,100,190,1.1111,129,65
580,180,400,160,400,560,2.5,140,320,460,2.2857,130,270,400,2.0769,120,180,300,1.5,100,120,220,1.2,90,100,190,1.1111,131,66
590,180,400,160,370,530,2.3125,140,300,440,2.1429,130,270,400,2.0769,110,190,300,1.7273,100,130,230,1.3,80,110,190,1.375,131,66
590,190,400,170,350,520,2.0588,140,290,430,2.0714,130,250,380,1.9231,120,170,290,1.4167,100,130,230,1.3,90,100,190,1.1111,133,66
580,190,390,170,350,520,2.0588,150,280,430,1.8667,140,250,390,1.7857,120,180,300,1.5,110,130,240,1.1818,90,100,190,1.1111,133,66
590,190,400,170,350,520,2.0588,140,280,420,2.0,140,240,380,1.7143,120,170,290,1.4167,110,120,230,1.0909,90,110,200,1.2222,134,67
570,190,390,180,340,520,1.8889,150,280,430,1.8667,140,240,380,1.7143,130,170,300,1.3077,110,120,230,1.0909,100,100,200,1.0,134,67
580,180,390,150,380,530,2.5333,140,310,450,2.2143,130,270,400,2.0769,110,190,300,1.7273,100,120,220,1.2,80,100,180,1.25,134,67
570,190,390,170,370,540,2.1765,140,290,430,2.0714,130,260,390,2.0,120,180,300,1.5,100,130,230,1.3,90,100,190,1.1111,134,67
590,180,400,160,410,570,2.5625,140,340,480,2.4286,130,280,410,2.1538,110,200,310,1.8182,100,140,240,1.4,80,120,200,1.5,135,67
580,190,400,180,350,530,1.9444,150,280,430,1.8667,140,250,390,1.7857,130,180,310,1.3846,100,130,230,1.3,90,110,200,1.2222,136,67
570,160,410,150,350,500,2.3333,130,280,410,2.1538,130,240,370,1.8462,110,170,280,1.5455,90,130,220,1.4444,90,100,190,1.1111,149,69
580,170,410,150,360,510,2.4,130,290,420,2.2308,120,250,370,2.0833,110,180,290,1.6364,90,130,220,1.4444,80,100,180,1.25,150,70
580,170,400,160,360,520,2.25,140,300,440,2.1429,130,260,390,2.0,110,190,300,1.7273,100,130,230,1.3,90,110,200,1.2222,150,70
570,180,410,160,340,500,2.125,140,280,420,2.0,130,240,370,1.8462,120,180,300,1.5,100,130,230,1.3,90,100,190,1.1111,150,70
570,160,420,160,360,520,2.25,130,290,420,2.2308,120,250,370,2.0833,110,170,280,1.5455,90,130,220,1.4444,90,100,190,1.1111,150,70
580,170,410,150,420,570,2.8,130,330,460,2.5385,130,290,420,2.2308,110,200,310,1.8182,90,130,220,1.4444,80,100,180,1.25,148,69
580,170,410,150,370,520,2.4667,130,300,430,2.3077,120,260,380,2.1667,110,180,290,1.6364,100,120,220,1.2,80,100,180,1.25,148,69
580,170,410,150,370,520,2.4667,130,290,420,2.2308,130,250,380,1.9231,110,180,290,1.6364,90,130,220,1.4444,90,100,190,1.1111,148,69
580,170,410,160,360,520,2.25,140,290,430,2.0714,130,250,380,1.9231,110,190,300,1.7273,100,130,230,1.3,90,110,200,1.2222,148,69
580,170,410,150,350,500,2.3333,130,280,410,2.1538,130,240,370,1.8462,110,170,280,1.5455,90,130,220,1.4444,90,110,200,1.2222,149,69
580,170,410,150,350,500,2.3333,140,270,410,1.9286,130,240,370,1.8462,110,180,290,1.6364,100,130,230,1.3,80,110,190,1.375,148,69
570,170,410,160,360,520,2.25,140,290,430,2.0714,130,250,380,1.9231,120,180,300,1.5,100,130,230,1.3,90,100,190,1.1111,148,69
590,170,410,150,370,520,2.4667,130,290,420,2.2308,130,260,390,2.0,110,180,290,1.6364,90,130,220,1.4444,80,110,190,1.375,146,68
580,180,410,160,370,530,2.3125,140,290,430,2.0714,130,260,390,2.0,120,180,300,1.5,100,130,230,1.3,90,100,190,1.1111,146,68
600,170,420,150,350,500,2.3333,140,280,420,2.0,130,240,370,1.8462,110,180,290,1.6364,100,120,220,1.2,80,100,180,1.25,148,69
580,180,400,160,360,520,2.25,140,280,420,2.0,140,240,380,1.7143,120,170,290,1.4167,100,120,220,1.2,100,100,200,1.0,148,69
580,180,410,170,340,510,2.0,140,270,410,1.9286,130,230,360,1.7692,120,160,280,1.3333,100,130,230,1.3,90,110,200,1.2222,148,69
570,170,420,160,360,520,2.25,140,280,420,2.0,130,250,380,1.9231,110,180,290,1.6364,100,130,230,1.3,90,110,200,1.2222,148,69
580,180,410,150,350,500,2.3333,130,280,410,2.1538,120,250,370,2.0833,110,180,290,1.6364,90,130,220,1.4444,80,100,180,1.25,146,69
590,170,410,150,360,510,2.4,140,280,420,2.0,130,250,380,1.9231,110,180,290,1.6364,100,130,230,1.3,90,110,200,1.2222,146,69
590,180,410,170,350,520,2.0588,140,280,420,2.0,130,240,370,1.8462,120,170,290,1.4167,100,130,230,1.3,90,110,200,1.2222,147,69
580,180,410,160,350,510,2.1875,140,280,420,2.0,130,250,380,1.9231,120,180,300,1.5,100,130,230,1.3,90,100,190,1.1111,147,69
580,170,420,160,360,520,2.25,140,290,430,2.0714,130,250,380,1.9231,110,190,300,1.7273,100,130,230,1.3,90,110,200,1.2222,148,69
580,160,410,150,350,500,2.3333,120,280,400,2.3333,120,250,370,2.0833,100,180,280,1.8,90,140,230,1.5556,80,110,190,1.375,147,69
590,170,410,150,380,530,2.5333,140,300,440,2.1429,130,260,390,2.0,110,180,290,1.6364,100,120,220,1.2,80,100,180,1.25,146,69
590,180,410,150,370,520,2.4667,130,290,420,2.2308,130,250,380,1.9231,110,180,290,1.6364,90,130,220,1.4444,90,100,190,1.1111,146,69
590,180,410,160,360,520,2.25,140,290,430,2.0714,130,260,390,2.0,120,190,310,1.5833,100,140,240,1.4,90,100,190,1.1111,146,69
590,180,410,150,350,500,2.3333,140,280,420,2.0,130,240,370,1.8462,110,180,290,1.6364,100,120,220,1.2,90,100,190,1.1111,147,69
590,180,410,150,360,510,2.4,140,280,420,2.0,130,240,370,1.8462,110,180,290,1.6364,100,130,230,1.3,90,110,200,1.2222,147,69
580,180,410,170,380,550,2.2353,140,300,440,2.1429,130,260,390,2.0,120,190,310,1.5833,100,130,230,1.3,90,110,200,1.2222,148,69
590,170,430,150,360,510,2.4,130,290,420,2.2308,120,250,370,2.0833,110,190,300,1.7273,90,140,230,1.5556,80,110,190,1.375,148,69
590,160,430,150,360,510,2.4,130,290,420,2.2308,120,250,370,2.0833,100,170,270,1.7,100,120,220,1.2,80,100,180,1.25,147,69
590,170,420,150,430,580,2.8667,130,340,470,2.6154,120,290,410,2.4167,110,220,330,2.0,90,150,240,1.6667,80,120,200,1.5,147,69
590,170,420,150,370,520,2.4667,130,290,420,2.2308,120,250,370,2.0833,110,190,300,1.7273,90,130,220,1.4444,80,110,190,1.375,147,69
590,170,410,170,360,530,2.1176,140,300,440,2.1429,140,260,400,1.8571,120,190,310,1.5833,100,130,230,1.3,90,110,200,1.2222,148,69
590,180,410,160,360,520,2.25,130,290,420,2.2308,130,250,380,1.9231,120,180,300,1.5,100,130,230,1.3,90,110,200,1.2222,148,69
580,180,420,160,360,520,2.25,140,290,430,2.0714,130,250,380,1.9231,120,180,300,1.5,100,140,240,1.4,90,100,190,1.1111,148,69
600,170,430,150,390,540,2.6,130,310,440,2.3846,120,260,380,2.1667,110,190,300,1.7273,90,130,220,1.4444,90,110,200,1.2222,147,69
600,170,420,150,370,520,2.4667,130,290,420,2.2308,120,250,370,2.0833,110,190,300,1.7273,90,130,220,1.4444,90,110,200,1.2222,147,69
590,180,420,160,360,520,2.25,130,280,410,2.1538,130,250,380,1.9231,120,170,290,1.4167,100,130,230,1.3,90,100,190,1.1111,147,69
590,170,420,160,350,510,2.1875,130,280,410,2.1538,120,240,360,2.0,110,180,290,1.6364,100,130,230,1.3,80,100,180,1.25,148,69
590,170,420,150,360,510,2.4,140,290,430,2.0714,120,250,370,2.0833,110,190,300,1.7273,100,140,240,1.4,90,110,200,1.2222,148,69
580,170,430,150,360,510,2.4,140,290,430,2.0714,130,250,380,1.9231,110,190,300,1.7273,100,140,240,1.4,90,120,210,1.3333,148,69
600,150,440,150,370,520,2.4667,120,290,410,2.4167,120,260,380,2.1667,100,180,280,1.8,80,140,220,1.75,80,110,190,1.375,148,69
590,160,430,150,360,510,2.4,130,280,410,2.1538,120,250,370,2.0833,110,180,290,1.6364,90,130,220,1.4444,80,100,180,1.25,149,70
590,180,420,150,360,510,2.4,140,280,420,2.0,130,240,370,1.8462,110,170,280,1.5455,100,120,220,1.2,90,100,190,1.1111,148,69
600,170,420,150,370,520,2.4667,130,290,420,2.2308,130,250,380,1.9231,110,180,290,1.6364,90,130,220,1.4444,90,110,200,1.2222,148,69
590,180,420,170,360,530,2.1176,140,280,420,2.0,130,250,380,1.9231,120,170,290,1.4167,100,130,230,1.3,90,100,190,1.1111,150,70
580,170,420,160,360,520,2.25,140,280,420,2.0,130,250,380,1.9231,120,180,300,1.5,100,130,230,1.3,90,100,190,1.1111,150,70
600,170,420,150,370,520,2.4667,130,290,420,2.2308,130,250,380,1.9231,110,180,290,1.6364,90,130,220,1.4444,90,110,200,1.2222,150,70
590,180,420,160,360,520,2.25,130,290,420,2.2308,130,250,380,1.9231,120,170,290,1.4167,100,130,230,1.3,90,100,190,1.1111,150,70
590,170,420,160,360,520,2.25,130,290,420,2.2308,120,250,370,2.0833,120,180,300,1.5,100,140,240,1.4,90,110,200,1.2222,150,70
590,170,430,150,360,510,2.4,130,290,420,2.2308,120,250,370,2.0833,110,190,300,1.7273,100,140,240,1.4,90,110,200,1.2222,151,70
590,160,430,150,360,510,2.4,140,280,420,2.0,120,240,360,2.0,100,180,280,1.8,100,140,240,1.4,80,120,200,1.5,151,70
590,170,410,150,380,530,2.5333,130,300,430,2.3077,120,260,380,2.1667,110,180,290,1.6364,90,140,230,1.5556,80,100,180,1.25,149,70
600,180,430,150,390,540,2.6,130,300,430,2.3077,120,270,390,2.25,110,190,300,1.7273,90,140,230,1.5556,70,110,180,1.5714,149,69
590,170,420,150,360,510,2.4,130,280,410,2.1538,120,250,370,2.0833,110,180,290,1.6364,90,130,220,1.4444,80,110,190,1.375,149,69
590,180,420,170,350,520,2.0588,150,270,420,1.8,140,230,370,1.6429,120,150,270,1.25,110,110,220,1.0,100,90,190,0.9,151,70
590,170,430,150,360,510,2.4,140,280,420,2.0,130,250,380,1.9231,110,180,290,1.6364,100,130,230,1.3,90,110,200,1.2222,151,70
590,160,430,150,370,520,2.4667,130,290,420,2.2308,130,250,380,1.9231,110,170,280,1.5455,90,130,220,1.4444,90,100,190,1.1111,151,70
600,180,420,150,380,530,2.5333,130,300,430,2.3077,120,260,380,2.1667,110,180,290,1.6364,90,130,220,1.4444,80,100,180,1.25,150,70
590,180,420,160,370,530,2.3125,130,290,420,2.2308,120,250,370,2.0833,120,180,300,1.5,100,130,230,1.3,90,100,190,1.1111,150,70
600,170,430,150,370,520,2.4667,130,290,420,2.2308,120,250,370,2.0833,110,190,300,1.7273,90,130,220,1.4444,80,110,190,1.375,150,70
590,170,420,150,360,510,2.4,130,290,420,2.2308,120,250,370,2.0833,110,190,300,1.7273,90,130,220,1.4444,80,110,190,1.375,148,69
600,170,430,150,360,510,2.4,130,290,420,2.2308,120,250,370,2.0833,100,190,290,1.9,90,140,230,1.5556,80,120,200,1.5,148,69
590,170,420,170,350,520,2.0588,140,260,400,1.8571,140,230,370,1.6429,110,200,310,1.8182,100,140,240,1.4,90,120,210,1.3333,148,69
580,170,420,160,360,520,2.25,130,290,420,2.2308,130,250,380,1.9231,110,180,290,1.6364,90,130,220,1.4444,90,110,200,1.2222,148,69
590,160,430,150,370,520,2.4667,120,290,410,2.4167,110,250,360,2.2727,100,180,280,1.8,80,130,210,1.625,70,110,180,1.5714,147,69
600,170,430,150,360,510,2.4,140,280,420,2.0,130,240,370,1.8462,110,180,290,1.6364,90,130,220,1.4444,80,110,190,1.375,145,68
590,170,420,160,360,520,2.25,140,280,420,2.0,130,250,380,1.9231,110,190,300,1.7273,100,140,240,1.4,90,110,200,1.2222,145,68
600,170,430,150,370,520,2.4667,130,290,420,2.2308,120,250,370,2.0833,100,180,280,1.8,90,140,230,1.5556,80,110,190,1.375,145,68
600,170,430,150,370,520,2.4667,130,290,420,2.2308,130,250,380,1.9231,110,190,300,1.7273,90,130,220,1.4444,90,110,200,1.2222,146,68
590,170,430,150,350,500,2.3333,130,280,410,2.1538,130,250,380,1.9231,110,170,280,1.5455,90,130,220,1.4444,90,100,190,1.1111,145,68
590,180,420,160,380,540,2.375,140,290,430,2.0714,130,260,390,2.0,120,180,300,1.5,100,130,230,1.3,90,100,190,1.1111,145,68
610,170,430,150,380,530,2.5333,130,300,430,2.3077,120,260,380,2.1667,110,190,300,1.7273,90,140,230,1.5556,80,110,190,1.375,145,68
600,180,420,150,380,530,2.5333,130,310,440,2.3846,130,270,400,2.0769,110,210,320,1.9091,90,150,240,1.6667,80,130,210,1.625,144,67
600,180,420,150,370,520,2.4667,130,290,420,2.2308,130,250,380,1.9231,110,180,290,1.6364,90,130,220,1.4444,90,110,200,1.2222,145,67
600,180,420,160,370,530,2.3125,130,290,420,2.2308,130,250,380,1.9231,110,180,290,1.6364,90,130,220,1.4444,90,110,200,1.2222,145,67
600,180,430,170,360,530,2.1176,140,300,440,2.1429,130,270,400,2.0769,120,190,310,1.5833,100,140,240,1.4,90,110,200,1.2222,145,67
590,170,430,170,360,530,2.1176,140,280,420,2.0,130,250,380,1.9231,120,170,290,1.4167,100,130,230,1.3,90,100,190,1.1111,145,67
600,160,430,150,370,520,2.4667,130,290,420,2.2308,120,250,370,2.0833,110,180,290,1.6364,90,130,220,1.4444,80,100,180,1.25,144,67
600,170,420,150,380,530,2.5333,130,300,430,2.3077,120,260,380,2.1667,110,180,290,1.6364,90,130,220,1.4444,80,100,180,1.25,143,67
600,180,420,150,400,550,2.6667,130,320,450,2.4615,120,270,390,2.25,110,190,300,1.7273,80,140,220,1.75,80,110,190,1.375,143,67
600,180,430,150,370,520,2.4667,130,290,420,2.2308,120,260,380,2.1667,110,180,290,1.6364,90,140,230,1.5556,80,100,180,1.25,143,67
600,170,420,150,360,510,2.4,130,290,420,2.2308,120,250,370,2.0833,110,180,290,1.6364,90,140,230,1.5556,80,110,190,1.375,143,67
600,180,420,160,360,520,2.25,130,280,410,2.1538,120,250,370,2.0833,110,190,300,1.7273,90,140,230,1.5556,80,110,190,1.375,143,67
600,180,420,160,360,520,2.25,130,290,420,2.2308,120,260,380,2.1667,110,180,290,1.6364,90,140,230,1.5556,80,110,190,1.375,143,67
590,180,430,160,360,520,2.25,140,290,430,2.0714,130,250,380,1.9231,120,180,300,1.5,100,140,240,1.4,80,110,190,1.375,143,67
600,160,430,150,370,520,2.4667,130,290,420,2.2308,120,260,380,2.1667,110,190,300,1.7273,90,140,230,1.5556,80,110,190,1.375,142,67
600,170,430,150,410,560,2.7333,130,320,450,2.4615,120,280,400,2.3333,110,190,300,1.7273,90,140,230,1.5556,70,110,180,1.5714,142,67
600,170,430,150,390,540,2.6,130,310,440,2.3846,120,270,390,2.25,110,190,300,1.7273,90,140,230,1.5556,70,110,180,1.5714,142,66
600,170,430,150,370,520,2.4667,130,290,420,2.2308,120,260,380,2.1667,110,190,300,1.7273,90,140,230,1.5556,70,110,180,1.5714,142,66
600,170,430,150,370,520,2.4667,130,300,430,2.3077,120,270,390,2.25,110,200,310,1.8182,90,160,250,1.7778,70,130,200,1.8571,142,66
600,170,430,150,370,520,2.4667,130,290,420,2.2308,120,260,380,2.1667,110,190,300,1.7273,90,140,230,1.5556,80,110,190,1.375,142,66
600,170,430,150,360,510,2.4,130,290,420,2.2308,120,260,380,2.1667,110,190,300,1.7273,90,140,230,1.5556,80,110,190,1.375,142,66
590,170,430,170,370,540,2.1765,140,300,440,2.1429,130,270,400,2.0769,110,190,300,1.7273,100,140,240,1.4,90,110,200,1.2222,142,66
600,170,430,150,380,530,2.5333,130,310,440,2.3846,120,270,390,2.25,100,200,300,2.0,90,140,230,1.5556,70,120,190,1.7143,141,66
600,170,430,150,360,510,2.4,130,290,420,2.2308,120,250,370,2.0833,100,190,290,1.9,90,140,230,1.5556,80,120,200,1.5,141,66
600,170,430,150,360,510,2.4,130,280,410,2.1538,120,270,390,2.25,100,200,300,2.0,90,150,240,1.6667,80,120,200,1.5,141,66
610,170,440,150,370,520,2.4667,130,300,430,2.3077,120,260,380,2.1667,100,200,300,2.0,90,150,240,1.6667,80,120,200,1.5,142,66
600,170,430,150,370,520,2.4667,140,290,430,2.0714,130,260,390,2.0,120,190,310,1.5833,90,140,230,1.5556,80,110,190,1.375,142,66
590,170,430,150,360,510,2.4,130,290,420,2.2308,120,250,370,2.0833,110,180,290,1.6364,90,130,220,1.4444,80,110,190,1.375,142,66
600,170,420,150,370,520,2.4667,130,290,420,2.2308,120,250,370,2.0833,100,170,270,1.7,90,130,220,1.4444,80,100,180,1.25,141,66
600,180,420,160,370,530,2.3125,140,290,430,2.0714,130,250,380,1.9231,120,180,300,1.5,100,130,230,1.3,90,110,200,1.2222,140,66
600,180,420,160,370,530,2.3125,140,300,440,2.1429,130,270,400,2.0769,110,210,320,1.9091,90,130,220,1.4444,90,110,200,1.2222,140,66
610,180,420,160,370,530,2.3125,130,290,420,2.2308,130,260,390,2.0,110,190,300,1.7273,90,130,220,1.4444,90,110,200,1.2222,141,66
590,190,420,170,360,530,2.1176,140,280,420,2.0,140,240,380,1.7143,120,180,300,1.5,100,130,230,1.3,100,110,210,1.1,141,66
600,170,430,170,390,560,2.2941,140,310,450,2.2143,130,270,400,2.0769,110,200,310,1.8182,90,140,230,1.5556,90,120,210,1.3333,141,66
600,170,430,160,370,530,2.3125,130,290,420,2.2308,130,250,380,1.9231,110,190,300,1.7273,90,130,220,1.4444,80,110,190,1.375,142,66
610,170,430,150,370,520,2.4667,130,290,420,2.2308,120,250,370,2.0833,100,180,280,1.8,90,130,220,1.4444,80,100,180,1.25,142,66
650,180,420,160,380,540,2.375,140,310,450,2.2143,130,260,390,2.0,110,190,300,1.7273,100,130,230,1.3,90,110,200,1.2222,141,66
610,180,430,150,360,510,2.4,140,290,430,2.0714,130,260,390,2.0,110,190,300,1.7273,100,140,240,1.4,80,120,200,1.5,141,65
600,180,420,160,360,520,2.25,140,290,430,2.0714,130,250,380,1.9231,110,190,300,1.7273,100,130,230,1.3,90,100,190,1.1111,140,65
600,180,420,170,350,520,2.0588,150,290,440,1.9333,130,270,400,2.0769,110,190,300,1.7273,100,140,240,1.4,90,110,200,1.2222,140,65
600,180,420,160,370,530,2.3125,140,290,430,2.0714,130,260,390,2.0,110,190,300,1.7273,100,140,240,1.4,90,110,200,1.2222,141,65
610,180,430,150,370,520,2.4667,140,300,440,2.1429,130,260,390,2.0,110,190,300,1.7273,90,140,230,1.5556,80,110,190,1.375,141,65
600,180,420,160,370,530,2.3125,140,290,430,2.0714,130,260,390,2.0,120,180,300,1.5,100,120,220,1.2,90,100,190,1.1111,141,65
600,180,420,160,360,520,2.25,140,290,430,2.0714,140,260,400,1.8571,110,190,300,1.7273,100,140,240,1.4,90,110,200,1.2222,138,64
610,180,430,150,370,520,2.4667,140,290,430,2.0714,130,260,390,2.0,110,190,300,1.7273,90,140,230,1.5556,80,120,200,1.5,138,64
600,180,420,160,360,520,2.25,140,290,430,2.0714,130,260,390,2.0,110,190,300,1.7273,100,140,240,1.4,80,110,190,1.375,139,64
590,180,430,170,380,550,2.2353,150,310,460,2.0667,130,260,390,2.0,110,190,300,1.7273,100,140,240,1.4,80,110,190,1.375,139,64
610,160,440,150,370,520,2.4667,130,300,430,2.3077,120,260,380,2.1667,100,190,290,1.9,80,140,220,1.75,70,120,190,1.7143,138,64
600,170,430,150,380,530,2.5333,130,310,440,2.3846,120,270,390,2.25,110,190,300,1.7273,90,140,230,1.5556,80,110,190,1.375,137,64
650,170,430,150,390,540,2.6,130,310,440,2.3846,120,270,390,2.25,100,200,300,2.0,80,150,230,1.875,70,120,190,1.7143,137,64
580,220,400,190,380,570,2.0,170,300,470,1.7647,160,260,420,1.625,140,180,320,1.2857,120,110,230,0.91667,110,90,200,0.81818,137,64
600,180,410,160,350,510,2.1875,140,280,420,2.0,130,240,370,1.8462,110,180,290,1.6364,100,120,220,1.2,90,110,200,1.2222,137,64
600,190,410,170,360,530,2.1176,140,290,430,2.0714,140,250,390,1.7857,120,180,300,1.5,100,130,230,1.3,100,100,200,1.0,137,64
590,190,410,170,340,510,2.0,140,270,410,1.9286,140,250,390,1.7857,120,190,310,1.5833,100,130,230,1.3,100,110,210,1.1,138,64
600,180,430,160,370,530,2.3125,130,290,420,2.2308,130,250,380,1.9231,110,190,300,1.7273,90,130,220,1.4444,90,110,200,1.2222,138,64
590,170,420,160,360,520,2.25,130,290,420,2.2308,130,240,370,1.8462,110,170,280,1.5455,90,120,210,1.3333,90,100,190,1.1111,138,65
600,170,430,150,370,520,2.4667,120,300,420,2.5,120,250,370,2.0833,100,180,280,1.8,90,130,220,1.4444,80,100,180,1.25,138,64
600,170,430,150,380,530,2.5333,130,300,430,2.3077,120,260,380,2.1667,110,180,290,1.6364,90,130,220,1.4444,80,100,180,1.25,138,64
600,170,420,160,360,520,2.25,130,290,420,2.2308,120,250,370,2.0833,110,180,290,1.6364,80,130,210,1.625,80,100,180,1.25,137,64
590,180,420,160,360,520,2.25,130,290,420,2.2308,120,250,370,2.0833,110,180,290,1.6364,90,130,220,1.4444,80,100,180,1.25,137,64
600,170,430,150,360,510,2.4,120,290,410,2.4167,110,250,360,2.2727,110,190,300,1.7273,90,140,230,1.5556,80,110,190,1.375,137,64
600,170,430,150,370,520,2.4667,130,290,420,2.2308,120,250,370,2.0833,110,190,300,1.7273,90,140,230,1.5556,80,110,190,1.375,137,64
590,170,430,150,370,520,2.4667,130,290,420,2.2308,120,250,370,2.0833,110,190,300,1.7273,90,140,230,1.5556,80,110,190,1.375,138,65
600,180,430,160,410,570,2.5625,130,320,450,2.4615,120,270,390,2.25,100,190,290,1.9,90,130,220,1.4444,80,110,190,1.375,139,65
600,170,430,150,370,520,2.4667,130,300,430,2.3077,120,260,380,2.1667,100,190,290,1.9,90,140,230,1.5556,80,120,200,1.5,145,67
600,170,430,150,360,510,2.4,140,290,430,2.0714,120,250,370,2.0833,100,190,290,1.9,100,130,230,1.3,80,110,190,1.375,145,67
600,170,420,170,360,530,2.1176,140,320,460,2.2857,130,270,400,2.0769,110,200,310,1.8182,100,140,240,1.4,90,120,210,1.3333,146,68
590,180,420,160,360,520,2.25,140,280,420,2.0,130,240,370,1.8462,110,180,290,1.6364,100,120,220,1.2,90,100,190,1.1111,146,68
600,170,430,160,370,530,2.3125,130,290,420,2.2308,130,250,380,1.9231,110,170,280,1.5455,90,130,220,1.4444,90,100,190,1.1111,146,68
600,170,420,150,370,520,2.4667,130,300,430,2.3077,130,250,380,1.9231,110,180,290,1.6364,90,130,220,1.4444,90,100,190,1.1111,145,67
600,180,420,160,400,560,2.5,130,320,450,2.4615,130,270,400,2.0769,110,190,300,1.7273,90,130,220,1.4444,90,110,200,1.2222,145,67
600,180,420,160,370,530,2.3125,140,300,440,2.1429,130,260,390,2.0,110,180,290,1.6364,90,130,220,1.4444,90,110,200,1.2222,144,67
600,180,410,160,360,520,2.25,140,290,430,2.0714,130,250,380,1.9231,110,180,290,1.6364,90,130,220,1.4444,90,110,200,1.2222,144,67
600,190,410,170,350,520,2.0588,150,280,430,1.8667,140,250,390,1.7857,120,190,310,1.5833,100,130,230,1.3,90,110,200,1.2222,143,66
590,190,410,170,350,520,2.0588,150,280,430,1.8667,140,250,390,1.7857,120,170,290,1.4167,100,130,230,1.3,90,100,190,1.1111,143,66
590,180,420,160,360,520,2.25,140,290,430,2.0714,130,250,380,1.9231,120,180,300,1.5,100,140,240,1.4,80,110,190,1.375,143,66
600,170,440,160,380,540,2.375,130,310,440,2.3846,120,270,390,2.25,110,190,300,1.7273,90,140,230,1.5556,80,110,190,1.375,143,66
610,160,430,150,390,540,2.6,120,310,430,2.5833,110,270,380,2.4545,100,190,290,1.9,80,140,220,1.75,70,110,180,1.5714,143,66
600,180,420,160,380,540,2.375,140,310,450,2.2143,130,270,400,2.0769,110,200,310,1.8182,90,140,230,1.5556,80,110,190,1.375,141,65
600,180,420,160,380,540,2.375,140,300,440,2.1429,130,260,390,2.0,120,190,310,1.5833,100,140,240,1.4,80,110,190,1.375,139,64
600,180,420,160,370,530,2.3125,140,310,450,2.2143,130,270,400,2.0769,120,210,330,1.75,100,140,240,1.4,80,110,190,1.375,139,64
610,180,420,160,370,530,2.3125,140,300,440,2.1429,130,260,390,2.0,120,180,300,1.5,100,140,240,1.4,80,110,190,1.375,139,64
590,190,410,170,350,520,2.0588,150,290,440,1.9333,140,250,390,1.7857,130,180,310,1.3846,110,130,240,1.1818,90,100,190,1.1111,139,64
600,180,420,190,380,570,2.0,150,300,450,2.0,140,260,400,1.8571,120,200,320,1.6667,100,140,240,1.4,90,110,200,1.2222,139,64
580,180,420,170,350,520,2.0588,150,280,430,1.8667,140,250,390,1.7857,120,180,300,1.5,100,130,230,1.3,90,100,190,1.1111,139,64
600,160,430,150,360,510,2.4,130,280,410,2.1538,120,250,370,2.0833,100,180,280,1.8,90,130,220,1.4444,70,110,180,1.5714,139,64
610,170,430,150,380,530,2.5333,130,310,440,2.3846,120,270,390,2.25,100,190,290,1.9,90,140,230,1.5556,80,110,190,1.375,138,64
620,180,450,160,380,540,2.375,140,310,450,2.2143,130,270,400,2.0769,120,200,320,1.6667,90,140,230,1.5556,80,120,200,1.5,134,62
630,170,440,160,400,560,2.5,140,300,440,2.1429,130,260,390,2.0,110,190,300,1.7273,90,130,220,1.4444,80,110,190,1.375,134,62
630,190,440,170,400,570,2.3529,140,320,460,2.2857,130,280,410,2.1538,120,200,320,1.6667,100,130,230,1.3,90,110,200,1.2222,133,62
590,190,420,170,390,560,2.2941,160,310,470,1.9375,140,270,410,1.9286,120,200,320,1.6667,110,140,250,1.2727,90,100,190,1.1111,132,61
620,200,430,170,390,560,2.2941,160,310,470,1.9375,150,270,420,1.8,130,200,330,1.5385,110,140,250,1.2727,90,110,200,1.2222,132,61
620,190,430,180,380,560,2.1111,150,310,460,2.0667,150,270,420,1.8,120,190,310,1.5833,110,140,250,1.2727,100,110,210,1.1,132,61
620,190,440,170,370,540,2.1765,150,300,450,2.0,140,270,410,1.9286,130,200,330,1.5385,100,140,240,1.4,90,120,210,1.3333,133,62
620,180,440,200,380,580,1.9,150,300,450,2.0,150,270,420,1.8,120,190,310,1.5833,110,140,250,1.2727,90,110,200,1.2222,132,62
630,180,440,160,370,530,2.3125,140,310,450,2.2143,130,260,390,2.0,110,190,300,1.7273,90,130,220,1.4444,90,110,200,1.2222,132,62
630,190,430,170,390,560,2.2941,150,310,460,2.0667,140,280,420,2.0,120,200,320,1.6667,110,140,250,1.2727,90,100,190,1.1111,132,61
620,200,430,170,430,600,2.5294,150,350,500,2.3333,150,300,450,2.0,130,190,320,1.4615,110,140,250,1.2727,100,110,210,1.1,131,61
640,190,440,170,380,550,2.2353,150,300,450,2.0,130,270,400,2.0769,120,200,320,1.6667,100,140,240,1.4,90,120,210,1.3333,131,61
630,200,430,180,380,560,2.1111,160,310,470,1.9375,150,270,420,1.8,130,200,330,1.5385,110,130,240,1.1818,100,110,210,1.1,131,61
620,200,420,190,370,560,1.9474,160,310,470,1.9375,150,270,420,1.8,130,200,330,1.5385,120,140,260,1.1667,100,110,210,1.1,131,61
630,200,440,180,370,550,2.0556,150,300,450,2.0,140,260,400,1.8571,130,200,330,1.5385,110,140,250,1.2727,100,120,220,1.2,132,61
620,190,430,170,370,540,2.1765,160,300,460,1.875,140,260,400,1.8571,130,190,320,1.4615,110,130,240,1.1818,90,110,200,1.2222,131,61
620,190,430,180,380,560,2.1111,150,310,460,2.0667,140,270,410,1.9286,120,190,310,1.5833,110,130,240,1.1818,100,110,210,1.1,131,61
640,190,440,170,410,580,2.4118,140,330,470,2.3571,130,290,420,2.2308,120,200,320,1.6667,100,140,240,1.4,90,110,200,1.2222,130,61
640,200,440,170,400,570,2.3529,150,330,480,2.2,140,280,420,2.0,130,210,340,1.6154,100,140,240,1.4,90,120,210,1.3333,129,60
630,200,430,180,380,560,2.1111,160,300,460,1.875,150,260,410,1.7333,130,190,320,1.4615,110,130,240,1.1818,100,110,210,1.1,129,60
620,200,430,180,380,560,2.1111,160,300,460,1.875,150,270,420,1.8,130,200,330,1.5385,120,140,260,1.1667,100,120,220,1.2,129,60
630,190,440,170,380,550,2.2353,150,310,460,2.0667,140,270,410,1.9286,120,200,320,1.6667,100,150,250,1.5,90,120,210,1.3333,129,60
640,190,440,170,390,560,2.2941,150,310,460,2.0667,140,280,420,2.0,130,210,340,1.6154,100,140,240,1.4,90,120,210,1.3333,129,60
600,200,420,180,360,540,2.0,160,280,440,1.75,150,250,400,1.6667,130,180,310,1.3846,110,130,240,1.1818,100,90,190,0.9,128,60
620,180,440,160,390,550,2.4375,140,310,450,2.2143,130,270,400,2.0769,110,200,310,1.8182,100,130,230,1.3,90,110,200,1.2222,128,60
640,180,450,170,390,560,2.2941,150,310,460,2.0667,140,270,410,1.9286,120,200,320,1.6667,100,140,240,1.4,90,110,200,1.2222,127,59
630,190,430,170,400,570,2.3529,150,310,460,2.0667,140,280,420,2.0,120,200,320,1.6667,110,150,260,1.3636,90,110,200,1.2222,127,59
630,200,440,180,370,550,2.0556,150,300,450,2.0,140,260,400,1.8571,130,190,320,1.4615,100,140,240,1.4,100,110,210,1.1,127,59
640,190,440,180,370,550,2.0556,160,300,460,1.875,140,260,400,1.8571,130,190,320,1.4615,100,130,230,1.3,90,110,200,1.2222,127,59
620,200,420,180,390,570,2.1667,160,310,470,1.9375,150,270,420,1.8,130,200,330,1.5385,120,140,260,1.1667,100,110,210,1.1,126,59
630,200,440,180,370,550,2.0556,150,310,460,2.0667,150,270,420,1.8,130,200,330,1.5385,110,150,260,1.3636,90,120,210,1.3333,126,59
620,190,430,180,370,550,2.0556,150,310,460,2.0667,140,270,410,1.9286,120,200,320,1.6667,100,140,240,1.4,100,120,220,1.2,125,58
630,190,430,170,380,550,2.2353,150,300,450,2.0,140,260,400,1.8571,120,180,300,1.5,100,130,230,1.3,90,100,190,1.1111,125,58
630,200,430,170,410,580,2.4118,150,330,480,2.2,150,280,430,1.8667,120,190,310,1.5833,110,130,240,1.1818,90,100,190,1.1111,124,58
640,200,440,180,390,570,2.1667,150,320,470,2.1333,140,280,420,2.0,120,200,320,1.6667,100,140,240,1.4,90,120,210,1.3333,124,58
630,200,430,180,370,550,2.0556,160,300,460,1.875,150,260,410,1.7333,130,190,320,1.4615,110,130,240,1.1818,100,110,210,1.1,124,58
630,200,440,180,370,550,2.0556,160,300,460,1.875,150,260,410,1.7333,130,200,330,1.5385,110,140,250,1.2727,90,110,200,1.2222,124,58
640,190,440,170,380,550,2.2353,160,300,460,1.875,150,260,410,1.7333,120,200,320,1.6667,110,140,250,1.2727,90,110,200,1.2222,124,58
630,200,440,180,380,560,2.1111,160,300,460,1.875,150,260,410,1.7333,130,200,330,1.5385,110,140,250,1.2727,100,110,210,1.1,124,58
620,190,430,170,380,550,2.2353,150,300,450,2.0,140,270,410,1.9286,120,190,310,1.5833,110,140,250,1.2727,90,110,200,1.2222,123,58
640,190,440,170,380,550,2.2353,150,310,460,2.0667,140,260,400,1.8571,120,190,310,1.5833,100,130,230,1.3,90,110,200,1.2222,123,58
640,200,440,180,390,570,2.1667,160,310,470,1.9375,150,270,420,1.8,130,190,320,1.4615,110,130,240,1.1818,100,100,200,1.0,123,57
640,200,430,180,380,560,2.1111,170,300,470,1.7647,150,260,410,1.7333,130,190,320,1.4615,120,130,250,1.0833,100,100,200,1.0,123,57
630,210,430,180,390,570,2.1667,170,310,480,1.8235,150,270,420,1.8,130,200,330,1.5385,120,130,250,1.0833,100,110,210,1.1,123,57
630,200,430,180,380,560,2.1111,160,300,460,1.875,150,260,410,1.7333,130,190,320,1.4615,120,140,260,1.1667,100,110,210,1.1,124,57
650,200,450,180,390,570,2.1667,150,310,460,2.0667,150,270,420,1.8,120,200,320,1.6667,110,150,260,1.3636,90,120,210,1.3333,125,58
640,200,440,200,370,570,1.85,160,300,460,1.875,160,260,420,1.625,130,180,310,1.3846,120,130,250,1.0833,100,100,200,1.0,125,58
610,200,430,190,370,560,1.9474,160,300,460,1.875,160,260,420,1.625,130,180,310,1.3846,120,140,260,1.1667,100,100,200,1.0,125,58
650,180,450,170,380,550,2.2353,140,310,450,2.2143,130,270,400,2.0769,120,190,310,1.5833,90,130,220,1.4444,90,110,200,1.2222,124,58
640,200,440,180,440,620,2.4444,160,350,510,2.1875,150,300,450,2.0,130,210,340,1.6154,110,130,240,1.1818,100,110,210,1.1,124,58
640,200,440,180,400,580,2.2222,160,320,480,2.0,150,280,430,1.8667,130,200,330,1.5385,110,140,250,1.2727,100,110,210,1.1,123,57
640,200,440,180,380,560,2.1111,160,300,460,1.875,150,270,420,1.8,130,200,330,1.5385,110,140,250,1.2727,100,120,220,1.2,123,57
650,200,440,180,380,560,2.1111,160,310,470,1.9375,150,280,430,1.8667,130,200,330,1.5385,110,150,260,1.3636,100,120,220,1.2,123,57
650,210,450,190,390,580,2.0526,170,310,480,1.8235,160,270,430,1.6875,140,210,350,1.5,110,150,260,1.3636,110,120,230,1.0909,123,57
640,200,450,180,380,560,2.1111,160,300,460,1.875,150,270,420,1.8,130,200,330,1.5385,120,140,260,1.1667,100,110,210,1.1,123,57
630,190,440,180,390,570,2.1667,160,310,470,1.9375,150,270,420,1.8,130,200,330,1.5385,110,140,250,1.2727,90,110,200,1.2222,123,57
640,190,440,180,390,570,2.1667,150,310,460,2.0667,150,270,420,1.8,120,190,310,1.5833,110,130,240,1.1818,100,110,210,1.1,122,57
660,200,450,170,400,570,2.3529,150,330,480,2.2,150,280,430,1.8667,120,210,330,1.75,110,150,260,1.3636,90,120,210,1.3333,122,57
640,210,430,190,380,570,2.0,170,300,470,1.7647,160,260,420,1.625,130,190,320,1.4615,120,130,250,1.0833,100,100,200,1.0,121,56
640,210,440,180,410,590,2.2778,160,330,490,2.0625,150,280,430,1.8667,130,200,330,1.5385,120,140,260,1.1667,100,120,220,1.2,121,56
650,200,440,180,380,560,2.1111,160,310,470,1.9375,150,270,420,1.8,130,200,330,1.5385,110,140,250,1.2727,90,120,210,1.3333,121,56
630,210,440,180,380,560,2.1111,160,310,470,1.9375,150,270,420,1.8,140,200,340,1.4286,110,140,250,1.2727,100,120,220,1.2,121,56
650,190,460,170,400,570,2.3529,150,320,470,2.1333,140,280,420,2.0,120,200,320,1.6667,90,150,240,1.6667,90,120,210,1.3333,121,56
650,190,450,180,390,570,2.1667,150,310,460,2.0667,140,270,410,1.9286,130,200,330,1.5385,100,140,240,1.4,100,110,210,1.1,121,56
650,200,440,180,390,570,2.1667,160,310,470,1.9375,150,270,420,1.8,130,190,320,1.4615,110,140,250,1.2727,100,110,210,1.1,120,56
650,210,440,180,420,600,2.3333,160,340,500,2.125,150,300,450,2.0,130,220,350,1.6923,120,150,270,1.25,100,110,210,1.1,120,56
650,210,450,200,380,580,1.9,170,300,470,1.7647,160,270,430,1.6875,140,200,340,1.4286,130,140,270,1.0769,110,110,220,1.0,120,55
640,200,440,180,390,570,2.1667,160,310,470,1.9375,150,270,420,1.8,130,200,330,1.5385,110,140,250,1.2727,100,120,220,1.2,120,55
650,200,450,180,380,560,2.1111,160,300,460,1.875,140,260,400,1.8571,130,190,320,1.4615,110,130,240,1.1818,100,110,210,1.1,120,55
660,200,450,180,410,590,2.2778,160,320,480,2.0,150,280,430,1.8667,130,200,330,1.5385,110,140,250,1.2727,100,110,210,1.1,119,55
650,210,450,180,390,570,2.1667,170,310,480,1.8235,160,270,430,1.6875,130,200,330,1.5385,120,140,260,1.1667,100,110,210,1.1,118,55
670,200,450,180,390,570,2.1667,160,300,460,1.875,140,260,400,1.8571,130,200,330,1.5385,100,140,240,1.4,100,120,220,1.2,118,55
650,220,450,190,400,590,2.1053,170,310,480,1.8235,160,270,430,1.6875,140,200,340,1.4286,120,130,250,1.0833,100,110,210,1.1,118,55
670,200,470,180,400,580,2.2222,160,320,480,2.0,150,280,430,1.8667,130,200,330,1.5385,110,150,260,1.3636,100,120,220,1.2,118,55
650,200,460,190,410,600,2.1579,170,330,500,1.9412,160,290,450,1.8125,130,210,340,1.6154,110,150,260,1.3636,100,120,220,1.2,118,55
660,190,460,170,400,570,2.3529,150,340,490,2.2667,140,280,420,2.0,120,200,320,1.6667,100,150,250,1.5,90,120,210,1.3333,118,55
650,200,450,180,380,560,2.1111,160,300,460,1.875,150,260,410,1.7333,130,180,310,1.3846,120,130,250,1.0833,100,100,200,1.0,117,54
680,200,460,170,410,580,2.4118,160,330,490,2.0625,140,280,420,2.0,130,210,340,1.6154,100,150,250,1.5,90,120,210,1.3333,117,54
660,220,450,180,390,570,2.1667,170,300,470,1.7647,150,270,420,1.8,130,190,320,1.4615,120,130,250,1.0833,100,110,210,1.1,117,54
660,210,450,190,390,580,2.0526,160,310,470,1.9375,150,270,420,1.8,140,190,330,1.3571,110,140,250,1.2727,100,110,210,1.1,117,54
680,210,460,180,410,590,2.2778,170,330,500,1.9412,150,280,430,1.8667,130,210,340,1.6154,110,150,260,1.3636,90,120,210,1.3333,117,54
650,220,450,200,380,580,1.9,170,300,470,1.7647,170,260,430,1.5294,150,190,340,1.2667,130,130,260,1.0,120,110,230,0.91667,117,54
650,200,460,190,400,590,2.1053,170,320,490,1.8824,160,280,440,1.75,140,200,340,1.4286,110,140,250,1.2727,100,120,220,1.2,116,54
650,190,460,170,390,560,2.2941,150,310,460,2.0667,140,270,410,1.9286,120,200,320,1.6667,100,150,250,1.5,90,110,200,1.2222,116,54
650,190,450,170,400,570,2.3529,160,310,470,1.9375,140,260,400,1.8571,120,190,310,1.5833,110,130,240,1.1818,90,100,190,1.1111,115,54
660,200,460,170,410,580,2.4118,160,330,490,2.0625,140,280,420,2.0,130,200,330,1.5385,110,140,250,1.2727,90,120,210,1.3333,115,54
660,200,460,180,390,570,2.1667,150,310,460,2.0667,150,270,420,1.8,130,200,330,1.5385,110,150,260,1.3636,100,110,210,1.1,115,54
660,200,450,180,410,590,2.2778,160,330,490,2.0625,150,290,440,1.9333,130,210,340,1.6154,110,160,270,1.4545,90,130,220,1.4444,115,53
670,210,460,190,390,580,2.0526,160,310,470,1.9375,150,270,420,1.8,140,190,330,1.3571,110,140,250,1.2727,100,110,210,1.1,115,53
650,210,450,190,390,580,2.0526,170,310,480,1.8235,160,270,430,1.6875,140,190,330,1.3571,120,140,260,1.1667,100,120,220,1.2,115,53
640,200,450,190,390,580,2.0526,160,300,460,1.875,150,260,410,1.7333,130,190,320,1.4615,110,150,260,1.3636,100,110,210,1.1,115,53
660,190,460,190,390,580,2.0526,150,310,460,2.0667,150,270,420,1.8,120,190,310,1.5833,110,140,250,1.2727,90,110,200,1.2222,115,53
660,200,450,180,410,590,2.2778,160,330,490,2.0625,150,280,430,1.8667,130,200,330,1.5385,110,140,250,1.2727,90,110,200,1.2222,113,53
670,210,460,180,460,640,2.5556,150,360,510,2.4,150,320,470,2.1333,130,200,330,1.5385,110,150,260,1.3636,100,110,210,1.1,113,53
650,210,440,190,390,580,2.0526,170,300,470,1.7647,160,260,420,1.625,140,190,330,1.3571,120,130,250,1.0833,100,110,210,1.1,113,53
670,210,460,180,400,580,2.2222,160,310,470,1.9375,150,270,420,1.8,130,200,330,1.5385,110,150,260,1.3636,100,110,210,1.1,113,53
670,210,460,200,390,590,1.95,180,310,490,1.7222,160,280,440,1.75,140,200,340,1.4286,120,140,260,1.1667,100,120,220,1.2,114,53
650,210,450,200,390,590,1.95,170,310,480,1.8235,170,270,440,1.5882,140,200,340,1.4286,120,130,250,1.0833,110,110,220,1.0,114,53
640,200,440,180,380,560,2.1111,160,300,460,1.875,150,270,420,1.8,130,190,320,1.4615,110,140,250,1.2727,100,110,210,1.1,113,53
670,200,460,180,400,580,2.2222,150,310,460,2.0667,140,270,410,1.9286,120,200,320,1.6667,100,130,230,1.3,100,110,210,1.1,112,53
660,210,450,190,400,590,2.1053,170,320,490,1.8824,160,270,430,1.6875,130,190,320,1.4615,120,130,250,1.0833,100,100,200,1.0,112,53
660,210,450,190,400,590,2.1053,160,310,470,1.9375,150,270,420,1.8,130,200,330,1.5385,110,150,260,1.3636,100,110,210,1.1,112,53
670,210,440,180,400,580,2.2222,170,310,480,1.8235,150,270,420,1.8,130,200,330,1.5385,110,140,250,1.2727,90,120,210,1.3333,112,53
670,230,460,200,390,590,1.95,170,310,480,1.8235,160,270,430,1.6875,140,200,340,1.4286,120,140,260,1.1667,110,110,220,1.0,112,53
670,210,460,190,390,580,2.0526,160,310,470,1.9375,150,280,430,1.8667,140,200,340,1.4286,110,150,260,1.3636,110,110,220,1.0,113,53
640,210,450,190,390,580,2.0526,180,320,500,1.7778,160,270,430,1.6875,140,200,340,1.4286,120,140,260,1.1667,100,120,220,1.2,112,53
670,190,470,200,400,600,2.0,150,320,470,2.1333,140,280,420,2.0,130,200,330,1.5385,100,150,250,1.5,100,120,220,1.2,112,53
660,200,470,170,390,560,2.2941,150,300,450,2.0,140,260,400,1.8571,130,190,320,1.4615,100,140,240,1.4,100,120,220,1.2,133,61
690,190,490,170,410,580,2.4118,150,310,460,2.0667,140,280,420,2.0,120,190,310,1.5833,110,140,250,1.2727,90,110,200,1.2222,134,61
680,200,480,180,430,610,2.3889,150,330,480,2.2,140,290,430,2.0714,130,210,340,1.6154,110,140,250,1.2727,100,110,210,1.1,134,61
670,200,470,180,450,630,2.5,160,330,490,2.0625,150,280,430,1.8667,130,200,330,1.5385,110,140,250,1.2727,100,120,220,1.2,136,62
680,200,470,170,390,560,2.2941,160,300,460,1.875,150,260,410,1.7333,120,190,310,1.5833,110,140,250,1.2727,90,120,210,1.3333,137,62
690,210,490,200,400,600,2.0,160,310,470,1.9375,160,270,430,1.6875,130,200,330,1.5385,120,140,260,1.1667,110,120,230,1.0909,137,62
680,200,480,190,400,590,2.1053,160,300,460,1.875,150,270,420,1.8,130,200,330,1.5385,120,140,260,1.1667,100,110,210,1.1,139,63
650,200,460,180,390,570,2.1667,160,300,460,1.875,150,260,410,1.7333,130,190,320,1.4615,110,130,240,1.1818,100,110,210,1.1,139,63
680,190,480,170,440,610,2.5882,140,330,470,2.3571,140,280,420,2.0,120,200,320,1.6667,100,150,250,1.5,90,120,210,1.3333,139,63
680,200,480,180,430,610,2.3889,150,330,480,2.2,140,280,420,2.0,130,200,330,1.5385,110,140,250,1.2727,100,110,210,1.1,139,62
680,200,480,180,420,600,2.3333,150,320,470,2.1333,140,280,420,2.0,130,200,330,1.5385,100,150,250,1.5,100,120,220,1.2,139,63
680,200,480,180,410,590,2.2778,150,330,480,2.2,140,290,430,2.0714,120,210,330,1.75,100,160,260,1.6,100,130,230,1.3,139,63
700,200,500,180,410,590,2.2778,150,320,470,2.1333,140,280,420,2.0,130,200,330,1.5385,100,150,250,1.5,100,120,220,1.2,139,63
680,200,480,180,420,600,2.3333,160,320,480,2.0,150,280,430,1.8667,130,210,340,1.6154,110,140,250,1.2727,100,120,220,1.2,139,63
680,200,490,190,410,600,2.1579,160,310,470,1.9375,150,270,420,1.8,120,190,310,1.5833,110,140,250,1.2727,90,100,190,1.1111,139,63
680,190,480,160,410,570,2.5625,150,320,470,2.1333,140,280,420,2.0,120,210,330,1.75,100,140,240,1.4,90,120,210,1.3333,137,62
680,200,480,180,400,580,2.2222,160,310,470,1.9375,150,270,420,1.8,130,190,320,1.4615,120,140,260,1.1667,100,100,200,1.0,136,62
690,200,490,170,440,610,2.5882,160,340,500,2.125,140,300,440,2.1429,120,220,340,1.8333,110,160,270,1.4545,100,130,230,1.3,136,61
680,200,480,190,400,590,2.1053,170,310,480,1.8235,150,270,420,1.8,130,200,330,1.5385,120,130,250,1.0833,100,110,210,1.1,136,61
680,200,480,180,420,600,2.3333,160,330,490,2.0625,150,290,440,1.9333,130,210,340,1.6154,110,140,250,1.2727,90,120,210,1.3333,136,61
690,200,490,190,410,600,2.1579,170,330,500,1.9412,150,280,430,1.8667,130,210,340,1.6154,110,150,260,1.3636,100,120,220,1.2,135,61
680,200,490,180,420,600,2.3333,150,330,480,2.2,140,280,420,2.0,130,220,350,1.6923,100,160,260,1.6,90,120,210,1.3333,135,61
680,190,490,170,420,590,2.4706,140,330,470,2.3571,140,290,430,2.0714,110,220,330,2.0,100,160,260,1.6,80,130,210,1.625,134,61
700,190,490,170,420,590,2.4706,140,320,460,2.2857,140,280,420,2.0,120,200,320,1.6667,100,140,240,1.4,90,110,200,1.2222,133,61
690,210,480,190,440,630,2.3158,160,340,500,2.125,160,300,460,1.875,130,210,340,1.6154,120,140,260,1.1667,110,110,220,1.0,133,61
710,210,480,190,410,600,2.1579,170,320,490,1.8824,150,280,430,1.8667,130,200,330,1.5385,120,140,260,1.1667,100,110,210,1.1,133,61
660,230,460,200,390,590,1.95,180,300,480,1.6667,170,260,430,1.5294,150,180,330,1.2,130,130,260,1.0,120,100,220,0.8333299999999999,132,61
720,200,510,180,440,620,2.4444,160,330,490,2.0625,140,290,430,2.0714,130,210,340,1.6154,110,160,270,1.4545,100,120,220,1.2,132,61
650,210,480,190,400,590,2.1053,170,320,490,1.8824,160,280,440,1.75,140,200,340,1.4286,120,140,260,1.1667,100,120,220,1.2,132,61
690,200,490,180,420,600,2.3333,160,330,490,2.0625,140,290,430,2.0714,130,210,340,1.6154,110,140,250,1.2727,90,120,210,1.3333,130,60
700,200,480,180,450,630,2.5,160,350,510,2.1875,140,300,440,2.1429,130,220,350,1.6923,100,160,260,1.6,100,120,220,1.2,130,60
690,220,480,190,440,630,2.3158,160,340,500,2.125,160,300,460,1.875,130,220,350,1.6923,110,140,250,1.2727,90,110,200,1.2222,129,60
690,210,480,180,420,600,2.3333,160,330,490,2.0625,150,290,440,1.9333,130,210,340,1.6154,110,150,260,1.3636,100,120,220,1.2,129,60
710,210,500,180,420,600,2.3333,160,330,490,2.0625,150,290,440,1.9333,130,210,340,1.6154,110,150,260,1.3636,100,120,220,1.2,129,60
690,210,490,190,410,600,2.1579,170,330,500,1.9412,160,290,450,1.8125,130,210,340,1.6154,120,150,270,1.25,100,130,230,1.3,128,59
680,200,480,180,410,590,2.2778,160,330,490,2.0625,150,290,440,1.9333,130,210,340,1.6154,110,160,270,1.4545,100,120,220,1.2,127,59
700,210,490,190,410,600,2.1579,160,320,480,2.0,150,280,430,1.8667,140,210,350,1.5,110,150,260,1.3636,110,110,220,1.0,126,59
700,210,490,190,410,600,2.1579,170,330,500,1.9412,160,290,450,1.8125,130,210,340,1.6154,120,150,270,1.25,100,120,220,1.2,126,59
710,210,500,190,420,610,2.2105,160,330,490,2.0625,150,290,440,1.9333,140,210,350,1.5,110,150,260,1.3636,110,110,220,1.0,126,59
700,210,490,180,440,620,2.4444,160,350,510,2.1875,150,300,450,2.0,140,230,370,1.6429,110,160,270,1.4545,100,130,230,1.3,126,59
700,210,500,200,430,630,2.15,160,340,500,2.125,160,300,460,1.875,130,220,350,1.6923,120,160,280,1.3333,100,130,230,1.3,126,59
690,200,480,180,410,590,2.2778,160,330,490,2.0625,150,280,430,1.8667,140,200,340,1.4286,110,150,260,1.3636,100,120,220,1.2,126,59
690,210,490,190,430,620,2.2632,160,340,500,2.125,150,290,440,1.9333,140,220,360,1.5714,110,150,260,1.3636,110,110,220,1.0,125,58
700,200,490,170,500,670,2.9412,160,370,530,2.3125,140,320,460,2.2857,120,230,350,1.9167,110,170,280,1.5455,90,140,230,1.5556,124,58
700,210,490,180,440,620,2.4444,160,340,500,2.125,150,300,450,2.0,130,220,350,1.6923,110,160,270,1.4545,100,130,230,1.3,124,58
700,210,490,190,420,610,2.2105,160,320,480,2.0,160,280,440,1.75,130,210,340,1.6154,120,140,260,1.1667,100,110,210,1.1,124,58
690,210,480,190,400,590,2.1053,170,350,520,2.0588,160,300,460,1.875,140,220,360,1.5714,110,160,270,1.4545,100,120,220,1.2,125,58
700,210,490,190,430,620,2.2632,160,340,500,2.125,150,290,440,1.9333,140,220,360,1.5714,110,160,270,1.4545,100,130,230,1.3,125,58
680,210,480,180,420,600,2.3333,160,330,490,2.0625,150,290,440,1.9333,130,220,350,1.6923,110,160,270,1.4545,100,130,230,1.3,124,58
720,200,490,170,440,610,2.5882,150,330,480,2.2,140,290,430,2.0714,130,210,340,1.6154,100,140,240,1.4,90,120,210,1.3333,123,58
690,230,480,200,450,650,2.25,170,360,530,2.1176,170,310,480,1.8235,150,220,370,1.4667,130,160,290,1.2308,110,130,240,1.1818,123,58
710,210,490,180,430,610,2.3889,160,340,500,2.125,150,300,450,2.0,130,230,360,1.7692,110,160,270,1.4545,100,130,230,1.3,123,58
720,220,490,190,470,660,2.4737,170,370,540,2.1765,160,330,490,2.0625,140,220,360,1.5714,120,160,280,1.3333,100,130,230,1.3,124,58
690,230,480,200,430,630,2.15,170,330,500,1.9412,170,290,460,1.7059,150,210,360,1.4,130,150,280,1.1538,110,120,230,1.0909,124,58
710,210,490,190,420,610,2.2105,170,330,500,1.9412,160,290,450,1.8125,140,220,360,1.5714,110,150,260,1.3636,100,120,220,1.2,124,58
680,220,460,210,400,610,1.9048,180,310,490,1.7222,170,260,430,1.5294,150,210,360,1.4,130,140,270,1.0769,110,120,230,1.0909,123,58
690,220,480,190,410,600,2.1579,170,330,500,1.9412,160,280,440,1.75,140,210,350,1.5,120,140,260,1.1667,100,110,210,1.1,123,57
710,210,490,180,440,620,2.4444,160,350,510,2.1875,150,310,460,2.0667,140,230,370,1.6429,110,160,270,1.4545,100,120,220,1.2,123,57
690,220,480,200,440,640,2.2,170,350,520,2.0588,170,310,480,1.8235,140,240,380,1.7143,130,140,270,1.0769,110,120,230,1.0909,123,57
700,210,480,180,430,610,2.3889,170,330,500,1.9412,150,290,440,1.9333,140,220,360,1.5714,110,160,270,1.4545,100,120,220,1.2,123,57
720,220,500,190,430,620,2.2632,160,340,500,2.125,160,300,460,1.875,140,220,360,1.5714,120,160,280,1.3333,100,130,230,1.3,123,57
700,220,490,200,420,620,2.1,170,320,490,1.8824,160,270,430,1.6875,140,190,330,1.3571,120,140,260,1.1667,110,120,230,1.0909,123,57
690,210,480,190,410,600,2.1579,170,320,490,1.8824,160,290,450,1.8125,140,210,350,1.5,110,150,260,1.3636,100,120,220,1.2,122,57
680,210,470,190,440,630,2.3158,170,350,520,2.0588,160,310,470,1.9375,140,220,360,1.5714,110,150,260,1.3636,110,110,220,1.0,122,57
710,210,490,190,430,620,2.2632,160,350,510,2.1875,150,310,460,2.0667,130,230,360,1.7692,110,170,280,1.5455,100,150,250,1.5,122,57
700,220,480,190,420,610,2.2105,170,330,500,1.9412,160,280,440,1.75,140,210,350,1.5,120,150,270,1.25,100,120,220,1.2,122,57
690,220,470,200,420,620,2.1,170,330,500,1.9412,160,280,440,1.75,140,210,350,1.5,120,140,260,1.1667,110,120,230,1.0909,122,57
720,220,490,190,420,610,2.2105,170,330,500,1.9412,160,280,440,1.75,140,210,350,1.5,120,140,260,1.1667,100,110,210,1.1,122,57
700,230,480,200,410,610,2.05,170,330,500,1.9412,170,290,460,1.7059,140,210,350,1.5,130,150,280,1.1538,110,120,230,1.0909,122,57
660,220,470,190,410,600,2.1579,170,330,500,1.9412,160,290,450,1.8125,140,210,350,1.5,120,150,270,1.25,110,120,230,1.0909,122,58
730,190,500,180,440,620,2.4444,150,350,500,2.3333,140,300,440,2.1429,120,220,340,1.8333,100,160,260,1.6,90,140,230,1.5556,122,58
710,230,480,200,440,640,2.2,180,340,520,1.8889,170,300,470,1.7647,140,210,350,1.5,120,150,270,1.25,110,120,230,1.0909,122,58
700,230,480,200,420,620,2.1,180,330,510,1.8333,170,290,460,1.7059,150,200,350,1.3333,130,140,270,1.0769,110,110,220,1.0,122,58
710,220,490,190,440,630,2.3158,170,350,520,2.0588,150,310,460,2.0667,130,220,350,1.6923,110,150,260,1.3636,100,120,220,1.2,122,58
720,220,510,190,430,620,2.2632,170,340,510,2.0,160,300,460,1.875,140,220,360,1.5714,120,160,280,1.3333,100,120,220,1.2,122,58
720,210,510,190,440,630,2.3158,170,350,520,2.0588,160,300,460,1.875,140,220,360,1.5714,120,160,280,1.3333,100,130,230,1.3,122,58
710,210,510,210,440,650,2.0952,170,350,520,2.0588,150,300,450,2.0,140,220,360,1.5714,110,160,270,1.4545,100,130,230,1.3,121,57
700,200,490,180,440,620,2.4444,160,340,500,2.125,150,290,440,1.9333,130,210,340,1.6154,110,150,260,1.3636,90,120,210,1.3333,121,57
720,210,500,180,430,610,2.3889,160,340,500,2.125,150,300,450,2.0,130,230,360,1.7692,110,150,260,1.3636,100,130,230,1.3,121,57
720,220,500,190,430,620,2.2632,170,340,510,2.0,160,300,460,1.875,140,220,360,1.5714,120,150,270,1.25,110,120,230,1.0909,121,57
720,220,500,190,430,620,2.2632,180,330,510,1.8333,160,290,450,1.8125,140,210,350,1.5,120,150,270,1.25,110,120,230,1.0909,121,57
740,220,510,200,430,630,2.15,170,350,520,2.0588,160,310,470,1.9375,140,220,360,1.5714,120,150,270,1.25,110,120,230,1.0909,121,57
730,230,500,200,440,640,2.2,170,340,510,2.0,170,300,470,1.7647,140,220,360,1.5714,130,160,290,1.2308,110,120,230,1.0909,121,57
690,230,480,210,410,620,1.9524,180,320,500,1.7778,180,280,460,1.5556,150,200,350,1.3333,130,150,280,1.1538,110,120,230,1.0909,120,57
730,210,510,190,430,620,2.2632,170,340,510,2.0,150,300,450,2.0,140,230,370,1.6429,110,150,260,1.3636,100,120,220,1.2,120,57
730,220,510,200,460,660,2.3,170,360,530,2.1176,160,310,470,1.9375,140,220,360,1.5714,120,160,280,1.3333,110,120,230,1.0909,120,57
730,220,500,200,440,640,2.2,170,340,510,2.0,170,300,470,1.7647,140,220,360,1.5714,130,150,280,1.1538,110,120,230,1.0909,120,56
740,230,510,200,460,660,2.3,180,360,540,2.0,170,320,490,1.8824,150,240,390,1.6,130,180,310,1.3846,110,140,250,1.2727,120,56
720,230,500,200,450,650,2.25,180,340,520,1.8889,170,300,470,1.7647,150,220,370,1.4667,130,150,280,1.1538,120,120,240,1.0,120,56
740,220,520,200,440,640,2.2,170,350,520,2.0588,160,300,460,1.875,140,230,370,1.6429,120,170,290,1.4167,100,140,240,1.4,119,56
720,220,510,220,440,660,2.0,180,340,520,1.8889,180,300,480,1.6667,150,220,370,1.4667,130,160,290,1.2308,120,120,240,1.0,119,56
730,220,510,200,430,630,2.15,180,330,510,1.8333,170,290,460,1.7059,140,210,350,1.5,130,160,290,1.2308,110,130,240,1.1818,118,56
740,220,510,200,440,640,2.2,180,370,550,2.0556,160,320,480,2.0,140,240,380,1.7143,120,160,280,1.3333,100,130,230,1.3,118,56
730,230,510,200,430,630,2.15,180,340,520,1.8889,170,300,470,1.7647,150,220,370,1.4667,120,160,280,1.3333,110,130,240,1.1818,118,56
720,220,500,200,430,630,2.15,170,330,500,1.9412,170,300,470,1.7647,140,220,360,1.5714,120,160,280,1.3333,110,130,240,1.1818,118,56
720,220,510,190,450,640,2.3684,170,340,510,2.0,160,290,450,1.8125,140,210,350,1.5,120,150,270,1.25,110,120,230,1.0909,117,55
760,210,520,190,460,650,2.4211,170,360,530,2.1176,160,320,480,2.0,130,230,360,1.7692,110,170,280,1.5455,90,130,220,1.4444,117,55
720,240,500,210,420,630,2.0,190,330,520,1.7368,180,290,470,1.6111,160,210,370,1.3125,140,140,280,1.0,120,110,230,0.91667,117,55
740,220,510,200,450,650,2.25,170,360,530,2.1176,170,310,480,1.8235,140,240,380,1.7143,120,170,290,1.4167,110,140,250,1.2727,117,55
740,230,510,200,440,640,2.2,180,350,530,1.9444,170,310,480,1.8235,150,230,380,1.5333,120,160,280,1.3333,110,130,240,1.1818,117,55
720,230,500,210,420,630,2.0,190,330,520,1.7368,170,290,460,1.7059,150,210,360,1.4,130,150,280,1.1538,120,120,240,1.0,117,55
720,220,510,210,440,650,2.0952,170,340,510,2.0,170,290,460,1.7059,140,220,360,1.5714,130,160,290,1.2308,110,130,240,1.1818,117,55
740,210,520,180,450,630,2.5,170,360,530,2.1176,160,320,480,2.0,130,240,370,1.8462,110,170,280,1.5455,90,130,220,1.4444,116,55
740,220,510,190,440,630,2.3158,180,340,520,1.8889,160,300,460,1.875,150,220,370,1.4667,120,150,270,1.25,110,120,230,1.0909,116,55
720,230,490,210,420,630,2.0,190,330,520,1.7368,170,290,460,1.7059,160,210,370,1.3125,130,140,270,1.0769,120,120,240,1.0,116,55
740,230,510,200,450,650,2.25,170,350,520,2.0588,170,310,480,1.8235,140,230,370,1.6429,130,160,290,1.2308,110,130,240,1.1818,116,55
730,230,510,200,440,640,2.2,180,350,530,1.9444,170,310,480,1.8235,150,230,380,1.5333,120,160,280,1.3333,110,120,230,1.0909,116,55
720,220,500,210,420,630,2.0,180,330,510,1.8333,170,290,460,1.7059,150,210,360,1.4,120,150,270,1.25,110,130,240,1.1818,116,55
710,220,500,190,430,620,2.2632,170,340,510,2.0,160,290,450,1.8125,140,210,350,1.5,120,140,260,1.1667,100,120,220,1.2,116,55
730,210,510,190,420,610,2.2105,160,320,480,2.0,150,280,430,1.8667,130,220,350,1.6923,110,150,260,1.3636,100,120,220,1.2,115,55
720,220,510,200,440,640,2.2,170,340,510,2.0,160,300,460,1.875,140,220,360,1.5714,120,150,270,1.25,110,120,230,1.0909,115,55
720,210,510,200,420,620,2.1,170,320,490,1.8824,160,280,440,1.75,140,200,340,1.4286,120,140,260,1.1667,110,110,220,1.0,115,55
700,210,500,180,460,640,2.5556,160,340,500,2.125,150,290,440,1.9333,130,210,340,1.6154,120,140,260,1.1667,100,120,220,1.2,115,55
710,200,530,160,450,610,2.8125,140,340,480,2.4286,140,290,430,2.0714,110,210,320,1.9091,100,160,260,1.6,80,130,210,1.625,115,55
710,190,520,180,420,600,2.3333,140,310,450,2.2143,140,250,390,1.7857,120,170,290,1.4167,100,120,220,1.2,100,100,200,1.0,116,55
720,190,520,170,430,600,2.5294,140,330,470,2.3571,130,280,410,2.1538,120,200,320,1.6667,100,140,240,1.4,90,120,210,1.3333,117,56
720,200,520,170,460,630,2.7059,140,350,490,2.5,130,290,420,2.2308,120,200,320,1.6667,100,140,240,1.4,90,120,210,1.3333,119,56
720,200,520,170,460,630,2.7059,140,340,480,2.4286,130,290,420,2.2308,120,210,330,1.75,90,150,240,1.6667,80,130,210,1.625,119,56
730,200,530,170,440,610,2.5882,150,340,490,2.2667,130,290,420,2.2308,120,210,330,1.75,100,160,260,1.6,90,130,220,1.4444,124,58
730,200,520,180,440,620,2.4444,150,330,480,2.2,140,280,420,2.0,120,210,330,1.75,100,150,250,1.5,100,130,230,1.3,126,59
720,210,530,200,430,630,2.15,160,330,490,2.0625,150,290,440,1.9333,130,210,340,1.6154,110,150,260,1.3636,100,130,230,1.3,130,61
720,190,520,170,440,610,2.5882,150,350,500,2.3333,140,290,430,2.0714,120,210,330,1.75,110,150,260,1.3636,90,130,220,1.4444,130,61
730,200,520,170,460,630,2.7059,150,330,480,2.2,140,280,420,2.0,120,210,330,1.75,100,150,250,1.5,90,120,210,1.3333,131,61
730,210,510,180,440,620,2.4444,160,340,500,2.125,150,300,450,2.0,130,210,340,1.6154,120,150,270,1.25,100,120,220,1.2,133,62
720,220,510,190,430,620,2.2632,170,330,500,1.9412,160,290,450,1.8125,130,210,340,1.6154,120,150,270,1.25,110,120,230,1.0909,133,62
730,210,520,180,440,620,2.4444,170,340,510,2.0,150,290,440,1.9333,130,210,340,1.6154,120,150,270,1.25,100,130,230,1.3,133,62
720,210,510,180,440,620,2.4444,160,350,510,2.1875,150,300,450,2.0,130,220,350,1.6923,110,160,270,1.4545,100,130,230,1.3,133,62
720,210,510,190,430,620,2.2632,170,330,500,1.9412,150,290,440,1.9333,140,210,350,1.5,110,150,260,1.3636,100,120,220,1.2,133,62
710,210,500,200,410,610,2.05,170,320,490,1.8824,160,270,430,1.6875,140,200,340,1.4286,120,150,270,1.25,110,120,230,1.0909,133,62
710,210,500,180,420,600,2.3333,160,330,490,2.0625,150,290,440,1.9333,130,210,340,1.6154,120,150,270,1.25,100,120,220,1.2,132,62
720,210,500,180,440,620,2.4444,160,340,500,2.125,150,300,450,2.0,130,220,350,1.6923,110,150,260,1.3636,100,130,230,1.3,132,61
710,220,490,190,440,630,2.3158,170,350,520,2.0588,160,300,460,1.875,140,230,370,1.6429,120,170,290,1.4167,110,140,250,1.2727,132,61
710,220,480,190,420,610,2.2105,170,320,490,1.8824,160,280,440,1.75,150,210,360,1.4,120,150,270,1.25,110,120,230,1.0909,132,61
700,230,480,200,490,690,2.45,180,350,530,1.9444,170,290,460,1.7059,140,210,350,1.5,130,150,280,1.1538,110,120,230,1.0909,132,61
720,220,500,240,400,640,1.6667,190,300,490,1.5789,170,260,430,1.5294,150,180,330,1.2,130,110,240,0.84615,120,90,210,0.75,131,61
700,220,490,200,410,610,2.05,170,310,480,1.8235,160,270,430,1.6875,140,190,330,1.3571,120,140,260,1.1667,110,110,220,1.0,131,61
700,210,490,180,410,590,2.2778,160,310,470,1.9375,150,280,430,1.8667,140,200,340,1.4286,120,130,250,1.0833,100,110,210,1.1,131,61
710,210,500,200,420,620,2.1,170,320,490,1.8824,160,280,440,1.75,140,200,340,1.4286,120,140,260,1.1667,110,110,220,1.0,130,61
710,210,490,190,430,620,2.2632,160,340,500,2.125,150,290,440,1.9333,140,210,350,1.5,110,150,260,1.3636,110,110,220,1.0,130,61
700,220,480,190,490,680,2.5789,170,360,530,2.1176,160,300,460,1.875,140,220,360,1.5714,120,160,280,1.3333,110,120,230,1.0909,131,61
700,220,490,190,480,670,2.5263,160,360,520,2.25,160,310,470,1.9375,140,220,360,1.5714,120,150,270,1.25,110,120,230,1.0909,131,62
710,210,510,230,420,650,1.8261,180,330,510,1.8333,170,280,450,1.6471,140,210,350,1.5,120,160,280,1.3333,100,120,220,1.2,130,62
710,200,500,190,420,610,2.2105,160,330,490,2.0625,150,280,430,1.8667,130,210,340,1.6154,110,140,250,1.2727,90,120,210,1.3333,130,62
710,230,490,190,450,640,2.3684,170,350,520,2.0588,160,300,460,1.875,140,220,360,1.5714,120,150,270,1.25,110,120,230,1.0909,130,63
680,220,470,200,480,680,2.4,180,400,580,2.2222,160,350,510,2.1875,140,250,390,1.7857,120,170,290,1.4167,110,130,240,1.1818,130,63
700,210,480,230,400,630,1.7391,190,360,550,1.8947,180,310,490,1.7222,150,220,370,1.4667,130,160,290,1.2308,110,120,230,1.0909,130,63
690,220,490,200,400,600,2.0,170,310,480,1.8235,160,270,430,1.6875,140,190,330,1.3571,120,140,260,1.1667,110,100,210,0.90909,129,63
700,200,490,180,410,590,2.2778,160,320,480,2.0,150,280,430,1.8667,130,200,330,1.5385,110,130,240,1.1818,100,110,210,1.1,128,62
710,210,490,190,420,610,2.2105,160,320,480,2.0,150,280,430,1.8667,130,200,330,1.5385,110,140,250,1.2727,100,110,210,1.1,127,61
690,220,480,190,400,590,2.1053,170,310,480,1.8235,160,270,430,1.6875,140,200,340,1.4286,120,130,250,1.0833,110,110,220,1.0,127,61
700,210,480,190,400,590,2.1053,160,310,470,1.9375,150,270,420,1.8,130,190,320,1.4615,110,130,240,1.1818,110,110,220,1.0,127,61
700,220,480,190,380,570,2.0,170,290,460,1.7059,160,260,420,1.625,140,190,330,1.3571,130,130,260,1.0,110,110,220,1.0,128,62
690,220,490,200,400,600,2.0,180,310,490,1.7222,160,270,430,1.6875,150,190,340,1.2667,130,140,270,1.0769,110,110,220,1.0,128,62
710,200,500,190,420,610,2.2105,160,320,480,2.0,150,280,430,1.8667,130,200,330,1.5385,120,140,260,1.1667,100,120,220,1.2,129,62
700,210,490,180,500,680,2.7778,150,370,520,2.4667,150,310,460,2.0667,130,190,320,1.4615,110,140,250,1.2727,110,110,220,1.0,131,63
700,210,490,180,420,600,2.3333,160,330,490,2.0625,150,280,430,1.8667,130,210,340,1.6154,110,140,250,1.2727,100,120,220,1.2,131,63
700,210,480,190,410,600,2.1579,160,310,470,1.9375,150,270,420,1.8,140,200,340,1.4286,110,150,260,1.3636,110,110,220,1.0,132,64
700,220,480,190,400,590,2.1053,170,320,490,1.8824,160,280,440,1.75,140,210,350,1.5,120,130,250,1.0833,110,110,220,1.0,135,65
700,220,470,190,410,600,2.1579,170,310,480,1.8235,160,270,430,1.6875,150,190,340,1.2667,120,140,260,1.1667,110,110,220,1.0,137,65
690,230,480,210,390,600,1.8571,180,300,480,1.6667,170,260,430,1.5294,150,190,340,1.2667,130,130,260,1.0,120,100,220,0.8333299999999999,137,65
700,210,480,200,400,600,2.0,180,300,480,1.6667,160,250,410,1.5625,140,180,320,1.2857,120,130,250,1.0833,110,120,230,1.0909,138,66
690,220,480,190,400,590,2.1053,160,300,460,1.875,160,260,420,1.625,140,190,330,1.3571,120,140,260,1.1667,110,100,210,0.90909,138,66
700,210,480,190,420,610,2.2105,170,330,500,1.9412,150,290,440,1.9333,130,210,340,1.6154,120,140,260,1.1667,100,120,220,1.2,138,66
690,220,470,190,420,610,2.2105,170,330,500,1.9412,160,290,450,1.8125,140,220,360,1.5714,120,160,280,1.3333,110,140,250,1.2727,138,66
690,220,470,200,410,610,2.05,170,310,480,1.8235,160,270,430,1.6875,140,200,340,1.4286,120,140,260,1.1667,110,110,220,1.0,138,66
690,220,470,190,400,590,2.1053,170,300,470,1.7647,160,260,420,1.625,140,190,330,1.3571,120,140,260,1.1667,110,110,220,1.0,138,66
710,220,490,200,400,600,2.0,180,300,480,1.6667,170,250,420,1.4706,140,180,320,1.2857,120,120,240,1.0,100,90,190,0.9,139,66
690,220,490,210,410,620,1.9524,180,310,490,1.7222,170,270,440,1.5882,140,200,340,1.4286,130,130,260,1.0,110,110,220,1.0,139,66
740,200,510,180,420,600,2.3333,160,330,490,2.0625,150,290,440,1.9333,130,220,350,1.6923,110,160,270,1.4545,100,120,220,1.2,138,66
680,230,460,210,470,680,2.2381,190,340,530,1.7895,170,300,470,1.7647,150,210,360,1.4,130,130,260,1.0,120,100,220,0.8333299999999999,138,66
700,220,490,190,420,610,2.2105,160,330,490,2.0625,160,280,440,1.75,130,210,340,1.6154,120,140,260,1.1667,100,120,220,1.2,138,65
710,210,480,190,400,590,2.1053,170,320,490,1.8824,160,280,440,1.75,140,200,340,1.4286,120,150,270,1.25,100,120,220,1.2,138,65
700,230,480,210,390,600,1.8571,180,300,480,1.6667,170,260,430,1.5294,150,190,340,1.2667,130,130,260,1.0,110,100,210,0.90909,138,65
700,220,480,200,400,600,2.0,180,310,490,1.7222,170,270,440,1.5882,150,200,350,1.3333,130,140,270,1.0769,110,110,220,1.0,138,65
690,220,480,200,400,600,2.0,170,310,480,1.8235,170,270,440,1.5882,140,200,340,1.4286,130,140,270,1.0769,110,120,230,1.0909,137,65
700,210,480,190,410,600,2.1579,170,320,490,1.8824,160,280,440,1.75,140,200,340,1.4286,120,150,270,1.25,100,120,220,1.2,137,65
700,220,490,200,410,610,2.05,170,310,480,1.8235,160,280,440,1.75,140,200,340,1.4286,120,140,260,1.1667,110,110,220,1.0,135,64
710,210,480,190,430,620,2.2632,170,330,500,1.9412,160,290,450,1.8125,140,210,350,1.5,120,160,280,1.3333,100,120,220,1.2,135,64
690,230,470,200,410,610,2.05,170,330,500,1.9412,170,280,450,1.6471,150,210,360,1.4,130,140,270,1.0769,110,120,230,1.0909,134,63
710,220,480,190,420,610,2.2105,170,320,490,1.8824,160,280,440,1.75,140,210,350,1.5,120,160,280,1.3333,100,120,220,1.2,134,63
690,230,490,210,410,620,1.9524,180,320,500,1.7778,170,280,450,1.6471,150,200,350,1.3333,130,140,270,1.0769,120,110,230,0.91667,134,63
700,200,480,200,400,600,2.0,180,320,500,1.7778,160,280,440,1.75,140,200,340,1.4286,120,150,270,1.25,110,120,230,1.0909,132,62
680,220,460,200,380,580,1.9,170,300,470,1.7647,160,260,420,1.625,140,190,330,1.3571,120,140,260,1.1667,110,110,220,1.0,132,62
690,220,470,200,410,610,2.05,170,320,490,1.8824,160,280,440,1.75,140,200,340,1.4286,120,140,260,1.1667,110,110,220,1.0,132,62
700,220,480,200,410,610,2.05,170,310,480,1.8235,160,270,430,1.6875,140,200,340,1.4286,120,140,260,1.1667,110,110,220,1.0,131,62
700,220,470,190,390,580,2.0526,170,300,470,1.7647,160,270,430,1.6875,140,190,330,1.3571,110,140,250,1.2727,110,110,220,1.0,131,62
690,230,460,210,380,590,1.8095,180,290,470,1.6111,170,260,430,1.5294,150,190,340,1.2667,130,120,250,0.92308,120,100,220,0.8333299999999999,131,62
700,230,470,200,390,590,1.95,180,300,480,1.6667,170,270,440,1.5882,150,200,350,1.3333,130,140,270,1.0769,110,110,220,1.0,132,62
700,230,470,210,390,600,1.8571,190,300,490,1.5789,170,260,430,1.5294,160,190,350,1.1875,130,140,270,1.0769,120,100,220,0.8333299999999999,132,63
690,230,470,200,400,600,2.0,180,280,460,1.5556,170,250,420,1.4706,150,180,330,1.2,130,120,250,0.92308,120,100,220,0.8333299999999999,132,63
700,220,470,190,390,580,2.0526,170,310,480,1.8235,160,270,430,1.6875,150,190,340,1.2667,120,130,250,1.0833,110,110,220,1.0,133,63
690,230,470,200,400,600,2.0,170,310,480,1.8235,170,260,430,1.5294,140,190,330,1.3571,130,130,260,1.0,110,100,210,0.90909,135,64
690,220,470,190,430,620,2.2632,170,340,510,2.0,160,270,430,1.6875,140,190,330,1.3571,130,130,260,1.0,110,110,220,1.0,135,64
710,220,480,190,400,590,2.1053,160,310,470,1.9375,150,270,420,1.8,140,200,340,1.4286,110,150,260,1.3636,110,110,220,1.0,137,65
710,230,480,190,400,590,2.1053,170,310,480,1.8235,160,280,440,1.75,140,200,340,1.4286,120,140,260,1.1667,100,120,220,1.2,139,66
690,230,480,210,390,600,1.8571,180,290,470,1.6111,170,260,430,1.5294,150,200,350,1.3333,130,140,270,1.0769,120,110,230,0.91667,139,66
710,210,500,190,410,600,2.1579,160,320,480,2.0,150,280,430,1.8667,140,200,340,1.4286,110,140,250,1.2727,100,120,220,1.2,140,67
710,210,490,190,410,600,2.1579,170,310,480,1.8235,160,270,430,1.6875,130,200,330,1.5385,120,140,260,1.1667,110,110,220,1.0,140,67
700,220,480,200,390,590,1.95,180,300,480,1.6667,160,260,420,1.625,150,190,340,1.2667,120,140,260,1.1667,110,120,230,1.0909,140,66
710,220,490,190,410,600,2.1579,170,330,500,1.9412,160,290,450,1.8125,130,210,340,1.6154,120,150,270,1.25,100,120,220,1.2,140,66
700,220,490,190,420,610,2.2105,170,330,500,1.9412,160,280,440,1.75,140,210,350,1.5,120,150,270,1.25,100,120,220,1.2,138,65
700,210,480,180,410,590,2.2778,170,320,490,1.8824,150,280,430,1.8667,140,200,340,1.4286,110,140,250,1.2727,100,120,220,1.2,137,64
710,220,490,190,430,620,2.2632,160,340,500,2.125,160,290,450,1.8125,140,220,360,1.5714,120,150,270,1.25,100,120,220,1.2,137,64
720,220,490,190,420,610,2.2105,170,330,500,1.9412,160,290,450,1.8125,140,210,350,1.5,110,150,260,1.3636,110,120,230,1.0909,136,63
710,230,480,200,410,610,2.05,180,310,490,1.7222,170,270,440,1.5882,150,200,350,1.3333,120,140,260,1.1667,110,110,220,1.0,135,63
710,230,480,210,410,620,1.9524,180,320,500,1.7778,170,280,450,1.6471,150,200,350,1.3333,130,140,270,1.0769,110,120,230,1.0909,135,62
700,230,480,210,400,610,1.9048,190,310,500,1.6316,170,270,440,1.5882,150,200,350,1.3333,130,140,270,1.0769,120,110,230,0.91667,135,62
710,220,490,210,420,630,2.0,180,320,500,1.7778,170,280,450,1.6471,150,210,360,1.4,130,150,280,1.1538,120,110,230,0.91667,133,62
700,220,480,190,410,600,2.1579,170,320,490,1.8824,160,280,440,1.75,140,200,340,1.4286,120,150,270,1.25,110,120,230,1.0909,133,62
710,220,490,190,430,620,2.2632,170,340,510,2.0,160,290,450,1.8125,140,220,360,1.5714,120,150,270,1.25,110,120,230,1.0909,133,62
720,220,500,190,450,640,2.3684,170,350,520,2.0588,160,310,470,1.9375,140,230,370,1.6429,110,160,270,1.4545,100,130,230,1.3,132,61
710,220,490,190,430,620,2.2632,170,330,500,1.9412,160,290,450,1.8125,150,220,370,1.4667,120,150,270,1.25,110,120,230,1.0909,132,60
720,220,500,200,440,640,2.2,180,340,520,1.8889,160,300,460,1.875,140,220,360,1.5714,120,160,280,1.3333,100,130,230,1.3,131,60
720,220,500,210,410,620,1.9524,180,320,500,1.7778,170,280,450,1.6471,140,200,340,1.4286,130,150,280,1.1538,110,120,230,1.0909,131,60
710,220,490,200,420,620,2.1,180,320,500,1.7778,170,280,450,1.6471,140,200,340,1.4286,130,150,280,1.1538,110,120,230,1.0909,130,60
720,220,500,200,410,610,2.05,170,320,490,1.8824,170,280,450,1.6471,140,210,350,1.5,130,140,270,1.0769,110,110,220,1.0,130,60
720,220,490,200,430,630,2.15,170,330,500,1.9412,170,290,460,1.7059,140,210,350,1.5,130,150,280,1.1538,110,120,230,1.0909,130,60
720,230,490,200,430,630,2.15,180,330,510,1.8333,170,290,460,1.7059,150,210,360,1.4,130,150,280,1.1538,110,120,230,1.0909,129,59
