RelativeTimeMilliseconds,ECG,ART,ART (Sys),ART (Dia),PPG
6474450,-0.03500,64.9375,112,61,0.61954
6474460,-0.30500,64.6250,112,61,0.60440
6474470,-0.31500,64.3125,112,61,0.58828
6474480,-0.28500,63.6250,112,61,0.55507
6474490,-0.26500,63.3125,112,61,0.53822
6474500,-0.26000,62.9375,112,61,0.52112
6474510,-0.25000,62.5625,112,61,0.50403
6474520,-0.24000,61.8125,112,61,0.47326
6474530,-0.23000,61.4375,112,61,0.46056
6474540,-0.22500,61.1250,112,61,0.44713
6474550,-0.21500,60.8125,112,61,0.43394
6474560,-0.21000,60.1875,112,61,0.40879
6474570,-0.20000,59.8750,112,61,0.39756
6474580,-0.19000,59.5625,112,61,0.38730
6474590,-0.18000,59.2500,112,61,0.37802
6474600,-0.17000,59.1875,112,61,0.36239
6474610,-0.17000,59.1875,112,61,0.36239
6474620,-0.14500,61.4375,112,61,0.35043
6474630,-0.12500,64.5625,112,61,0.34603
6474640,-0.10500,75.8750,112,61,0.33968
6474650,-0.08500,83.0000,112,61,0.33626
6474660,-0.06500,89.8125,112,61,0.33284
6474670,-0.04000,95.6875,112,61,0.32943
6474680,-0.02000,104.1875,112,61,0.32308
6474690,0.00000,107.0625,112,61,0.32015
6474700,0.02000,109.0625,112,61,0.31746
6474710,0.03500,110.1875,112,61,0.31477
6474720,0.05500,110.0625,112,61,0.30965
6474730,0.05500,110.0625,112,61,0.30965
6474740,0.09500,108.1250,112,61,0.30525
6474750,0.10000,106.8125,112,61,0.30232
6474760,0.07000,103.8750,112,61,0.29573
6474770,0.03500,102.2500,112,61,0.29231
6474780,-0.00500,100.6875,112,61,0.28864
6474790,-0.04500,99.1250,112,61,0.28523
6474800,-0.07000,96.1250,112,61,0.27790
6474810,-0.08500,94.6250,112,61,0.27399
6474820,-0.09500,93.1875,112,61,0.26984
6474830,-0.09500,91.8750,112,61,0.26691
6474840,-0.09000,89.1875,112,61,0.26154
6474850,-0.08500,87.8125,112,61,0.25763
6474860,-0.08000,86.3750,112,61,0.25348
6474870,-0.07500,84.8125,112,61,0.24933
6474880,-0.07500,81.3750,112,61,0.24176
6474890,-0.07000,79.4375,112,61,0.23907
6474900,-0.07000,77.5000,112,61,0.23736
6474910,-0.06500,75.6875,112,61,0.24005
6474920,-0.05500,72.8125,112,61,0.24933
6474930,-0.03500,71.6250,112,61,0.25836
6474940,-0.02500,70.6875,112,61,0.27326
6474950,-0.01500,69.8125,112,61,0.29402
6474960,0.00000,68.6875,112,61,0.35189
6474970,0.03000,68.3750,112,61,0.38730
6474980,0.04000,68.1875,112,61,0.42540
6474990,0.02500,68.0625,112,61,0.46422
6475000,-0.01500,68.1250,112,61,0.53944
6475010,-0.06500,68.2500,112,61,0.57387
6475020,-0.10000,68.3750,112,61,0.60464
6475030,-0.09500,68.4375,112,61,0.62833
6475040,-0.08500,68.5625,112,61,0.66569
6475050,-0.09500,68.6250,112,61,0.68181
6475060,-0.10000,68.6250,112,61,0.69451
6475070,-0.09500,68.5625,112,61,0.70354
6475080,-0.11500,68.3125,112,61,0.71966
6475090,-0.18000,68.0625,112,61,0.73236
6475100,-0.17000,67.8125,112,61,0.73602
6475110,0.14000,67.5000,112,61,0.73431
6475120,0.79500,66.9375,112,61,0.72210
6475130,1.41000,66.6250,112,61,0.71380
6475140,1.16000,66.3125,112,61,0.70427
6475150,0.32000,66.0000,112,61,0.69353
6475160,-0.21000,65.3750,112,61,0.66911
6475170,-0.31500,65.0625,112,61,0.65568
6475180,-0.28000,64.6875,112,61,0.64127
6475190,-0.25000,64.3125,112,61,0.62589
6475200,-0.24000,63.5625,112,61,0.59316
6475210,-0.23500,63.1250,112,61,0.57631
6475220,-0.23500,62.7500,112,61,0.55946
6475230,-0.23000,62.3125,112,61,0.54432
6475240,-0.23000,61.5625,112,61,0.51600
6475250,-0.22000,61.1875,112,61,0.50110
6475260,-0.21000,60.8750,112,61,0.48620
6475270,-0.20000,60.5625,112,61,0.47204
6475280,-0.19500,59.8750,112,61,0.44591
6475290,-0.19000,59.6250,112,61,0.43419
6475300,-0.18000,59.5000,112,61,0.42344
6475310,-0.17000,59.7500,112,61,0.41392
6475320,-0.15500,62.8750,112,61,0.39951
6475330,-0.14500,66.7500,112,61,0.39463
6475340,-0.12500,72.5000,112,61,0.38999
6475350,-0.10500,79.6875,112,61,0.38584
6475360,-0.08500,94.1250,112,61,0.37827
6475370,-0.05500,99.9375,112,61,0.37485
6475380,-0.03000,104.5000,112,61,0.37143
6475390,-0.00500,108.0625,112,61,0.36801
6475400,0.02000,112.4375,112,61,0.36142
6475410,0.04000,113.1875,112,61,0.35849
6475420,0.06000,113.1250,112,61,0.35653
6475430,0.08000,112.4375,112,61,0.35507
6475440,0.08000,112.4375,112,61,0.35507
6475450,0.11000,108.7500,112,61,0.34799
6475460,0.09500,107.3125,112,61,0.34481
6475470,0.06000,105.8125,112,61,0.34164
6475480,0.01500,102.8125,112,61,0.33480
6475490,-0.02500,101.3125,112,61,0.33138
6475500,-0.06000,99.8750,112,61,0.32796
6475510,-0.08000,98.4375,112,61,0.32454
6475520,-0.09500,95.7500,112,61,0.31868
6475530,-0.09500,94.3750,112,61,0.31673
6475540,-0.09500,93.0625,112,61,0.31380
6475550,-0.09500,91.7500,112,61,0.31013
6475560,-0.09500,88.9375,112,61,0.30208
6475570,-0.09500,87.3750,112,61,0.29768
6475580,-0.09500,85.6250,112,61,0.29353
6475590,-0.09500,83.6875,112,61,0.28987
6475600,-0.09000,79.6250,112,61,0.28547
6475610,-0.09000,77.6875,112,61,0.28669
6475620,-0.08500,75.9375,112,61,0.29060
6475630,-0.07000,74.4375,112,61,0.29792
6475640,-0.04500,72.1875,112,61,0.32747
6475650,-0.04000,71.3750,112,61,0.35092
6475660,-0.03500,70.7500,112,61,0.37998
6475670,-0.01000,70.3125,112,61,0.41368
6475680,0.00500,69.9375,112,61,0.49109
6475690,0.00000,69.9375,112,61,0.53187
6475700,-0.03500,69.9375,112,61,0.57216
6475710,-0.07000,70.0625,112,61,0.61026
6475720,-0.11500,70.3750,112,61,0.67179
6475730,-0.16000,70.5000,112,61,0.69304
6475740,-0.18500,70.6250,112,61,0.71355
6475750,-0.19000,70.7500,112,61,0.73162
6475760,-0.19000,70.6875,112,61,0.75726
6475770,-0.18000,70.5625,112,61,0.76532
6475780,-0.17500,70.4375,112,61,0.77021
6475790,-0.23000,70.3125,112,61,0.77241
6475800,-0.25500,69.8125,112,61,0.76874
6475810,-0.01000,69.4375,112,61,0.76361
6475820,0.61000,69.1250,112,61,0.75678
6475830,1.34000,68.7500,112,61,0.74872
6475840,1.35500,68.0625,112,61,0.72943
6475850,0.54500,67.6875,112,61,0.71819
6475860,-0.16000,67.3125,112,61,0.70598
6475870,-0.35000,66.9375,112,61,0.69280
6475880,-0.32000,66.1875,112,61,0.66398
6475890,-0.29000,65.8125,112,61,0.64811
6475900,-0.28000,65.5000,112,61,0.63126
6475910,-0.26500,65.1250,112,61,0.61392
6475920,-0.26000,64.3125,112,61,0.58071
6475930,-0.26000,63.9375,112,61,0.56190
6475940,-0.25500,63.5625,112,61,0.54408
6475950,-0.24000,63.1875,112,61,0.53138
6475960,-0.23000,62.5000,112,61,0.50354
6475970,-0.22000,62.0625,112,61,0.48987
6475980,-0.21500,61.6875,112,61,0.47692
6475990,-0.20500,61.3125,112,61,0.46471
6476000,-0.20000,60.9375,112,62,0.44274
6476010,-0.19000,61.3750,112,62,0.43321
6476020,-0.17500,62.7500,112,62,0.42589
6476030,-0.16000,65.6875,112,62,0.42002
6476040,-0.14500,77.0000,112,62,0.40830
6476050,-0.12500,84.5625,112,62,0.40317
6476060,-0.10500,92.0000,112,62,0.39853
6476070,-0.08000,98.5000,112,62,0.39463
6476080,-0.05500,108.0625,112,62,0.38755
6476090,-0.03000,111.1875,112,62,0.38462
6476100,-0.00500,113.4375,112,62,0.38169
6476110,0.01500,114.8125,112,62,0.37900
6476120,0.03000,115.1250,112,62,0.37387
6476130,0.05000,114.3750,112,62,0.37192
6476140,0.07000,113.2500,112,62,0.36947
6476150,0.08500,111.9375,112,62,0.36654
6476160,0.07000,109.0625,112,62,0.36068
6476170,0.04500,107.6250,112,62,0.35775
6476180,0.00000,106.2500,112,62,0.35507
6476190,-0.03500,104.8125,112,62,0.35214
6476200,-0.07500,102.0000,112,62,0.34530
6476210,-0.09500,100.6875,112,62,0.34164
6476220,-0.10500,99.3750,112,62,0.33895
6476230,-0.10500,98.1250,112,62,0.33651
6476240,-0.11000,95.5000,112,62,0.32918
6476250,-0.10500,94.1250,112,62,0.32503
6476260,-0.10500,92.7500,112,62,0.32088
6476270,-0.10000,91.2500,112,62,0.31673
6476280,-0.10000,87.7500,112,62,0.30842
6476290,-0.10000,85.8125,112,62,0.30476
6476300,-0.10000,83.8125,112,62,0.30208
6476310,-0.10000,81.8125,112,62,0.30134
6476320,-0.09500,78.3125,112,62,0.30867
6476330,-0.07500,76.8125,112,62,0.31746
6476340,-0.05500,75.5625,112,62,0.33162
6476350,-0.04500,74.5000,112,62,0.35165
6476360,-0.04500,72.9375,112,62,0.41050
6476370,-0.02500,72.5000,112,62,0.44689
6476380,0.00000,72.1875,112,62,0.48669
6476390,0.00500,71.9375,112,62,0.52796
6476400,-0.01500,71.8125,112,62,0.60806
6476410,-0.05000,71.8125,112,62,0.64420
6476420,-0.09500,71.9375,112,62,0.67253
6476430,-0.14000,72.0625,112,62,0.69524
6476440,-0.14000,72.0625,112,62,0.69524
6476450,-0.18000,72.3125,112,62,0.75385
6476460,-0.18000,72.2500,112,62,0.76728
6476470,-0.17000,72.1250,112,62,0.77753
6476480,-0.16500,71.6875,112,62,0.78852
6476490,-0.21000,71.4375,112,62,0.79023
6476500,-0.25500,71.1250,112,62,0.78950
6476510,-0.04500,70.7500,112,62,0.78681
6476520,0.57500,70.0000,112,62,0.77607
6476530,1.36500,69.6250,112,62,0.76825
6476540,1.50000,69.3125,112,62,0.75922
6476550,0.72000,68.8750,112,62,0.74896
6476560,-0.10000,68.1250,112,62,0.72576
6476570,-0.35500,67.7500,112,62,0.71282
6476580,-0.32500,67.4375,112,62,0.69939
6476590,-0.29000,67.0625,112,62,0.68523
6476600,-0.28000,66.3750,112,62,0.65397
6476610,-0.26500,66.0625,112,62,0.63761
6476620,-0.25500,65.7500,112,62,0.62222
6476630,-0.24500,65.4375,112,62,0.60757
6476640,-0.24000,64.6875,112,62,0.57607
6476650,-0.23000,64.3750,112,62,0.56020
6476660,-0.22000,64.0625,112,62,0.54457
6476670,-0.21000,63.7500,112,62,0.52991
6476680,-0.20000,63.0000,112,62,0.50281
6476690,-0.19000,62.6250,112,62,0.49035
6476700,-0.18500,62.3750,112,62,0.47912
6476710,-0.17000,62.5000,112,62,0.46886
6476720,-0.16000,65.6875,112,62,0.45250
6476730,-0.14500,69.6875,112,62,0.44664
6476740,-0.12500,75.5625,112,62,0.44029
6476750,-0.09500,82.6875,112,62,0.43370
6476760,-0.07500,97.3125,112,62,0.42222
6476770,-0.07500,97.3125,112,62,0.42222
6476780,-0.02000,108.0625,112,62,0.41270
6476790,0.01000,111.7500,112,62,0.40879
6476800,0.03000,116.4375,112,62,0.40244
6476810,0.05500,117.3750,112,62,0.39951
6476820,0.07500,117.4375,112,62,0.39731
6476830,0.09500,116.8750,112,62,0.39487
6476840,0.12000,114.4375,112,62,0.38828
6476850,0.13500,112.9375,112,62,0.38486
6476860,0.13000,111.3125,112,62,0.38120
6476870,0.10000,109.5625,112,62,0.37680
6476880,0.06000,106.3125,112,62,0.36777
6476890,0.02000,104.6875,112,62,0.36337
6476900,-0.01000,103.0625,112,62,0.35946
6476910,-0.03500,101.5000,112,62,0.35580
6476920,-0.05500,98.5625,112,62,0.34921
6476930,-0.06500,97.1250,112,62,0.34676
6476940,-0.07000,95.6875,112,62,0.34359
6476950,-0.07500,94.2500,112,62,0.34042
6476960,-0.07500,91.2500,112,62,0.33089
6476970,-0.07500,89.6250,112,62,0.32747
6476980,-0.07000,87.8125,112,62,0.32357
6476990,-0.07000,87.8125,112,62,0.32357
6477000,-0.07500,81.6875,112,61,0.31624
6477010,-0.07500,79.6250,112,61,0.31746
6477020,-0.07500,77.7500,112,61,0.32137
6477030,-0.06500,76.1875,112,61,0.32869
6477040,-0.04500,73.7500,112,61,0.35824
6477050,-0.01500,72.8750,112,61,0.38193
6477060,-0.01500,72.1875,112,61,0.41123
6477070,-0.00500,71.6875,112,61,0.44518
6477080,0.01000,71.1250,112,61,0.53236
6477090,0.03500,71.0625,112,61,0.57753
6477100,0.03000,71.0625,112,61,0.60928
6477110,-0.00500,71.1250,112,61,0.64249
6477120,-0.04500,71.3125,112,61,0.69280
6477130,-0.09000,71.3750,112,61,0.70598
6477140,-0.13000,71.3750,112,61,0.71160
6477150,-0.15500,71.3750,112,61,0.72186
6477160,-0.15500,71.2500,112,61,0.74066
6477170,-0.15000,71.0625,112,61,0.74676
6477180,-0.14000,70.8125,112,61,0.75043
6477190,-0.13500,70.5625,112,61,0.75140
6477200,-0.20000,70.0000,112,61,0.74628
6477210,-0.20000,69.6875,112,61,0.74066
6477220,0.14500,69.3750,112,61,0.73358
6477230,0.84500,69.0000,112,61,0.72503
6477240,1.45500,68.1875,112,61,0.70525
6477250,1.24000,67.8125,112,61,0.69377
6477260,0.34500,67.4375,112,61,0.68132
6477270,0.34500,67.4375,112,61,0.68132
6477280,-0.30000,66.3125,112,61,0.64005
6477290,-0.26000,65.9375,112,61,0.62466
6477300,-0.24000,65.5625,112,61,0.60855
6477310,-0.23000,65.1875,112,61,0.59194
6477320,-0.22000,64.5000,112,61,0.56142
6477330,-0.21000,64.1875,112,61,0.54505
6477340,-0.20500,63.8125,112,61,0.52821
6477350,-0.19500,63.4375,112,61,0.51160
6477360,-0.19000,62.6875,112,61,0.47961
6477370,-0.18000,62.2500,112,61,0.46447
6477380,-0.17000,61.8750,112,61,0.45006
6477390,-0.17000,61.8750,112,61,0.45006
6477400,-0.15500,60.7500,112,61,0.41441
6477410,-0.14500,60.6250,112,61,0.40488
6477420,-0.13500,60.9375,112,61,0.39756
6477430,-0.12000,62.0625,112,61,0.39194
6477440,-0.10500,68.8125,112,61,0.37875
6477450,-0.08500,74.7500,112,61,0.37241
6477460,-0.06500,81.9375,112,61,0.36777
6477470,-0.04500,89.2500,112,61,0.36313
6477480,-0.02000,101.3750,112,61,0.35458
6477490,0.00000,105.7500,112,61,0.35092
6477500,0.02000,109.1250,112,61,0.34750
6477510,0.04500,111.5625,112,61,0.34408
6477520,0.06000,113.6875,112,61,0.33944
6477530,0.08000,113.4375,112,61,0.33651
6477540,0.10000,112.6250,112,61,0.33284
6477550,0.12000,111.3750,112,61,0.32894
6477560,0.13000,108.3750,112,61,0.32088
6477570,0.13000,106.7500,112,61,0.31648
6477580,0.10000,105.1875,112,61,0.31233
6477590,0.06000,103.5625,112,61,0.30720
6477600,0.02000,100.3125,112,61,0.29841
6477610,-0.01500,98.7500,112,61,0.29573
6477620,-0.03500,97.1875,112,61,0.29231
6477630,-0.05500,95.6875,112,61,0.28962
6477640,-0.06500,92.8125,112,61,0.28449
6477650,-0.07000,91.3750,112,61,0.27985
6477660,-0.07500,89.8750,112,61,0.27473
6477670,-0.07500,88.2500,112,61,0.27106
6477680,-0.07500,84.7500,112,61,0.26154
6477690,-0.08000,82.8125,112,61,0.25690
6477700,-0.08000,80.8750,112,61,0.25348
6477710,-0.08000,78.8750,112,61,0.25226
6477720,-0.08000,75.4375,112,61,0.25470
6477730,-0.07500,74.0000,112,61,0.26081
6477740,-0.06500,72.8125,112,61,0.27448
6477750,-0.05000,71.8125,112,61,0.29280
6477760,-0.03500,70.4375,112,61,0.34530
6477770,-0.03000,70.0000,112,61,0.37827
6477780,-0.01500,69.7500,112,61,0.41465
6477790,0.01000,69.5625,112,61,0.45275
6477800,0.03000,69.5000,112,61,0.52821
6477810,0.02000,69.6250,112,61,0.55849
6477820,-0.02000,69.7500,112,61,0.58413
6477830,-0.06500,69.8750,112,61,0.60977
6477840,-0.11000,70.1250,112,61,0.65397
6477850,-0.14500,70.1875,112,61,0.67082
6477860,-0.16000,70.1875,112,61,0.68400
6477870,-0.16000,70.1250,112,61,0.69353
6477880,-0.15500,69.7500,112,61,0.70256
6477890,-0.14500,69.4375,112,61,0.70281
6477900,-0.14500,69.1250,112,61,0.70037
6477910,-0.20000,68.8125,112,61,0.69573
6477920,-0.20000,68.1250,112,61,0.68230
6477930,0.09000,67.7500,112,61,0.67350
6477940,0.73500,67.3750,112,61,0.66349
6477950,1.36500,67.0625,112,61,0.65226
6477960,1.19000,66.3750,112,61,0.62613
6477970,0.33500,66.0625,112,61,0.61148
6477980,-0.22500,65.7500,112,61,0.59609
6477990,-0.32000,65.4375,112,61,0.58022
6478000,-0.29000,64.7500,112,61,0.54725
6478010,-0.26500,64.3750,112,61,0.53211
6478020,-0.25500,64.0000,112,61,0.51819
6478030,-0.25000,63.6250,112,61,0.50305
6478040,-0.24500,62.8125,112,61,0.47131
6478050,-0.24500,62.3750,112,61,0.45592
6478060,-0.23500,61.9375,112,61,0.44127
6478070,-0.23000,61.5625,112,61,0.42735
6478080,-0.22500,60.8750,112,61,0.40195
6478090,-0.22000,60.5000,112,61,0.39072
6478100,-0.21000,60.1875,112,61,0.38071
6478110,-0.20000,59.8750,112,61,0.37289
6478120,-0.19000,59.7500,112,61,0.35995
6478130,-0.18000,60.1875,112,61,0.35360
6478140,-0.17000,61.5000,112,61,0.34823
6478150,-0.15500,64.1875,112,61,0.34310
6478160,-0.13500,74.8750,112,61,0.33431
6478170,-0.11500,82.1250,112,61,0.33065
6478180,-0.09000,89.3750,112,61,0.32747
6478190,-0.07000,95.6875,112,61,0.32454
6478200,-0.04500,104.9375,112,61,0.31917
6478210,-0.02000,108.0625,112,61,0.31722
6478220,0.00500,110.2500,112,61,0.31575
6478230,0.03000,111.5625,112,61,0.31355
6478240,0.05500,111.5000,112,61,0.30769
6478250,0.08000,110.5000,112,61,0.30452
6478260,0.11000,109.1875,112,61,0.30110
6478270,0.12000,107.6250,112,61,0.29792
6478280,0.11500,104.2500,112,61,0.29109
6478290,0.08500,102.5625,112,61,0.28791
6478300,0.04000,100.8750,112,61,0.28498
6478310,0.00000,99.2500,112,61,0.28278
6478320,-0.03500,95.8750,112,61,0.27790
6478330,-0.06000,94.3125,112,61,0.27424
6478340,-0.07500,92.7500,112,61,0.27057
6478350,-0.08500,91.2500,112,61,0.26667
6478360,-0.08500,88.3750,112,61,0.25861
6478370,-0.08500,86.9375,112,61,0.25421
6478380,-0.07500,85.3750,112,61,0.24982
6478390,-0.07500,85.3750,112,61,0.24982
6478400,-0.06000,80.0000,112,61,0.23810
6478410,-0.05000,78.0000,112,61,0.23663
6478420,-0.04500,76.1250,112,61,0.23687
6478430,-0.04500,76.1250,112,61,0.23687
6478440,-0.02500,71.6250,112,61,0.25055
6478450,-0.01500,70.5625,112,61,0.26300
6478460,0.00000,69.7500,112,61,0.28083
6478470,0.01500,69.0625,112,61,0.30427
6478480,0.02000,68.1875,112,61,0.36630
6478490,0.04000,68.0000,112,61,0.40269
6478500,0.06500,67.9375,112,61,0.44078
6478510,0.07000,68.0000,112,61,0.47424
6478520,0.04500,68.3125,112,61,0.53675
6478530,0.00000,68.5000,112,61,0.56777
6478540,-0.04500,68.6875,112,61,0.59585
6478550,-0.09000,68.9375,112,61,0.62076
6478560,-0.12000,69.1875,112,61,0.65885
6478570,-0.13500,69.2500,112,61,0.67204
6478580,-0.13500,69.1875,112,61,0.68132
6478590,-0.12500,69.0000,112,61,0.68718
6478600,-0.11500,68.5000,112,61,0.68938
6478610,-0.13500,68.1875,112,61,0.68645
6478620,-0.20000,67.8750,112,61,0.68156
6478630,-0.10500,67.5625,112,61,0.67521
6478640,0.32500,67.0000,112,61,0.65763
6478650,1.04500,66.6875,112,61,0.64713
6478660,1.46000,66.4375,112,61,0.63565
6478670,0.93500,66.1875,112,61,0.62295
6478680,0.11500,65.6250,112,61,0.59438
6478690,-0.24000,65.3125,112,61,0.57875
6478700,-0.27000,65.0000,112,61,0.56239
6478710,-0.24000,64.6250,112,61,0.54725
6478720,-0.22000,63.8750,112,61,0.51770
6478730,-0.21000,63.3750,112,61,0.50134
6478740,-0.20000,62.9375,112,61,0.48498
6478750,-0.19000,62.5000,112,61,0.46911
6478760,-0.18000,61.6250,112,61,0.43883
6478770,-0.17000,61.2500,112,61,0.42442
6478780,-0.17000,61.2500,112,61,0.42442
6478790,-0.14500,60.5000,112,61,0.39780
6478800,-0.13500,59.8125,112,61,0.37558
6478810,-0.12500,59.4375,112,61,0.36728
6478820,-0.11500,59.1875,112,61,0.36044
6478830,-0.10000,59.1250,112,61,0.35360
6478840,-0.08500,60.4375,112,61,0.34115
6478850,-0.06500,62.6250,112,61,0.33553
6478860,-0.04500,66.5625,112,61,0.33089
6478870,-0.02500,72.3125,112,61,0.32747
6478880,-0.00500,86.6250,112,61,0.32283
6478890,0.01000,93.1875,112,61,0.32088
6478900,0.04000,98.7500,112,61,0.31868
6478910,0.06500,103.1875,112,61,0.31722
6478920,0.06500,103.1875,112,61,0.31722
6478930,0.11000,111.1875,112,61,0.31184
6478940,0.12500,112.0000,112,61,0.30965
6478950,0.14500,112.0000,112,61,0.30720
6478960,0.16500,110.3750,112,61,0.30208
6478970,0.17500,109.0625,112,61,0.29890
6478980,0.17500,107.6875,112,61,0.29573
6478990,0.15500,106.1875,112,61,0.29255
6479000,0.11000,103.1875,112,61,0.28718
6479010,0.11000,103.1875,112,61,0.28718
6479020,0.02000,100.1250,112,61,0.28352
6479030,-0.00500,98.6250,112,61,0.28059
6479040,-0.02500,95.6250,112,61,0.27326
6479050,-0.04000,94.1250,112,61,0.26960
6479060,-0.04500,92.6875,112,61,0.26569
6479070,-0.04500,91.2500,112,61,0.26178
6479080,-0.04000,88.3750,112,61,0.25324
6479090,-0.04000,86.8125,112,61,0.24908
6479100,-0.03500,85.1875,112,61,0.24542
6479110,-0.03500,83.3125,112,61,0.24347
6479120,-0.04000,79.3750,112,61,0.24176
6479130,-0.04000,77.4375,112,61,0.24225
6479140,-0.03500,75.6875,112,61,0.24518
6479150,-0.03000,74.1250,112,61,0.25177
6479160,-0.01500,71.8750,112,61,0.27937
6479170,0.00000,71.0000,112,61,0.30403
6479180,0.01000,70.3125,112,61,0.33504
6479190,0.02000,69.8125,112,61,0.36825
6479200,0.05000,69.1875,112,61,0.43590
6479210,0.06500,69.0625,112,61,0.46667
6479220,0.06000,69.0000,112,61,0.50134
6479230,0.02000,69.0625,112,61,0.53626
6479240,-0.02000,69.1875,112,61,0.60049
6479250,-0.06500,69.3125,112,61,0.62759
6479260,-0.10500,69.4375,112,61,0.65055
6479270,-0.12500,69.5000,112,61,0.66960
6479280,-0.12500,69.5000,112,61,0.69524
6479290,-0.11500,69.4375,112,61,0.70256
6479300,-0.10500,69.3125,112,61,0.70672
6479310,-0.11000,69.1250,112,61,0.70745
6479320,-0.16000,68.6250,112,61,0.70256
6479330,-0.17000,68.3125,112,61,0.69792
6479340,0.10000,68.0000,112,61,0.69182
6479350,0.73000,67.6875,112,61,0.68425
6479360,1.39500,67.1250,112,61,0.66618
6479370,1.26000,66.8125,112,61,0.65543
6479380,0.44000,66.5000,112,61,0.64347
6479390,-0.13500,66.1875,112,61,0.63053
6479400,-0.27500,65.3750,112,61,0.60342
6479410,-0.25000,65.0000,112,61,0.59023
6479420,-0.23000,64.5625,112,61,0.57534
6479430,-0.22000,64.1875,112,61,0.55946
6479440,-0.22000,64.1875,112,61,0.55946
6479450,-0.20000,62.9375,112,61,0.51062
6479460,-0.19500,62.5625,112,61,0.49524
6479470,-0.18500,62.1250,112,61,0.48034
6479480,-0.17500,61.3750,112,61,0.45226
6479490,-0.17000,61.0000,112,61,0.43932
6479500,-0.16000,60.5625,112,61,0.42711
6479510,-0.15500,60.1875,112,61,0.41709
6479520,-0.14500,59.5000,112,61,0.39976
6479530,-0.13500,59.3750,112,61,0.39145
6479540,-0.12500,59.6875,112,61,0.38364
6479550,-0.11000,60.8125,112,61,0.37656
6479560,-0.07000,67.5625,112,61,0.36410
6479570,0.02000,73.6250,112,61,0.35897
6479580,0.06500,80.8750,112,61,0.35482
6479590,0.05000,88.3125,112,61,0.35092
6479600,0.07000,100.5625,112,61,0.34505
6479610,0.08000,105.0625,112,61,0.34286
6479620,0.07500,108.5625,112,61,0.34042
6479630,0.07000,111.1250,112,61,0.33797
6479640,0.07000,113.5625,112,61,0.33284
6479650,0.07000,113.5000,112,61,0.33016
6479660,0.08500,112.8750,112,61,0.32772
6479670,0.10000,111.8125,112,61,0.32503
6479680,0.11000,109.1875,112,61,0.31990
6479690,0.09000,107.8125,112,61,0.31673
6479700,0.06000,106.3750,112,61,0.31355
6479710,0.01500,104.8750,112,61,0.31087
6479720,0.00000,101.8125,112,61,0.30501
6479730,0.00500,100.3125,112,61,0.30134
6479740,-0.01500,98.8125,112,61,0.29744
6479750,-0.05000,97.3750,112,61,0.29377
6479760,-0.06500,94.5625,112,61,0.28694
6479770,-0.06500,93.1875,112,61,0.28327
6479780,-0.06500,91.8125,112,61,0.27985
6479790,-0.06000,90.3750,112,61,0.27643
6479800,-0.05000,87.3125,112,61,0.26960
6479810,-0.05500,85.6250,112,61,0.26740
6479820,-0.06000,83.6875,112,61,0.26471
6479830,-0.06500,81.6875,112,61,0.26276
6479840,-0.06500,81.6875,112,61,0.26276
6479850,-0.06500,76.1875,112,61,0.27057
6479860,-0.05500,74.8125,112,61,0.28132
6479870,-0.03500,73.6250,112,61,0.29744
6479880,-0.03000,71.8125,112,61,0.34725
6479890,-0.03000,71.1875,112,61,0.37973
6479900,-0.01000,70.6875,112,61,0.41538
6479910,0.01000,70.3750,112,61,0.44786
6479920,0.01000,70.1250,112,61,0.51331
6479930,-0.02000,70.1250,112,61,0.54799
6479940,-0.06500,70.1875,112,61,0.58095
6479950,-0.11500,70.3125,112,61,0.61148
6479960,-0.16000,70.5000,112,61,0.66252
6479970,-0.19000,70.5625,112,61,0.68254
6479980,-0.20000,70.6250,112,61,0.69817
6479990,-0.19500,70.6250,112,61,0.71013
6480000,-0.19000,70.4375,113,61,0.72259
6480010,-0.18500,70.2500,113,61,0.72332
6480020,-0.22500,70.0000,113,61,0.72283
6480030,-0.27000,69.7500,113,61,0.72039
6480040,-0.08000,69.0625,113,61,0.71038
6480050,0.50500,68.7500,113,61,0.70281
6480060,1.25000,68.4375,113,61,0.69377
6480070,1.37000,68.1875,113,61,0.68352
6480080,0.63000,67.6250,113,61,0.65983
6480090,-0.12000,67.2500,113,61,0.64664
6480100,-0.36500,66.9375,113,61,0.63272
6480110,-0.34500,66.6250,113,61,0.61954
6480120,-0.31500,65.8750,113,61,0.59170
6480130,-0.30000,65.5000,113,61,0.57656
6480140,-0.29000,65.1250,113,61,0.56117
6480150,-0.28000,64.7500,113,61,0.54554
6480160,-0.27000,64.0000,113,61,0.51380
6480170,-0.26000,63.6250,113,61,0.49841
6480180,-0.25000,63.2500,113,61,0.48327
6480190,-0.24000,62.8750,113,61,0.46838
6480200,-0.23000,62.1250,113,61,0.44298
6480210,-0.23000,62.1250,113,61,0.44298
6480220,-0.21000,61.3750,113,61,0.42344
6480230,-0.20000,61.1250,113,61,0.41392
6480240,-0.18500,61.8750,113,61,0.39658
6480250,-0.17000,63.6875,113,61,0.38926
6480260,-0.15500,67.1250,113,61,0.38217
6480270,-0.14000,72.4375,113,61,0.37582
6480280,-0.11500,86.6250,113,61,0.36557
6480290,-0.09000,93.7500,113,61,0.36166
6480300,-0.06000,99.9375,113,61,0.35800
6480310,-0.03500,104.9375,113,61,0.35556
6480320,-0.01000,111.9375,113,61,0.35140
6480330,0.01000,114.0625,113,61,0.34872
6480340,0.03000,115.3125,113,61,0.34579
6480350,0.05500,115.6250,113,61,0.34286
6480360,0.08000,114.4375,113,61,0.33675
6480370,0.10000,113.3125,113,61,0.33358
6480380,0.12000,111.9375,113,61,0.33040
6480390,0.11500,110.5000,113,61,0.32674
6480400,0.08500,107.5625,113,61,0.32063
6480410,0.04000,106.0625,113,61,0.31893
6480420,0.00000,104.6250,113,61,0.31624
6480430,-0.03500,103.1875,113,61,0.31331
6480440,-0.03500,103.1875,113,61,0.31331
6480450,-0.07500,99.0000,113,61,0.30403
6480460,-0.07500,97.5625,113,61,0.30085
6480470,-0.07500,96.1875,113,61,0.29719
6480480,-0.07500,93.3750,113,61,0.28962
6480490,-0.07500,91.8750,113,61,0.28571
6480500,-0.08000,90.2500,113,61,0.28205
6480510,-0.08500,88.5000,113,61,0.27985
6480520,-0.08500,84.6250,113,61,0.27692
6480530,-0.08500,82.5625,113,61,0.27692
6480540,-0.08500,80.5625,113,61,0.27912
6480550,-0.08500,78.7500,113,61,0.28474
6480560,-0.07500,75.7500,113,61,0.30940
6480570,-0.05500,74.5625,113,61,0.32918
6480580,-0.04000,73.5625,113,61,0.35458
6480590,-0.04500,72.7500,113,61,0.38486
6480600,-0.03000,71.7500,113,61,0.45079
6480610,-0.00500,71.4375,113,61,0.48156
6480620,0.00000,71.3125,113,61,0.51624
6480630,-0.02000,71.1875,113,61,0.55165
6480640,-0.05000,71.2500,113,61,0.61832
6480650,-0.08500,71.3750,113,61,0.64689
6480660,-0.13500,71.4375,113,61,0.67179
6480670,-0.17000,71.5625,113,61,0.69255
6480680,-0.18000,71.7500,113,61,0.72210
6480690,-0.18000,71.7500,113,61,0.73114
6480700,-0.17000,71.6875,113,61,0.73675
6480710,-0.17000,71.5625,113,61,0.73871
6480720,-0.20000,71.1250,113,61,0.73700
6480730,-0.27000,70.8125,113,61,0.73407
6480740,-0.11500,70.5625,113,61,0.72943
6480750,0.44000,70.2500,113,61,0.72332
6480760,1.23000,69.5000,113,61,0.70696
6480770,1.53500,69.1250,113,61,0.69695
6480780,0.89000,68.7500,113,61,0.68571
6480790,0.00500,68.4375,113,61,0.67375
6480800,-0.35000,67.7500,113,61,0.64835
6480810,-0.34000,67.4375,113,61,0.63565
6480820,-0.30500,67.0625,113,61,0.62173
6480830,-0.30500,67.0625,113,61,0.62173
6480840,-0.28000,66.0000,113,61,0.57509
6480850,-0.27000,65.5625,113,61,0.55873
6480860,-0.25500,65.1875,113,61,0.54212
6480870,-0.25000,64.8125,113,61,0.52527
6480880,-0.24000,64.0000,113,61,0.49280
6480890,-0.23000,63.5625,113,61,0.47790
6480900,-0.22000,63.1875,113,61,0.46545
6480910,-0.21000,62.7500,113,61,0.45446
6480920,-0.20000,61.8125,113,61,0.43248
6480930,-0.18500,61.6250,113,61,0.42222
6480940,-0.17000,62.0000,113,61,0.41294
6480950,-0.15500,63.2500,113,61,0.40464
6480960,-0.14000,70.4375,113,61,0.39170
6480970,-0.12500,76.6875,113,61,0.38657
6480980,-0.10000,84.1250,113,61,0.38193
6480990,-0.08000,91.8125,113,61,0.37778
6481000,-0.05500,104.6250,113,61,0.37094
6481010,-0.05500,104.6250,113,61,0.37094
6481020,-0.00500,112.5625,113,61,0.36508
6481030,0.01000,114.9375,113,61,0.36215
6481040,0.03500,117.0000,113,61,0.35702
6481050,0.05500,116.8125,113,61,0.35458
6481060,0.07500,116.0625,113,61,0.35214
6481070,0.10000,115.0000,113,61,0.34945
6481080,0.11500,112.2500,113,61,0.34359
6481090,0.11000,110.7500,113,61,0.34066
6481100,0.08500,109.1875,113,61,0.33871
6481110,0.04500,107.6250,113,61,0.33724
6481120,0.01000,104.5000,113,61,0.33162
6481130,-0.02500,103.0000,113,61,0.32796
6481140,-0.04500,101.5625,113,61,0.32430
6481150,-0.06500,100.0000,113,61,0.32088
6481160,-0.07500,97.0000,113,61,0.31453
6481170,-0.08000,95.5000,113,61,0.31136
6481180,-0.08500,93.9375,113,61,0.30818
6481190,-0.08500,92.2500,113,61,0.30476
6481200,-0.08500,88.6875,113,61,0.29841
6481210,-0.09000,86.7500,113,61,0.29621
6481220,-0.09000,84.6875,113,61,0.29133
6481230,-0.09000,82.5625,113,61,0.28596
6481240,-0.09000,78.4375,113,61,0.28669
6481250,-0.09000,76.6875,113,61,0.29353
6481260,-0.07500,75.1875,113,61,0.30549
6481270,-0.06000,74.0000,113,61,0.32332
6481280,-0.03000,72.2500,113,61,0.37656
6481290,-0.02000,71.6875,113,61,0.41026
6481300,-0.02000,71.3125,113,61,0.44225
6481310,0.00000,71.1250,113,61,0.47375
6481320,0.03000,70.9375,113,61,0.54676
6481330,0.03500,71.0000,113,61,0.58291
6481340,0.01000,71.0625,113,61,0.61661
6481350,-0.02500,71.1875,113,61,0.64689
6481360,-0.06500,71.3750,113,61,0.69524
6481370,-0.11500,71.4375,113,61,0.71331
6481380,-0.14000,71.4375,113,61,0.72747
6481390,-0.15000,71.3750,113,61,0.73797
6481400,-0.14500,71.0625,113,61,0.74799
6481410,-0.13500,70.8125,113,61,0.74750
6481420,-0.13000,70.5625,113,61,0.74579
6481430,-0.18000,70.1875,113,61,0.74261
6481440,-0.21500,69.4375,113,61,0.73114
6481450,0.04000,69.0625,113,61,0.72332
6481460,0.67000,68.6250,113,61,0.71429
6481470,1.40000,68.2500,113,61,0.70403
6481480,1.43500,67.4375,113,61,0.68059
6481490,0.59000,67.0000,113,61,0.66764
6481500,-0.12500,66.5625,113,61,0.65470
6481510,-0.29000,66.1250,113,61,0.64151
6481520,-0.26000,65.3125,113,61,0.61026
6481530,-0.23000,64.9375,113,61,0.59316
6481540,-0.23000,64.9375,113,61,0.59316
6481550,-0.20500,64.1875,113,61,0.55775
6481560,-0.19000,63.4375,113,61,0.52234
6481570,-0.18000,63.0625,113,61,0.50525
6481580,-0.17000,62.6875,113,61,0.48889
6481590,-0.15500,62.3750,113,61,0.47350
6481600,-0.14500,61.6875,113,61,0.44689
6481610,-0.13500,61.3750,113,61,0.43663
6481620,-0.12000,61.0000,113,61,0.42637
6481630,-0.10500,60.6875,113,61,0.41661
6481640,-0.09500,60.3125,113,61,0.39829
6481650,-0.07500,60.7500,113,61,0.39048
6481660,-0.06000,62.0625,113,61,0.38339
6481670,-0.04500,64.8750,113,61,0.37705
6481680,-0.02000,75.8750,113,61,0.36679
6481690,0.00000,83.3125,113,61,0.36239
6481700,0.03000,90.6875,113,61,0.35897
6481710,0.05500,97.1250,113,61,0.35629
6481720,0.08500,106.4375,113,61,0.35018
6481730,0.11000,109.5625,113,61,0.34652
6481740,0.14000,111.7500,113,61,0.34286
6481750,0.17000,113.0625,113,61,0.33895
6481760,0.22000,113.0000,113,61,0.33065
6481770,0.36500,111.9375,113,61,0.32674
6481780,0.57500,110.5000,113,61,0.32259
6481790,0.69500,108.9375,113,61,0.31868
6481800,0.76000,105.6250,113,61,0.31209
6481810,0.76500,103.9375,113,61,0.30989
6481820,0.73500,102.1875,113,61,0.30672
6481830,0.70000,100.5000,113,61,0.30281
6481840,0.65500,97.4375,113,61,0.29377
6481850,0.65500,97.4375,113,61,0.29377
6481860,0.59000,94.5000,113,61,0.28376
6481870,0.57000,93.0000,113,61,0.27888
6481880,0.55500,90.1875,113,61,0.26984
6481890,0.53500,88.7500,113,61,0.26569
6481900,0.51500,87.1875,113,61,0.26252
6481910,0.50500,85.5000,113,61,0.26032
6481920,0.48500,81.6875,113,61,0.25421
6481930,0.47500,79.6875,113,61,0.25128
6481940,0.45500,77.7500,113,61,0.24982
6481950,0.44000,75.9375,113,61,0.25031
6481960,0.42500,73.0000,113,61,0.26154
6481970,0.42000,71.9375,113,61,0.27448
6481980,0.42000,71.0625,113,61,0.29304
6481990,0.43500,70.3750,113,61,0.31722
6482000,0.44500,69.2500,113,61,0.37582
6482010,0.47000,68.9375,113,61,0.40513
6482020,0.56500,68.8125,113,61,0.43980
6482030,0.67500,68.8750,113,61,0.47643
6482040,0.67500,68.8750,113,61,0.47643
6482050,0.72000,69.3750,113,61,0.58022
6482060,0.68000,69.4375,113,61,0.60855
6482070,0.63000,69.4375,113,61,0.63297
6482080,0.57500,69.4375,113,61,0.66935
6482090,0.54000,69.4375,113,61,0.68132
6482100,0.52000,69.3750,113,61,0.68840
6482110,0.51500,69.1875,113,61,0.69182
6482120,0.50500,68.6250,113,61,0.69304
6482130,0.50500,68.3125,113,61,0.69060
6482140,0.45500,68.0625,113,61,0.68596
6482150,0.39000,67.8125,113,61,0.67961
6482160,0.53500,67.1875,113,61,0.66227
6482170,1.03000,66.8750,113,61,0.65177
6482180,1.74000,66.5625,113,61,0.63980
6482190,1.96500,66.2500,113,61,0.62686
6482200,1.24000,65.6250,113,61,0.60024
6482210,0.44500,65.3125,113,61,0.58706
6482220,0.18000,65.0000,113,61,0.57216
6482230,0.17000,64.6250,113,61,0.55629
6482240,0.18500,63.8750,113,61,0.52259
6482250,0.18500,63.4375,113,61,0.50501
6482260,0.17500,63.0625,113,61,0.48791
6482270,0.16500,62.6875,113,61,0.47106
6482280,0.15500,61.8750,113,61,0.43956
6482290,0.15500,61.4375,113,61,0.42466
6482300,0.14500,61.0000,113,61,0.41245
6482310,0.14500,60.6250,113,61,0.40195
6482320,0.13500,59.8750,113,61,0.37998
6482330,0.13500,59.4375,113,61,0.37021
6482340,0.13500,59.0625,113,61,0.36117
6482350,0.13500,58.7500,113,61,0.35311
6482360,0.13500,59.0000,113,61,0.33968
6482370,0.13500,60.1875,113,61,0.33455
6482380,0.14000,62.7500,113,61,0.32991
6482390,0.14500,67.0625,113,61,0.32552
6482400,0.15500,80.1875,113,61,0.31917
6482410,0.17000,87.3125,113,61,0.31746
6482420,0.18500,93.6875,113,61,0.31526
6482430,0.20000,98.8750,113,61,0.31233
6482440,0.21500,106.0625,113,61,0.30623
6482450,0.23000,108.3125,113,61,0.30281
6482460,0.24500,109.6250,113,61,0.29963
6482470,0.25500,110.0625,113,61,0.29621
6482480,0.27000,108.7500,113,61,0.29011
6482490,0.29000,107.3750,113,61,0.28669
6482500,0.30000,105.8750,113,61,0.28400
6482510,0.29000,104.3750,113,61,0.28205
6482520,0.26000,101.1875,113,61,0.27521
6482530,0.21500,99.5625,113,61,0.27131
6482540,0.16000,98.0000,113,61,0.26764
6482550,0.11500,96.4375,113,61,0.26374
6482560,0.08000,93.4375,113,61,0.25617
6482570,0.05500,92.0000,113,61,0.25226
6482580,0.05500,92.0000,113,61,0.25226
6482590,0.03000,89.2500,113,61,0.24493
6482600,0.02000,86.3125,113,61,0.24029
6482610,0.02000,84.7500,113,61,0.23687
6482620,0.01500,83.0625,113,61,0.23272
6482630,0.01500,81.2500,113,61,0.22857
6482640,0.01000,77.3125,113,61,0.22125
6482650,0.00500,75.4375,113,61,0.21905
6482660,0.00000,73.7500,113,61,0.21856
6482670,0.00000,72.3125,113,61,0.22125
6482680,0.00000,70.1250,113,61,0.23932
6482690,0.01500,69.2500,113,61,0.25592
6482700,0.02000,68.5625,113,61,0.27497
6482710,0.02000,68.1250,113,61,0.29695
6482720,0.03000,67.6250,113,61,0.35849
6482730,0.06000,67.5625,113,61,0.39487
6482740,0.07500,67.5625,113,61,0.43272
6482750,0.06000,67.6875,113,61,0.47033
6482760,0.01500,67.8750,113,61,0.54017
6482770,-0.03500,68.0000,113,61,0.57070
6482780,-0.09000,68.0625,113,61,0.59731
6482790,-0.13500,68.1250,113,61,0.61978
6482800,-0.15500,68.0625,113,61,0.64713
6482810,-0.16000,68.0000,113,61,0.65665
6482820,-0.16000,67.8750,113,61,0.66349
6482830,-0.15000,67.7500,113,61,0.66764
6482840,-0.15000,67.7500,113,61,0.66764
6482850,-0.21000,66.9375,113,61,0.66471
6482860,-0.22000,66.6875,113,61,0.65958
6482870,0.05000,66.3750,113,61,0.65275
6482880,0.69000,65.8125,113,61,0.63468
6482890,1.35500,65.4375,113,61,0.62418
6482900,1.20500,65.1250,113,61,0.61343
6482910,0.37000,64.7500,113,61,0.60269
6482920,-0.20500,64.0625,113,61,0.57656
6482930,-0.34500,63.6875,113,61,0.56190
6482940,-0.31500,63.3750,113,61,0.54628
6482950,-0.29500,63.0000,113,61,0.53016
6482960,-0.29000,62.1875,113,61,0.49670
6482970,-0.28500,61.8125,113,61,0.48010
6482980,-0.28000,61.4375,113,61,0.46398
6482990,-0.27000,61.0625,113,61,0.44860
6483000,-0.26500,60.3125,113,61,0.42418
6483010,-0.26000,59.9375,113,61,0.41197
6483020,-0.25500,59.6250,113,61,0.40024
6483030,-0.24500,59.3125,113,61,0.38901
6483040,-0.24000,58.5625,113,61,0.36899
6483050,-0.24000,58.5625,113,61,0.36899
6483060,-0.22500,58.1250,113,61,0.35263
6483070,-0.21000,58.3750,113,61,0.34554
6483080,-0.20000,61.4375,113,61,0.33431
6483090,-0.18500,65.1875,113,61,0.32991
6483100,-0.17000,70.8125,113,61,0.32674
6483110,-0.14500,77.6875,113,61,0.32430
6483120,-0.12500,91.5000,113,61,0.31868
6483130,-0.09500,97.0000,113,61,0.31600
6483140,-0.07500,101.5000,113,61,0.31355
6483150,-0.05500,105.0000,113,61,0.31136
6483160,-0.04000,109.3125,113,61,0.30696
6483170,-0.02000,110.0625,113,61,0.30501
6483180,0.00000,110.0000,113,61,0.30305
6483190,0.02500,109.3125,113,61,0.30061
6483200,0.05000,106.9375,113,61,0.29719
6483210,0.06000,105.5000,113,61,0.29475
6483220,0.05000,104.0625,113,61,0.29182
6483230,0.02000,102.5000,113,61,0.28864
6483240,-0.02500,99.3750,113,61,0.28107
6483250,-0.07000,97.8125,113,61,0.27717
6483260,-0.10500,96.2500,113,61,0.27350
6483270,-0.13000,94.7500,113,61,0.27717
6483280,-0.13000,94.7500,113,61,0.27717
6483290,-0.15500,90.5625,113,61,0.28571
6483300,-0.16000,89.1875,113,61,0.28474
6483310,-0.16000,87.7500,113,61,0.28352
6483320,-0.15500,84.6875,113,61,0.27766
6483330,-0.15500,82.9375,113,61,0.27424
6483340,-0.15500,81.0625,113,61,0.27057
6483350,-0.15500,79.0625,113,61,0.26740
6483360,-0.15500,75.2500,113,61,0.26398
6483370,-0.15500,73.5625,113,61,0.26569
6483380,-0.15500,72.1875,113,61,0.27057
6483390,-0.14000,71.0625,113,61,0.27985
6483400,-0.12000,69.3125,113,61,0.30794
6483410,-0.10500,68.6875,113,61,0.32991
6483420,-0.10000,68.2500,113,61,0.35726
6483430,-0.07500,67.8750,113,61,0.38901
6483440,-0.04500,67.5625,113,61,0.46007
6483450,-0.04500,67.5000,113,61,0.49670
6483460,-0.07000,67.6250,113,61,0.53236
6483470,-0.11500,67.6875,113,61,0.56606
6483480,-0.15500,67.9375,113,61,0.62393
6483490,-0.20000,68.0000,113,61,0.64713
6483500,-0.23000,68.0000,113,61,0.66398
6483510,-0.24000,68.0625,113,61,0.67595
6483520,-0.24000,67.9375,113,61,0.69451
6483530,-0.23000,67.8125,113,61,0.69963
6483540,-0.22000,67.6250,113,61,0.70232
6483550,-0.24000,67.4375,113,61,0.70256
6483560,-0.30000,66.9375,113,61,0.69695
6483570,-0.19500,66.6250,113,61,0.69158
6483580,0.26500,66.3750,113,61,0.68474
6483590,0.98500,66.0625,113,61,0.67643
6483600,0.98500,66.0625,113,61,0.67643
6483610,0.78500,65.1875,113,61,0.64786
6483620,-0.02500,64.8750,113,61,0.63614
6483630,-0.36500,64.5000,113,61,0.62369
6483640,-0.37500,63.7500,113,61,0.59658
6483650,-0.34500,63.3750,113,61,0.58193
6483660,-0.32500,63.0625,113,61,0.56703
6483670,-0.31500,62.6875,113,61,0.55214
6483680,-0.31500,61.9375,113,61,0.52186
6483690,-0.30000,61.5625,113,61,0.50696
6483700,-0.29500,61.2500,113,61,0.49402
6483710,-0.29000,60.9375,113,61,0.48230
6483720,-0.28000,60.2500,113,61,0.45739
6483730,-0.27500,59.8750,113,61,0.44518
6483740,-0.27000,59.5000,113,61,0.43370
6483750,-0.27000,59.5000,113,61,0.43370
6483760,-0.25000,58.6875,113,61,0.40513
6483770,-0.24000,58.8750,113,61,0.39756
6483780,-0.22500,59.8750,113,61,0.39072
6483790,-0.21000,62.0625,113,61,0.38437
6483800,-0.19500,71.7500,113,61,0.37607
6483810,-0.18000,78.7500,113,61,0.37216
6483820,-0.16000,86.1250,113,61,0.36801
6483830,-0.16000,86.1250,113,61,0.36801
6483840,-0.11500,102.7500,113,61,0.35824
6483850,-0.09500,106.1250,113,61,0.35556
6483860,-0.07500,108.6875,113,61,0.35311
6483870,-0.05000,110.3750,113,61,0.35043
6483880,-0.03000,111.1250,113,61,0.34505
6483890,-0.01000,110.5000,113,61,0.34188
6483900,0.01000,109.4375,113,61,0.33968
6483910,0.03000,108.1250,113,61,0.33773
6483920,0.03000,105.3125,113,61,0.33309
6483930,0.01000,103.8125,113,61,0.33040
6483940,-0.02500,102.3125,113,61,0.32747
6483950,-0.06500,100.8125,113,61,0.32454
6483960,-0.11000,97.8750,113,61,0.31819
6483970,-0.13500,96.3750,113,61,0.31477
6483980,-0.15500,95.0000,113,61,0.31136
6483990,-0.16000,93.5625,113,61,0.30794
6484000,-0.16500,90.8750,113,61,0.30330
6484010,-0.16500,89.5000,113,61,0.30061
6484020,-0.16500,88.1250,113,61,0.29744
6484030,-0.16000,86.6875,113,61,0.29377
6484040,-0.16000,83.4375,113,61,0.28547
6484050,-0.15500,81.6250,113,61,0.28181
6484060,-0.15500,79.6875,113,61,0.27888
6484070,-0.15500,77.8125,113,61,0.27790
6484080,-0.15500,77.8125,113,61,0.27790
6484090,-0.14500,73.3125,113,61,0.29328
6484100,-0.12500,72.2500,113,61,0.30501
6484110,-0.10500,71.3125,113,61,0.32039
6484120,-0.10000,69.9375,113,61,0.36947
6484130,-0.08500,69.5000,113,61,0.40122
6484140,-0.06500,69.2500,113,61,0.43590
6484150,-0.05000,69.1250,113,61,0.47228
6484160,-0.06500,69.0625,113,61,0.54457
6484170,-0.10500,69.1250,113,61,0.57778
6484180,-0.15000,69.2500,113,61,0.60806
6484190,-0.20000,69.3125,113,61,0.63468
6484200,-0.24000,69.5000,113,61,0.67057
6484210,-0.25000,69.5625,113,61,0.68523
6484220,-0.25000,69.5625,113,61,0.69768
6484230,-0.24000,69.5000,113,61,0.70745
6484240,-0.23500,69.1250,113,61,0.71844
6484250,-0.24000,68.8750,113,61,0.71966
6484260,-0.30000,68.6250,113,61,0.71868
6484270,-0.28000,68.3125,113,61,0.71551
6484280,0.07000,67.6875,113,61,0.70379
6484290,0.76000,67.3750,113,61,0.69597
6484300,1.36500,67.0000,113,61,0.68718
6484310,1.10500,66.6875,113,61,0.67741
6484320,0.21500,65.9375,113,61,0.65519
6484330,-0.33000,65.6250,113,61,0.64298
6484340,-0.41000,65.2500,113,61,0.63004
6484350,-0.37500,64.9375,113,61,0.61612
6484360,-0.35000,64.2500,113,61,0.58706
6484370,-0.34000,63.8750,113,61,0.57192
6484380,-0.33000,63.5625,113,61,0.55653
6484390,-0.32000,63.2500,113,61,0.54090
6484400,-0.31500,62.5625,113,61,0.51429
6484410,-0.30000,62.1875,113,61,0.50061
6484420,-0.29500,61.8125,113,61,0.48718
6484430,-0.28500,61.4375,113,61,0.47424
6484440,-0.28500,61.4375,113,61,0.47424
6484450,-0.27000,60.3125,113,61,0.44029
6484460,-0.26000,60.0000,113,61,0.43053
6484470,-0.25000,60.0000,113,61,0.42125
6484480,-0.23500,61.8125,113,61,0.40537
6484490,-0.22000,64.6875,113,61,0.39951
6484500,-0.21000,69.5000,113,61,0.39512
6484510,-0.19000,76.0000,113,61,0.39072
6484520,-0.17500,90.9375,113,61,0.38242
6484530,-0.15000,97.3750,113,61,0.37875
6484540,-0.12500,102.5625,113,61,0.37534
6484550,-0.10500,106.6875,113,61,0.37216
6484560,-0.08000,112.0000,113,61,0.36654
6484570,-0.05500,113.3125,113,61,0.36386
6484580,-0.03500,113.6875,113,61,0.36093
6484590,-0.01500,113.3750,113,61,0.35824
6484600,0.00000,111.3125,113,61,0.35482
6484610,0.02000,109.9375,113,61,0.35287
6484620,0.03000,108.4375,113,61,0.35043
6484630,0.03000,108.4375,113,61,0.35043
6484640,-0.02500,103.8125,113,61,0.34042
6484650,-0.06500,102.2500,113,61,0.33724
6484660,-0.11000,100.7500,113,61,0.33407
6484670,-0.14500,99.3125,113,61,0.33065
6484680,-0.16000,96.5625,113,61,0.32405
6484690,-0.17500,95.1875,113,61,0.32186
6484700,-0.18000,93.8750,113,61,0.31990
6484710,-0.18000,92.5000,113,61,0.31722
6484720,-0.18500,89.8125,113,61,0.31038
6484730,-0.18500,88.3750,113,61,0.30672
6484740,-0.18500,86.7500,113,61,0.30330
6484750,-0.18500,84.9375,113,61,0.29988
6484760,-0.18500,81.0000,113,61,0.29524
6484770,-0.18500,79.0625,113,61,0.29573
6484780,-0.18500,77.3125,113,61,0.29890
6484790,-0.17500,75.8125,113,61,0.30598
6484800,-0.15500,73.3750,113,61,0.32869
6484810,-0.13000,72.3750,113,61,0.34799
6484820,-0.12000,71.6250,113,61,0.37289
6484830,-0.11500,71.0625,113,61,0.40293
6484840,-0.09500,70.5000,113,61,0.47277
6484850,-0.09500,70.5000,113,61,0.47277
6484860,-0.07500,70.3125,113,61,0.54701
6484870,-0.10000,70.3125,113,61,0.58193
6484880,-0.13500,70.5000,113,61,0.64347
6484890,-0.18000,70.6250,113,61,0.66520
6484900,-0.22000,70.7500,113,61,0.68181
6484910,-0.24500,70.8125,113,61,0.69744
6484920,-0.24500,70.8125,113,61,0.69744
6484930,-0.24500,70.7500,113,61,0.72869
6484940,-0.23500,70.6250,113,61,0.73382
6484950,-0.23000,70.4375,113,61,0.73651
6484960,-0.30000,69.9375,113,61,0.73480
6484970,-0.31000,69.6250,113,61,0.73089
6484980,0.01500,69.3125,113,61,0.72527
6484990,0.72000,69.0000,113,61,0.71795
6485000,1.42000,68.3750,113,61,0.70037
6485010,1.33500,68.0000,113,61,0.69011
6485020,0.42000,67.6875,113,61,0.67937
6485030,-0.27000,67.3125,113,61,0.66789
6485040,-0.27000,67.3125,113,61,0.66789
6485050,-0.37500,66.3125,113,61,0.62906
6485060,-0.35000,66.0000,113,61,0.61465
6485070,-0.34000,65.6875,113,61,0.59976
6485080,-0.33000,65.0625,113,61,0.56972
6485090,-0.33000,65.0625,113,61,0.56972
6485100,-0.31000,64.3750,113,61,0.54359
6485110,-0.30500,64.0000,113,61,0.52991
6485120,-0.30000,63.1875,113,61,0.50208
6485130,-0.30000,63.1875,113,61,0.50208
6485140,-0.28000,62.3750,113,61,0.47692
6485150,-0.27000,61.9375,113,61,0.46545
6485160,-0.26500,61.3125,113,61,0.44542
6485170,-0.25000,61.4375,113,61,0.43663
6485180,-0.23500,62.3125,113,61,0.42882
6485190,-0.23500,62.3125,113,61,0.42882
6485200,-0.20500,74.1875,113,61,0.41197
6485210,-0.18500,81.3125,113,61,0.40757
6485220,-0.16500,88.8750,113,61,0.40317
6485230,-0.14000,95.8750,113,61,0.39927
6485240,-0.11500,106.6875,113,61,0.39316
6485250,-0.09000,110.4375,113,61,0.39048
6485260,-0.06500,113.1875,113,61,0.38779
6485270,-0.04000,114.9375,113,61,0.38535
6485280,-0.02000,115.8125,113,61,0.38046
6485290,0.00000,115.1875,113,61,0.37827
6485300,0.02000,114.1875,113,61,0.37631
6485310,0.04500,112.8750,113,61,0.37387
6485320,0.06000,109.8125,113,61,0.36337
6485330,0.05000,108.1875,113,61,0.35873
6485340,0.02000,106.5000,113,61,0.35482
6485350,-0.02000,104.8125,113,61,0.35116
6485360,-0.06500,101.6250,113,61,0.34408
6485370,-0.09500,100.1250,113,61,0.34017
6485380,-0.11500,98.6875,113,61,0.33626
6485390,-0.13000,97.1875,113,61,0.33260
6485400,-0.14000,94.2500,113,61,0.32821
6485410,-0.14500,92.7500,113,61,0.32552
6485420,-0.15000,91.1875,113,61,0.32259
6485430,-0.15000,91.1875,113,61,0.32259
6485440,-0.15000,86.1875,113,61,0.31062
6485450,-0.15000,84.2500,113,61,0.30696
6485460,-0.15000,82.2500,113,61,0.30427
6485470,-0.15000,80.3125,113,61,0.30354
6485480,-0.15000,76.7500,113,61,0.31136
6485490,-0.14500,75.3750,113,61,0.31990
6485500,-0.13000,74.1875,113,61,0.33211
6485510,-0.10500,73.2500,113,61,0.35018
6485520,-0.08000,71.7500,113,61,0.40317
6485530,-0.07500,71.2500,113,61,0.43639
6485540,-0.07000,70.9375,113,61,0.47277
6485550,-0.04500,70.7500,113,61,0.51087
6485560,-0.03000,70.6250,113,61,0.58608
6485570,-0.04000,70.6875,113,61,0.62100
6485580,-0.07500,70.8125,113,61,0.65275
6485590,-0.11500,70.9375,113,61,0.68083
6485600,-0.16500,71.0625,113,61,0.71722
6485610,-0.20000,71.1250,113,61,0.73162
6485620,-0.21000,71.1250,113,61,0.74359
6485630,-0.21000,71.0000,113,61,0.75263
6485640,-0.20500,70.6250,113,61,0.76117
6485650,-0.19500,70.3750,113,61,0.76190
6485660,-0.22000,70.0000,113,61,0.76044
6485670,-0.29000,69.6250,113,61,0.75678
6485680,-0.18500,68.8125,113,61,0.74383
6485690,0.28500,68.3750,113,61,0.73529
6485700,1.05500,68.0000,113,61,0.72625
6485710,1.51500,67.5625,113,61,0.71624
6485720,0.95000,66.8125,113,61,0.69328
6485730,0.04000,66.4375,113,61,0.68010
6485740,-0.34000,66.0625,113,61,0.66593
6485750,-0.35000,65.6875,113,61,0.65079
6485760,-0.31500,65.0000,113,61,0.61832
6485770,-0.30000,64.6250,113,61,0.60147
6485780,-0.29500,64.3125,113,61,0.58462
6485790,-0.29000,63.9375,113,61,0.56825
6485800,-0.28000,63.1875,113,61,0.54042
6485810,-0.27000,62.7500,113,61,0.52650
6485820,-0.26500,62.3750,113,61,0.51233
6485830,-0.25500,61.9375,113,61,0.49817
6485840,-0.25000,61.1250,113,61,0.47228
6485850,-0.24000,60.6875,113,61,0.46056
6485860,-0.23500,60.3125,113,61,0.44982
6485870,-0.22500,60.0625,113,61,0.43980
6485880,-0.21000,60.3750,113,61,0.42222
6485890,-0.20000,61.6875,113,61,0.41563
6485900,-0.18500,64.3750,113,61,0.41026
6485910,-0.17000,68.8750,113,61,0.40488
6485920,-0.15500,82.3125,113,61,0.39560
6485930,-0.13000,89.6875,113,61,0.39170
6485940,-0.10500,96.1875,113,61,0.38852
6485950,-0.08000,101.5625,113,61,0.38535
6485960,-0.06000,108.8125,113,61,0.37827
6485970,-0.03500,111.0000,113,61,0.37460
6485980,-0.01500,112.3750,113,61,0.37094
6485990,0.00000,112.8750,113,61,0.36752
6486000,0.02000,111.6875,112,61,0.36264
6486010,0.05000,110.3750,112,61,0.35897
6486020,0.07000,108.8125,112,61,0.35507
6486030,0.08000,107.1875,112,61,0.35092
6486040,0.06000,103.7500,112,61,0.34310
6486050,0.03000,102.0000,112,61,0.33919
6486060,-0.01000,100.2500,112,61,0.33529
6486070,-0.04500,98.5625,112,61,0.33114
6486080,-0.07500,95.3125,112,61,0.32283
6486090,-0.09500,93.7500,112,61,0.31966
6486100,-0.11000,92.1875,112,61,0.31673
6486110,-0.11500,90.6250,112,61,0.31331
6486120,-0.12000,87.5000,112,61,0.30501
6486130,-0.12000,85.8750,112,61,0.30012
6486140,-0.12000,84.1250,112,61,0.29524
6486150,-0.12000,82.2500,112,61,0.29060
6486160,-0.12500,78.3125,112,61,0.28278
6486170,-0.12500,76.3750,112,61,0.28059
6486180,-0.12500,74.5625,112,61,0.28034
6486190,-0.12500,72.9375,112,61,0.28254
6486200,-0.12000,70.5625,112,61,0.29719
6486210,-0.10500,69.7500,112,61,0.31111
6486220,-0.08000,69.1250,112,61,0.33040
6486230,-0.06500,68.7500,112,61,0.35507
6486240,-0.06000,68.3750,112,61,0.41758
6486250,-0.03500,68.3750,112,61,0.45324
6486260,-0.00500,68.4375,112,61,0.49035
6486270,0.00500,68.5625,112,61,0.52723
6486280,-0.02000,69.0000,112,61,0.59512
6486290,-0.06500,69.1875,112,61,0.62076
6486300,-0.11000,69.3125,112,61,0.64127
6486310,-0.15500,69.3750,112,61,0.66129
6486320,-0.18000,69.3750,112,61,0.69304
6486330,-0.19000,69.2500,112,61,0.70379
6486340,-0.19000,69.1250,112,61,0.71111
6486350,-0.18000,68.8750,112,61,0.71502
6486360,-0.17500,68.3125,112,61,0.71477
6486370,-0.19500,68.0000,112,61,0.71136
6486380,-0.25500,67.6250,112,61,0.70549
6486390,-0.15500,67.2500,112,61,0.69817
6486400,0.19500,66.5000,112,61,0.67961
6486410,0.90500,66.1875,112,61,0.66813
6486420,1.41500,65.8750,112,61,0.65568
6486430,0.96500,65.5625,112,61,0.64225
6486440,0.11500,64.8750,112,61,0.61319
6486450,-0.29500,64.5000,112,61,0.59780
6486460,-0.34000,64.1875,112,61,0.58169
6486470,-0.30500,63.8750,112,61,0.56532
6486480,-0.28500,63.1250,112,61,0.53138
6486490,-0.28000,62.7500,112,61,0.51624
6486500,-0.27000,62.3750,112,61,0.50232
6486510,-0.27000,62.0000,112,61,0.48767
6486520,-0.26000,61.1875,112,61,0.45885
6486530,-0.25500,60.8125,112,61,0.44518
6486540,-0.24500,60.4375,112,61,0.43248
6486550,-0.24000,60.0625,112,61,0.42076
6486560,-0.23000,59.4375,112,61,0.40049
6486570,-0.22500,59.1250,112,61,0.39219
6486580,-0.21000,58.9375,112,61,0.38486
6486590,-0.20000,58.9375,112,61,0.37949
6486600,-0.19000,60.5625,112,61,0.37094
6486610,-0.18000,63.1250,112,61,0.36679
6486620,-0.16000,67.4375,112,61,0.36313
6486630,-0.14500,73.5000,112,61,0.35971
6486640,-0.12500,87.6875,112,61,0.35311
6486650,-0.10500,93.9375,112,61,0.35018
6486660,-0.08500,99.0625,112,61,0.34750
6486670,-0.06000,103.0625,112,61,0.34481
6486680,-0.04000,108.1875,112,61,0.33944
6486690,-0.01500,109.3750,112,61,0.33773
6486700,0.00000,109.5625,112,61,0.33602
6486710,0.02000,109.0000,112,61,0.33333
6486720,0.04500,106.6250,112,61,0.32698
6486730,0.07000,105.1250,112,61,0.32381
6486740,0.08000,103.5625,112,61,0.32039
6486750,0.06500,101.9375,112,61,0.31648
6486760,0.03000,98.7500,112,61,0.30867
6486770,-0.01500,97.1875,112,61,0.30476
6486780,-0.05500,95.6875,112,61,0.30110
6486790,-0.09500,94.1875,112,61,0.29841
6486800,-0.11000,91.2500,112,61,0.29377
6486810,-0.12000,89.8125,112,61,0.29060
6486820,-0.12500,88.3125,112,61,0.28718
6486830,-0.12500,86.8750,112,61,0.28376
6486840,-0.12500,86.8750,112,61,0.28376
6486850,-0.12500,81.9375,112,61,0.27155
6486860,-0.12000,80.1250,112,61,0.26764
6486870,-0.12000,78.1875,112,61,0.26398
6486880,-0.12500,74.3125,112,61,0.25910
6486890,-0.12500,72.6250,112,61,0.25910
6486900,-0.12500,71.1875,112,61,0.26154
6486910,-0.12000,70.0000,112,61,0.26667
6486920,-0.10500,68.1875,112,61,0.28864
6486930,-0.08500,67.5625,112,61,0.30769
6486940,-0.07500,67.1250,112,61,0.33211
6486950,-0.06500,66.8750,112,61,0.36142
6486960,-0.04000,66.7500,112,61,0.43028
6486970,-0.01500,66.8125,112,61,0.46691
6486980,-0.01500,66.9375,112,61,0.50330
6486990,-0.05000,67.1250,112,61,0.53382
6487000,-0.09500,67.5000,112,61,0.58730
6487010,-0.14000,67.6875,112,61,0.61245
6487020,-0.18000,67.8125,112,61,0.63468
6487030,-0.20500,67.8125,112,61,0.65348
6487040,-0.21000,67.7500,112,61,0.68010
6487050,-0.20500,67.5625,112,61,0.68791
6487060,-0.19000,67.3750,112,61,0.69231
6487070,-0.18500,67.1250,112,61,0.69353
6487080,-0.22000,66.5625,112,61,0.68913
6487090,-0.26500,66.2500,112,61,0.68400
6487100,-0.09500,65.9375,112,61,0.67741
6487110,0.44000,65.6250,112,61,0.66935
6487120,1.17000,65.0625,112,61,0.64933
6487130,1.34500,64.7500,112,61,0.63761
6487140,0.64000,64.4375,112,61,0.62515
6487150,-0.10000,64.1250,112,61,0.61148
6487160,-0.34500,63.5625,112,61,0.58144
6487170,-0.33000,63.2500,112,61,0.56532
6487180,-0.30500,62.9375,112,61,0.54896
6487190,-0.29000,62.5625,112,61,0.53455
6487200,-0.28000,61.8750,112,61,0.50623
6487210,-0.28000,61.8750,112,61,0.50623
6487220,-0.26000,61.1250,112,61,0.47521
6487230,-0.25000,60.7500,112,61,0.46007
6487240,-0.24000,60.0625,112,61,0.43248
6487250,-0.23000,59.7500,112,61,0.41929
6487260,-0.22000,59.3750,112,61,0.40684
6487270,-0.21000,59.0625,112,61,0.39560
6487280,-0.19500,58.4375,112,61,0.37680
6487290,-0.18500,58.3750,112,61,0.37021
6487300,-0.17000,58.6250,112,61,0.36508
6487310,-0.16000,59.6250,112,61,0.35995
6487320,-0.14500,65.8125,112,61,0.35140
6487330,-0.13000,71.6250,112,61,0.34799
6487340,-0.11500,78.6250,112,61,0.34505
6487350,-0.09500,85.9375,112,61,0.34212
6487360,-0.07500,97.9375,112,61,0.33455
6487370,-0.05500,102.2500,112,61,0.32869
6487380,-0.03500,105.5625,112,61,0.32479
6487390,-0.01500,108.0000,112,61,0.32234
6487400,0.00500,110.1250,112,61,0.31893
6487410,0.02000,109.9375,112,61,0.31648
6487420,0.04000,109.1875,112,61,0.31404
6487430,0.06500,108.0000,112,61,0.31136
6487440,0.08000,105.1250,112,61,0.30574
6487450,0.08000,103.6250,112,61,0.30305
6487460,0.06000,102.0625,112,61,0.30061
6487470,0.02000,100.5000,112,61,0.29792
6487480,-0.02500,97.3750,112,61,0.29280
6487490,-0.06500,95.8125,112,61,0.29084
6487500,-0.09000,94.3125,112,61,0.28938
6487510,-0.10500,92.8750,112,61,0.28669
6487520,-0.11500,89.9375,112,61,0.28034
6487530,-0.12000,88.5000,112,61,0.27692
6487540,-0.12000,87.0000,112,61,0.27326
6487550,-0.12000,85.5000,112,61,0.26911
6487560,-0.11500,82.2500,112,61,0.26105
6487570,-0.11500,80.4375,112,61,0.25739
6487580,-0.11500,78.4375,112,61,0.25446
6487590,-0.11500,76.5000,112,61,0.25324
6487600,-0.11500,73.0625,112,61,0.25519
6487610,-0.11000,71.7500,112,61,0.25958
6487620,-0.09500,70.6250,112,61,0.26716
6487630,-0.08000,69.6875,112,61,0.27937
6487640,-0.06500,68.3125,112,61,0.31966
6487650,-0.06500,67.8750,112,61,0.34774
6487660,-0.04500,67.5625,112,61,0.38046
6487670,-0.01500,67.4375,112,61,0.41612
6487680,-0.00500,67.4375,112,61,0.49109
6487690,-0.02500,67.5000,112,61,0.52283
6487700,-0.06500,67.6250,112,61,0.55043
6487710,-0.11000,67.8125,112,61,0.57924
6487720,-0.15500,68.1250,112,61,0.63077
6487730,-0.19000,68.1875,112,61,0.65128
6487740,-0.20000,68.1875,112,61,0.66813
6487750,-0.19500,68.1875,112,61,0.68132
6487760,-0.18500,68.0000,112,61,0.69744
6487770,-0.18500,68.0000,112,61,0.69744
6487780,-0.19000,67.5625,112,61,0.70085
6487790,-0.25000,67.3125,112,61,0.69866
6487800,-0.20500,66.6875,112,61,0.68913
6487810,0.18500,66.3750,112,61,0.68205
6487820,0.89000,66.0625,112,61,0.67375
6487830,1.38500,65.6875,112,61,0.66422
6487840,1.00000,65.0000,112,61,0.64200
6487850,0.14500,64.6875,112,61,0.62882
6487860,-0.29000,64.3125,112,61,0.61465
6487870,-0.34500,63.9375,112,61,0.60000
6487880,-0.31500,63.1875,112,61,0.56874
6487890,-0.30000,62.8125,112,61,0.55433
6487900,-0.29000,62.4375,112,61,0.54066
6487910,-0.28000,62.1250,112,61,0.52576
6487920,-0.27000,61.4375,112,61,0.49524
6487930,-0.26500,61.1250,112,61,0.48034
6487940,-0.25500,60.7500,112,61,0.46593
6487950,-0.24500,60.4375,112,61,0.45201
6487960,-0.23500,59.6875,112,61,0.42662
6487970,-0.23000,59.3125,112,61,0.41538
6487980,-0.21500,59.0000,112,61,0.40488
6487990,-0.20500,58.7500,112,61,0.39634
6488000,-0.19000,59.1250,112,61,0.38242
6488010,-0.18000,60.3750,112,61,0.37534
6488020,-0.16500,63.0000,112,61,0.36874
6488030,-0.15500,67.5000,112,61,0.36288
6488040,-0.13500,81.0000,112,61,0.35385
6488050,-0.11500,88.3125,112,61,0.35018
6488060,-0.09500,94.7500,112,61,0.34676
6488070,-0.07000,100.1250,112,61,0.34408
6488080,-0.04500,107.6250,112,61,0.34017
6488090,-0.02500,110.0000,112,61,0.33895
6488100,0.00000,111.3750,112,61,0.33700
6488110,0.02000,111.8125,112,61,0.33480
6488120,0.04000,110.6250,112,61,0.32894
6488130,0.06000,109.5000,112,61,0.32527
6488140,0.08000,108.1875,112,61,0.32161
6488150,0.08500,106.7500,112,61,0.31795
6488160,0.07000,103.6250,112,61,0.31087
6488170,0.03000,102.0625,112,61,0.30745
6488180,-0.01500,100.5625,112,61,0.30427
6488190,-0.05500,99.1250,112,61,0.30232
6488200,-0.08500,96.3125,112,61,0.29890
6488210,-0.10500,94.9375,112,61,0.29695
6488220,-0.11500,93.5625,112,61,0.29451
6488230,-0.12000,92.1875,112,61,0.29158
6488240,-0.12000,89.4375,112,61,0.28449
6488250,-0.11500,88.0000,112,61,0.28083
6488260,-0.11500,88.0000,112,61,0.28083
6488270,-0.10500,84.8125,112,61,0.27253
6488280,-0.10500,81.1250,112,61,0.26545
6488290,-0.10500,79.1250,112,61,0.26398
6488300,-0.10500,77.1875,112,61,0.26325
6488310,-0.10500,75.4375,112,61,0.26447
6488320,-0.09500,72.7500,112,61,0.27692
6488330,-0.07500,71.6875,112,61,0.29035
6488340,-0.05500,70.8125,112,61,0.30916
6488350,-0.04500,70.1250,112,61,0.33358
6488360,-0.03500,69.1875,112,61,0.39756
6488370,-0.01000,68.9375,112,61,0.43468
6488380,0.01000,68.8750,112,61,0.47326
6488390,-0.00500,68.8750,112,61,0.50672
6488400,-0.04500,69.0625,112,61,0.56874
6488410,-0.08500,69.2500,112,61,0.59951
6488420,-0.13000,69.4375,112,61,0.62759
6488430,-0.17000,69.5625,112,61,0.65201
6488440,-0.18000,69.6875,112,61,0.68938
6488450,-0.18000,69.6250,112,61,0.70281
6488460,-0.17500,69.5625,112,61,0.71282
6488470,-0.17000,69.4375,112,61,0.71941
6488480,-0.17000,69.0000,112,61,0.72308
6488490,-0.23500,68.7500,112,61,0.72088
6488500,-0.22500,68.4375,112,61,0.71722
6488510,0.11500,68.0625,112,61,0.71160
6488520,0.78500,67.4375,112,61,0.69621
6488530,1.41000,67.0625,112,61,0.68669
6488540,1.22000,66.7500,112,61,0.67619
6488550,0.34000,66.4375,112,61,0.66471
6488560,-0.24000,65.8125,112,61,0.63883
6488570,-0.34000,65.4375,112,61,0.62442
6488580,-0.31000,65.1250,112,61,0.60952
6488590,-0.29000,64.7500,112,61,0.59585
6488600,-0.28000,64.0625,112,61,0.56801
6488610,-0.27000,63.7500,112,61,0.55287
6488620,-0.26000,63.3750,112,61,0.53724
6488630,-0.25000,63.0625,112,61,0.52161
6488640,-0.24000,62.3125,112,61,0.49035
6488650,-0.23500,62.0000,112,61,0.47546
6488660,-0.22500,61.6250,112,61,0.46105
6488670,-0.22000,61.2500,112,61,0.44737
6488680,-0.21000,60.6250,112,61,0.42540
6488690,-0.20000,60.4375,112,61,0.41709
6488700,-0.18500,60.5625,112,61,0.40879
6488710,-0.18000,61.4375,112,61,0.40098
6488720,-0.16500,67.1250,112,61,0.38657
6488730,-0.15000,72.5625,112,61,0.38071
6488740,-0.13500,79.4375,112,61,0.37558
6488750,-0.11500,86.8125,112,61,0.37094
6488760,-0.09000,99.6250,112,61,0.36288
6488770,-0.06500,104.3750,112,61,0.35946
6488780,-0.03500,108.1250,112,61,0.35629
6488790,-0.01500,110.9375,112,61,0.35409
6488800,0.00500,113.6875,112,61,0.35067
6488810,0.02000,113.7500,112,61,0.34823
6488820,0.02000,113.7500,112,61,0.34823
6488830,0.06000,112.3125,112,61,0.34335
6488840,0.08000,109.8750,112,61,0.33871
6488850,0.09500,108.5000,112,61,0.33626
6488860,0.08500,107.0625,112,61,0.33358
6488870,0.05500,105.5625,112,61,0.33065
6488880,0.01000,102.5000,112,61,0.32454
6488890,-0.03500,101.0625,112,61,0.32234
6488900,-0.06000,99.6250,112,61,0.31966
6488910,-0.08000,98.2500,112,61,0.31648
6488920,-0.09500,95.6250,112,61,0.30916
6488930,-0.10500,94.2500,112,61,0.30525
6488940,-0.10500,92.8750,112,61,0.30134
6488950,-0.10500,91.4375,112,61,0.29744
6488960,-0.10000,88.4375,112,61,0.28962
6488970,-0.10000,86.6875,112,61,0.28596
6488980,-0.09500,84.8750,112,61,0.28278
6488990,-0.09500,82.8750,112,61,0.28132
6489000,-0.10000,79.0625,112,61,0.28205
6489010,-0.10000,77.3750,112,61,0.28523
6489020,-0.09500,75.9375,112,61,0.29182
6489030,-0.07500,74.7500,112,61,0.30305
6489040,-0.05500,72.8125,112,61,0.34188
6489050,-0.05500,72.1250,112,61,0.36947
6489060,-0.04500,71.5625,112,61,0.40195
6489070,-0.02500,71.2500,112,61,0.43761
6489080,-0.00500,70.9375,112,61,0.50842
6489090,-0.01000,70.9375,112,61,0.53871
6489100,-0.03500,71.0000,112,61,0.57118
6489110,-0.07500,71.0625,112,61,0.60342
6489120,-0.12000,71.2500,112,61,0.66007
6489130,-0.16000,71.3750,112,61,0.68303
6489140,-0.19000,71.4375,112,61,0.70208
6489150,-0.26000,71.4375,112,61,0.71722
6489160,-0.37500,71.3125,112,61,0.73700
6489170,-0.46000,71.1875,112,61,0.74212
6489180,-0.52000,70.9375,112,61,0.74432
6489190,-0.61500,70.6875,112,61,0.74335
6489200,-0.61500,70.0625,112,61,0.73529
6489210,-0.24500,69.7500,112,61,0.72918
6489220,-0.24500,69.7500,112,61,0.72918
6489230,1.12000,69.0625,112,61,0.71282
6489240,0.92500,68.3750,112,61,0.69182
6489250,-0.00500,68.0000,112,61,0.67985
6489260,-0.62500,67.6875,112,61,0.66716
6489270,-0.71500,67.3125,112,61,0.65397
6489280,-0.67000,66.6250,112,61,0.62637
6489290,-0.64500,66.3125,112,61,0.61319
6489300,-0.62000,65.9375,112,61,0.59878
6489310,-0.60500,65.2500,112,61,0.58388
6489320,-0.60500,65.2500,112,61,0.58388
6489330,-0.58000,64.5625,112,61,0.53724
6489340,-0.56500,64.1875,112,61,0.52210
6489350,-0.55500,63.7500,112,61,0.50720
6489360,-0.54000,62.9375,112,61,0.47985
6489370,-0.53000,62.5000,112,61,0.46716
6489380,-0.52000,62.0625,112,61,0.45568
6489390,-0.50500,61.8125,112,61,0.44640
6489400,-0.46000,62.5000,112,61,0.43028
6489410,-0.36500,64.3125,112,61,0.42271
6489420,-0.30000,67.7500,112,61,0.41587
6489430,-0.30500,73.0625,112,61,0.40952
6489440,-0.31000,87.5000,112,61,0.39853
6489450,-0.30000,94.8125,112,61,0.39365
6489460,-0.28000,101.1875,112,61,0.38901
6489470,-0.25000,106.3125,112,61,0.38510
6489480,-0.22000,113.3125,112,61,0.37998
6489490,-0.19000,115.3125,112,61,0.37851
6489500,-0.17000,116.4375,112,61,0.37631
6489510,-0.15000,116.7500,112,61,0.37387
6489520,-0.13000,115.4375,112,61,0.36874
6489530,-0.10500,114.2500,112,61,0.36606
6489540,-0.07500,112.8750,112,61,0.36313
6489550,-0.06500,111.4375,112,61,0.36020
6489560,-0.07000,108.5625,112,61,0.35433
6489570,-0.10000,107.0625,112,61,0.35116
6489580,-0.14000,105.6250,112,61,0.34750
6489590,-0.18000,104.1250,112,61,0.34432
6489600,-0.20500,101.0625,112,61,0.33919
6489610,-0.22000,99.5625,112,61,0.33602
6489620,-0.23000,98.1250,112,61,0.33260
6489630,-0.23500,96.6250,112,61,0.32918
6489640,-0.23500,93.6250,112,61,0.32161
6489650,-0.24000,92.0625,112,61,0.31746
6489660,-0.23500,90.3750,112,61,0.31306
6489670,-0.23500,88.6250,112,61,0.30867
6489680,-0.23000,84.7500,112,61,0.30208
6489690,-0.22500,82.7500,112,61,0.30110
6489700,-0.22000,80.7500,112,61,0.30134
6489710,-0.21500,78.8750,112,61,0.30403
6489720,-0.20500,75.8750,112,61,0.32161
6489730,-0.18500,74.7500,112,61,0.33797
6489740,-0.15500,73.8125,112,61,0.36020
6489750,-0.14000,73.0625,112,61,0.38803
6489760,-0.13500,72.0000,112,61,0.45617
6489770,-0.12000,71.6875,112,61,0.49426
6489780,-0.09000,71.5625,112,61,0.53284
6489790,-0.08000,71.5000,112,61,0.56557
6489800,-0.09500,71.5000,112,61,0.62418
6489810,-0.12500,71.5625,112,61,0.65324
6489820,-0.16500,71.6250,112,61,0.67961
6489830,-0.21500,71.6875,112,61,0.70256
6489840,-0.24500,71.6250,112,61,0.73700
6489850,-0.25500,71.5625,112,61,0.74872
6489860,-0.25500,71.5625,112,61,0.74872
6489870,-0.23000,71.1875,112,61,0.76190
6489880,-0.22000,70.6250,112,61,0.76337
6489890,-0.26000,70.2500,112,61,0.76044
6489900,-0.30500,69.9375,112,61,0.75629
6489910,-0.10000,69.5625,112,61,0.75067
6489920,0.49500,68.8125,112,61,0.73455
6489930,1.26500,68.4375,112,61,0.72454
6489940,1.46000,68.0625,112,61,0.71355
6489950,0.69000,67.6875,112,61,0.70159
6489960,-0.11500,66.9375,112,61,0.67546
6489970,-0.35500,66.5625,112,61,0.66129
6489980,-0.33500,66.1875,112,61,0.64762
6489990,-0.31000,65.8125,112,61,0.63394
6490000,-0.29500,65.1250,112,61,0.60269
6490010,-0.29000,64.6875,112,61,0.58632
6490020,-0.28000,64.3125,112,61,0.56972
6490030,-0.27000,63.9375,112,61,0.55336
6490040,-0.26000,63.1875,112,61,0.52210
6490050,-0.25000,62.8125,112,61,0.50745
6490060,-0.24000,62.3750,112,61,0.49304
6490070,-0.23500,62.0000,112,61,0.47937
6490080,-0.22500,61.0625,112,61,0.45617
6490090,-0.21500,60.6875,112,61,0.44713
6490100,-0.20000,60.5625,112,61,0.43810
6490110,-0.19000,60.8750,112,61,0.42930
6490120,-0.17500,64.7500,112,61,0.41441
6490130,-0.16000,69.1875,112,61,0.40830
6490140,-0.14500,75.3750,112,61,0.40293
6490150,-0.12500,82.6875,112,61,0.39805
6490160,-0.10500,96.8125,112,61,0.38901
6490170,-0.08000,102.2500,112,61,0.38486
6490180,-0.05500,106.5625,112,61,0.38193
6490190,-0.02500,109.8125,112,61,0.37949
6490200,0.00500,113.5625,112,61,0.37314
6490210,0.02500,114.0625,112,61,0.36947
6490220,0.05000,113.7500,112,61,0.36581
6490230,0.07500,112.8125,112,61,0.36215
6490240,0.10000,110.0625,112,61,0.35458
6490250,0.12000,108.5625,112,61,0.35043
6490260,0.12000,106.9375,112,61,0.34628
6490270,0.10000,105.2500,112,61,0.34212
6490280,0.07000,101.8125,112,61,0.33529
6490290,0.03000,100.2500,112,61,0.33284
6490300,-0.00500,98.6875,112,61,0.32943
6490310,-0.02500,97.1250,112,61,0.32552
6490320,-0.04000,94.1250,112,61,0.31746
6490330,-0.05000,92.6250,112,61,0.31306
6490340,-0.05500,91.1875,112,61,0.30867
6490350,-0.06000,88.1875,112,61,0.30452
6490360,-0.06000,86.5625,112,61,0.29548
6490370,-0.06000,84.8125,112,61,0.29060
6490380,-0.06000,82.8750,112,61,0.28694
6490390,-0.06000,80.8125,112,61,0.28425
6490400,-0.06000,76.8125,112,61,0.27985
6490410,-0.06000,75.0625,112,61,0.28034
6490420,-0.05500,73.6250,112,61,0.28425
6490430,-0.04500,72.3750,112,61,0.29255
6490440,-0.02500,70.6250,112,61,0.32479
6490450,0.00000,70.0000,112,61,0.34896
6490460,0.01000,69.6250,112,61,0.37778
6490470,0.02000,69.3125,112,61,0.41050
6490480,0.05000,69.2500,112,61,0.47741
6490490,0.07000,69.3125,112,61,0.50696
6490500,0.07000,69.4375,112,61,0.53968
6490510,0.04000,69.5000,112,61,0.57216
6490520,0.00000,69.7500,112,61,0.62979
6490530,-0.04500,69.8750,112,61,0.65372
6490540,-0.09000,69.9375,112,61,0.67350
6490550,-0.11500,69.9375,112,61,0.68913
6490560,-0.11500,69.6250,112,61,0.70940
6490570,-0.11000,69.4375,112,61,0.71404
6490580,-0.10000,69.1875,112,61,0.71502
6490590,-0.10500,68.8750,112,61,0.71331
6490600,-0.15500,68.1875,112,61,0.70549
6490610,-0.19000,67.8125,112,61,0.69939
6490620,-0.02500,67.4375,112,61,0.69182
6490630,0.40000,67.1250,112,61,0.68303
6490640,0.91000,66.5000,112,61,0.66252
6490650,0.81000,66.1875,112,61,0.65055
6490660,-0.00500,65.8750,112,61,0.63736
6490670,-0.66500,65.5000,112,61,0.62320
6490680,-0.83500,64.8125,112,61,0.59341
6490690,-0.79000,64.5000,112,61,0.57949
6490700,-0.66500,64.0625,112,61,0.56386
6490710,-0.47000,63.6875,112,61,0.54750
6490720,-0.29500,62.8750,112,61,0.51502
6490730,-0.20000,62.4375,112,61,0.49939
6490740,-0.14500,62.0000,112,61,0.48425
6490750,-0.11416,61.5938,112,61,0.46947
6490760,-0.09500,61.1875,112,61,0.45519
6490770,-0.07500,60.7500,112,61,0.44151
6490780,-0.06000,60.3750,112,61,0.42857
6490790,-0.04500,60.0000,112,61,0.41783
6490800,-0.03500,59.3125,112,61,0.39951
6490810,-0.02500,59.0625,112,61,0.39072
6490820,-0.01000,59.0000,112,61,0.38266
6490830,0.00500,59.4375,112,61,0.37534
6490840,0.00500,59.4375,112,61,0.37534
6490850,0.04000,67.7500,112,61,0.35873
6490860,0.05500,73.8125,112,61,0.35482
6490870,0.07000,80.8750,112,61,0.35116
6490880,0.09000,94.4375,112,61,0.34481
6490890,0.11500,99.6875,112,61,0.34237
6490900,0.13500,103.8125,112,61,0.34066
6490910,0.15500,109.1875,112,61,0.33553
6490920,0.17000,110.5000,112,61,0.33236
6490930,0.19000,110.8750,112,61,0.32918
6490940,0.20500,110.5000,112,61,0.32601
6490950,0.22500,109.5625,112,61,0.32283
6490960,0.24500,106.8125,112,61,0.31648
6490970,0.24500,105.1875,112,61,0.31331
6490980,0.22000,103.5625,112,61,0.30989
6490990,0.18000,101.8125,112,61,0.30696
6491000,0.13500,98.4375,112,61,0.30110
6491010,0.09500,96.7500,112,61,0.29719
6491020,0.06000,95.1250,112,61,0.29304
6491030,0.04000,93.5625,112,61,0.28864
6491040,0.03000,90.5625,112,61,0.28083
6491050,0.02500,89.0625,112,61,0.27741
6491060,0.02500,87.5625,112,61,0.27375
6491070,0.02500,86.0625,112,61,0.26960
6491080,0.03000,82.8125,112,61,0.26154
6491090,0.03000,81.0000,112,61,0.25885
6491100,0.03000,79.1250,112,61,0.25690
6491110,0.02500,77.1875,112,61,0.25446
6491120,0.02000,73.6875,112,61,0.25055
6491130,0.02000,72.2500,112,61,0.25128
6491140,0.02000,71.0625,112,61,0.25495
6491150,0.04000,70.0625,112,61,0.26276
6491160,0.05000,68.5625,112,61,0.29426
6491170,0.05000,68.0625,112,61,0.31795
6491180,0.06000,67.7500,112,61,0.34652
6491190,0.08500,67.6250,112,61,0.37485
6491200,0.09000,67.6250,112,61,0.43663
6491210,0.07500,67.6875,112,61,0.47228
6491220,0.03000,67.8125,112,61,0.50769
6491230,-0.01500,67.8750,112,61,0.54164
6491240,-0.06000,68.1875,112,61,0.60049
6491250,-0.09500,68.2500,112,61,0.62466
6491260,-0.11500,68.3125,112,61,0.64444
6491270,-0.11500,68.2500,112,61,0.65983
6491280,-0.11500,68.0000,112,61,0.67937
6491290,-0.10000,67.8125,112,61,0.68303
6491300,-0.10500,67.5625,112,61,0.68400
6491310,-0.16000,67.3750,112,61,0.68352
6491320,-0.13500,66.7500,112,61,0.67668
6491330,0.19000,66.4375,112,61,0.67033
6491340,0.88000,66.0625,112,61,0.66252
6491350,1.49000,65.7500,112,61,0.65372
6491360,1.17000,65.1250,112,61,0.63223
6491370,0.31000,64.8125,112,61,0.61954
6491380,-0.17000,64.5625,112,61,0.60562
6491390,-0.26000,64.2500,112,61,0.59243
6491400,-0.26000,64.2500,112,61,0.59243
6491410,-0.20500,63.1875,112,61,0.54847
6491420,-0.19500,62.8750,112,61,0.53236
6491430,-0.18500,62.5000,112,61,0.51600
6491440,-0.17500,61.8750,112,61,0.48352
6491450,-0.16500,61.5000,112,61,0.46789
6491460,-0.16000,61.1250,112,61,0.45299
6491470,-0.15000,60.8125,112,61,0.43785
6491480,-0.14500,60.1250,112,61,0.40977
6491490,-0.13000,59.8125,112,61,0.39951
6491500,-0.12500,59.5000,112,61,0.39096
6491510,-0.11000,59.1875,112,61,0.38217
6491520,-0.10000,58.8750,112,61,0.36606
6491530,-0.09000,59.2500,112,61,0.35897
6491540,-0.07500,60.4375,112,61,0.35238
6491550,-0.06500,62.9375,112,61,0.34652
6491560,-0.04500,73.0000,112,61,0.33700
6491570,-0.02500,80.0000,112,61,0.33309
6491580,-0.00500,87.1250,112,61,0.32991
6491590,0.02000,93.4375,112,61,0.32772
6491600,0.04000,102.8750,112,61,0.32357
6491610,0.06000,106.0625,112,61,0.32137
6491620,0.08000,108.3750,112,61,0.31941
6491630,0.09500,109.8125,112,61,0.31746
6491640,0.11000,110.1875,112,61,0.31355
6491650,0.14000,109.3750,112,61,0.31160
6491660,0.15500,108.1875,112,61,0.30989
6491670,0.17000,106.6875,112,61,0.30794
6491680,0.15500,103.6250,112,61,0.30354
6491690,0.12500,102.0000,112,61,0.30208
6491700,0.08000,100.3750,112,61,0.30012
6491710,0.04000,98.8125,112,61,0.29792
6491720,0.00000,95.8125,112,61,0.29304
6491730,-0.02000,94.3750,112,61,0.29035
6491740,-0.03500,93.0000,112,61,0.28791
6491750,-0.04000,91.5625,112,61,0.28498
6491760,-0.04000,88.8125,112,61,0.27863
6491770,-0.03500,87.3750,112,61,0.27546
6491780,-0.03500,85.8750,112,61,0.27253
6491790,-0.03500,84.2500,112,61,0.27033
6491800,-0.03500,80.6875,112,61,0.26545
6491810,-0.03500,78.7500,112,61,0.26276
6491820,-0.03500,76.8750,112,61,0.26032
6491830,-0.03500,75.1250,112,61,0.25910
6491840,-0.03000,72.3125,112,61,0.26325
6491850,-0.03000,72.3125,112,61,0.26325
6491860,0.00000,70.3125,112,61,0.28230
6491870,0.01000,69.5625,112,61,0.29939
6491880,0.01500,68.5000,112,61,0.34481
6491890,0.04500,68.2500,112,61,0.36947
6491900,0.06000,68.1250,112,61,0.40024
6491910,0.05500,68.0625,112,61,0.43419
6491920,0.02000,68.1875,112,61,0.50525
6491930,-0.02500,68.3125,112,61,0.53919
6491940,-0.07500,68.4375,112,61,0.57045
6491950,-0.11500,68.5625,112,61,0.59878
6491960,-0.14000,68.8125,112,61,0.64322
6491970,-0.14500,68.8125,112,61,0.65934
6491980,-0.14000,68.7500,112,61,0.67179
6491990,-0.13000,68.6250,112,61,0.67912
6492000,-0.12500,68.2500,112,60,0.68571
6492010,-0.17000,67.9375,112,60,0.68645
6492020,-0.20000,67.6875,112,60,0.68498
6492030,0.00500,67.3750,112,60,0.68156
6492040,0.59000,66.8125,112,60,0.66935
6492050,1.30000,66.5000,112,60,0.66081
6492060,1.34500,66.1875,112,60,0.65128
6492070,0.59000,65.8750,112,60,0.64054
6492080,-0.08500,65.1875,112,60,0.61758
6492090,-0.29000,64.8125,112,60,0.60635
6492100,-0.27500,64.4375,112,60,0.59365
6492110,-0.25000,64.1250,112,60,0.57998
6492120,-0.24000,63.3750,112,60,0.55116
6492130,-0.23000,63.0000,112,60,0.53626
6492140,-0.22000,62.6250,112,60,0.52088
6492150,-0.21000,62.1875,112,60,0.50549
6492160,-0.21000,61.4375,112,60,0.47570
6492170,-0.20000,61.0625,112,60,0.46154
6492180,-0.19000,60.7500,112,60,0.44786
6492190,-0.18000,60.5000,112,60,0.43663
6492200,-0.17500,59.8125,112,60,0.41636
6492210,-0.16000,59.5625,112,60,0.40586
6492220,-0.15500,59.3750,112,60,0.39609
6492230,-0.14000,59.4375,112,60,0.38730
6492240,-0.12500,61.3750,112,60,0.37265
6492250,-0.11000,64.2500,112,60,0.36654
6492260,-0.09500,69.0000,112,60,0.36142
6492270,-0.07500,75.4375,112,60,0.35678
6492280,-0.05500,89.9375,112,60,0.35018
6492290,-0.05500,89.9375,112,60,0.35018
6492300,-0.00500,101.1875,112,60,0.34530
6492310,0.01000,105.1250,112,60,0.34237
6492320,0.03000,110.3750,112,60,0.33748
6492330,0.05000,111.6875,112,60,0.33529
6492340,0.07000,112.0625,112,60,0.33309
6492350,0.10000,111.7500,112,60,0.33040
6492360,0.12000,109.6250,112,60,0.32357
6492370,0.13500,108.3125,112,60,0.32063
6492380,0.13000,106.8750,112,60,0.31795
6492390,0.11000,105.4375,112,60,0.31600
6492400,0.07000,102.2500,112,60,0.31209
6492410,0.02500,100.6875,112,60,0.30940
6492420,-0.00500,99.1875,112,60,0.30623
6492430,-0.03000,97.7500,112,60,0.30281
6492440,-0.04500,94.9375,112,60,0.29573
6492450,-0.05500,93.6250,112,60,0.29206
6492460,-0.05500,93.6250,112,60,0.29206
6492470,-0.05500,90.9375,112,60,0.28474
6492480,-0.05000,88.1875,112,60,0.27888
6492490,-0.04500,86.7500,112,60,0.27692
6492500,-0.04500,85.1250,112,60,0.27399
6492510,-0.04500,83.3750,112,60,0.27106
6492520,-0.04500,79.5000,112,60,0.26569
6492530,-0.04000,77.6250,112,60,0.26447
6492540,-0.04000,75.9375,112,60,0.26569
6492550,-0.02500,74.5000,112,60,0.27033
6492560,0.00000,72.2500,112,60,0.29304
6492570,0.01000,71.4375,112,60,0.31258
6492580,0.01500,70.7500,112,60,0.33700
6492590,0.04000,70.1875,112,60,0.36166
6492600,0.06000,69.6250,112,60,0.41978
6492610,0.06000,69.5000,112,60,0.45446
6492620,0.03500,69.5000,112,60,0.49035
6492630,-0.00500,69.5625,112,60,0.52552
6492640,-0.04500,69.7500,112,60,0.58999
6492650,-0.09500,69.8750,112,60,0.61783
6492660,-0.12500,69.9375,112,60,0.64225
6492670,-0.13000,69.9375,112,60,0.66276
6492680,-0.12500,69.8750,112,60,0.69084
6492690,-0.11500,69.8125,112,60,0.69768
6492700,-0.10500,69.6250,112,60,0.70305
6492710,-0.14000,69.4375,112,60,0.70623
6492720,-0.19500,68.9375,112,60,0.70647
6492730,-0.03500,68.6250,112,60,0.70354
6492740,0.50000,68.3125,112,60,0.69841
6492750,1.24500,68.0000,112,60,0.69182
6492760,1.48500,67.3125,112,60,0.67497
6492770,0.81500,67.0000,112,60,0.66496
6492780,0.81500,67.0000,112,60,0.66496
6492790,-0.26000,66.3125,112,60,0.64322
6492800,-0.25000,65.5625,112,60,0.61929
6492810,-0.21500,65.1875,112,60,0.60537
6492820,-0.20000,64.8125,112,60,0.59096
6492830,-0.19000,64.5000,112,60,0.57582
6492840,-0.18000,63.7500,112,60,0.54505
6492850,-0.17000,63.3750,112,60,0.52991
6492860,-0.16000,63.0000,112,60,0.51477
6492870,-0.15500,62.6875,112,60,0.49963
6492880,-0.14500,62.0000,112,60,0.47228
6492890,-0.13500,61.6250,112,60,0.46105
6492900,-0.13000,61.2500,112,60,0.44933
6492910,-0.12500,60.9375,112,60,0.43785
6492920,-0.11500,60.5000,112,60,0.41758
6492930,-0.10500,60.8125,112,60,0.40830
6492940,-0.09500,61.8125,112,60,0.40000
6492950,-0.08000,64.1875,112,60,0.39267
6492960,-0.06500,74.1250,112,60,0.37778
6492970,-0.05500,81.3125,112,60,0.37314
6492980,-0.05500,81.3125,112,60,0.37314
6492990,-0.00500,95.5000,112,60,0.36337
6493000,0.00500,105.6250,112,61,0.35726
6493010,0.01500,109.1875,112,61,0.35263
6493020,0.01500,111.8125,112,61,0.34969
6493030,-0.05500,113.5000,112,61,0.34701
6493040,-0.24000,114.1875,112,61,0.34164
6493050,-0.42000,113.5625,112,61,0.33919
6493060,-0.50000,112.6875,112,61,0.33675
6493070,-0.53000,111.5625,112,61,0.33504
6493080,-0.56000,108.8750,112,61,0.33162
6493090,-0.59000,107.4375,112,61,0.32869
6493100,-0.63500,105.9375,112,61,0.32527
6493110,-0.67500,104.4375,112,61,0.32161
6493120,-0.71500,101.5000,112,61,0.31429
6493130,-0.72500,100.0625,112,61,0.31013
6493140,-0.64000,98.6250,112,61,0.30598
6493150,-0.45500,97.2500,112,61,0.30183
6493160,-0.27000,94.4375,112,61,0.29353
6493170,-0.14500,93.0625,112,61,0.29035
6493180,-0.07500,91.6250,112,61,0.28791
6493190,-0.02500,90.1250,112,61,0.28498
6493200,0.00500,86.6875,112,61,0.27961
6493210,0.03000,84.7500,112,61,0.27839
6493220,0.04000,82.7500,112,61,0.27912
6493230,0.05000,80.7500,112,61,0.28278
6493240,0.06000,77.3750,112,61,0.30256
6493250,0.06000,77.3750,112,61,0.30256
6493260,0.11000,74.6875,112,61,0.34261
6493270,0.13000,73.6250,112,61,0.36581
6493280,0.13000,72.0000,112,61,0.42222
6493290,0.15000,71.5000,112,61,0.45714
6493300,0.17500,71.1875,112,61,0.49353
6493310,0.18000,70.9375,112,61,0.52967
6493320,0.15500,70.9375,112,61,0.59707
6493330,0.11500,71.0625,112,61,0.62637
6493340,0.07000,71.1875,112,61,0.65201
6493350,0.02000,71.3125,112,61,0.67375
6493360,-0.01000,71.5000,112,61,0.70598
6493370,-0.02500,71.5625,112,61,0.71477
6493380,-0.02500,71.6250,112,61,0.71990
6493390,-0.01500,71.6250,112,61,0.72357
6493400,-0.01000,71.3750,112,61,0.72503
6493410,-0.05000,71.1250,112,61,0.72259
6493420,-0.10500,70.8125,112,61,0.71600
6493430,0.07500,70.4375,112,61,0.70965
6493440,0.07500,70.4375,112,61,0.70965
6493450,1.45500,69.3750,112,61,0.68132
6493460,1.66500,69.0000,112,61,0.67057
6493470,0.93000,68.6250,112,61,0.65934
6493480,0.08000,67.8750,112,61,0.63297
6493490,-0.21500,67.5625,112,61,0.62198
6493500,-0.20000,67.2500,112,61,0.61245
6493510,-0.17000,66.9375,112,61,0.60000
6493520,-0.16000,66.3125,112,61,0.57021
6493530,-0.15000,66.0000,112,61,0.55433
6493540,-0.14500,65.6250,112,61,0.53822
6493550,-0.14000,65.1875,112,61,0.52186
6493560,-0.13500,64.4375,112,61,0.49475
6493570,-0.13500,64.0625,112,61,0.48132
6493580,-0.12500,63.6875,112,61,0.46789
6493590,-0.12500,63.3125,112,61,0.45495
6493600,-0.13500,62.5000,112,61,0.43248
6493610,-0.24000,62.1250,112,61,0.42271
6493620,-0.24000,62.1250,112,61,0.42271
6493630,-0.68500,62.0000,112,61,0.40708
6493640,-0.76000,64.9375,112,61,0.39585
6493650,-0.75500,68.7500,112,61,0.39145
6493660,-0.70000,74.3750,112,61,0.38828
6493670,-0.60500,81.3750,112,61,0.38559
6493680,-0.60500,81.3750,112,61,0.38559
6493690,-0.44500,102.1875,112,61,0.37582
6493700,-0.46000,107.1250,112,61,0.37265
6493710,-0.48000,111.0000,112,61,0.36947
6493720,-0.48000,115.6875,112,61,0.36288
6493730,-0.48000,116.6250,112,61,0.35971
6493740,-0.47000,116.7500,112,61,0.35653
6493750,-0.44000,116.2500,112,61,0.35360
6493760,-0.39000,114.1250,112,61,0.34945
6493770,-0.33000,112.8125,112,61,0.34505
6493780,-0.29000,111.3750,112,61,0.34139
6493790,-0.27000,109.8750,112,61,0.33773
6493800,-0.28000,106.6875,112,61,0.32772
6493810,-0.28000,105.1250,112,61,0.32357
6493820,-0.28500,103.6250,112,61,0.31966
6493830,-0.27500,102.1875,112,61,0.31575
6493840,-0.26000,99.2500,112,61,0.30745
6493850,-0.24000,97.7500,112,61,0.30427
6493860,-0.21000,96.2500,112,61,0.30134
6493870,-0.15500,94.7500,112,61,0.29768
6493880,-0.08500,91.5625,112,61,0.29158
6493890,-0.01500,89.8125,112,61,0.29035
6493900,0.04000,88.0000,112,61,0.29109
6493910,0.07000,86.0625,112,61,0.29475
6493920,0.08500,82.1250,112,61,0.31429
6493930,0.09500,80.2500,112,61,0.33138
6493940,0.10500,78.5625,112,61,0.35385
6493950,0.13000,77.0000,112,61,0.37729
6493960,0.16500,74.6250,112,61,0.43468
6493970,0.20000,73.8125,112,61,0.47082
6493980,0.21000,73.1250,112,61,0.50916
6493990,0.22500,72.6250,112,61,0.54799
6494000,0.25500,72.0000,112,61,0.62149
6494010,0.26500,71.9375,112,61,0.65372
6494020,0.25000,71.8750,112,61,0.68205
6494030,0.21500,71.9375,112,61,0.70598
6494040,0.17000,72.0625,112,61,0.74042
6494050,0.12000,72.1250,112,61,0.74969
6494060,0.08000,72.1875,112,61,0.75482
6494070,0.06000,72.1875,112,61,0.75824
6494080,0.05500,72.0000,112,61,0.75897
6494090,0.06000,71.8125,112,61,0.75629
6494100,0.06500,71.5625,112,61,0.75214
6494110,0.04500,71.1875,112,61,0.74628
6494120,-0.03000,70.4375,112,61,0.72991
6494130,0.07000,70.0000,112,61,0.72015
6494140,0.58000,69.5000,112,61,0.70916
6494150,1.36500,69.0625,112,61,0.69792
6494160,1.75500,68.3125,112,61,0.67302
6494170,1.18000,67.8750,112,61,0.65861
6494180,0.27500,67.5000,112,61,0.64347
6494190,-0.12500,67.1875,112,61,0.62784
6494200,-0.13500,66.4375,112,61,0.59487
6494210,-0.10500,66.1250,112,61,0.57827
6494220,-0.09500,65.8125,112,61,0.56166
6494230,-0.08500,65.4375,112,61,0.54554
6494240,-0.08000,64.7500,112,61,0.51404
6494250,-0.07500,64.3750,112,61,0.50061
6494260,-0.07000,63.9375,112,61,0.48840
6494270,-0.06500,63.5625,112,61,0.47570
6494280,-0.06500,62.7500,112,61,0.45226
6494290,-0.06500,62.3750,112,61,0.44225
6494300,-0.06500,61.9375,112,61,0.43321
6494310,-0.06000,61.5625,112,61,0.42515
6494320,-0.05500,60.9375,112,61,0.41074
6494330,-0.04500,61.0000,112,61,0.40440
6494340,-0.04000,61.7500,112,61,0.39902
6494350,-0.03000,63.6250,112,61,0.39487
6494360,-0.01500,72.6250,112,61,0.38706
6494370,0.00000,79.5000,112,61,0.38291
6494380,0.02000,87.0000,112,61,0.37875
6494390,0.03500,94.1250,112,61,0.37485
6494400,0.05000,105.0625,112,61,0.36679
6494410,0.06500,108.8125,112,61,0.36288
6494420,0.08000,111.6250,112,61,0.35897
6494430,0.09500,113.5000,112,61,0.35556
6494440,0.11000,114.5000,112,61,0.34847
6494450,0.12500,113.8750,112,61,0.34579
6494460,0.14500,112.6875,112,61,0.34335
6494470,0.16000,111.3125,112,61,0.33993
6494480,0.16000,111.3125,112,61,0.33993
6494490,0.14000,106.3750,112,61,0.32747
6494500,0.10000,104.6875,112,61,0.32259
6494510,0.05000,103.0625,112,61,0.31770
6494520,0.00500,100.0000,112,61,0.30842
6494530,-0.02500,98.5000,112,61,0.30403
6494540,-0.04500,97.0625,112,61,0.29988
6494550,-0.05500,95.6250,112,61,0.29719
6494560,-0.06500,92.7500,112,61,0.29206
6494570,-0.07000,91.2500,112,61,0.28840
6494580,-0.07500,89.7500,112,61,0.28449
6494590,-0.07500,88.1250,112,61,0.28034
6494600,-0.08500,84.3750,112,61,0.27595
6494610,-0.09000,82.3125,112,61,0.27741
6494620,-0.09500,80.1875,112,61,0.28278
6494630,-0.10500,78.1875,112,61,0.29304
6494640,-0.11500,74.8750,112,61,0.32991
6494650,-0.12000,73.5625,112,61,0.35238
6494660,-0.12000,72.5000,112,61,0.37729
6494670,-0.11000,71.6250,112,61,0.40855
6494680,-0.10000,70.5000,112,61,0.48132
6494690,-0.09500,70.1875,112,61,0.51917
6494700,-0.06500,70.0000,112,61,0.55531
6494710,-0.02500,69.9375,112,61,0.58901
6494720,-0.02000,70.0625,112,61,0.64640
6494730,-0.04000,70.1875,112,61,0.66886
6494740,-0.07500,70.3125,112,61,0.68742
6494750,-0.11500,70.4375,112,61,0.69988
6494760,-0.15500,70.5625,112,61,0.71526
6494770,-0.17500,70.5000,112,61,0.71966
6494780,-0.18000,70.4375,112,61,0.72161
6494790,-0.17000,70.3125,112,61,0.72112
6494800,-0.16000,69.8750,112,61,0.71331
6494810,-0.15500,69.5625,112,61,0.70647
6494820,-0.18500,69.1875,112,61,0.69817
6494830,-0.23000,68.8750,112,61,0.68840
6494840,-0.23000,68.8750,112,61,0.68840
6494850,0.47000,67.8125,112,61,0.65324
6494860,1.20500,67.5000,112,61,0.64103
6494870,1.43500,67.1250,112,61,0.62711
6494880,0.72500,66.4375,112,61,0.59634
6494890,-0.04000,66.0625,112,61,0.57998
6494900,-0.27000,65.6875,112,61,0.56337
6494910,-0.25000,65.3750,112,61,0.54652
6494920,-0.22000,64.6875,112,61,0.51282
6494930,-0.20000,64.3125,112,61,0.49597
6494940,-0.19000,63.8750,112,61,0.47985
6494950,-0.17500,63.5000,112,61,0.46618
6494960,-0.17000,62.7500,112,61,0.44176
6494970,-0.15500,62.3750,112,61,0.42955
6494980,-0.14500,62.0000,112,61,0.41783
6494990,-0.13500,61.6250,112,61,0.40708
6495000,-0.13500,60.8750,112,61,0.38828
6495010,-0.12000,60.5000,112,61,0.38022
6495020,-0.11000,60.1250,112,61,0.37314
6495030,-0.11000,60.1250,112,61,0.37314
6495040,-0.09000,59.8125,112,61,0.35800
6495050,-0.07500,60.5625,112,61,0.35507
6495060,-0.05500,62.5000,112,61,0.35287
6495070,-0.04000,66.0625,112,61,0.35018
6495080,-0.02500,78.3125,112,61,0.34383
6495090,-0.00500,85.6875,112,61,0.34066
6495100,0.01000,92.5625,112,61,0.33748
6495110,0.03500,98.2500,112,61,0.33431
6495120,0.06000,106.2500,112,61,0.32747
6495130,0.08000,108.8750,112,61,0.32381
6495140,0.10000,110.5625,112,61,0.32015
6495150,0.12000,111.3750,112,61,0.31746
6495160,0.14000,110.6875,112,61,0.31282
6495170,0.16500,109.5000,112,61,0.30989
6495180,0.18500,108.0625,112,61,0.30672
6495190,0.18500,106.4375,112,61,0.30305
6495200,0.16500,102.9375,112,61,0.29573
6495210,0.17000,101.1250,112,61,0.29206
6495220,0.16500,99.3750,112,61,0.28816
6495230,0.14000,97.7500,112,61,0.28425
6495240,0.15500,94.5000,112,61,0.27619
6495250,0.22500,92.8750,112,61,0.27326
6495260,0.30000,91.3750,112,61,0.27057
6495270,0.35000,89.9375,112,61,0.26691
6495280,0.38000,87.0000,112,61,0.25885
6495290,0.39500,85.4375,112,61,0.25495
6495300,0.39000,83.8125,112,61,0.25153
6495310,0.38500,82.0625,112,61,0.24884
6495320,0.36500,78.1875,112,61,0.25079
6495330,0.31000,76.2500,112,61,0.25690
6495340,0.23000,74.5000,112,61,0.26740
6495350,0.16500,73.0000,112,61,0.28059
6495360,0.12333,70.6875,112,61,0.32063
6495370,0.09500,69.8125,112,61,0.34921
6495380,0.07000,69.1250,112,61,0.38217
6495390,0.05000,68.6250,112,61,0.41783
6495400,0.03500,68.1250,112,61,0.49206
6495410,0.03000,68.0625,112,61,0.52821
6495420,0.03000,68.0625,112,61,0.56190
6495430,0.01500,68.1875,112,61,0.59219
6495440,0.01500,68.1875,112,61,0.59219
6495450,0.05500,68.5625,112,61,0.65324
6495460,0.05500,68.6875,112,61,0.66618
6495470,0.03500,68.8125,112,61,0.67643
6495480,0.02500,68.8750,112,61,0.68791
6495490,0.02000,68.8125,112,61,0.68913
6495500,0.02500,68.6875,112,61,0.68767
6495510,0.03000,68.5000,112,61,0.68400
6495520,0.03000,68.0000,112,61,0.67082
6495530,-0.02500,67.6875,112,61,0.65934
6495540,-0.04000,67.3750,112,61,0.64567
6495550,0.19500,67.0625,112,61,0.63321
6495560,0.75500,66.4375,112,61,0.60855
6495570,1.36500,66.1250,112,61,0.59512
6495580,1.24500,65.8125,112,61,0.58095
6495590,0.39000,65.5000,112,61,0.56630
6495600,-0.23000,64.8125,112,61,0.53553
6495610,-0.38000,64.5000,112,61,0.51966
6495620,-0.37000,64.1250,112,61,0.50379
6495630,-0.36500,63.7500,112,61,0.48791
6495640,-0.36500,63.0625,112,61,0.45983
6495650,-0.36000,62.7500,112,61,0.44835
6495660,-0.35500,62.3750,112,61,0.43590
6495670,-0.35500,62.0000,112,61,0.42320
6495680,-0.34500,61.2500,112,61,0.39951
6495690,-0.34000,60.8750,112,61,0.38852
6495700,-0.33000,60.5000,112,61,0.37851
6495710,-0.31500,60.1250,112,61,0.36947
6495720,-0.30000,59.4375,112,61,0.35507
6495730,-0.27500,59.1250,112,61,0.34945
6495740,-0.23000,59.0000,112,61,0.34432
6495750,-0.20500,59.1250,112,61,0.34066
6495760,-0.18500,61.5625,112,61,0.33578
6495770,-0.13500,64.8750,112,61,0.33309
6495780,-0.12000,69.9375,112,61,0.33065
6495790,-0.13000,76.5625,112,61,0.32796
6495800,-0.10000,90.6250,112,61,0.32332
6495810,-0.06000,96.5000,112,61,0.32112
6495820,-0.02500,101.1875,112,61,0.31893
6495830,-0.01000,104.9375,112,61,0.31697
6495840,-0.01000,104.9375,112,61,0.31697
6495850,0.05000,110.5625,112,61,0.31184
6495860,0.08000,110.6250,112,61,0.30940
6495870,0.12000,110.0625,112,61,0.30647
6495880,0.15000,107.6875,112,61,0.29915
6495890,0.16500,106.1875,112,61,0.29573
6495900,0.16000,104.5625,112,61,0.29280
6495910,0.13000,102.8750,112,61,0.28962
6495920,0.08000,99.5625,112,61,0.28352
6495930,0.02000,97.9375,112,61,0.28107
6495940,-0.03500,96.3750,112,61,0.27839
6495950,-0.07500,94.8125,112,61,0.27668
6495960,-0.10000,91.8125,112,61,0.27228
6495970,-0.10500,90.3750,112,61,0.26862
6495980,-0.10500,89.0000,112,61,0.26447
6495990,-0.11500,87.5625,112,61,0.26007
6496000,-0.12500,84.6875,112,60,0.25226
6496010,-0.13500,83.0625,112,60,0.24957
6496020,-0.15500,81.2500,112,60,0.24884
6496030,-0.17000,79.3750,112,60,0.25079
6496040,-0.18000,75.5000,112,60,0.26471
6496050,-0.18500,73.8125,112,60,0.27619
6496060,-0.18000,72.4375,112,60,0.29304
6496070,-0.18000,72.4375,112,60,0.29304
6496080,-0.12500,69.5625,112,60,0.37509
6496090,-0.10500,68.9375,112,60,0.40977
6496100,-0.08500,68.5000,112,60,0.44591
6496110,-0.04500,68.2500,112,60,0.48254
6496120,-0.01000,68.0625,112,60,0.55238
6496130,-0.01500,68.1250,112,60,0.58339
6496140,-0.06000,68.2500,112,60,0.61099
6496150,-0.11500,68.4375,112,60,0.63175
6496160,-0.15500,68.7500,112,60,0.66178
6496170,-0.18000,68.8750,112,60,0.67326
6496180,-0.19500,69.0000,112,60,0.68181
6496190,-0.19000,69.0000,112,60,0.68742
6496200,-0.18000,68.8125,112,60,0.69011
6496210,-0.17500,68.6250,112,60,0.68791
6496220,-0.16500,68.3750,112,60,0.68327
6496230,-0.21000,68.1250,112,60,0.67692
6496240,-0.26500,67.5000,112,60,0.66032
6496250,-0.11500,67.1250,112,60,0.65104
6496260,0.37500,66.8750,112,60,0.64054
6496270,1.09500,66.5625,112,60,0.62882
6496280,1.34500,66.0000,112,60,0.60244
6496290,0.67000,65.6875,112,60,0.58779
6496300,-0.10500,65.3750,112,60,0.57241
6496310,-0.37500,65.0000,112,60,0.55678
6496320,-0.36500,64.2500,112,60,0.52454
6496330,-0.31500,63.9375,112,60,0.50867
6496340,-0.31500,63.9375,112,60,0.50867
6496350,-0.28500,63.1875,112,60,0.47985
6496360,-0.30000,62.3750,112,60,0.45495
6496370,-0.31000,62.0000,112,60,0.44200
6496380,-0.31500,61.6250,112,60,0.42955
6496390,-0.30000,61.3125,112,60,0.41758
6496400,-0.27000,60.6250,112,60,0.39658
6496410,-0.24000,60.2500,112,60,0.38755
6496420,-0.22000,59.9375,112,60,0.37924
6496430,-0.20500,59.5625,112,60,0.37192
6496440,-0.20500,59.5625,112,60,0.37192
6496450,-0.18000,59.5000,112,60,0.35775
6496460,-0.17000,60.3750,112,60,0.35458
6496470,-0.15500,62.5000,112,60,0.35140
6496480,-0.14000,71.9375,112,60,0.34530
6496490,-0.12000,78.8750,112,60,0.34212
6496500,-0.09500,86.2500,112,60,0.33919
6496510,-0.07500,93.0625,112,60,0.33651
6496520,-0.05000,103.3125,112,60,0.33114
6496530,-0.03000,106.8125,112,60,0.32869
6496540,-0.00500,109.3750,112,60,0.32601
6496550,0.01000,111.0625,112,60,0.32430
6496560,0.03000,111.8125,112,60,0.32063
6496570,0.05000,111.1250,112,60,0.31795
6496580,0.08000,110.0625,112,60,0.31502
6496590,0.10000,108.7500,112,60,0.31209
6496600,0.10000,105.6875,112,60,0.30574
6496610,0.08000,104.0625,112,60,0.30256
6496620,0.04000,102.5000,112,60,0.29915
6496630,0.00000,100.8750,112,60,0.29573
6496640,-0.03500,97.7500,112,60,0.28938
6496650,-0.05000,96.2500,112,60,0.28718
6496660,-0.06000,94.8125,112,60,0.28425
6496670,-0.08000,93.4375,112,60,0.28083
6496680,-0.08500,90.7500,112,60,0.27350
6496690,-0.08500,90.7500,112,60,0.27350
6496700,-0.09500,88.0625,112,60,0.26618
6496710,-0.09500,86.5625,112,60,0.26276
6496720,-0.10500,83.2500,112,60,0.26007
6496730,-0.10500,81.4375,112,60,0.26227
6496740,-0.10500,79.4375,112,60,0.26813
6496750,-0.11000,77.5000,112,60,0.27668
6496760,-0.11000,74.1250,112,60,0.30769
6496770,-0.10000,72.7500,112,60,0.33187
6496780,-0.08500,71.6875,112,60,0.36117
6496790,-0.08000,70.7500,112,60,0.39463
6496800,-0.07500,69.5000,112,60,0.46862
6496810,-0.05500,69.1875,112,60,0.50598
6496820,-0.02500,69.0000,112,60,0.54212
6496830,-0.02500,68.8750,112,60,0.57607
6496840,-0.05500,68.9375,112,60,0.63004
6496850,-0.10000,69.0625,112,60,0.64835
6496860,-0.14500,69.2500,112,60,0.66569
6496870,-0.19000,69.3750,112,60,0.68083
6496880,-0.22500,69.5625,112,60,0.70159
6496890,-0.23500,69.6250,112,60,0.70720
6496900,-0.23000,69.6250,112,60,0.70989
6496910,-0.22000,69.5625,112,60,0.71038
6496920,-0.21000,69.2500,112,60,0.70452
6496930,-0.24000,69.0000,112,60,0.69866
6496940,-0.30000,68.7500,112,60,0.69109
6496950,-0.16000,68.4375,112,60,0.68303
6496960,0.33000,67.8750,112,60,0.66374
6496970,1.07000,67.5625,112,60,0.65226
6496980,1.42500,67.2500,112,60,0.63980
6496990,0.80500,66.8750,112,60,0.62662
6497000,-0.01500,66.1250,112,61,0.59780
6497010,-0.32500,65.7500,112,61,0.58217
6497020,-0.32500,65.3750,112,61,0.56606
6497030,-0.29000,65.0000,112,61,0.54969
6497040,-0.26000,64.3125,112,61,0.51868
6497050,-0.25000,63.9375,112,61,0.50501
6497060,-0.23500,63.6250,112,61,0.49084
6497070,-0.22500,63.2500,112,61,0.47643
6497080,-0.21000,62.4375,112,61,0.44933
6497090,-0.20000,62.0625,112,61,0.43687
6497100,-0.19000,61.7500,112,61,0.42491
6497110,-0.19000,61.7500,112,61,0.42491
6497120,-0.16000,60.6875,112,61,0.39463
6497130,-0.15000,60.4375,112,61,0.38657
6497140,-0.13500,60.2500,112,61,0.38046
6497150,-0.12000,60.3125,112,61,0.37558
6497160,-0.10500,62.6250,112,61,0.36532
6497170,-0.09000,65.8750,112,61,0.36093
6497180,-0.07000,71.0000,112,61,0.35702
6497190,-0.05500,77.6250,112,61,0.35360
6497200,-0.05500,77.6250,112,61,0.35360
6497210,0.00000,98.2500,112,61,0.34432
6497220,0.02500,103.2500,112,61,0.34139
6497230,0.05000,107.2500,112,61,0.33846
6497240,0.07500,112.5625,112,61,0.33407
6497250,0.09500,113.8125,112,61,0.33260
6497260,0.12000,114.1250,112,61,0.33040
6497270,0.14000,113.6875,112,61,0.32723
6497280,0.15500,111.6250,112,61,0.32112
6497290,0.17500,110.3750,112,61,0.31795
6497300,0.18000,108.9375,112,61,0.31477
6497310,0.15500,107.5000,112,61,0.31160
6497320,0.12000,104.5000,112,61,0.30501
6497330,0.07000,103.0000,112,61,0.30110
6497340,0.03500,101.5000,112,61,0.29841
6497350,0.00500,100.0000,112,61,0.29621
6497360,-0.01000,97.1250,112,61,0.28987
6497370,-0.02000,95.6875,112,61,0.28620
6497380,-0.02500,94.1875,112,61,0.28254
6497390,-0.02500,92.6875,112,61,0.27912
6497400,-0.02500,89.6875,112,61,0.27277
6497410,-0.02000,88.1875,112,61,0.27057
6497420,-0.01500,86.5625,112,61,0.26984
6497430,-0.01500,84.7500,112,61,0.27179
6497440,-0.01000,80.8125,112,61,0.28523
6497450,-0.01000,78.9375,112,61,0.29646
6497460,-0.00500,77.2500,112,61,0.31306
6497470,0.01000,75.7500,112,61,0.33578
6497480,0.03000,73.5000,112,61,0.39805
6497490,0.04000,72.6250,112,61,0.43468
6497500,0.03000,71.9375,112,61,0.47302
6497510,0.04000,71.3750,112,61,0.51184
6497520,0.06000,70.8125,112,61,0.58510
6497530,0.06000,70.6250,112,61,0.61734
6497540,0.03000,70.6250,112,61,0.64225
6497550,-0.01500,70.6250,112,61,0.66227
6497560,-0.05500,70.8750,112,61,0.69915
6497570,-0.11000,71.0625,112,61,0.71355
6497580,-0.14000,71.1875,112,61,0.72869
6497590,-0.15500,71.3125,112,61,0.74237
6497600,-0.15500,71.3125,112,61,0.75311
6497610,-0.14000,71.1875,112,61,0.75287
6497620,-0.12500,71.0625,112,61,0.75018
6497630,-0.16000,70.8125,112,61,0.74505
6497640,-0.22500,70.1875,112,61,0.72991
6497650,-0.06000,69.9375,112,61,0.72063
6497660,0.47500,69.5625,112,61,0.70989
6497670,1.26000,69.2500,112,61,0.69817
6497680,1.59500,68.5000,112,61,0.67253
6497690,0.91000,68.0625,112,61,0.65836
6497700,0.03500,67.6250,112,61,0.64322
6497710,-0.28000,67.2500,112,61,0.62759
6497720,-0.27000,66.4375,112,61,0.59463
6497730,-0.24000,66.0625,112,61,0.57753
6497740,-0.22000,65.7500,112,61,0.56215
6497750,-0.21500,65.3750,112,61,0.54799
6497760,-0.20500,64.6875,112,61,0.51746
6497770,-0.19000,64.3125,112,61,0.50256
6497780,-0.18000,64.0000,112,61,0.48767
6497790,-0.17000,63.6250,112,61,0.47350
6497800,-0.15500,62.8750,112,61,0.44860
6497810,-0.13500,62.5000,112,61,0.43736
6497820,-0.11000,62.1250,112,61,0.42735
6497830,-0.09500,61.7500,112,61,0.41832
6497840,-0.09500,61.7500,112,61,0.41832
6497850,-0.07500,62.0000,112,61,0.39878
6497860,-0.06500,63.5625,112,61,0.39365
6497870,-0.05000,66.7500,112,61,0.38901
6497880,-0.03000,78.5625,112,61,0.38120
6497890,-0.01000,86.2500,112,61,0.37802
6497900,0.01000,93.8125,112,61,0.37534
6497910,0.03500,100.3750,112,61,0.37289
6497920,0.06000,109.7500,112,61,0.36752
6497930,0.08500,112.8125,112,61,0.36484
6497940,0.11000,115.0000,112,61,0.36288
6497950,0.13000,116.2500,112,61,0.36093
6497960,0.15000,116.3125,112,61,0.35458
6497970,0.16500,115.5000,112,61,0.35067
6497980,0.18500,114.3750,112,61,0.34676
6497990,0.20000,113.0625,112,61,0.34286
6498000,0.19500,110.0000,113,61,0.33455
6498010,0.17000,108.3125,113,61,0.33040
6498020,0.13000,106.6875,113,61,0.32650
6498030,0.08000,105.0625,113,61,0.32283
6498040,0.04500,101.9375,113,61,0.31697
6498050,0.02000,100.5000,113,61,0.31526
6498060,0.00000,99.1250,113,61,0.31258
6498070,-0.01500,97.8125,113,61,0.30891
6498080,-0.01500,95.1250,113,61,0.30110
6498090,-0.02000,93.6875,113,61,0.29719
6498100,-0.02000,92.1875,113,61,0.29353
6498110,-0.02000,90.5625,113,61,0.29060
6498120,-0.02000,86.9375,113,61,0.29109
6498130,-0.02000,85.0000,113,61,0.29646
6498140,-0.02000,83.0000,113,61,0.30476
6498150,-0.01500,81.0000,113,61,0.31673
6498160,-0.01500,81.0000,113,61,0.31673
6498170,-0.00500,76.1875,113,61,0.38657
6498180,0.02000,75.0625,113,61,0.41978
6498190,0.04000,74.1250,113,61,0.45641
6498200,0.04000,72.8750,113,61,0.53407
6498210,0.05000,72.4375,113,61,0.57241
6498220,0.07500,72.0625,113,61,0.60879
6498230,0.09000,71.8750,113,61,0.64225
6498240,0.08000,71.7500,113,61,0.69475
6498250,0.04000,71.6875,113,61,0.71209
6498260,0.00000,71.6875,113,61,0.72845
6498270,-0.05500,71.6875,113,61,0.74188
6498280,-0.09000,71.6875,113,61,0.75922
6498290,-0.11000,71.6250,113,61,0.76313
6498300,-0.11500,71.5625,113,61,0.76435
6498310,-0.11500,71.4375,113,61,0.76313
6498320,-0.10500,71.0000,113,61,0.75507
6498330,-0.13500,70.6875,113,61,0.74847
6498340,-0.21500,70.3125,113,61,0.74090
6498350,-0.09500,69.9375,113,61,0.73260
6498360,0.42000,69.1250,113,61,0.71306
6498370,1.21500,68.6875,113,61,0.70159
6498380,1.63500,68.3125,113,61,0.68889
6498390,1.02000,67.8750,113,61,0.67497
6498400,0.10000,67.0625,113,61,0.64444
6498410,-0.27500,66.6875,113,61,0.62857
6498420,-0.29000,66.2500,113,61,0.61221
6498430,-0.26000,65.8750,113,61,0.59536
6498440,-0.25000,65.1250,113,61,0.56386
6498450,-0.24500,64.8125,113,61,0.55018
6498460,-0.23000,64.4375,113,61,0.53553
6498470,-0.23000,64.1250,113,61,0.52088
6498480,-0.22000,63.4375,113,61,0.49280
6498490,-0.21000,63.0625,113,61,0.47985
6498500,-0.20000,62.7500,113,61,0.46740
6498510,-0.19000,62.4375,113,61,0.45568
6498520,-0.18000,61.7500,113,61,0.43468
6498530,-0.17000,61.4375,113,61,0.42540
6498540,-0.16000,61.2500,113,61,0.41807
6498550,-0.15500,61.3125,113,61,0.41197
6498560,-0.13500,63.7500,113,61,0.39976
6498570,-0.12500,67.1875,113,61,0.39414
6498580,-0.10500,72.4375,113,61,0.38926
6498590,-0.08500,79.2500,113,61,0.38510
6498600,-0.07000,93.8750,113,61,0.37802
6498610,-0.05000,100.1250,113,61,0.37460
6498620,-0.02500,105.1250,113,61,0.37118
6498630,0.00000,108.9375,113,61,0.36752
6498640,0.02000,113.6875,113,61,0.36117
6498650,0.02000,113.6875,113,61,0.36117
6498660,0.06500,114.8750,113,61,0.35458
6498670,0.08500,114.3125,113,61,0.35043
6498680,0.10500,111.8750,113,61,0.34212
6498690,0.12000,110.3125,113,61,0.33822
6498700,0.12500,108.6875,113,61,0.33431
6498710,0.11000,107.0625,113,61,0.33016
6498720,0.07500,103.8125,113,61,0.32112
6498730,0.03500,102.1250,113,61,0.31648
6498740,0.00000,100.5000,113,61,0.31331
6498750,-0.02500,98.8125,113,61,0.31062
6498760,-0.04000,95.6875,113,61,0.30354
6498770,-0.05500,94.1875,113,61,0.29963
6498780,-0.06500,92.7500,113,61,0.29573
6498790,-0.07500,91.3125,113,61,0.29182
6498800,-0.07500,88.3750,113,61,0.28425
6498810,-0.07500,86.6875,113,61,0.28132
6498820,-0.08000,84.8750,113,61,0.28034
6498830,-0.08000,84.8750,113,61,0.28034
6498840,-0.08500,78.7500,113,61,0.29548
6498850,-0.08500,76.8750,113,61,0.30696
6498860,-0.08500,75.3125,113,61,0.32454
6498870,-0.08000,73.9375,113,61,0.34774
6498880,-0.06500,71.8125,113,61,0.41001
6498890,-0.04000,71.1250,113,61,0.44713
6498900,-0.02500,70.5625,113,61,0.48620
6498910,-0.02500,70.1875,113,61,0.52527
6498920,0.00000,69.9375,113,61,0.59731
6498930,0.02500,69.9375,113,61,0.62833
6498940,0.03000,70.0000,113,61,0.65201
6498950,-0.00500,70.0625,113,61,0.67033
6498960,-0.04500,70.2500,113,61,0.70256
6498970,-0.09500,70.3750,113,61,0.71453
6498980,-0.14000,70.4375,113,61,0.72332
6498990,-0.16000,70.4375,113,61,0.72894
6499000,-0.16500,70.2500,112,61,0.73138
6499010,-0.16000,70.1250,112,61,0.72894
6499020,-0.15500,69.8750,112,61,0.72454
6499030,-0.14500,69.6250,112,61,0.71795
6499040,-0.18000,69.0000,112,61,0.70110
6499050,-0.22500,68.6875,112,61,0.69060
6499060,-0.04000,68.3750,112,61,0.67912
6499070,0.52500,68.0625,112,61,0.66667
6499080,1.26500,67.3125,112,61,0.63932
6499090,1.40000,66.9375,112,61,0.62442
6499100,0.67000,66.5625,112,61,0.60904
6499110,-0.06500,66.1250,112,61,0.59292
6499120,-0.29500,65.3750,112,61,0.55946
6499130,-0.27500,65.0625,112,61,0.54212
6499140,-0.24500,64.6875,112,61,0.52674
6499150,-0.23000,64.3125,112,61,0.51233
6499160,-0.22000,63.5625,112,61,0.48083
6499170,-0.21000,63.1875,112,61,0.46569
6499180,-0.20000,62.8125,112,61,0.45153
6499190,-0.19000,62.4375,112,61,0.43810
6499200,-0.18500,61.6250,112,61,0.41392
6499210,-0.18000,61.3125,112,61,0.40317
6499220,-0.17000,60.9375,112,61,0.39365
6499230,-0.17000,60.6250,112,61,0.38510
6499240,-0.16000,60.0000,112,61,0.37338
6499250,-0.15500,59.8750,112,61,0.36825
6499260,-0.14500,60.0000,112,61,0.36361
6499270,-0.13500,60.7500,112,61,0.35946
6499280,-0.11500,65.9375,112,61,0.35189
6499290,-0.10500,71.1250,112,61,0.34823
6499300,-0.08500,77.8125,112,61,0.34481
6499310,-0.07000,85.1250,112,61,0.34164
6499320,-0.05000,97.8125,112,61,0.33626
6499330,-0.03500,102.4375,112,61,0.33358
6499340,-0.01500,106.0625,112,61,0.33162
6499350,0.00000,108.6875,112,61,0.33016
6499360,0.02000,111.1875,112,61,0.32503
6499370,0.04000,111.0625,112,61,0.32161
6499380,0.06000,110.3125,112,61,0.31770
6499390,0.08500,109.1250,112,61,0.31380
6499400,0.10500,105.9375,112,61,0.30598
6499410,0.10000,104.2500,112,61,0.30232
6499420,0.08000,102.5000,112,61,0.29841
6499430,0.03500,100.8125,112,61,0.29451
6499440,0.03500,100.8125,112,61,0.29451
6499450,-0.04500,96.0000,112,61,0.28645
6499460,-0.07500,94.4375,112,61,0.28303
6499470,-0.09000,92.9375,112,61,0.27937
6499480,-0.09500,89.8750,112,61,0.27082
6499490,-0.09500,88.3750,112,61,0.26667
6499500,-0.09500,86.8750,112,61,0.26252
6499510,-0.09500,85.3125,112,61,0.25861
6499520,-0.09000,81.8125,112,61,0.25275
6499530,-0.09000,79.9375,112,61,0.25177
6499540,-0.09500,77.9375,112,61,0.25324
6499550,-0.10000,76.0625,112,61,0.25763
6499560,-0.10000,72.8750,112,61,0.27766
6499570,-0.09500,71.6250,112,61,0.29524
6499580,-0.08500,70.5625,112,61,0.31819
6499590,-0.06500,69.6875,112,61,0.34603
6499600,-0.05500,68.5625,112,61,0.41368
6499610,-0.04500,68.2500,112,61,0.45055
6499620,-0.02500,68.0625,112,61,0.48767
6499630,0.00000,67.9375,112,61,0.52112
6499640,0.01000,68.0625,112,61,0.56899
6499650,-0.01000,68.1875,112,61,0.59243
6499660,-0.05500,68.3125,112,61,0.61392
6499670,-0.10000,68.5000,112,61,0.63248
6499680,-0.14500,68.7500,112,61,0.65934
6499690,-0.17500,68.8125,112,61,0.66740
6499700,-0.19000,68.8125,112,61,0.67253
6499710,-0.19000,68.7500,112,61,0.67473
6499720,-0.18000,68.4375,112,61,0.67179
6499730,-0.17000,68.1875,112,61,0.66691
6499740,-0.17000,67.8750,112,61,0.66032
6499750,-0.23000,67.6250,112,61,0.65250
6499760,-0.23000,66.9375,112,61,0.63248
6499770,0.04500,66.6250,112,61,0.62076
6499780,0.69500,66.2500,112,61,0.60830
6499790,1.34500,65.9375,112,61,0.59512
6499800,1.15000,65.2500,112,61,0.56654
6499810,0.31000,64.8750,112,61,0.55140
6499820,-0.24000,64.5000,112,61,0.53602
6499830,-0.35500,64.1250,112,61,0.52039
6499840,-0.35500,64.1250,112,61,0.52039
6499850,-0.30000,63.0625,112,61,0.47888
6499860,-0.29500,62.6875,112,61,0.46398
6499870,-0.28500,62.3125,112,61,0.44908
6499880,-0.28000,61.6250,112,61,0.42149
6499890,-0.27000,61.2500,112,61,0.40904
6499900,-0.26000,60.8750,112,61,0.39756
6499910,-0.25000,60.5625,112,61,0.38730
6499920,-0.24000,59.9375,112,61,0.36923
6499930,-0.22500,59.6250,112,61,0.36166
6499940,-0.22000,59.3125,112,61,0.35604
6499950,-0.21000,59.0000,112,61,0.35140
6499960,-0.19500,58.8125,112,61,0.34212
6499970,-0.18000,59.3750,112,61,0.33822
6499980,-0.16500,60.8125,112,61,0.33504
6499990,-0.15500,63.6875,112,61,0.33211
6500000,-0.14000,74.7500,112,61,0.32698
6500010,-0.12500,81.9375,112,61,0.32430
6500020,-0.10000,88.8750,112,61,0.32186
6500030,-0.07500,94.9375,112,61,0.31966
6500040,-0.05500,103.6875,112,61,0.31722
6500050,-0.03500,106.6875,112,61,0.31551
6500060,-0.01500,108.8125,112,61,0.31331
6500070,0.00000,110.0625,112,61,0.31111
6500080,0.02000,109.9375,112,61,0.30574
6500090,0.04000,108.9375,112,61,0.30305
6500100,0.06500,107.6875,112,61,0.30012
6500110,0.08000,106.1875,112,61,0.29695
6500120,0.07000,102.7500,112,61,0.28987
6500130,0.04000,101.0625,112,61,0.28620
6500140,-0.00500,99.3125,112,61,0.28327
6500150,-0.04500,97.6250,112,61,0.28107
6500160,-0.08000,94.3750,112,61,0.27546
6500170,-0.10000,92.8125,112,61,0.27228
6500180,-0.11500,91.3125,112,61,0.26911
6500190,-0.12000,89.8750,112,61,0.26593
6500200,-0.11500,87.0000,112,61,0.25885
6500210,-0.11500,85.5000,112,61,0.25519
6500220,-0.11500,83.9375,112,61,0.25201
6500230,-0.11500,83.9375,112,61,0.25201
6500240,-0.11500,78.6250,112,61,0.24884
6500250,-0.11500,76.6875,112,61,0.25128
6500260,-0.11500,74.8750,112,61,0.25690
6500270,-0.11500,73.2500,112,61,0.26667
6500280,-0.10500,70.7500,112,61,0.30208
6500290,-0.09000,69.8750,112,61,0.32772
6500300,-0.07000,69.1250,112,61,0.35800
6500310,-0.06000,68.5000,112,61,0.39219
6500320,-0.05000,67.7500,112,61,0.46618
6500330,-0.02000,67.6250,112,61,0.50330
6500340,-0.00500,67.5625,112,61,0.53431
6500350,-0.00500,67.6250,112,61,0.56093
6500360,-0.03500,67.9375,112,61,0.61343
6500370,-0.08000,68.1250,112,61,0.63565
6500380,-0.13000,68.3125,112,61,0.65372
6500390,-0.17000,68.4375,112,61,0.66789
6500400,-0.19500,68.5000,112,61,0.68498
6500410,-0.20000,68.4375,112,61,0.68864
6500420,-0.19000,68.3750,112,61,0.68938
6500430,-0.18000,68.1875,112,61,0.68767
6500440,-0.18000,67.7500,112,61,0.67839
6500450,-0.21500,67.5000,112,61,0.67155
6500460,-0.25500,67.1875,112,61,0.66325
6500470,-0.07500,66.8125,112,61,0.65324
6500480,0.48500,66.1875,112,61,0.63053
6500490,0.48500,66.1875,112,61,0.63053
6500500,1.32000,65.5000,112,61,0.60464
6500510,0.60000,65.1875,112,61,0.59048
6500520,-0.10000,64.6250,112,61,0.55995
6500530,-0.32500,64.3125,112,61,0.54408
6500540,-0.31500,64.0000,112,61,0.52967
6500550,-0.28500,63.6875,112,61,0.51624
6500560,-0.27000,62.9375,112,61,0.48571
6500570,-0.26000,62.9375,112,61,0.47057
6500580,-0.25500,62.1875,112,61,0.45592
6500590,-0.25000,61.7500,112,61,0.44200
6500600,-0.24000,60.9375,112,61,0.41661
6500610,-0.23000,60.5625,112,61,0.40513
6500620,-0.22000,60.1875,112,61,0.39487
6500630,-0.21000,59.8125,112,61,0.38559
6500640,-0.20500,59.0625,112,61,0.37314
6500650,-0.19500,58.7500,112,61,0.36728
6500660,-0.18500,58.5625,112,61,0.36190
6500670,-0.17000,58.6875,112,61,0.35702
6500680,-0.16000,61.2500,112,61,0.34921
6500690,-0.14500,64.6875,112,61,0.34603
6500700,-0.12500,70.0000,112,61,0.34359
6500710,-0.11000,76.8125,112,61,0.34115
6500720,-0.09000,91.0625,112,61,0.33700
6500730,-0.07000,96.9375,112,61,0.33578
6500740,-0.05000,101.6875,112,61,0.33480
6500750,-0.05000,101.6875,112,61,0.33480
6500760,0.00000,110.3750,112,61,0.32845
6500770,0.02000,111.4375,112,61,0.32552
6500780,0.04000,111.6250,112,61,0.32210
6500790,0.06000,111.1250,112,61,0.31893
6500800,0.08000,109.0000,112,61,0.31258
6500810,0.09000,107.6875,112,61,0.30940
6500820,0.09000,106.1250,112,61,0.30623
6500830,0.06000,104.5000,112,61,0.30330
6500840,0.01500,101.0625,112,61,0.29988
6500850,-0.02500,99.4375,112,61,0.29744
6500860,-0.06500,97.8750,112,61,0.29426
6500870,-0.09000,96.3125,112,61,0.29084
6500880,-0.10500,93.3750,112,61,0.28303
6500890,-0.11500,91.9375,112,61,0.27863
6500900,-0.11500,90.5625,112,61,0.27424
6500910,-0.11500,89.1875,112,61,0.26960
6500920,-0.11500,86.1875,112,61,0.26129
6500930,-0.11500,84.5000,112,61,0.25910
6500940,-0.11500,82.7500,112,61,0.25836
6500950,-0.11500,80.8125,112,61,0.25885
6500960,-0.11500,76.8750,112,61,0.26838
6500970,-0.11000,75.1250,112,61,0.27961
6500980,-0.10500,73.5625,112,61,0.29597
6500990,-0.08500,72.3125,112,61,0.31795
6501000,-0.06500,70.3750,112,61,0.37729
6501010,-0.05500,69.6250,112,61,0.41270
6501020,-0.04000,69.0625,112,61,0.45031
6501030,-0.00500,68.6875,112,61,0.48840
6501040,0.01000,68.4375,112,61,0.54945
6501050,0.01000,68.3750,112,61,0.57998
6501060,-0.01500,68.4375,112,61,0.60904
6501070,-0.05500,68.5625,112,61,0.63516
6501080,-0.10500,68.9375,112,61,0.67692
6501090,-0.14500,69.1875,112,61,0.69182
6501100,-0.17000,69.3125,112,61,0.70256
6501110,-0.18000,69.4375,112,61,0.70940
6501120,-0.17000,69.4375,112,61,0.71429
6501130,-0.16000,69.3125,112,61,0.71233
6501140,-0.15500,69.1875,112,61,0.70818
6501150,-0.19000,69.0000,112,61,0.70281
6501160,-0.24000,68.5000,112,61,0.68791
6501170,-0.08500,68.1875,112,61,0.67839
6501180,0.43500,67.9375,112,61,0.66789
6501190,1.17500,67.6250,112,61,0.65617
6501200,1.40000,67.0000,112,61,0.62979
6501210,0.73500,66.6875,112,61,0.61538
6501220,-0.04000,66.3750,112,61,0.60049
6501230,-0.31000,66.0000,112,61,0.58486
6501240,-0.30500,65.1875,112,61,0.55678
6501250,-0.27000,64.7500,112,61,0.54188
6501260,-0.26000,64.3125,112,61,0.52601
6501270,-0.25000,63.9375,112,61,0.50989
6501280,-0.24000,63.1250,112,61,0.47814
6501290,-0.23500,62.6875,112,61,0.46325
6501300,-0.23500,62.6875,112,61,0.46325
6501310,-0.21500,61.8750,112,61,0.43639
6501320,-0.21000,61.1250,112,61,0.41368
6501330,-0.20000,60.7500,112,61,0.40537
6501340,-0.19000,60.3750,112,61,0.39829
6501350,-0.18000,60.0000,112,61,0.39096
6501360,-0.17000,59.7500,112,61,0.37778
6501370,-0.15500,60.2500,112,61,0.37192
6501380,-0.15000,61.7500,112,61,0.36679
6501390,-0.13500,64.7500,112,61,0.36215
6501400,-0.12000,76.0625,112,61,0.35482
6501410,-0.09500,83.5000,112,61,0.35189
6501420,-0.07500,90.8125,112,61,0.34945
6501430,-0.05500,97.1250,112,61,0.34725
6501440,-0.05500,97.1250,112,61,0.34725
6501450,-0.00500,109.6875,112,61,0.34237
6501460,0.01500,111.9375,112,61,0.34042
6501470,0.04000,113.2500,112,61,0.33797
6501480,0.05500,113.3750,112,61,0.33309
6501490,0.08000,112.5625,112,61,0.33040
6501500,0.10000,111.4375,112,61,0.32747
6501510,0.11500,110.0625,112,61,0.32405
6501520,0.11000,107.1875,112,61,0.31770
6501530,0.09000,105.6875,112,61,0.31526
6501540,0.04500,104.1875,112,61,0.31306
6501550,0.00000,102.6875,112,61,0.30989
6501560,-0.03500,99.6875,112,61,0.30232
6501570,-0.06000,98.1875,112,61,0.29841
6501580,-0.08000,96.7500,112,61,0.29451
6501590,-0.09000,95.3125,112,61,0.29060
6501600,-0.09500,92.5625,112,61,0.28254
6501610,-0.09500,91.1875,112,61,0.27839
6501620,-0.09500,89.7500,112,61,0.27473
6501630,-0.09000,88.2500,112,61,0.27179
6501640,-0.09000,84.8125,112,61,0.27106
6501650,-0.09000,82.8750,112,61,0.27326
6501660,-0.09000,80.8750,112,61,0.27863
6501670,-0.08500,79.0000,112,61,0.28840
6501680,-0.08500,75.6875,112,61,0.33040
6501690,-0.06500,74.3750,112,61,0.35971
6501700,-0.04000,73.1875,112,61,0.39390
6501710,-0.03000,72.2500,112,61,0.43175
6501720,-0.03000,70.8750,112,61,0.51282
6501730,-0.01000,70.5000,112,61,0.54823
6501740,0.01000,70.2500,112,61,0.57949
6501750,0.01500,70.1250,112,61,0.61270
6501760,-0.01000,70.1875,112,61,0.67350
6501770,-0.04500,70.3125,112,61,0.69841
6501780,-0.09000,70.4375,112,61,0.71917
6501790,-0.13500,70.6250,112,61,0.73578
6501800,-0.13500,70.6250,112,61,0.73578
6501810,-0.17000,71.0625,112,61,0.76313
6501820,-0.17000,71.0625,112,61,0.76581
6501830,-0.16000,71.0625,112,61,0.76606
6501840,-0.16000,71.0625,112,61,0.76606
6501850,-0.19000,70.4375,112,61,0.75189
6501860,-0.25000,70.1250,112,61,0.74383
6501870,-0.06500,69.8125,112,61,0.73431
6501880,0.51500,69.0625,112,61,0.71160
6501890,1.30000,68.6875,112,61,0.69915
6501900,1.51000,68.3125,112,61,0.68571
6501910,0.78500,67.9375,112,61,0.67155
6501920,-0.04500,67.1875,112,61,0.64200
6501930,-0.32500,66.8125,112,61,0.62808
6501940,-0.32500,66.8125,112,61,0.62808
6501950,-0.28000,66.0625,112,61,0.59976
6501960,-0.27000,65.3125,112,61,0.56777
6501970,-0.26000,64.9375,112,61,0.55092
6501980,-0.25000,64.5625,112,61,0.53431
6501990,-0.23500,64.1875,112,61,0.51795
6502000,-0.23000,63.4375,113,61,0.48742
6502010,-0.22000,63.0625,113,61,0.47350
6502020,-0.21500,62.6875,113,61,0.46081
6502030,-0.20500,62.3125,113,61,0.44933
6502040,-0.20500,62.3125,113,61,0.44933
6502050,-0.19000,61.2500,113,61,0.42418
6502060,-0.18000,61.1250,113,61,0.41636
6502070,-0.16500,61.5000,113,61,0.40904
6502080,-0.15500,65.6250,113,61,0.39731
6502090,-0.13500,70.2500,113,61,0.39292
6502100,-0.12000,76.6875,113,61,0.38950
6502110,-0.12000,76.6875,113,61,0.38950
6502120,-0.07500,98.6250,113,61,0.38071
6502130,-0.05000,104.2500,113,61,0.37875
6502140,-0.02500,108.6250,113,61,0.37705
6502150,0.00000,111.9375,113,61,0.37460
6502160,0.02500,115.6875,113,61,0.36899
6502170,0.04500,116.2500,113,61,0.36581
6502180,0.06500,115.9375,113,61,0.36264
6502190,0.09000,115.1250,113,61,0.35922
6502200,0.11000,112.5625,113,61,0.35165
6502210,0.12500,111.0625,113,61,0.34750
6502220,0.12000,109.6250,113,61,0.34359
6502230,0.12000,109.6250,113,61,0.34359
6502240,0.05500,105.1250,113,61,0.33407
6502250,0.01500,103.5625,113,61,0.33089
6502260,-0.02000,102.0625,113,61,0.32772
6502270,-0.04500,100.6250,113,61,0.32430
6502280,-0.06500,97.6875,113,61,0.31697
6502290,-0.07500,96.2500,113,61,0.31282
6502300,-0.08000,94.8125,113,61,0.30867
6502310,-0.08000,93.3750,113,61,0.30427
6502320,-0.08500,90.3750,113,61,0.29621
6502330,-0.08500,88.6875,113,61,0.29451
6502340,-0.09000,86.8125,113,61,0.29499
6502350,-0.09500,84.8750,113,61,0.29744
6502360,-0.10000,80.9375,113,61,0.31331
6502370,-0.10500,79.1250,113,61,0.32918
6502380,-0.10500,77.5000,113,61,0.35140
6502390,-0.10000,76.1250,113,61,0.37973
6502400,-0.08000,74.0625,113,61,0.45153
6502410,-0.06500,73.3750,113,61,0.49231
6502420,-0.07000,72.8125,113,61,0.53382
6502430,-0.06000,72.5000,113,61,0.57460
6502440,-0.06000,72.5000,113,61,0.57460
6502450,-0.03000,72.0000,113,61,0.66667
6502460,-0.04500,72.0000,113,61,0.69402
6502470,-0.08000,72.0625,113,61,0.71795
6502480,-0.12500,72.1250,113,61,0.75458
6502490,-0.17500,72.1875,113,61,0.76728
6502500,-0.21000,72.1875,113,61,0.77631
6502510,-0.22000,72.1250,113,61,0.78217
6502520,-0.22000,71.7500,113,61,0.78486
6502530,-0.21000,71.5000,113,61,0.78193
6502540,-0.20500,71.1875,113,61,0.77705
6502550,-0.24000,70.8125,113,61,0.77070
6502560,-0.30500,70.0000,113,61,0.75360
6502570,-0.15000,69.5625,113,61,0.74335
6502580,0.43000,69.1875,113,61,0.73187
6502590,1.22500,68.8125,113,61,0.71966
6502600,1.50000,68.1250,113,61,0.69280
6502610,0.81500,67.8125,113,61,0.67814
6502620,-0.06000,67.5625,113,61,0.66276
6502630,-0.38500,67.3125,113,61,0.64835
6502640,-0.37500,66.7500,113,61,0.61880
6502650,-0.34500,66.5000,113,61,0.60269
6502660,-0.33500,66.2500,113,61,0.58632
6502670,-0.32500,65.9375,113,61,0.56972
6502680,-0.32000,65.3125,113,61,0.53797
6502690,-0.31000,65.0000,113,61,0.52283
6502700,-0.30500,64.6250,113,61,0.50867
6502710,-0.29000,64.3125,113,61,0.49524
6502720,-0.28000,63.4375,113,61,0.47057
6502730,-0.27000,63.0000,113,61,0.46105
6502740,-0.26500,62.5625,113,61,0.45275
6502750,-0.25500,62.1250,113,61,0.44420
6502760,-0.24500,61.6875,113,61,0.42857
6502770,-0.23000,62.2500,113,61,0.42149
6502780,-0.22000,63.8125,113,61,0.41538
6502790,-0.20500,67.0625,113,61,0.41001
6502800,-0.19000,78.9375,113,61,0.40073
6502810,-0.17000,86.5625,113,61,0.39683
6502820,-0.15000,94.0000,113,61,0.39341
6502830,-0.15000,94.0000,113,61,0.39341
6502840,-0.12000,105.6875,113,61,0.39096
6502850,-0.06500,112.8125,113,61,0.38217
6502860,-0.04500,114.8750,113,61,0.37827
6502870,-0.02000,115.9375,113,61,0.37460
6502880,0.00000,115.5625,113,61,0.36752
6502890,0.03000,114.5625,113,61,0.36410
6502900,0.05000,113.3125,113,61,0.36068
6502910,0.07000,111.8750,113,61,0.35726
6502920,0.07000,108.6250,113,61,0.34994
6502930,0.05500,107.0000,113,61,0.34701
6502940,0.02500,105.3750,113,61,0.34457
6502950,-0.01000,103.7500,113,61,0.34115
6502960,-0.04500,100.6250,113,61,0.33358
6502970,-0.07000,99.0625,113,61,0.32991
6502980,-0.09000,97.5625,113,61,0.32650
6502990,-0.10000,96.0625,113,61,0.32283
6503000,-0.11000,93.1250,112,61,0.31453
6503010,-0.11500,91.6250,112,61,0.31013
6503020,-0.12000,90.0625,112,61,0.30623
6503030,-0.12000,88.4375,112,61,0.30379
6503040,-0.12000,84.5625,112,61,0.30330
6503050,-0.12000,82.5000,112,61,0.30647
6503060,-0.12000,80.4375,112,61,0.31331
6503070,-0.12500,78.5000,112,61,0.32527
6503080,-0.12000,75.5000,112,61,0.36508
6503090,-0.11000,74.3750,112,61,0.39316
6503100,-0.09500,73.3750,112,61,0.42589
6503110,-0.06500,72.5625,112,61,0.46252
6503120,-0.06000,71.4375,112,61,0.54090
6503130,-0.05500,71.1250,112,61,0.57460
6503140,-0.02500,70.9375,112,61,0.60440
6503150,0.00000,70.8750,112,61,0.63565
6503160,0.00000,70.8750,112,61,0.69206
6503170,-0.02500,70.9375,112,61,0.71502
6503180,-0.07500,71.0000,112,61,0.73358
6503190,-0.11500,71.1250,112,61,0.74799
6503200,-0.16000,71.1875,112,61,0.76532
6503210,-0.18500,71.1250,112,61,0.76874
6503220,-0.18500,71.1250,112,61,0.76874
6503230,-0.19000,70.8125,112,61,0.76703
6503240,-0.18000,70.3125,112,61,0.75678
6503250,-0.17000,70.0000,112,61,0.74921
6503260,-0.22000,69.6875,112,61,0.74042
6503270,-0.26500,69.3750,112,61,0.73040
6503280,-0.04500,68.6875,112,61,0.70720
6503290,0.53500,68.3125,112,61,0.69377
6503300,1.24000,68.0000,112,61,0.67912
6503310,1.33000,67.6250,112,61,0.66374
6503320,0.53500,66.9375,112,61,0.63077
6503330,-0.16500,66.5625,112,61,0.61538
6503340,-0.34000,66.1875,112,61,0.60049
6503350,-0.31500,65.8750,112,61,0.58413
6503360,-0.29000,65.1250,112,61,0.54994
6503370,-0.28000,64.7500,112,61,0.53309
6503380,-0.28000,64.7500,112,61,0.53309
6503390,-0.28000,64.7500,112,61,0.53309
6503400,-0.28000,64.7500,112,61,0.53309
6503410,-0.25000,63.1250,112,61,0.47009
6503420,-0.24000,62.3125,112,61,0.44322
6503430,-0.23500,62.0000,112,61,0.43297
6503440,-0.23000,61.2500,112,61,0.41661
6503450,-0.22000,60.9375,112,61,0.40904
6503460,-0.22000,60.6250,112,61,0.40195
6503470,-0.20500,60.3750,112,61,0.39560
6503480,-0.19500,61.0000,112,61,0.38437
6503490,-0.18000,62.5625,112,61,0.37949
6503500,-0.16500,65.6875,112,61,0.37509
6503510,-0.15000,70.6250,112,61,0.37118
6503520,-0.13000,84.3750,112,61,0.36410
6503530,-0.11000,91.3125,112,61,0.36166
6503540,-0.09000,97.3125,112,61,0.35922
6503550,-0.06500,102.1875,112,61,0.35629
6503560,-0.04500,108.9375,112,61,0.34945
6503570,-0.01500,110.8750,112,61,0.34603
6503580,0.00000,111.8125,112,61,0.34261
6503590,0.02000,111.8750,112,61,0.33944
6503600,0.04500,110.1250,112,61,0.33211
6503610,0.07000,108.6875,112,61,0.32869
6503620,0.08500,107.1250,112,61,0.32503
6503630,0.08500,105.4375,112,61,0.32210
6503640,0.06000,102.0000,112,61,0.31575
6503650,0.02000,100.3750,112,61,0.31184
6503660,-0.02500,98.7500,112,61,0.30794
6503670,-0.06000,97.1250,112,61,0.30379
6503680,-0.08500,94.0000,112,61,0.29499
6503690,-0.10000,92.5625,112,61,0.29011
6503700,-0.11500,91.1250,112,61,0.28523
6503710,-0.11500,89.6250,112,61,0.28059
6503720,-0.12000,86.6250,112,61,0.26691
6503730,-0.12000,85.0000,112,61,0.25714
6503740,-0.12000,83.1875,112,61,0.25201
6503750,-0.11500,81.2500,112,61,0.24908
6503760,-0.11500,77.3750,112,61,0.25055
6503770,-0.11500,75.5625,112,61,0.25641
6503780,-0.11500,74.0000,112,61,0.26667
6503790,-0.11000,72.6875,112,61,0.28181
6503800,-0.09500,70.6250,112,61,0.32796
6503810,-0.07500,69.9375,112,61,0.35849
6503820,-0.06500,69.3750,112,61,0.39292
6503830,-0.05500,68.9375,112,61,0.42491
6503840,-0.03500,68.5000,112,61,0.48889
6503850,-0.00500,68.4375,112,61,0.52210
6503860,0.01000,68.4375,112,61,0.55360
6503870,0.01000,68.4375,112,61,0.55360
6503880,-0.04500,68.6250,112,61,0.62857
6503890,-0.08500,68.7500,112,61,0.64567
6503900,-0.13000,68.8125,112,61,0.65910
6503910,-0.16000,68.8750,112,61,0.66886
6503920,-0.17000,68.8750,112,61,0.67814
6503930,-0.17000,68.8125,112,61,0.67790
6503940,-0.16000,68.6875,112,61,0.67521
6503950,-0.15000,68.5625,112,61,0.67106
6503960,-0.15500,68.0625,112,61,0.65788
6503970,-0.21500,67.8125,112,61,0.64933
6503980,-0.19000,67.5625,112,61,0.63932
6503990,0.13500,67.3750,112,61,0.62808
6504000,0.81500,66.8125,112,61,0.60220
6504010,1.41500,66.5000,112,61,0.58779
6504020,1.08500,66.1875,112,61,0.57265
6504030,0.23500,65.9375,112,61,0.55873
6504040,0.23500,65.9375,112,61,0.55873
6504050,-0.30500,65.0000,112,61,0.51477
6504060,-0.27000,64.7500,112,61,0.49866
6504070,-0.25000,64.4375,112,61,0.48278
6504080,-0.24000,63.8125,112,61,0.45128
6504090,-0.23000,63.4375,112,61,0.43614
6504100,-0.22000,63.1250,112,61,0.42173
6504110,-0.21000,62.7500,112,61,0.40806
6504120,-0.19500,62.0625,112,61,0.38315
6504130,-0.18000,61.7500,112,61,0.37363
6504140,-0.17000,61.4375,112,61,0.36581
6504150,-0.16500,61.0625,112,61,0.35775
6504160,-0.15500,60.5000,112,61,0.34432
6504170,-0.13500,60.3750,112,61,0.33871
6504180,-0.12500,60.4375,112,61,0.33382
6504190,-0.11000,60.9375,112,61,0.32967
6504200,-0.09500,64.8750,112,61,0.32308
6504210,-0.08000,69.1875,112,61,0.31990
6504220,-0.06000,75.1875,112,61,0.31673
6504230,-0.04500,82.1875,112,61,0.31453
6504240,-0.02500,95.5000,112,61,0.31087
6504250,-0.00500,100.5625,112,61,0.30891
6504260,0.02000,104.5000,112,61,0.30720
6504270,0.04000,107.5625,112,61,0.30549
6504280,0.06000,110.9375,112,61,0.30208
6504290,0.08000,111.2500,112,61,0.29988
6504300,0.10500,110.8750,112,61,0.29744
6504310,0.12500,109.8750,112,61,0.29451
6504320,0.14500,107.1250,112,61,0.28889
6504330,0.15500,105.5000,112,61,0.28718
6504340,0.15000,103.7500,112,61,0.28596
6504350,0.12000,102.0625,112,61,0.28400
6504360,0.08000,98.6875,112,61,0.27937
6504370,0.04000,97.1250,112,61,0.27668
6504380,0.00500,95.5625,112,61,0.27375
6504390,-0.02500,94.0000,112,61,0.27082
6504400,-0.03500,91.0625,112,61,0.26447
6504410,-0.03500,91.0625,112,61,0.26447
6504420,-0.04500,88.3125,112,61,0.25788
6504430,-0.04500,86.9375,112,61,0.25543
6504440,-0.04500,83.8125,112,61,0.25104
6504450,-0.04000,82.0625,112,61,0.24908
6504460,-0.03500,80.2500,112,61,0.24835
6504470,-0.03500,78.3125,112,61,0.25006
6504480,-0.03500,74.7500,112,61,0.26520
6504490,-0.04000,73.3125,112,61,0.27985
6504500,-0.03500,72.0625,112,61,0.29963
6504510,-0.02500,71.0625,112,61,0.32430
