RelativeTimeMilliseconds,ECG,ART,ART (Sys),ART (Dia),PPG
6000000,0.02000,85.3750,126,71,0.34896
6000010,0.03500,84.6875,126,71,0.37436
6000020,0.06000,84.1875,126,71,0.40684
6000030,0.07000,84.0000,126,71,0.44444
6000040,0.07000,83.9375,126,71,0.52650
6000050,0.08000,84.1250,126,71,0.56679
6000060,0.10000,84.3125,126,71,0.60464
6000070,0.10000,84.3125,126,71,0.60464
6000080,0.07000,84.7500,126,71,0.69377
6000090,0.04000,84.7500,126,71,0.71429
6000100,-0.00500,84.6250,126,71,0.72845
6000110,-0.06000,84.4375,126,71,0.73748
6000120,-0.09500,83.8125,126,71,0.75043
6000130,-0.11000,83.3750,126,71,0.75311
6000140,-0.10500,82.8750,126,71,0.75336
6000150,-0.10000,82.2500,126,71,0.75116
6000160,-0.08500,81.1250,126,71,0.74090
6000170,-0.09500,80.5000,126,71,0.73333
6000180,-0.17000,79.8750,126,71,0.72430
6000190,-0.16000,79.3125,126,71,0.71380
6000200,0.12500,78.2500,126,71,0.69158
6000210,0.90000,77.8125,126,71,0.67912
6000220,1.38000,77.3750,126,71,0.66545
6000230,1.44500,76.9375,126,71,0.65079
6000240,0.46000,76.1250,126,71,0.62002
6000250,-0.17000,75.6875,126,71,0.60391
6000260,-0.25500,75.2500,126,71,0.58730
6000270,-0.21000,74.8125,126,71,0.57045
6000280,-0.17500,73.9375,126,71,0.53748
6000290,-0.16500,73.5000,126,71,0.52161
6000300,-0.17000,73.0625,126,71,0.50769
6000310,-0.15000,72.6250,126,71,0.49548
6000320,-0.12500,71.6875,126,71,0.47155
6000330,-0.13500,71.1875,126,71,0.46105
6000340,-0.15000,70.7500,126,71,0.45177
6000350,-0.13000,70.3125,126,71,0.44371
6000360,-0.11000,69.3750,126,71,0.43077
6000370,-0.11500,69.0000,126,71,0.42491
6000380,-0.11500,68.8125,126,71,0.41954
6000390,-0.10500,68.9375,126,71,0.41490
6000400,-0.08500,71.6875,126,71,0.40781
6000410,-0.06000,75.3125,126,71,0.40391
6000420,-0.04500,81.0625,126,71,0.40024
6000430,-0.03000,88.5625,126,71,0.39634
6000440,-0.01000,104.8125,126,71,0.38877
6000450,0.03000,111.6875,126,71,0.38486
6000460,0.06000,117.3125,126,71,0.38046
6000470,0.08000,121.5625,126,71,0.37582
6000480,0.11000,126.4375,126,71,0.36581
6000490,0.11000,126.4375,126,71,0.36581
6000500,0.16500,127.0625,126,71,0.35580
6000510,0.18500,126.2500,126,71,0.35189
6000520,0.19000,123.2500,126,71,0.34286
6000530,0.18500,121.5625,126,71,0.33773
6000540,0.17500,119.8125,126,71,0.33260
6000550,0.13500,118.1875,126,71,0.32747
6000560,0.08000,115.0625,126,71,0.31819
6000570,0.02000,113.6875,126,71,0.31355
6000580,-0.03000,112.3125,126,71,0.30891
6000590,-0.05500,110.9375,126,71,0.30452
6000600,-0.09500,108.3125,126,71,0.29866
6000610,-0.13500,107.0000,126,71,0.29499
6000620,-0.12500,105.6250,126,71,0.29084
6000630,-0.07500,104.1250,126,71,0.28596
6000640,-0.06500,100.5000,126,71,0.27668
6000650,-0.07500,98.3125,126,71,0.27277
6000660,-0.06500,95.9375,126,71,0.26935
6000670,-0.04500,93.5000,126,71,0.26740
6000680,-0.04500,89.0625,126,71,0.27155
6000690,-0.06500,87.1875,126,71,0.27985
6000700,-0.07500,85.6250,126,71,0.29109
6000710,-0.07500,84.3125,126,71,0.30598
6000720,-0.06000,82.6250,126,71,0.35604
6000730,-0.03000,82.1250,126,71,0.38901
6000740,-0.00500,81.8750,126,71,0.42613
6000750,0.00000,81.8125,126,71,0.46593
6000760,0.01000,82.0625,126,71,0.54579
6000770,0.04000,82.1875,126,71,0.58266
6000780,0.04000,82.3750,126,71,0.61661
6000790,0.00000,82.5000,126,71,0.64664
6000800,-0.04500,82.5625,126,71,0.68645
6000810,-0.09500,82.4375,126,71,0.70281
6000820,-0.18000,82.2500,126,71,0.71624
6000830,-0.20000,82.0000,126,71,0.72601
6000840,-0.18000,81.3125,126,71,0.73529
6000850,-0.17000,80.8750,126,71,0.73578
6000860,-0.12500,80.3750,126,71,0.73358
6000870,-0.10000,79.8750,126,71,0.72918
6000880,-0.10500,78.8125,126,71,0.71526
6000890,-0.20000,78.3125,126,71,0.70623
6000900,-0.31500,77.8125,126,71,0.69621
6000910,-0.15500,77.4375,126,71,0.68571
6000920,0.43500,76.6250,126,71,0.66007
6000930,1.30000,76.2500,126,71,0.64591
6000940,1.66500,75.8750,126,71,0.63101
6000950,0.96500,75.5000,126,71,0.61538
6000960,0.02000,74.6875,126,71,0.58217
6000970,0.02000,74.6875,126,71,0.58217
6000980,-0.30500,73.8750,126,71,0.54750
6000990,-0.26000,73.4375,126,71,0.53089
6001000,-0.24500,72.6250,126,70,0.50379
6001010,-0.20000,72.1875,126,70,0.49011
6001020,-0.15500,71.7500,126,70,0.47643
6001030,-0.14000,71.3125,126,70,0.46300
6001040,-0.12500,70.4375,126,70,0.43980
6001050,-0.11500,70.0000,126,70,0.42979
6001060,-0.10500,69.5625,126,70,0.42125
6001070,-0.10000,69.1875,126,70,0.41392
6001080,-0.10000,68.4375,126,70,0.40220
6001090,-0.09500,68.1875,126,70,0.39731
6001100,-0.08000,68.2500,126,70,0.39390
6001110,-0.04000,68.7500,126,70,0.39072
6001120,-0.03000,73.1875,126,70,0.38315
6001130,-0.05000,78.1250,126,70,0.37924
6001140,-0.04500,84.9375,126,70,0.37509
6001150,-0.05000,92.8750,126,70,0.37094
6001160,-0.08500,107.9375,126,70,0.36239
6001170,-0.05500,113.7500,126,70,0.35800
6001180,0.01000,118.3125,126,70,0.35360
6001190,0.07000,121.7500,126,70,0.34921
6001200,0.12000,125.2500,126,70,0.34359
6001210,0.15500,125.4375,126,70,0.34042
6001220,0.17000,124.9375,126,70,0.33700
6001230,0.19000,123.8125,126,70,0.33333
6001240,0.21000,120.8750,126,70,0.32527
6001250,0.20000,119.3125,126,70,0.32088
6001260,0.18500,117.6875,126,70,0.31648
6001270,0.15500,116.1875,126,70,0.31184
6001280,0.08000,113.3750,126,70,0.30256
6001290,0.00000,112.0000,126,70,0.29817
6001300,-0.03500,110.6875,126,70,0.29475
6001310,-0.05500,109.4375,126,70,0.29206
6001320,-0.06500,107.0625,126,70,0.28474
6001330,-0.06500,105.8125,126,70,0.28083
6001340,-0.07000,104.4375,126,70,0.27668
6001350,-0.06500,102.8125,126,70,0.27253
6001360,-0.06500,98.9375,126,70,0.26447
6001370,-0.07000,96.5625,126,70,0.26105
6001380,-0.07500,94.0625,126,70,0.25861
6001390,-0.07500,91.6250,126,70,0.25788
6001400,-0.08000,87.5000,126,70,0.26447
6001410,-0.08500,85.9375,126,70,0.27326
6001420,-0.08000,84.6875,126,70,0.28718
6001430,-0.06000,83.6250,126,70,0.30647
6001440,-0.03500,82.2500,126,70,0.36264
6001450,-0.00500,82.0000,126,70,0.39805
6001460,0.00000,81.8750,126,70,0.43663
6001470,0.01500,81.8750,126,70,0.47643
6001480,0.05000,82.0000,126,70,0.55458
6001490,0.05000,82.0000,126,70,0.55458
6001500,0.03000,82.1250,126,70,0.61783
6001510,-0.00500,82.1250,126,70,0.64005
6001520,-0.04500,82.0625,126,70,0.68034
6001530,-0.09000,81.9375,126,70,0.69524
6001540,-0.13500,81.7500,126,70,0.70647
6001550,-0.16000,81.5000,126,70,0.71429
6001560,-0.16500,80.8750,126,70,0.71990
6001570,-0.16000,80.4375,126,70,0.71893
6001580,-0.15500,79.9375,126,70,0.71600
6001590,-0.14500,79.4375,126,70,0.71111
6001600,-0.17000,78.5000,126,70,0.69792
6001610,-0.23500,78.0000,126,70,0.68962
6001620,-0.18000,77.5625,126,70,0.67985
6001630,0.34000,77.1875,126,70,0.66862
6001640,0.74500,76.4375,126,70,0.64176
6001650,1.31000,76.0625,126,70,0.62686
6001660,1.40500,75.6875,126,70,0.61074
6001670,0.76000,75.3125,126,70,0.59389
6001680,-0.09500,74.5000,126,70,0.56020
6001690,-0.30500,74.0625,126,70,0.54286
6001700,-0.28500,73.5625,126,70,0.52796
6001710,-0.25500,73.1250,126,70,0.51453
6001720,-0.24000,72.2500,126,70,0.48620
6001730,-0.23000,71.8125,126,70,0.47228
6001740,-0.23000,71.3750,126,70,0.45910
6001750,-0.22000,70.9375,126,70,0.44689
6001760,-0.22000,70.1250,126,70,0.42564
6001770,-0.21000,69.7500,126,70,0.41685
6001780,-0.18500,69.3750,126,70,0.40879
6001790,-0.19000,69.0000,126,70,0.40147
6001800,-0.20000,68.5000,126,70,0.39170
6001810,-0.20000,68.5625,126,70,0.38730
6001820,-0.18000,69.1250,126,70,0.38315
6001830,-0.18000,69.1250,126,70,0.38315
6001840,-0.11500,79.3125,126,70,0.37167
6001850,-0.10500,86.3125,126,70,0.36825
6001860,-0.10500,94.2500,126,70,0.36435
6001870,-0.08500,102.0000,126,70,0.36020
6001880,-0.04500,114.5625,126,70,0.35140
6001890,0.01000,119.0000,126,70,0.34750
6001900,0.04500,122.2500,126,70,0.34457
6001910,0.06000,124.4375,126,70,0.34212
6001920,0.09500,125.6875,126,70,0.33553
6001930,0.12500,125.1250,126,70,0.33187
6001940,0.13000,124.0625,126,70,0.32796
6001950,0.14000,122.6875,126,70,0.32381
6001960,0.17000,119.7500,126,70,0.31502
6001970,0.16000,118.3125,126,70,0.31038
6001980,0.10000,116.8750,126,70,0.30574
6001990,0.03000,115.5000,126,70,0.30134
6002000,-0.02000,112.8125,126,70,0.29573
6002010,-0.05500,111.6250,126,70,0.29255
6002020,-0.08500,110.4375,126,70,0.28913
6002030,-0.10000,109.3125,126,70,0.28400
6002040,-0.10500,107.0000,126,70,0.27253
6002050,-0.11000,105.6875,126,70,0.26764
6002060,-0.10500,104.1875,126,70,0.26300
6002070,-0.10500,102.4375,126,70,0.25836
6002080,-0.10500,98.0625,126,70,0.24957
6002090,-0.11000,95.5000,126,70,0.24762
6002100,-0.12000,93.0000,126,70,0.24737
6002110,-0.16000,90.6250,126,70,0.24884
6002120,-0.18500,86.9375,126,70,0.26276
6002130,-0.15500,85.5000,126,70,0.27766
6002140,-0.12500,84.3125,126,70,0.29866
6002150,-0.09500,83.3750,126,70,0.32552
6002160,-0.09000,82.2500,126,70,0.39390
6002170,-0.08500,82.0000,126,70,0.43248
6002180,-0.06500,81.8750,126,70,0.47179
6002190,-0.03500,81.8750,126,70,0.51087
6002200,0.00000,82.0625,126,70,0.57192
6002210,0.01000,82.1875,126,70,0.60098
6002220,-0.01500,82.2500,126,70,0.62833
6002230,-0.08000,82.3125,126,70,0.65250
6002240,-0.13500,82.2500,126,70,0.68938
6002250,-0.14500,82.0625,126,70,0.70183
6002260,-0.17000,81.8750,126,70,0.71038
6002270,-0.19000,81.5625,126,70,0.71575
6002280,-0.18000,80.8125,126,70,0.71795
6002290,-0.17000,80.3750,126,70,0.71502
6002300,-0.15500,79.8750,126,70,0.71038
6002310,-0.14500,79.3750,126,70,0.70452
6002320,-0.19000,78.5625,126,70,0.68791
6002330,-0.06500,78.1250,126,70,0.67766
6002340,0.45500,77.6875,126,70,0.66667
6002350,1.24000,77.3125,126,70,0.65470
6002360,1.57000,76.4375,126,70,0.62808
6002370,0.92500,76.0000,126,70,0.61392
6002380,0.02500,75.5625,126,70,0.59902
6002390,-0.33000,75.1250,126,70,0.58364
6002400,-0.32000,74.2500,126,70,0.55531
6002410,-0.28000,73.7500,126,70,0.53944
6002420,-0.23500,73.3125,126,70,0.52308
6002430,-0.22500,72.8125,126,70,0.50696
6002440,-0.21000,71.9375,126,70,0.47692
6002450,-0.18000,71.4375,126,70,0.46300
6002460,-0.20500,71.0000,126,70,0.45055
6002470,-0.22000,70.5625,126,70,0.43932
6002480,-0.18000,69.8125,126,70,0.41905
6002490,-0.18000,69.8125,126,70,0.41905
6002500,-0.14500,69.0625,126,70,0.40562
6002510,-0.15000,68.7500,126,70,0.39927
6002520,-0.15500,68.9375,126,70,0.38877
6002530,-0.13500,69.9375,126,70,0.38462
6002540,-0.13000,72.2500,126,70,0.38046
6002550,-0.10500,76.3125,126,70,0.37656
6002560,-0.06500,90.1875,126,70,0.36801
6002570,-0.04000,98.3750,126,70,0.36386
6002580,-0.02000,105.8750,126,70,0.35995
6002590,0.01000,112.2500,126,70,0.35604
6002600,0.04500,121.3750,126,70,0.34969
6002610,0.07000,124.2500,126,70,0.34579
6002620,0.09000,126.0000,126,70,0.34188
6002630,0.11500,126.7500,126,70,0.33797
6002640,0.14000,125.8125,126,70,0.32991
6002650,0.16500,124.6875,126,70,0.32527
6002660,0.18000,123.4375,126,70,0.32039
6002670,0.16500,122.0625,126,70,0.31575
6002680,0.12000,119.1875,126,70,0.30647
6002690,0.08000,117.8125,126,70,0.30281
6002700,0.04500,116.5000,126,70,0.29988
6002710,0.00000,115.3750,126,70,0.29621
6002720,-0.04500,113.1250,126,70,0.28864
6002730,-0.06500,112.0000,126,70,0.28425
6002740,-0.08000,110.8125,126,70,0.27985
6002750,-0.08500,109.6250,126,70,0.27546
6002760,-0.09000,107.0625,126,70,0.26642
6002770,-0.08500,105.5625,126,70,0.26178
6002780,-0.08500,103.8125,126,70,0.25739
6002790,-0.09500,101.7500,126,70,0.25299
6002800,-0.10500,96.8125,126,70,0.24933
6002810,-0.10500,94.2500,126,70,0.24982
6002820,-0.09500,91.8125,126,70,0.25275
6002830,-0.09500,89.7500,126,70,0.25983
6002840,-0.09500,86.5000,126,70,0.28962
6002850,-0.07500,85.2500,126,70,0.31355
6002860,-0.06500,84.3125,126,70,0.34335
6002870,-0.06500,83.6250,126,70,0.37778
6002880,-0.05500,82.9375,126,70,0.45592
6002890,-0.03000,82.8125,126,70,0.49109
6002900,-0.00500,82.8125,126,70,0.52308
6002910,0.00000,82.8750,126,70,0.55751
6002920,0.00000,82.8750,126,70,0.55751
6002930,-0.03500,83.1875,126,70,0.65104
6002940,-0.07500,83.2500,126,70,0.67473
6002950,-0.07500,83.2500,126,70,0.67473
6002960,-0.17500,83.0000,126,70,0.72063
6002970,-0.21000,82.8125,126,70,0.72821
6002980,-0.23000,82.5000,126,70,0.73260
6002990,-0.22500,82.1250,126,70,0.73407
6003000,-0.21000,81.2500,126,70,0.72894
6003010,-0.19500,80.7500,126,70,0.72405
6003020,-0.22000,80.3125,126,70,0.71819
6003030,-0.26500,79.8125,126,70,0.71136
6003040,-0.26500,79.8125,126,70,0.71136
6003050,0.45500,78.5000,126,70,0.68400
6003060,1.28000,78.0625,126,70,0.67228
6003070,1.61000,77.6250,126,70,0.65934
6003080,0.84000,76.7500,126,70,0.62955
6003090,-0.09000,76.3125,126,70,0.61465
6003100,-0.39500,75.9375,126,70,0.60000
6003110,-0.35500,75.5000,126,70,0.58339
6003120,-0.28500,74.5625,126,70,0.54823
6003130,-0.26500,74.1250,126,70,0.53065
6003140,-0.27000,73.6250,126,70,0.51355
6003150,-0.26000,73.1875,126,70,0.49744
6003160,-0.24000,72.3125,126,70,0.46813
6003170,-0.23000,71.8750,126,70,0.45495
6003180,-0.22000,71.5000,126,70,0.44298
6003190,-0.21000,71.0625,126,70,0.43223
6003200,-0.20000,70.2500,126,70,0.41661
6003210,-0.18500,69.8750,126,70,0.40952
6003220,-0.18000,69.6250,126,70,0.40293
6003230,-0.16000,69.6875,126,70,0.39683
6003240,-0.15000,71.8750,126,70,0.38608
6003250,-0.13500,75.1875,126,70,0.38169
6003260,-0.11500,80.5000,126,70,0.37753
6003270,-0.08500,87.6875,126,70,0.37363
6003280,-0.06500,104.0625,126,70,0.36606
6003290,-0.03000,111.2500,126,70,0.36337
6003300,0.00000,117.1875,126,70,0.36093
6003310,0.03500,121.7500,126,70,0.35751
6003320,0.07000,127.3125,126,70,0.34945
6003330,0.09500,128.3750,126,70,0.34530
6003340,0.12000,128.5000,126,70,0.34090
6003350,0.14000,127.8750,126,70,0.33626
6003360,0.15500,125.4375,126,70,0.32772
6003370,0.17000,124.0625,126,70,0.32381
6003380,0.15500,122.6250,126,70,0.32015
6003390,0.12000,121.2500,126,70,0.31648
6003400,0.06000,118.6250,126,70,0.31136
6003410,0.00000,117.3750,126,70,0.30794
6003420,-0.05000,116.3125,126,70,0.30354
6003430,-0.08500,115.2500,126,70,0.29866
6003440,-0.08500,115.2500,126,70,0.29866
6003450,-0.12000,112.0625,126,70,0.28400
6003460,-0.12500,110.8750,126,70,0.27912
6003470,-0.12500,109.6250,126,70,0.27424
6003480,-0.12500,106.6250,126,70,0.26496
6003490,-0.12500,104.6875,126,70,0.26203
6003500,-0.12000,102.4375,126,70,0.26007
6003510,-0.12000,99.9375,126,70,0.25788
6003520,-0.11500,94.6250,126,70,0.25763
6003530,-0.11500,92.2500,126,70,0.26252
6003540,-0.11500,90.1250,126,70,0.27253
6003550,-0.11000,88.2500,126,70,0.28791
6003560,-0.09500,85.5000,126,70,0.33724
6003570,-0.07500,84.6250,126,70,0.37070
6003580,-0.05000,84.0625,126,70,0.40806
6003590,-0.04500,83.7500,126,70,0.44811
6003600,-0.03500,83.5000,126,70,0.51697
6003610,-0.01500,83.5625,126,70,0.55287
6003620,-0.01500,83.7500,126,70,0.58877
6003630,-0.03000,83.9375,126,70,0.62222
6003640,-0.05500,84.3750,126,70,0.67766
6003650,-0.09000,84.5000,126,70,0.69915
6003660,-0.14000,84.5000,126,70,0.71600
6003670,-0.18000,84.3750,126,70,0.72869
6003680,-0.20000,83.9375,126,70,0.74261
6003690,-0.20000,83.5625,126,70,0.74457
6003700,-0.19000,83.1875,126,70,0.74335
6003710,-0.18000,82.6875,126,70,0.74090
6003720,-0.17500,81.6250,126,70,0.73284
6003730,-0.23000,81.0625,126,70,0.72650
6003740,-0.28000,80.5000,126,70,0.71868
6003750,-0.01500,80.0000,126,70,0.70940
6003760,0.69000,79.0625,126,70,0.68742
6003770,1.52000,78.6250,126,70,0.67473
6003780,1.57500,78.1875,126,70,0.66129
6003790,0.65500,77.7500,126,70,0.64689
6003800,-0.18500,76.8750,126,70,0.61929
6003810,-0.39500,76.4375,126,70,0.59927
6003820,-0.33000,76.0000,126,70,0.58071
6003830,-0.28500,75.6250,126,70,0.56679
6003840,-0.28500,75.6250,126,70,0.56679
6003850,-0.25500,74.3125,126,70,0.51795
6003860,-0.24500,73.8750,126,70,0.50232
6003870,-0.23500,73.4375,126,70,0.48767
6003880,-0.22500,72.5625,126,70,0.46105
6003890,-0.21500,72.1250,126,70,0.45055
6003900,-0.21000,71.7500,126,70,0.44176
6003910,-0.19500,71.2500,126,70,0.43297
6003920,-0.18000,70.5000,126,70,0.41758
6003930,-0.17000,70.3750,126,70,0.41123
6003940,-0.16000,70.6875,126,70,0.40586
6003950,-0.14500,71.9375,126,70,0.40073
6003960,-0.12500,79.3125,126,70,0.39170
6003970,-0.10500,85.9375,126,70,0.38755
6003980,-0.08000,93.9375,126,70,0.38364
6003990,-0.05500,102.3125,126,70,0.38071
6004000,-0.02000,116.5000,126,70,0.37534
6004010,0.01500,121.6250,126,70,0.37241
6004020,0.05000,125.4375,126,70,0.36923
6004030,0.07500,128.0000,126,70,0.36581
6004040,0.10000,129.8125,126,70,0.35824
6004050,0.12000,129.3750,126,70,0.35385
6004060,0.14000,128.3125,126,70,0.34921
6004070,0.15500,126.9375,126,70,0.34432
6004080,0.16500,123.8125,126,70,0.33700
6004090,0.15500,122.2500,126,70,0.33382
6004100,0.12000,120.8125,126,70,0.33065
6004110,0.03000,119.4375,126,70,0.32674
6004120,-0.01500,116.9375,126,70,0.31795
6004130,-0.03000,115.7500,126,70,0.31355
6004140,-0.07500,114.6875,126,70,0.30916
6004150,-0.12000,113.5625,126,70,0.30452
6004160,-0.14500,111.1875,126,70,0.29621
6004170,-0.14500,109.7500,126,70,0.29231
6004180,-0.12000,108.1875,126,70,0.28840
6004190,-0.11500,106.4375,126,70,0.28523
6004200,-0.10500,102.1875,126,70,0.27912
6004210,-0.08500,99.6875,126,70,0.27595
6004220,-0.08500,97.0625,126,70,0.27399
6004230,-0.07000,94.5000,126,70,0.27399
6004240,-0.08500,90.0625,126,70,0.28547
6004250,-0.16500,88.3125,126,70,0.29866
6004260,-0.21500,86.9375,126,70,0.31795
6004270,-0.24000,85.8125,126,70,0.34383
6004280,-0.23000,84.4375,126,70,0.41148
6004290,-0.12000,84.0625,126,70,0.44518
6004300,-0.03500,83.9375,126,70,0.47790
6004310,-0.03000,83.9375,126,70,0.51477
6004320,-0.01500,84.1250,126,70,0.58974
6004330,-0.00500,84.3125,126,70,0.62393
6004340,-0.03000,84.3750,126,70,0.65421
6004350,-0.06000,84.4375,126,70,0.68034
6004360,-0.11000,84.3750,126,70,0.71941
6004370,-0.19000,84.1875,126,70,0.73260
6004380,-0.24000,83.9375,126,70,0.74237
6004390,-0.28000,83.6250,126,70,0.74725
6004400,-0.27000,82.7500,126,70,0.74896
6004410,-0.22000,82.1875,126,70,0.74701
6004420,-0.19500,81.6250,126,70,0.74310
6004430,-0.21000,81.0625,126,70,0.73773
6004440,-0.24000,79.8125,126,70,0.72283
6004450,-0.29000,79.2500,126,70,0.71380
6004460,-0.14000,78.6875,126,70,0.70379
6004470,0.43000,78.1875,126,70,0.69280
6004480,1.26500,77.3125,126,70,0.66740
6004490,1.66500,76.8750,126,70,0.65397
6004500,0.95500,76.4375,126,70,0.64029
6004510,-0.01500,76.0000,126,70,0.62466
6004520,-0.36000,75.1250,126,70,0.58950
6004530,-0.34000,74.6875,126,70,0.57143
6004540,-0.29000,74.2500,126,70,0.55360
6004550,-0.26500,73.8750,126,70,0.53651
6004560,-0.26000,72.9375,126,70,0.50476
6004570,-0.24000,72.5000,126,70,0.49060
6004580,-0.20500,72.0000,126,70,0.47766
6004590,-0.19500,71.5625,126,70,0.46740
6004600,-0.19000,70.6875,126,70,0.44884
6004610,-0.17000,70.2500,126,70,0.43980
6004620,-0.16000,69.8125,126,70,0.43150
6004630,-0.16000,69.4375,126,70,0.42393
6004640,-0.15000,68.8750,126,70,0.41197
6004650,-0.13500,69.0000,126,70,0.40708
6004660,-0.13000,69.8125,126,70,0.40244
6004670,-0.10500,71.6875,126,70,0.39780
6004680,-0.08500,81.0625,126,70,0.38926
6004690,-0.06500,88.5000,126,70,0.38584
6004700,-0.05000,96.6875,126,70,0.38266
6004710,-0.01000,104.6875,126,70,0.37900
6004720,0.02500,117.1250,126,70,0.36996
6004730,0.05500,121.3750,126,70,0.36532
6004740,0.08000,124.3750,126,70,0.36068
6004750,0.11000,126.1875,126,70,0.35580
6004760,0.14000,126.6250,126,70,0.34603
6004770,0.14500,125.6875,126,70,0.34090
6004780,0.14500,124.3125,126,70,0.33578
6004790,0.17500,122.7500,126,70,0.33162
6004800,0.18500,119.4375,126,70,0.32381
6004810,0.15500,117.8125,126,70,0.31941
6004820,0.09500,116.3125,126,70,0.31502
6004830,0.04000,114.8750,126,70,0.31062
6004840,0.04000,114.8750,126,70,0.31062
6004850,-0.04000,110.8750,126,70,0.29499
6004860,-0.06500,109.6250,126,70,0.29084
6004870,-0.08500,108.3125,126,70,0.28571
6004880,-0.09500,105.5000,126,70,0.27790
6004890,-0.10000,103.8750,126,70,0.27546
6004900,-0.10500,102.1250,126,70,0.27350
6004910,-0.10500,100.0625,126,70,0.27033
6004920,-0.11000,95.3750,126,70,0.26276
6004930,-0.11500,92.8125,126,70,0.25983
6004940,-0.11500,90.4375,126,70,0.25836
6004950,-0.11500,88.2500,126,70,0.25983
6004960,-0.11500,84.8125,126,70,0.27595
6004970,-0.11500,83.6250,126,70,0.29255
6004980,-0.10500,82.7500,126,70,0.31502
6004990,-0.08500,82.1250,126,70,0.33895
6005000,-0.06500,81.5625,126,70,0.39853
6005010,-0.04500,81.5625,126,70,0.43590
6005020,-0.03500,81.6250,126,70,0.47521
6005030,-0.03500,81.7500,126,70,0.51453
6005040,-0.01000,82.0000,126,70,0.58755
6005050,0.02000,82.1250,126,70,0.61856
6005060,-0.03000,82.2500,126,70,0.64542
6005070,-0.08500,82.2500,126,70,0.66764
6005080,-0.12000,82.0000,126,70,0.69939
6005090,-0.16000,81.7500,126,70,0.70794
6005100,-0.17000,81.5000,126,70,0.71209
6005110,-0.17000,81.1250,126,70,0.71477
6005120,-0.19000,80.1875,126,70,0.71429
6005130,-0.20000,79.6875,126,70,0.71087
6005140,-0.18500,79.1250,126,70,0.70525
6005150,-0.19000,78.6250,126,70,0.69768
6005160,-0.24000,77.6875,126,70,0.67863
6005170,-0.28500,77.1875,126,70,0.66740
6005180,-0.07500,76.7500,126,70,0.65470
6005190,0.55500,76.3125,126,70,0.64225
6005200,1.35500,75.5625,126,70,0.61563
6005210,1.47000,75.1250,126,70,0.60049
6005220,0.63000,74.6875,126,70,0.58413
6005230,-0.21000,74.2500,126,70,0.56728
6005240,-0.38500,73.3750,126,70,0.53333
6005250,-0.26000,72.9375,126,70,0.51624
6005260,-0.15500,72.5000,126,70,0.49939
6005270,-0.13500,72.0625,126,70,0.48327
6005280,-0.19000,71.1250,126,70,0.45421
6005290,-0.21000,70.6250,126,70,0.44322
6005300,-0.21000,70.2500,126,70,0.43394
6005310,-0.19500,69.8125,126,70,0.42442
6005320,-0.19000,68.9375,126,70,0.40562
6005330,-0.20500,68.5625,126,70,0.39756
6005340,-0.20000,68.1875,126,70,0.39219
6005350,-0.16500,67.8125,126,70,0.38681
6005360,-0.15000,67.4375,126,70,0.37753
6005370,-0.13500,67.6875,126,70,0.37338
6005380,-0.11500,68.5625,126,70,0.36972
6005390,-0.10000,70.6250,126,70,0.36728
6005400,-0.07500,80.2500,126,70,0.36264
6005410,-0.05500,87.6250,126,70,0.35971
6005420,-0.03000,95.6250,126,70,0.35629
6005430,-0.00500,103.1875,126,70,0.35263
6005440,0.02500,114.8125,126,70,0.34481
6005450,0.05000,118.8125,126,70,0.34066
6005460,0.08000,121.6250,126,70,0.33602
6005470,0.10500,123.3125,126,70,0.33089
6005480,0.13000,123.6875,126,70,0.32137
6005490,0.14500,122.7500,126,70,0.31795
6005500,0.16500,121.5000,126,70,0.31429
6005510,0.17500,119.9375,126,70,0.31062
6005520,0.16500,116.6250,126,70,0.30379
6005530,0.13000,115.0000,126,70,0.29988
6005540,0.07500,113.4375,126,70,0.29597
6005550,0.01500,111.9375,126,70,0.29158
6005560,-0.03500,109.1250,126,70,0.28059
6005570,-0.07500,107.8750,126,70,0.27375
6005580,-0.09500,106.6250,126,70,0.26935
6005590,-0.10500,105.3750,126,70,0.26716
6005600,-0.10500,102.6875,126,70,0.26203
6005610,-0.10500,101.1250,126,70,0.25812
6005620,-0.10500,99.3125,126,70,0.25421
6005630,-0.10500,97.2500,126,70,0.24933
6005640,-0.10000,92.4375,126,70,0.24127
6005650,0.34000,90.0000,126,70,0.23956
6005660,-0.09500,87.7500,126,70,0.23956
6005670,-0.06500,85.8750,126,70,0.24200
6005680,-0.04000,82.9375,126,70,0.25763
6005690,-0.07500,81.8125,126,70,0.27814
6005700,-0.12000,81.0000,126,70,0.30965
6005710,-0.13500,80.5000,126,70,0.33407
6005720,-0.12500,80.1875,126,70,0.38608
6005730,-0.08500,80.1875,126,70,0.42149
6005740,-0.08500,80.1875,126,70,0.42149
6005750,0.04500,80.4375,126,70,0.49744
6005760,0.03000,80.7500,126,70,0.57460
6005770,-0.04500,80.8750,126,70,0.61319
6005780,-0.15500,80.9375,126,70,0.63761
6005790,-0.20000,80.8750,126,70,0.65421
6005800,-0.16500,80.6875,126,70,0.67717
6005810,-0.16000,80.4375,126,70,0.68571
6005820,-0.20500,80.1250,126,70,0.69035
6005830,-0.22000,79.6875,126,70,0.69231
6005840,-0.21000,78.8125,126,70,0.68767
6005850,-0.20000,78.2500,126,70,0.68205
6005860,-0.17000,77.7500,126,70,0.67497
6005870,-0.16000,77.2500,126,70,0.66618
6005880,-0.17500,76.3750,126,70,0.64640
6005890,-0.05500,75.9375,126,70,0.63468
6005900,0.39000,75.5000,126,70,0.62173
6005910,1.16000,75.1250,126,70,0.60757
6005920,1.59000,74.3125,126,70,0.57729
6005930,0.90000,73.9375,126,70,0.56166
6005940,-0.06000,73.5000,126,70,0.54554
6005950,-0.44000,73.0625,126,70,0.52918
6005960,-0.48000,72.1875,126,70,0.49670
6005970,-0.42000,71.8125,126,70,0.48132
6005980,-0.39500,71.3750,126,70,0.46838
6005990,-0.40000,71.0000,126,70,0.45690
6006000,-0.32500,70.1250,126,70,0.43321
6006010,-0.22000,69.6875,126,70,0.42198
6006020,-0.18000,69.2500,126,70,0.41172
6006030,-0.17000,68.8125,126,70,0.40269
6006040,-0.13500,68.0625,126,70,0.38779
6006050,-0.13000,67.7500,126,70,0.38169
6006060,-0.13500,67.3750,126,70,0.37607
6006070,-0.09500,67.1250,126,70,0.37070
6006080,-0.08500,67.2500,126,70,0.36386
6006090,-0.13500,68.0625,126,70,0.36093
6006100,-0.13000,70.0625,126,70,0.35800
6006110,-0.08500,73.7500,126,70,0.35482
6006120,-0.11500,86.7500,126,70,0.35336
6006130,-0.11500,86.7500,126,70,0.35336
6006140,-0.04500,102.2500,126,70,0.34896
6006150,0.05500,108.6875,126,70,0.34603
6006160,0.11000,118.0000,126,70,0.33919
6006170,0.10500,121.0000,126,70,0.33553
6006180,0.08000,122.8750,126,70,0.33260
6006190,0.07000,123.6875,126,70,0.33016
6006200,0.05000,122.7500,126,70,0.32381
6006210,0.00000,121.5000,126,70,0.31990
6006220,0.05000,120.0000,126,70,0.31575
6006230,0.12000,118.3750,126,70,0.31160
6006240,0.09500,115.2500,126,70,0.30379
6006250,0.06000,113.7500,126,70,0.29963
6006260,0.00500,112.3125,126,70,0.29524
6006270,-0.06000,110.9375,126,70,0.29060
6006280,-0.08500,108.1875,126,70,0.28498
6006290,-0.10500,106.9375,126,70,0.28156
6006300,-0.12500,105.6875,126,70,0.27766
6006310,-0.09500,104.4375,126,70,0.27350
6006320,-0.06500,101.6250,126,70,0.26520
6006330,-0.09000,100.0000,126,70,0.26129
6006340,-0.12500,98.1250,126,70,0.25788
6006350,-0.11500,95.9375,126,70,0.25543
6006360,-0.12000,91.0625,126,70,0.25372
6006370,-0.17000,88.7500,126,70,0.25641
6006380,-0.17500,86.7500,126,70,0.26129
6006390,-0.13500,85.0625,126,70,0.26935
6006400,-0.13500,82.4375,126,70,0.30085
6006410,-0.13000,81.5625,126,70,0.32479
6006420,-0.07000,80.9375,126,70,0.35360
6006430,-0.04500,80.5625,126,70,0.38706
6006440,-0.03500,80.3125,126,70,0.46178
6006450,-0.01500,80.3125,126,70,0.49988
6006460,0.04500,80.4375,126,70,0.53651
6006470,0.07500,80.5625,126,70,0.57045
6006480,0.06000,80.7500,126,70,0.61880
6006490,0.02000,80.7500,126,70,0.63980
6006500,-0.01500,80.7500,126,70,0.65836
6006510,-0.06500,80.7500,126,70,0.67326
6006520,-0.11500,80.4375,126,70,0.69255
6006530,-0.13500,80.1875,126,70,0.69719
6006540,-0.14500,79.8750,126,70,0.69890
6006550,-0.14500,79.5000,126,70,0.69792
6006560,-0.12500,78.6250,126,70,0.68913
6006570,-0.11500,78.1875,126,70,0.68230
6006580,-0.13000,77.6875,126,70,0.67473
6006590,-0.19500,77.1875,126,70,0.66642
6006600,-0.19500,77.1875,126,70,0.66642
6006610,0.35500,75.9375,126,70,0.63492
6006620,1.13500,75.5625,126,70,0.62198
6006630,1.58000,75.1875,126,70,0.60781
6006640,1.03000,74.3750,126,70,0.57729
6006650,0.09000,73.9375,126,70,0.56142
6006660,-0.32000,73.5000,126,70,0.54530
6006670,-0.31000,73.0625,126,70,0.52943
6006680,-0.24500,72.1875,126,70,0.50305
6006690,-0.22000,71.7500,126,70,0.48962
6006700,-0.20500,71.3125,126,70,0.47619
6006710,-0.19500,70.8125,126,70,0.46325
6006720,-0.18500,69.9375,126,70,0.43956
6006730,-0.18000,69.5000,126,70,0.42882
6006740,-0.17000,69.1250,126,70,0.41929
6006750,-0.16000,68.7500,126,70,0.41074
6006760,-0.15500,67.9375,126,70,0.39683
6006770,-0.14500,67.6250,126,70,0.39096
6006780,-0.13500,67.3750,126,70,0.38657
6006790,-0.12500,67.3125,126,70,0.38339
6006800,-0.11000,68.8750,126,70,0.37656
6006810,-0.09500,71.3125,126,70,0.37338
6006820,-0.07500,75.6250,126,70,0.37045
6006830,-0.05000,81.8750,126,70,0.36752
6006840,-0.02500,97.4375,126,70,0.36068
6006850,0.00000,104.7500,126,70,0.35702
6006860,0.03000,110.8750,126,70,0.35336
6006870,0.06000,115.8125,126,70,0.34969
6006880,0.09000,122.3125,126,70,0.34457
6006890,0.11500,123.8750,126,70,0.34164
6006900,0.13500,124.3750,126,70,0.33846
6006910,0.15500,124.0625,126,70,0.33480
6006920,0.17500,121.9375,126,70,0.32674
6006930,0.18500,120.5625,126,70,0.32234
6006940,0.18500,119.1250,126,70,0.31795
6006950,0.15500,117.6250,126,70,0.31355
6006960,0.10500,114.8125,126,70,0.30501
6006970,0.04000,113.5000,126,70,0.30061
6006980,-0.00500,112.2500,126,70,0.29744
6006990,-0.04500,111.1250,126,70,0.29499
6007000,-0.07500,108.8750,126,70,0.28791
6007010,-0.08500,107.6875,126,70,0.28425
6007020,-0.09500,106.4375,126,70,0.28010
6007030,-0.10500,105.1875,126,70,0.27595
6007040,-0.11000,102.1875,126,70,0.26740
6007050,-0.11500,100.3125,126,70,0.26349
6007060,-0.13000,98.1250,126,70,0.26032
6007070,-0.16000,95.6875,126,70,0.25861
6007080,-0.18000,90.8125,126,70,0.26203
6007090,-0.13500,88.6875,126,70,0.26789
6007100,-0.08500,86.8750,126,70,0.27814
6007110,-0.07500,85.3125,126,70,0.29353
6007120,-0.07500,83.0625,126,70,0.34139
6007130,-0.07500,82.3125,126,70,0.37265
6007140,-0.06000,81.8125,126,70,0.40757
6007150,-0.05500,81.5000,126,70,0.44493
6007160,-0.05500,81.3125,126,70,0.52112
6007170,-0.07500,81.3750,126,70,0.55702
6007180,-0.04500,81.4375,126,70,0.58608
6007190,-0.01500,81.5625,126,70,0.61026
6007200,-0.01500,81.8125,126,70,0.65568
6007210,-0.03000,81.8750,126,70,0.67399
6007220,-0.07500,81.8750,126,70,0.68889
6007230,-0.11500,81.8125,126,70,0.70012
6007240,-0.15000,81.5000,126,70,0.71258
6007250,-0.18000,81.1875,126,70,0.71453
6007260,-0.16500,80.8125,126,70,0.71404
6007270,-0.15500,80.3750,126,70,0.71160
6007280,-0.14500,79.5000,126,70,0.70159
6007290,-0.17500,79.0000,126,70,0.69451
6007300,-0.26000,78.5625,126,70,0.68669
6007310,-0.13500,78.1250,126,70,0.67790
6007320,0.38000,77.1875,126,70,0.65665
6007330,1.19000,76.6875,126,70,0.64396
6007340,1.61500,76.2500,126,70,0.63028
6007350,0.97000,75.8750,126,70,0.61563
6007360,0.04000,75.0000,126,70,0.58437
6007370,-0.29500,74.5625,126,70,0.56825
6007380,-0.31000,74.1250,126,70,0.55385
6007390,-0.32500,73.6875,126,70,0.54066
6007400,-0.33500,72.8750,126,70,0.51209
6007410,-0.37000,72.4375,126,70,0.49792
6007420,-0.36500,72.0000,126,70,0.48400
6007430,-0.40500,71.6250,126,70,0.47082
6007440,-0.43500,70.7500,126,70,0.44713
6007450,-0.44000,70.3750,126,70,0.43712
6007460,-0.47000,70.0000,126,70,0.42808
6007470,-0.39000,69.5625,126,70,0.42027
6007480,-0.28000,68.8125,126,70,0.40952
6007490,-0.30000,68.6250,126,70,0.40440
6007500,-0.35500,68.7500,126,70,0.39976
6007510,-0.31500,69.4375,126,70,0.39560
6007520,-0.23000,74.6875,126,70,0.38730
6007530,-0.21000,80.1875,126,70,0.38339
6007540,-0.21500,87.4375,126,70,0.37973
6007550,-0.14500,95.5625,126,70,0.37656
6007560,-0.09500,110.2500,126,70,0.36972
6007570,-0.03500,115.8125,126,70,0.36703
6007580,0.04000,120.1875,126,70,0.36459
6007590,0.05000,123.3750,126,70,0.36142
6007600,0.05500,126.5000,126,70,0.35409
6007610,0.04000,126.5625,126,70,0.35043
6007620,0.11000,125.8125,126,70,0.34676
6007630,0.17500,124.6875,126,70,0.34286
6007640,0.09500,121.6875,126,70,0.33431
6007650,0.02500,120.1250,126,70,0.32991
6007660,-0.02500,118.5625,126,70,0.32552
6007670,-0.05000,117.1250,126,70,0.32088
6007680,-0.06500,114.3750,126,70,0.31429
6007690,-0.10500,113.1875,126,70,0.31087
6007700,-0.08500,112.0000,126,70,0.30745
6007710,-0.02500,110.8750,126,70,0.30379
6007720,-0.02500,108.6875,126,70,0.29597
6007730,-0.05500,107.5000,126,70,0.29158
6007740,-0.06500,106.1875,126,70,0.28694
6007750,-0.05000,104.6875,126,70,0.28254
6007760,-0.03000,100.8750,126,70,0.27521
6007770,-0.02500,98.6250,126,70,0.27326
6007780,-0.01500,96.1875,126,70,0.27302
6007790,-0.01500,93.7500,126,70,0.27424
6007800,-0.02000,89.3750,126,70,0.28547
6007810,-0.02000,87.5625,126,70,0.29841
6007820,-0.01500,86.0625,126,70,0.31722
6007830,-0.00500,84.8750,126,70,0.34188
6007840,0.01000,83.3125,126,70,0.40537
6007850,0.03000,82.8750,126,70,0.44249
6007860,0.03500,82.6250,126,70,0.48107
6007870,0.04000,82.5625,126,70,0.51966
6007880,0.04000,82.5625,126,70,0.51966
6007890,0.06000,82.8750,126,70,0.60977
6007900,0.04500,83.0000,126,70,0.63712
6007910,0.01500,83.1875,126,70,0.66154
6007920,-0.01500,83.2500,126,70,0.69890
6007930,-0.06500,83.2500,126,70,0.71136
6007940,-0.11500,83.1250,126,70,0.72015
6007950,-0.13500,82.8750,126,70,0.72576
6007960,-0.14500,82.1875,126,70,0.72869
6007970,-0.14000,81.7500,126,70,0.72625
6007980,-0.15000,81.2500,126,70,0.72137
6007990,-0.16000,80.6875,126,70,0.71575
6008000,-0.18000,79.6250,126,70,0.70183
6008010,-0.23000,79.1250,126,70,0.69328
6008020,-0.02500,78.6875,126,70,0.68400
6008030,0.62000,78.2500,126,70,0.67375
6008040,1.49000,77.3750,126,70,0.64982
6008050,1.68500,76.9375,126,70,0.63614
6008060,0.81500,76.5000,126,70,0.62149
6008070,-0.09500,76.0625,126,70,0.60586
6008080,-0.37000,75.2500,126,70,0.57680
6008090,-0.31500,74.8750,126,70,0.56142
6008100,-0.25000,74.4375,126,70,0.54579
6008110,-0.25000,74.0625,126,70,0.53040
6008120,-0.24500,73.1875,126,70,0.50134
6008130,-0.22500,72.7500,126,70,0.48791
6008140,-0.22000,72.3750,126,70,0.47521
6008150,-0.19500,71.9375,126,70,0.46325
6008160,-0.17000,71.1250,126,70,0.44469
6008170,-0.18000,70.6875,126,70,0.43907
6008180,-0.15500,70.1875,126,70,0.43346
6008190,-0.13500,69.7500,126,70,0.42759
6008200,-0.13500,69.7500,126,70,0.42759
6008210,-0.11500,69.3750,126,70,0.41685
6008220,-0.11500,71.2500,126,70,0.40781
6008230,-0.10500,74.1875,126,70,0.40342
6008240,-0.09500,86.0625,126,70,0.39560
6008250,-0.08000,94.1250,126,70,0.39170
6008260,-0.08000,102.3125,126,70,0.38779
6008270,-0.11500,109.7500,126,70,0.38413
6008280,-0.07000,120.8750,126,70,0.37851
6008290,0.04000,124.4375,126,70,0.37558
6008300,0.08000,126.7500,126,70,0.37216
6008310,0.07500,127.9375,126,70,0.36850
6008320,0.10500,127.5000,126,70,0.36020
6008330,0.13000,126.3125,126,70,0.35629
6008340,0.11000,124.8125,126,70,0.35214
6008350,0.12000,123.1875,126,70,0.34774
6008360,0.12000,120.0000,126,70,0.33797
6008370,0.11000,118.5000,126,70,0.33431
6008380,0.09500,117.0625,126,70,0.33114
6008390,0.03500,115.6250,126,70,0.32723
6008400,0.00000,112.8750,126,70,0.31844
6008410,-0.01500,111.6250,126,70,0.31404
6008420,-0.04000,110.3750,126,70,0.30965
6008430,-0.07000,109.1250,126,70,0.30574
6008440,-0.07000,109.1250,126,70,0.30574
6008450,-0.15000,105.0000,126,70,0.29402
6008460,-0.13000,103.2500,126,70,0.28987
6008470,-0.15500,101.2500,126,70,0.28620
6008480,-0.19000,96.4375,126,70,0.28303
6008490,-0.20000,93.9375,126,70,0.28278
6008500,-0.22500,91.4375,126,70,0.28498
6008510,-0.19500,89.2500,126,70,0.29133
6008520,-0.16000,85.8750,126,70,0.32112
6008530,-0.17500,84.6875,126,70,0.34530
6008540,-0.15500,83.8125,126,70,0.37534
6008550,-0.08500,83.2500,126,70,0.41026
6008560,-0.04000,82.6875,126,70,0.48962
6008570,-0.02500,82.6875,126,70,0.52527
6008580,-0.00500,82.7500,126,70,0.55751
6008590,0.01500,83.0000,126,70,0.59170
6008600,0.04500,83.4375,126,70,0.65543
6008610,0.03000,83.5625,126,70,0.68254
6008620,0.01000,83.6875,126,70,0.70549
6008630,-0.01000,83.6875,126,70,0.72430
6008640,-0.05500,83.3750,126,70,0.74847
6008650,-0.11000,83.0625,126,70,0.75458
6008660,-0.14000,82.6875,126,70,0.75751
6008670,-0.15000,82.1875,126,70,0.75726
6008680,-0.14500,81.0625,126,70,0.74896
6008690,-0.14500,81.0625,126,70,0.74896
6008700,-0.12500,79.8750,126,70,0.73529
6008710,-0.14500,79.2500,126,70,0.72723
6008720,-0.23000,78.1875,126,70,0.70842
6008730,-0.14000,77.6875,126,70,0.69768
6008740,0.35000,77.2500,126,70,0.68571
6008750,1.18000,76.8125,126,70,0.67204
6008760,1.71500,75.9375,126,70,0.64127
6008770,1.18500,75.5625,126,70,0.62613
6008780,0.45500,75.1250,126,70,0.61123
6008790,0.01000,74.6875,126,70,0.59487
6008800,-0.27000,73.8125,126,70,0.56068
6008810,-0.24500,73.3750,126,70,0.54383
6008820,-0.24000,73.0000,126,70,0.52723
6008830,-0.24000,73.0000,126,70,0.52723
6008840,-0.22000,71.6875,126,70,0.48376
6008850,-0.21000,71.2500,126,70,0.47204
6008860,-0.19500,70.7500,126,70,0.46154
6008870,-0.19000,70.3125,126,70,0.45275
6008880,-0.20000,69.5000,126,70,0.44005
6008890,-0.17500,69.0625,126,70,0.43370
6008900,-0.14500,68.6250,126,70,0.42808
6008910,-0.15500,68.2500,126,70,0.42295
6008920,-0.15500,68.2500,126,70,0.41343
6008930,-0.14000,69.0625,126,70,0.40904
6008940,-0.09500,71.1875,126,70,0.40488
6008950,-0.07500,75.0625,126,70,0.40098
6008960,-0.07500,88.3750,126,70,0.39316
6008970,-0.07000,96.5000,126,70,0.39023
6008980,-0.08500,104.1875,126,70,0.38755
6008990,-0.06500,110.8125,126,70,0.38413
6009000,-0.00500,119.9375,126,70,0.37582
6009010,0.03500,122.6250,126,70,0.37118
6009020,0.05500,124.1250,126,70,0.36606
6009030,0.08000,124.6250,126,70,0.36117
6009040,0.13000,123.1875,126,70,0.35116
6009050,0.17000,121.8125,126,70,0.34652
6009060,0.19000,120.1875,126,70,0.34164
6009070,0.18500,118.5625,126,70,0.33724
6009080,0.16000,115.2500,126,70,0.33138
6009090,0.11000,113.6875,126,70,0.32747
6009100,0.11000,113.6875,126,70,0.32747
6009110,0.00000,110.8750,126,70,0.31770
6009120,-0.03500,108.2500,126,70,0.30794
6009130,-0.06000,106.9375,126,70,0.30354
6009140,-0.08000,105.6250,126,70,0.29963
6009150,-0.09000,104.2500,126,70,0.29573
6009160,-0.09500,101.1875,126,70,0.28791
6009170,-0.09500,99.3750,126,70,0.28498
6009180,-0.10000,97.2500,126,70,0.28254
6009190,-0.10500,94.9375,126,70,0.27912
6009200,-0.10500,90.0000,126,70,0.27399
6009210,-0.10500,87.6875,126,70,0.27448
6009220,-0.11500,85.6250,126,70,0.27814
6009230,-0.11500,83.9375,126,70,0.28694
6009240,-0.11000,81.6250,126,70,0.32186
6009250,-0.09500,80.8750,126,70,0.34799
6009260,-0.07500,80.4375,126,70,0.37949
6009270,-0.05500,80.2500,126,70,0.40977
6009280,-0.02500,80.2500,126,70,0.47619
6009290,-0.02500,80.4375,126,70,0.51404
6009300,-0.01500,80.6250,126,70,0.55165
6009310,0.01000,80.8125,126,70,0.58730
6009320,0.02000,81.1250,126,70,0.64835
6009330,-0.00500,81.1250,126,70,0.67228
6009340,-0.04000,81.0625,126,70,0.69158
6009350,-0.07500,80.9375,126,70,0.70647
6009360,-0.11500,80.5000,126,70,0.72332
6009370,-0.17000,80.1875,126,70,0.72552
6009380,-0.19000,79.8125,126,70,0.72503
6009390,-0.19000,79.3750,126,70,0.72308
6009400,-0.16000,78.3750,126,70,0.71355
6009410,-0.14500,77.8750,126,70,0.70598
6009420,-0.15500,77.3750,126,70,0.69719
6009430,-0.17000,76.9375,126,70,0.68718
6009440,-0.19000,76.0625,126,70,0.66349
6009450,-0.01500,75.6250,126,70,0.64982
6009460,0.53500,75.2500,126,70,0.63516
6009470,1.33000,74.8125,126,70,0.62100
6009480,1.56000,74.0000,126,70,0.59194
6009490,0.74000,73.5625,126,70,0.57582
6009500,-0.13000,73.1250,126,70,0.55922
6009510,-0.38000,72.6875,126,70,0.54261
6009520,-0.33500,71.8125,126,70,0.50940
6009530,-0.28500,71.3750,126,70,0.49402
6009540,-0.26000,70.9375,126,70,0.47937
6009550,-0.26000,70.9375,126,70,0.47937
6009560,-0.20500,69.6250,126,70,0.44103
6009570,-0.19000,69.1875,126,70,0.43175
6009580,-0.17000,68.7500,126,70,0.42418
6009590,-0.17000,68.3750,126,70,0.41636
6009600,-0.17000,67.6250,126,70,0.40317
6009610,-0.17500,67.2500,126,70,0.39780
6009620,-0.19000,66.8750,126,70,0.39316
6009630,-0.18500,66.6250,126,70,0.38901
6009640,-0.15500,66.8750,126,70,0.38144
6009650,-0.15500,67.8125,126,70,0.37802
6009660,-0.18000,69.8750,126,70,0.37460
6009670,-0.18500,73.6875,126,70,0.37192
6009680,-0.14000,86.5625,126,70,0.36728
6009690,-0.10500,94.3750,126,70,0.36386
6009700,-0.06500,101.7500,126,70,0.36020
6009710,-0.01500,108.0625,126,70,0.35629
6009720,0.01500,117.0000,126,70,0.34847
6009730,0.04000,119.8125,126,70,0.34481
6009740,0.05000,121.5000,126,70,0.34066
6009750,0.07500,122.1875,126,70,0.33602
6009760,0.10000,121.9167,126,70,0.33130
6009770,0.12000,120.9375,126,70,0.32698
6009780,0.11500,119.5000,126,70,0.32357
6009790,0.09000,117.8125,126,70,0.32063
6009800,0.04000,114.3750,126,70,0.31282
6009810,0.00000,112.6875,126,70,0.30842
6009820,0.00500,111.0000,126,70,0.30379
6009830,-0.01500,109.4375,126,70,0.29939
6009840,-0.01500,109.4375,126,70,0.29939
6009850,-0.05000,105.1250,126,70,0.28694
6009860,-0.06000,103.8750,126,70,0.28327
6009870,-0.07500,102.6250,126,70,0.27937
6009880,-0.07500,99.8750,126,70,0.27399
6009890,-0.08000,98.2500,126,70,0.27057
6009900,-0.08000,96.5000,126,70,0.26667
6009910,-0.08000,94.5000,126,70,0.26276
6009920,-0.08000,89.9375,126,70,0.25739
6009930,-0.08500,87.6875,126,70,0.25665
6009940,-0.08500,85.6875,126,70,0.25788
6009950,-0.09000,83.9375,126,70,0.26252
6009960,-0.08500,81.3125,126,70,0.28547
6009970,-0.08000,80.3125,126,70,0.30501
6009980,-0.06500,79.6250,126,70,0.32625
6009990,-0.04500,79.1250,126,70,0.35043
6010000,-0.03500,78.8125,125,69,0.41685
6010010,-0.02500,78.8750,125,69,0.45495
6010020,-0.00500,79.0625,125,69,0.49377
6010030,0.02000,79.2500,125,69,0.53162
6010040,0.01000,79.5625,125,69,0.59927
6010050,-0.01500,79.6875,125,69,0.62735
6010060,-0.04000,79.7500,125,69,0.65128
6010070,-0.10500,79.7500,125,69,0.67082
6010080,0.26000,79.5625,125,69,0.69255
6010090,-0.15500,79.3125,125,69,0.69890
6010100,-0.19000,79.0000,125,69,0.70256
6010110,-0.23000,78.6250,125,69,0.70354
6010120,-0.19000,77.7500,125,69,0.69866
6010130,-0.14500,77.2500,125,69,0.69280
6010140,-0.15500,76.7500,125,69,0.68523
6010150,-0.21500,76.2500,125,69,0.67619
6010160,-0.19000,75.3750,125,69,0.65446
6010170,0.17500,74.9375,125,69,0.64176
6010180,0.92000,74.5625,125,69,0.62930
6010190,1.55000,74.1250,125,69,0.61685
6010200,1.19000,73.3125,125,69,0.58852
6010210,0.22500,72.9375,125,69,0.57314
6010220,-0.30500,72.5625,125,69,0.55482
6010230,-0.36000,72.1875,125,69,0.53529
6010240,-0.29000,71.3750,125,69,0.50061
6010250,-0.25500,70.9375,125,69,0.48547
6010260,-0.24000,70.5000,125,69,0.47106
6010270,-0.23000,70.0625,125,69,0.45763
6010280,-0.22000,69.2500,125,69,0.43761
6010290,-0.21000,68.8125,125,69,0.42784
6010300,-0.20000,68.3750,125,69,0.41856
6010310,-0.18500,67.9375,125,69,0.40952
6010320,-0.17500,67.2500,125,69,0.39414
6010330,-0.17000,66.8750,125,69,0.38803
6010340,-0.16000,66.5625,125,69,0.38242
6010350,-0.14500,66.3125,125,69,0.37753
6010360,-0.13000,66.4375,125,69,0.37021
6010370,-0.11500,67.1875,125,69,0.36728
6010380,-0.09000,69.1250,125,69,0.36508
6010390,-0.07000,72.6875,125,69,0.36313
6010400,-0.04500,85.4375,125,69,0.35678
6010410,-0.02500,93.3750,125,69,0.35311
6010420,-0.00500,100.8750,125,69,0.34945
6010430,0.01000,107.2500,125,69,0.34628
6010440,0.03000,116.3750,125,69,0.34042
6010450,0.06500,119.3125,125,69,0.33724
6010460,0.08500,121.1250,125,69,0.33333
6010470,0.11000,121.9375,125,69,0.32894
6010480,0.16000,120.8125,125,69,0.32283
6010490,0.19000,119.5625,125,69,0.31893
6010500,0.19000,118.0625,125,69,0.31477
6010510,0.17000,116.3750,125,69,0.31038
6010520,0.12000,113.0625,125,69,0.30208
6010530,0.06000,111.4375,125,69,0.29792
6010540,0.00000,110.0000,125,69,0.29377
6010550,-0.04500,108.6250,125,69,0.28913
6010560,-0.07500,106.0625,125,69,0.28010
6010570,-0.09000,104.9375,125,69,0.27595
6010580,-0.09500,103.7500,125,69,0.27326
6010590,-0.10000,102.5625,125,69,0.27106
6010600,-0.09500,99.7500,125,69,0.26422
6010610,-0.09500,98.0000,125,69,0.26032
6010620,-0.09500,96.0625,125,69,0.25690
6010630,-0.09500,93.8750,125,69,0.25397
6010640,-0.09500,89.1250,125,69,0.25079
6010650,-0.09500,86.8750,125,69,0.25177
6010660,-0.09500,84.8750,125,69,0.25592
6010670,-0.09500,83.2500,125,69,0.26398
6010680,-0.09000,80.7500,125,69,0.28987
6010690,-0.07500,79.8750,125,69,0.31111
6010700,-0.05500,79.2500,125,69,0.33822
6010710,-0.03500,78.9375,125,69,0.37021
6010720,-0.03000,78.7500,125,69,0.44518
6010730,-0.01000,78.8125,125,69,0.48449
6010740,0.01000,78.9375,125,69,0.52283
6010750,0.00500,79.1250,125,69,0.55897
6010760,-0.02500,79.5000,125,69,0.62076
6010770,-0.05500,79.5625,125,69,0.64518
6010780,-0.10000,79.6250,125,69,0.66276
6010790,-0.14500,79.5625,125,69,0.67546
6010800,-0.18000,79.2500,125,69,0.69548
6010810,-0.19000,78.9375,125,69,0.70134
6010820,-0.19000,78.6250,125,69,0.70427
6010830,-0.18000,78.2500,125,69,0.70427
6010840,-0.17000,77.3750,125,69,0.69744
6010850,-0.16000,76.9375,125,69,0.69109
6010860,-0.22000,76.5000,125,69,0.68327
6010870,-0.23000,76.0625,125,69,0.67399
6010880,0.10000,75.2500,125,69,0.65348
6010890,0.80500,74.8750,125,69,0.64151
6010900,1.48000,74.5000,125,69,0.62833
6010910,1.29500,74.1250,125,69,0.61416
6010920,0.34500,73.3125,125,69,0.58413
6010930,-0.28000,72.8750,125,69,0.56825
6010940,-0.37500,72.4375,125,69,0.55214
6010950,-0.32500,72.0000,125,69,0.53553
6010960,-0.29000,71.0625,125,69,0.50305
6010970,-0.23500,70.6250,125,69,0.48767
6010980,-0.21500,70.1875,125,69,0.47473
6010990,-0.21500,70.1875,125,69,0.47473
6011000,-0.21000,68.9375,125,69,0.43956
6011010,-0.20000,68.5000,125,69,0.42857
6011020,-0.19000,68.0625,125,69,0.41856
6011030,-0.18500,67.6875,125,69,0.40977
6011040,-0.18500,67.6875,125,69,0.40977
6011050,-0.16500,66.5625,125,69,0.38950
6011060,-0.15500,66.3125,125,69,0.38462
6011070,-0.14500,66.2500,125,69,0.38022
6011080,-0.12500,67.5625,125,69,0.37436
6011090,-0.12500,67.5625,125,69,0.37436
6011100,-0.08500,73.8750,125,69,0.36850
6011110,-0.07000,79.8125,125,69,0.36532
6011120,-0.05000,95.1250,125,69,0.35849
6011130,-0.02500,102.4375,125,69,0.35482
6011140,0.01000,108.6250,125,69,0.35140
6011150,0.22500,113.6250,125,69,0.34847
6011160,0.32000,120.2500,125,69,0.34188
6011170,0.66000,121.8750,125,69,0.33919
6011180,0.20500,122.5625,125,69,0.33700
6011190,0.19500,122.3125,125,69,0.33407
6011200,0.19500,122.3125,125,69,0.32650
6011210,0.18500,118.7500,125,69,0.32210
6011220,0.16500,117.1250,125,69,0.31770
6011230,0.17500,115.5625,125,69,0.31306
6011240,0.17000,112.5625,125,69,0.30379
6011250,0.12000,111.1875,125,69,0.29915
6011260,0.00500,109.8125,125,69,0.29475
6011270,-0.07000,108.5625,125,69,0.29035
6011280,-0.06000,106.1875,125,69,0.28474
6011290,-0.09500,105.0625,125,69,0.28107
6011300,-0.14000,104.0000,125,69,0.27717
6011310,-0.13000,102.8125,125,69,0.27326
6011320,-0.12500,99.9375,125,69,0.26520
6011330,-0.13000,98.1250,125,69,0.26129
6011340,-0.13500,96.0000,125,69,0.25788
6011350,-0.13000,93.6875,125,69,0.25568
6011360,-0.13500,89.0000,125,69,0.25690
6011370,-0.14000,86.9375,125,69,0.26081
6011380,-0.14000,85.1250,125,69,0.26813
6011390,-0.13500,83.6250,125,69,0.28034
6011400,-0.11500,81.3750,125,69,0.32063
6011410,-0.09500,80.6250,125,69,0.34921
6011420,-0.08500,80.1250,125,69,0.38242
6011430,-0.07500,79.8125,125,69,0.41954
6011440,-0.07500,79.8125,125,69,0.41954
6011450,-0.03500,79.8125,125,69,0.53626
6011460,-0.03000,79.9375,125,69,0.57265
6011470,-0.06000,80.0625,125,69,0.60586
6011480,-0.10500,80.2500,125,69,0.65153
6011490,-0.16000,80.3125,125,69,0.67033
6011500,-0.26000,80.3125,125,69,0.68620
6011510,-0.31000,80.2500,125,69,0.69890
6011520,-0.34000,79.8750,125,69,0.71331
6011530,-0.37500,79.6250,125,69,0.71575
6011540,-0.29500,79.3125,125,69,0.71600
6011550,-0.17000,78.8750,125,69,0.71404
6011560,-0.15000,78.0625,125,69,0.70403
6011570,-0.25500,77.6250,125,69,0.69719
6011580,-0.30000,77.2500,125,69,0.68938
6011590,0.03000,76.8125,125,69,0.68034
6011600,0.78500,75.9375,125,69,0.65885
6011610,1.48000,75.5000,125,69,0.64640
6011620,1.22000,75.1250,125,69,0.63272
6011630,0.33000,74.6875,125,69,0.61807
6011640,-0.23000,73.8125,125,69,0.58657
6011650,-0.42000,73.3750,125,69,0.57021
6011660,-0.41500,72.9375,125,69,0.55385
6011670,-0.30000,72.5000,125,69,0.53724
6011680,-0.22000,71.6250,125,69,0.50867
6011690,-0.22500,71.1875,125,69,0.49451
6011700,-0.23000,70.8125,125,69,0.48034
6011710,-0.22000,70.3750,125,69,0.46691
6011720,-0.21500,69.5625,125,69,0.44420
6011730,-0.20500,69.1250,125,69,0.43443
6011740,-0.19500,68.7500,125,69,0.42540
6011750,-0.18500,68.4375,125,69,0.41734
6011760,-0.17000,67.7500,125,69,0.40366
6011770,-0.16000,67.5625,125,69,0.39853
6011780,-0.14500,67.6250,125,69,0.39438
6011790,-0.13000,68.2500,125,69,0.39023
6011800,-0.11000,73.1250,125,69,0.38266
6011810,-0.09000,78.3125,125,69,0.37875
6011820,-0.06500,85.2500,125,69,0.37534
6011830,-0.04500,93.1250,125,69,0.37241
6011840,-0.01500,107.8125,125,69,0.36630
6011850,-0.01500,107.8125,125,69,0.36630
6011860,0.04000,118.0000,125,69,0.35849
6011870,0.07000,121.3750,125,69,0.35433
6011880,0.13000,124.6250,125,69,0.34847
6011890,0.15500,124.6875,125,69,0.34530
6011900,0.22500,124.0000,125,69,0.34188
6011910,0.35000,122.8125,125,69,0.33822
6011920,0.29000,119.8125,125,69,0.33065
6011930,0.16000,118.2500,125,69,0.32650
6011940,0.06000,116.8125,125,69,0.32210
6011950,-0.09500,115.3750,125,69,0.31746
6011960,-0.07000,112.6250,125,69,0.30745
6011970,0.01000,111.3750,125,69,0.30427
6011980,-0.17000,110.0625,125,69,0.30183
6011990,-0.42000,108.8125,125,69,0.29890
6012000,-0.45000,106.3125,125,69,0.29182
6012010,-0.30000,105.0625,125,69,0.28767
6012020,-0.14500,103.7500,125,69,0.28327
6012030,-0.08000,102.2500,125,69,0.27888
6012040,-0.13500,98.6250,125,69,0.27033
6012050,-0.15500,96.3750,125,69,0.26691
6012060,-0.11000,94.0000,125,69,0.26496
6012070,-0.08500,91.6250,125,69,0.26520
6012080,-0.08500,87.5000,125,69,0.27473
6012090,-0.08500,85.8125,125,69,0.28547
6012100,-0.07500,84.3750,125,69,0.30134
6012110,-0.05500,83.2500,125,69,0.32283
6012120,-0.03500,81.8750,125,69,0.38242
6012130,-0.03500,81.8750,125,69,0.38242
6012140,-0.00500,81.3125,125,69,0.45812
6012150,0.01000,81.3125,125,69,0.49841
6012160,0.01000,81.5000,125,69,0.57607
6012170,-0.03000,81.6875,125,69,0.60635
6012180,-0.06000,81.9375,125,69,0.63126
6012190,-0.08500,82.0625,125,69,0.65592
6012200,-0.15000,82.2500,125,69,0.69695
6012210,-0.21000,82.1875,125,69,0.71184
6012220,-0.28500,82.0625,125,69,0.72357
6012230,-0.33500,81.8750,125,69,0.73187
6012240,-0.30500,81.2500,125,69,0.73846
6012250,-0.29000,80.8125,125,69,0.73748
6012260,-0.28000,80.3750,125,69,0.73407
6012270,-0.19000,79.8750,125,69,0.73040
6012280,-0.31500,78.8750,125,69,0.71893
6012290,-0.34500,78.3750,125,69,0.71013
6012300,0.17500,77.8750,125,69,0.69988
6012310,0.17500,77.8750,125,69,0.69988
6012320,1.57500,76.5625,125,69,0.66276
6012330,1.04500,76.0625,125,69,0.64835
6012340,0.03000,75.6250,125,69,0.63297
6012350,-0.48500,75.2500,125,69,0.61709
6012360,-0.53500,74.4375,125,69,0.58364
6012370,-0.45500,74.0625,125,69,0.56850
6012380,-0.32500,73.6875,125,69,0.55409
6012390,-0.27000,73.2500,125,69,0.53871
6012400,-0.24000,72.4375,125,69,0.50794
6012410,-0.20000,72.0625,125,69,0.49353
6012420,-0.18000,71.6250,125,69,0.48034
6012430,-0.12500,71.2500,125,69,0.46813
6012440,-0.08500,70.3750,125,69,0.44737
6012450,-0.08000,70.0000,125,69,0.43858
6012460,-0.04000,69.5625,125,69,0.43077
6012470,-0.04000,69.1250,125,69,0.42418
6012480,-0.08500,68.6875,125,69,0.41538
6012490,-0.08000,69.0625,125,69,0.41123
6012500,-0.05500,70.2500,125,69,0.40708
6012510,-0.04500,72.8125,125,69,0.40366
6012520,-0.02500,83.8125,125,69,0.39756
6012530,0.00000,91.6250,125,69,0.39438
6012540,0.02000,99.8125,125,69,0.39096
6012550,0.05000,107.3125,125,69,0.38730
6012560,0.08000,118.5000,125,69,0.37998
6012570,0.11500,122.1250,125,69,0.37705
6012580,0.14000,124.5625,125,69,0.37436
6012590,0.16500,125.9375,125,69,0.37094
6012600,0.18500,125.9375,125,69,0.36264
6012610,0.20500,124.8750,125,69,0.35775
6012620,0.21500,123.4375,125,69,0.35287
6012630,0.22000,121.8750,125,69,0.34823
6012640,0.19500,118.6250,125,69,0.33871
6012650,0.14500,117.0000,125,69,0.33407
6012660,0.08500,115.4375,125,69,0.32943
6012670,0.03500,113.9375,125,69,0.32527
6012680,-0.00500,111.2500,125,69,0.32015
6012690,-0.03500,109.9375,125,69,0.31697
6012700,-0.05500,108.6250,125,69,0.31306
6012710,-0.06000,107.3125,125,69,0.30891
6012720,-0.06500,104.6250,125,69,0.30085
6012730,-0.07000,103.1250,125,69,0.29670
6012740,-0.07500,101.3750,125,69,0.29231
6012750,-0.07500,99.4375,125,69,0.28791
6012760,-0.08000,94.8750,125,69,0.28181
6012770,-0.08000,92.4375,125,69,0.28156
6012780,-0.08000,90.1250,125,69,0.28352
6012790,-0.08000,88.0625,125,69,0.28816
6012800,-0.08000,84.8750,125,69,0.31087
6012810,-0.07000,83.7500,125,69,0.33089
6012820,-0.05500,82.9375,125,69,0.35726
6012830,-0.03500,82.3125,125,69,0.38950
6012840,-0.01500,81.8125,125,69,0.46642
6012850,-0.00500,81.7500,125,69,0.50769
6012860,0.00500,81.8750,125,69,0.54872
6012870,0.00500,81.8750,125,69,0.54872
6012880,0.00000,82.3125,125,69,0.64542
6012890,-0.02500,82.4375,125,69,0.67106
6012900,-0.03500,82.5000,125,69,0.69402
6012910,-0.07500,82.4375,125,69,0.71331
6012920,-0.11500,82.1875,125,69,0.74042
6012930,-0.13500,81.9375,125,69,0.74847
6012940,-0.17000,81.5000,125,69,0.75360
6012950,-0.18000,81.0625,125,69,0.75629
6012960,-0.16000,80.0000,125,69,0.75336
6012970,-0.15500,79.4375,125,69,0.74823
6012980,-0.16500,78.8750,125,69,0.74139
6012990,-0.23000,78.3750,125,69,0.73333
6013000,-0.23500,77.3125,125,69,0.71331
6013010,0.06000,76.8125,125,69,0.70159
6013020,0.78500,76.3125,125,69,0.68864
6013030,1.59500,75.8750,125,69,0.67473
6013040,1.52000,75.1250,125,69,0.64396
6013050,0.55500,74.7500,125,69,0.62784
6013060,-0.20000,74.3125,125,69,0.61148
6013070,-0.35500,73.9375,125,69,0.59658
6013080,-0.29500,73.1250,125,69,0.56703
6013090,-0.25500,72.7500,125,69,0.55116
6013100,-0.24000,72.3125,125,69,0.53553
6013110,-0.23000,71.8750,125,69,0.52015
6013120,-0.22000,71.0000,125,69,0.49109
6013130,-0.20500,70.5625,125,69,0.47814
6013140,-0.19500,70.0625,125,69,0.46642
6013150,-0.18500,69.6250,125,69,0.45617
6013160,-0.17500,68.8125,125,69,0.43907
6013170,-0.16500,68.3750,125,69,0.43248
6013180,-0.15500,68.0000,125,69,0.42735
6013190,-0.14500,67.6250,125,69,0.42247
6013200,-0.13000,67.4375,125,69,0.41441
6013210,-0.11500,68.0625,125,69,0.41099
6013220,-0.08500,69.8125,125,69,0.40781
6013230,0.02000,73.1875,125,69,0.40440
6013240,0.10500,85.7500,125,69,0.39683
6013250,0.08000,93.7500,125,69,0.39292
6013260,0.06000,101.5625,125,69,0.38901
6013270,0.08000,108.3750,125,69,0.38559
6013280,0.05000,118.0000,125,69,0.37827
6013290,0.08000,120.9375,125,69,0.37411
6013300,0.13500,122.7500,125,69,0.36972
6013310,0.14500,123.5000,125,69,0.36508
6013320,0.15500,122.3750,125,69,0.35604
6013330,0.19000,120.9375,125,69,0.35140
6013340,0.25000,119.2500,125,69,0.34676
6013350,0.29000,117.5000,125,69,0.34188
6013360,0.27000,113.9375,125,69,0.33211
6013370,0.16500,112.2500,125,69,0.32894
6013380,0.07000,110.6875,125,69,0.32625
6013390,0.03500,109.1875,125,69,0.32259
6013400,-0.01500,106.4375,125,69,0.31404
6013410,-0.07500,105.1250,125,69,0.30965
6013420,-0.10500,103.8125,125,69,0.30525
6013430,-0.11500,102.5000,125,69,0.30085
6013440,-0.11500,99.5625,125,69,0.29182
6013450,-0.12000,97.8125,125,69,0.28718
6013460,-0.12500,95.8750,125,69,0.28303
6013470,-0.12500,93.7500,125,69,0.28059
6013480,-0.12500,89.0625,125,69,0.27766
6013490,-0.12500,86.8750,125,69,0.27766
6013500,-0.12500,84.9375,125,69,0.28034
6013510,-0.13000,83.3125,125,69,0.28645
6013520,-0.12500,81.0000,125,69,0.31380
6013530,-0.11500,80.2500,125,69,0.33578
6013540,-0.09500,79.8125,125,69,0.36361
6013550,-0.07000,79.5000,125,69,0.39634
6013560,-0.05500,79.3125,125,69,0.47179
6013570,-0.03500,79.4375,125,69,0.50647
6013580,-0.02500,79.6250,125,69,0.53773
6013590,-0.02500,79.8750,125,69,0.57143
6013600,-0.02500,80.1875,125,69,0.63443
6013610,-0.07500,80.1875,125,69,0.66129
6013620,-0.10000,80.1875,125,69,0.68352
6013630,-0.11500,80.0625,125,69,0.70110
6013640,-0.15500,79.6250,125,69,0.72308
6013650,-0.18000,79.3125,125,69,0.72821
6013660,-0.20500,78.9375,125,69,0.73016
6013670,-0.19500,78.5625,125,69,0.72894
6013680,-0.17500,77.5625,125,69,0.71990
6013690,-0.14000,77.0625,125,69,0.71306
6013700,-0.12500,76.5625,125,69,0.70476
6013710,-0.21500,76.0625,125,69,0.69499
6013720,-0.19000,75.1250,125,69,0.67155
6013730,0.21000,74.6875,125,69,0.65836
6013740,1.00000,74.3125,125,69,0.64420
6013750,1.61000,73.9375,125,69,0.62955
6013760,1.16000,73.1875,125,69,0.59805
6013770,0.18500,72.8125,125,69,0.58315
6013780,-0.30500,72.3750,125,69,0.56899
6013790,-0.33500,71.9375,125,69,0.55336
6013800,-0.26000,71.0625,125,69,0.52063
6013810,-0.22000,70.6875,125,69,0.50476
6013820,-0.18000,70.3125,125,69,0.48962
6013830,-0.09000,69.8750,125,69,0.47546
6013840,-0.09000,69.8750,125,69,0.47546
6013850,-0.13500,68.6875,125,69,0.44029
6013860,-0.21000,68.2500,125,69,0.43077
6013870,-0.21000,67.8750,125,69,0.42344
6013880,-0.17000,67.1875,125,69,0.41099
6013890,-0.13500,66.8125,125,69,0.40488
6013900,-0.11500,66.5000,125,69,0.39927
6013910,-0.09500,66.2500,125,69,0.39414
6013920,-0.06500,66.3750,125,69,0.38559
6013930,-0.03000,67.1250,125,69,0.38169
6013940,0.00000,69.0000,125,69,0.37802
6013950,0.00000,72.5625,125,69,0.37460
6013960,-0.01000,85.1250,125,69,0.36825
6013970,0.04000,92.8125,125,69,0.36581
6013980,0.06500,100.1250,125,69,0.36313
6013990,0.03000,106.4375,125,69,0.35971
6014000,0.04000,115.5625,124,69,0.35189
6014010,0.06500,118.4375,124,69,0.34799
6014020,0.10000,120.1875,124,69,0.34359
6014030,0.13500,120.8125,124,69,0.33871
6014040,0.18500,119.5000,124,69,0.32894
6014050,0.27500,118.1250,124,69,0.32430
6014060,0.24500,116.5000,124,69,0.31966
6014070,0.14000,114.8125,124,69,0.31624
6014080,0.10000,111.3750,124,69,0.30965
6014090,0.04000,109.7500,124,69,0.30598
6014100,-0.03500,108.1875,124,69,0.30232
6014110,-0.08500,106.7500,124,69,0.29866
6014120,-0.11250,104.0000,124,69,0.29109
6014130,-0.12500,102.6875,124,69,0.28669
6014140,-0.13000,101.3750,124,69,0.28181
6014150,-0.13500,100.0625,124,69,0.27741
6014160,-0.13500,97.3125,124,69,0.26911
6014170,-0.13500,95.6250,124,69,0.26642
6014180,-0.13500,93.6250,124,69,0.26422
6014190,-0.13500,91.3750,124,69,0.26129
6014200,-0.13500,86.7500,124,69,0.25714
6014210,-0.13500,84.6875,124,69,0.25739
6014220,-0.13500,82.9375,124,69,0.26007
6014230,-0.14000,81.4375,124,69,0.26642
6014240,-0.13500,79.3125,124,69,0.29499
6014250,-0.12000,78.6250,124,69,0.31795
6014260,-0.09500,78.1875,124,69,0.34628
6014270,-0.08000,78.0000,124,69,0.37460
6014280,-0.07500,78.0000,124,69,0.43858
6014290,-0.05500,78.1875,124,69,0.47570
6014300,-0.03000,78.3750,124,69,0.51355
6014310,-0.02500,78.5625,124,69,0.54994
6014320,-0.04500,78.9375,124,69,0.60855
6014330,-0.08000,79.0000,124,69,0.63297
6014340,-0.12000,79.0000,124,69,0.65421
6014350,-0.16500,78.9375,124,69,0.67106
6014360,-0.20000,78.5625,124,69,0.69133
6014370,-0.22000,78.2500,124,69,0.69451
6014380,-0.21500,77.9375,124,69,0.69475
6014390,-0.20500,77.5000,124,69,0.69353
6014400,-0.19000,76.5625,124,69,0.68547
6014410,-0.18500,76.0625,124,69,0.67912
6014420,-0.22000,75.6250,124,69,0.67131
6014430,-0.25500,75.1875,124,69,0.66227
6014440,-0.03500,74.3750,124,69,0.64029
6014450,0.61000,74.0000,124,69,0.62759
6014460,1.39500,73.6250,124,69,0.61392
6014470,1.42500,73.2500,124,69,0.60049
6014480,0.54500,72.4375,124,69,0.57265
6014490,-0.22000,72.0000,124,69,0.55702
6014500,-0.40500,71.5625,124,69,0.54115
6014510,-0.34000,71.1250,124,69,0.52503
6014520,-0.28500,70.3125,124,69,0.49377
6014530,-0.26000,69.9375,124,69,0.47888
6014540,-0.25000,69.5000,124,69,0.46471
6014550,-0.23500,69.0625,124,69,0.45128
6014560,-0.22000,68.2500,124,69,0.42711
6014570,-0.21000,67.8750,124,69,0.41758
6014580,-0.20000,67.5000,124,69,0.40952
6014590,-0.19000,67.1250,124,69,0.40171
6014600,-0.18000,66.3750,124,69,0.38828
6014610,-0.17000,66.0625,124,69,0.38266
6014620,-0.15500,65.8125,124,69,0.37802
6014630,-0.14500,65.6875,124,69,0.37387
6014640,-0.13500,66.6875,124,69,0.36679
6014650,-0.11500,68.6250,124,69,0.36361
6014660,-0.09500,72.1250,124,69,0.36044
6014670,-0.07500,77.5000,124,69,0.35824
6014680,-0.04500,92.1250,124,69,0.35360
6014690,-0.02000,99.4375,124,69,0.35018
6014700,0.01000,105.7500,124,69,0.34652
6014710,0.04000,110.8750,124,69,0.34261
6014720,0.07000,117.9375,124,69,0.33529
6014730,0.09500,119.8125,124,69,0.33138
6014740,0.12000,120.6875,124,69,0.32772
6014750,0.14000,120.6250,124,69,0.32381
6014760,0.15500,118.6250,124,69,0.31673
6014770,0.17000,117.1250,124,69,0.31404
6014780,0.16500,115.4375,124,69,0.31038
6014790,0.12500,113.7500,124,69,0.30647
6014800,0.07000,110.4375,124,69,0.29841
6014810,0.00000,108.9375,124,69,0.29451
6014820,-0.03500,107.5000,124,69,0.29035
6014830,-0.06500,106.1875,124,69,0.28645
6014840,-0.07000,103.5625,124,69,0.27888
6014850,-0.04500,102.3125,124,69,0.27497
6014860,-0.02500,101.0625,124,69,0.27131
6014870,-0.06500,99.8125,124,69,0.26862
6014880,-0.06500,99.8125,124,69,0.26862
6014890,-0.13500,94.8750,124,69,0.25910
6014900,-0.05000,92.7500,124,69,0.25543
6014910,-0.05500,90.4375,124,69,0.25250
6014920,-0.14000,85.8750,124,69,0.25006
6014930,-0.12000,83.9375,124,69,0.25226
6014940,-0.09500,82.3125,124,69,0.25861
6014950,-0.12500,81.0000,124,69,0.26984
6014960,-0.14500,79.1250,124,69,0.30598
6014970,-0.11500,78.5625,124,69,0.32845
6014980,-0.06500,78.2500,124,69,0.35775
6014990,-0.13000,78.0625,124,69,0.39194
6015000,-0.21000,78.1875,124,69,0.46764
6015010,-0.13500,78.3125,124,69,0.50598
6015020,-0.10500,78.5625,124,69,0.54261
6015030,-0.27000,78.7500,124,69,0.57680
6015040,-0.29000,78.9375,124,69,0.63394
6015050,-0.25000,78.9375,124,69,0.65641
6015060,-0.30500,78.8750,124,69,0.67473
6015070,-0.33500,78.8125,124,69,0.68669
6015080,-0.28500,78.4375,124,69,0.70012
6015090,-0.19000,78.1250,124,69,0.70379
6015100,-0.12500,77.7500,124,69,0.70501
6015110,-0.05500,77.3125,124,69,0.70330
6015120,0.06000,76.4375,124,69,0.69328
6015130,0.15000,76.0000,124,69,0.68571
6015140,0.19500,75.5625,124,69,0.67668
6015150,0.31000,75.1875,124,69,0.66642
6015160,0.74000,74.3750,124,69,0.64347
6015170,1.46000,73.9375,124,69,0.63175
6015180,1.55000,73.5625,124,69,0.61856
6015190,0.66000,73.2500,124,69,0.60415
6015200,-0.15500,72.4375,124,69,0.57314
6015210,-0.35500,72.0000,124,69,0.55678
6015220,-0.32000,71.6250,124,69,0.53993
6015230,-0.28500,71.1875,124,69,0.52308
6015240,-0.26000,70.3125,124,69,0.49158
6015250,-0.26000,69.8750,124,69,0.47692
6015260,-0.25000,69.5000,124,69,0.46300
6015270,-0.24000,69.0625,124,69,0.45153
6015280,-0.23000,68.2500,124,69,0.43150
6015290,-0.22000,67.8750,124,69,0.42198
6015300,-0.20500,67.4375,124,69,0.41343
6015310,-0.19500,67.0625,124,69,0.40562
6015320,-0.18500,66.3750,124,69,0.39292
6015330,-0.17500,66.1250,124,69,0.38730
6015340,-0.16000,66.1875,124,69,0.38217
6015350,-0.14500,66.6250,124,69,0.37753
6015360,-0.12500,70.5000,124,69,0.37021
6015370,-0.10500,74.9375,124,69,0.36801
6015380,-0.07500,81.1875,124,69,0.36532
6015390,-0.05500,88.6250,124,69,0.36239
6015400,-0.02500,103.3125,124,69,0.35556
6015410,0.00500,109.1250,124,69,0.35165
6015420,0.04000,113.8125,124,69,0.34799
6015430,0.07000,117.4375,124,69,0.34457
6015440,0.07000,117.4375,124,69,0.34457
6015450,0.11500,122.0625,124,69,0.33480
6015460,0.13500,121.6875,124,69,0.33114
6015470,0.15500,120.6875,124,69,0.32845
6015480,0.15500,120.6875,124,69,0.32845
6015490,0.15500,116.1250,124,69,0.31795
6015500,0.11500,114.5000,124,69,0.31355
6015510,0.06000,112.9375,124,69,0.30916
6015520,0.01500,110.0000,124,69,0.30012
6015530,-0.05500,108.6875,124,69,0.29573
6015540,-0.09500,107.4375,124,69,0.29182
6015550,-0.10500,106.3125,124,69,0.28791
6015560,-0.16000,104.0000,124,69,0.28132
6015570,-0.13000,102.8125,124,69,0.27863
6015580,-0.07500,101.5625,124,69,0.27521
6015590,-0.09500,100.1875,124,69,0.27106
6015600,-0.14500,96.8125,124,69,0.26276
6015610,-0.14500,94.6875,124,69,0.25885
6015620,-0.11500,92.3750,124,69,0.25592
6015630,-0.11500,92.3750,124,69,0.25592
6015640,-0.15000,85.8125,124,69,0.25910
6015650,-0.15000,84.1875,124,69,0.26789
6015660,-0.12000,82.7500,124,69,0.28181
6015670,-0.09500,81.6250,124,69,0.29817
6015680,-0.09500,80.0625,124,69,0.34505
6015690,-0.09500,79.6875,124,69,0.37802
6015700,-0.07500,79.4375,124,69,0.41490
6015710,-0.03000,79.4375,124,69,0.45348
6015720,0.00500,79.5625,124,69,0.53089
6015730,0.00500,79.6875,124,69,0.56728
6015740,0.00500,79.8750,124,69,0.60049
6015750,0.03000,80.0000,124,69,0.62979
6015760,0.01500,80.1875,124,69,0.67326
6015770,-0.12000,80.1875,124,69,0.68669
6015780,-0.21500,80.1250,124,69,0.69890
6015790,-0.29000,79.9375,124,69,0.70867
6015800,-0.33000,79.4375,124,69,0.71868
6015810,-0.26500,79.0625,124,69,0.71941
6015820,-0.21000,78.6875,124,69,0.71746
6015830,-0.21000,78.2500,124,69,0.71331
6015840,-0.21000,78.2500,124,69,0.71331
6015850,-0.27000,77.0000,124,69,0.69084
6015860,0.02500,76.5000,124,69,0.68107
6015870,0.74500,76.0625,124,69,0.67082
6015880,1.50000,75.3125,124,69,0.64786
6015890,1.34500,74.9375,124,69,0.63468
6015900,0.39500,74.5625,124,69,0.62076
6015910,-0.28000,74.1250,124,69,0.60611
6015920,-0.40000,73.3125,124,69,0.57534
6015930,-0.32500,72.8750,124,69,0.55946
6015940,-0.28000,72.4375,124,69,0.54335
6015950,-0.26500,72.0000,124,69,0.52772
6015960,-0.25000,71.1875,124,69,0.49841
6015970,-0.24000,70.7500,124,69,0.48596
6015980,-0.23000,70.3750,124,69,0.47277
6015990,-0.21500,69.9375,124,69,0.45958
6016000,-0.20500,69.1250,124,69,0.43663
6016010,-0.20000,68.7500,124,69,0.42662
6016020,-0.19000,68.3750,124,69,0.41832
6016030,-0.19000,68.3750,124,69,0.41832
6016040,-0.16000,67.5625,124,69,0.39951
6016050,-0.14500,67.7500,124,69,0.39487
6016060,-0.13000,68.6250,124,69,0.39048
6016070,-0.11000,70.6875,124,69,0.38730
6016080,-0.08500,80.5000,124,69,0.38120
6016090,-0.06000,87.9375,124,69,0.37802
6016100,-0.03000,95.9375,124,69,0.37460
6016110,0.00000,103.5000,124,69,0.37118
6016120,0.03000,115.0000,124,69,0.36484
6016130,0.06000,119.0000,124,69,0.36142
6016140,0.09000,121.8750,124,69,0.35751
6016150,0.11500,123.6875,124,69,0.35336
6016160,0.14000,124.2500,124,69,0.34628
6016170,0.16000,123.3750,124,69,0.34383
6016180,0.18500,122.1875,124,69,0.34066
6016190,0.19000,120.7500,124,69,0.33724
6016200,0.17500,117.7500,124,69,0.33040
6016210,0.12500,116.1875,124,69,0.32650
6016220,0.06500,114.6875,124,69,0.32234
6016230,0.00500,113.2500,124,69,0.31795
6016240,-0.04500,110.6250,124,69,0.30916
6016250,-0.08000,109.4375,124,69,0.30476
6016260,-0.09500,108.3125,124,69,0.30037
6016270,-0.10500,107.1250,124,69,0.29744
6016280,-0.11000,104.6250,124,69,0.29231
6016290,-0.11500,103.2500,124,69,0.28864
6016300,-0.11500,101.7500,124,69,0.28400
6016310,-0.11500,100.0000,124,69,0.27937
6016320,-0.11500,95.8750,124,69,0.27179
6016330,-0.11000,93.6250,124,69,0.26960
6016340,-0.11500,91.3125,124,69,0.26984
6016350,-0.10500,89.1875,124,69,0.27350
6016360,-0.07500,85.7500,124,69,0.29353
6016370,-0.01500,84.3750,124,69,0.31038
6016380,0.01000,83.3125,124,69,0.33358
6016390,-0.02500,82.5000,124,69,0.36313
6016400,-0.09000,81.5625,124,69,0.43590
6016410,-0.10500,81.3750,124,69,0.47692
6016420,-0.03500,81.2500,124,69,0.51893
6016430,0.10500,81.3125,124,69,0.56020
6016440,0.21500,81.5625,124,69,0.63614
6016450,0.14500,81.7500,124,69,0.66862
6016460,-0.02500,81.9375,124,69,0.69670
6016470,-0.15500,82.0625,124,69,0.71722
6016480,-0.17500,82.0625,124,69,0.74652
6016490,-0.19000,82.0000,124,69,0.75775
6016500,-0.21000,81.8125,124,69,0.76557
6016510,-0.20500,81.5000,124,69,0.77045
6016520,-0.19500,80.6875,124,69,0.77118
6016530,-0.19000,80.2500,124,69,0.76801
6016540,-0.20500,79.7500,124,69,0.76288
6016550,-0.30500,79.2500,124,69,0.75580
6016560,-0.26500,78.3125,124,69,0.73748
6016570,0.22500,77.8125,124,69,0.72723
6016580,1.08500,77.3750,124,69,0.71551
6016590,1.70000,76.9375,124,69,0.70256
6016600,1.30000,76.1250,124,69,0.67375
6016610,0.24500,75.6875,124,69,0.65812
6016620,-0.35000,75.2500,124,69,0.64200
6016630,-0.38000,74.8125,124,69,0.62540
6016640,-0.31000,74.0000,124,69,0.59145
6016650,-0.28500,73.5625,124,69,0.57436
6016660,-0.26500,73.1250,124,69,0.55897
6016670,-0.25000,72.6875,124,69,0.54481
6016680,-0.24000,71.8125,124,69,0.51453
6016690,-0.23000,71.3750,124,69,0.50037
6016700,-0.22000,70.9375,124,69,0.48718
6016710,-0.21000,70.5625,124,69,0.47521
6016720,-0.20000,69.7500,124,69,0.45446
6016730,-0.19000,69.3125,124,69,0.44591
6016740,-0.18000,68.9375,124,69,0.43810
6016750,-0.17000,68.6250,124,69,0.43126
6016760,-0.15500,69.3125,124,69,0.42076
6016770,-0.13500,71.0625,124,69,0.41709
6016780,-0.13500,74.5000,124,69,0.41709
6016790,-0.09500,80.0000,124,69,0.41001
6016800,-0.06500,95.3125,124,69,0.40293
6016810,-0.03500,103.1875,124,69,0.39951
6016820,-0.00500,110.1250,124,69,0.39585
6016830,0.03000,115.8125,124,69,0.39194
6016840,0.03000,115.8125,124,69,0.39194
6016850,0.09000,125.5000,124,69,0.37949
6016860,0.12000,126.3750,124,69,0.37582
6016870,0.12500,126.3125,124,69,0.37265
6016880,0.14500,124.1875,124,69,0.36435
6016890,0.18500,122.5625,124,69,0.35971
6016900,0.23500,120.8125,124,69,0.35531
6016910,0.20500,119.1250,124,69,0.35116
6016920,0.09000,115.8125,124,69,0.34237
6016930,-0.02500,114.3125,124,69,0.33773
6016940,-0.08000,112.9375,124,69,0.33309
6016950,-0.08500,111.6250,124,69,0.32821
6016960,-0.10500,109.1875,124,69,0.31990
6016970,-0.10500,109.1875,124,69,0.31990
6016980,-0.12000,106.6875,124,69,0.31306
6016990,-0.12000,105.4375,124,69,0.30891
6017000,-0.12000,102.5625,123,69,0.29988
6017010,-0.12000,100.8125,123,69,0.29573
6017020,-0.12500,98.8125,123,69,0.29158
6017030,-0.12500,96.6250,123,69,0.28767
6017040,-0.12500,91.8750,123,69,0.28327
6017050,-0.12500,89.5625,123,69,0.28547
6017060,-0.12500,87.5000,123,69,0.29060
6017070,-0.12500,85.7500,123,69,0.29988
6017080,-0.12000,83.3125,123,69,0.33675
6017090,-0.10500,82.5625,123,69,0.36508
6017100,-0.08000,82.0625,123,69,0.39902
6017110,-0.05500,81.7500,123,69,0.43736
6017120,-0.05000,81.6250,123,69,0.52186
6017130,-0.05500,81.6875,123,69,0.56484
6017140,-0.04500,81.8750,123,69,0.60586
6017150,-0.03500,82.0625,123,69,0.64371
6017160,-0.05000,82.3750,123,69,0.70256
6017170,-0.06500,82.4375,123,69,0.72186
6017180,-0.09000,82.4375,123,69,0.73993
6017190,-0.13500,82.3125,123,69,0.75507
6017200,-0.17500,81.6875,123,69,0.77436
6017210,-0.23000,81.3125,123,69,0.77900
6017220,-0.24500,80.8125,123,69,0.78046
6017230,-0.21000,80.3125,123,69,0.77924
6017240,-0.21000,80.3125,123,69,0.77924
6017250,-0.17000,78.5625,123,69,0.76239
6017260,-0.24000,77.9375,123,69,0.75409
6017270,-0.26000,77.4375,123,69,0.74481
6017280,0.07000,76.4375,123,69,0.72332
6017290,0.84000,76.0000,123,69,0.71087
6017300,1.60500,75.5625,123,69,0.69695
6017310,1.43000,75.1875,123,69,0.68205
6017320,0.43500,74.3750,123,69,0.64957
6017330,-0.26000,73.9375,123,69,0.63199
6017340,-0.37500,73.5625,123,69,0.61416
6017350,-0.37500,73.5625,123,69,0.61416
6017360,-0.27000,72.3125,123,69,0.56313
6017370,-0.25500,71.9375,123,69,0.54896
6017380,-0.24000,71.5000,123,69,0.53358
6017390,-0.23000,71.0625,123,69,0.51868
6017400,-0.22000,70.1875,123,69,0.49158
6017410,-0.21000,69.7500,123,69,0.47985
6017420,-0.19500,69.3750,123,69,0.46886
6017430,-0.17500,68.9375,123,69,0.45910
6017440,-0.17500,68.0625,123,69,0.44298
6017450,-0.17500,67.6875,123,69,0.43614
6017460,-0.17000,67.3750,123,69,0.43077
6017470,-0.16000,67.3125,123,69,0.42662
6017480,-0.13500,69.0000,123,69,0.41954
6017490,-0.11500,71.7500,123,69,0.41612
6017500,-0.09000,76.3125,123,69,0.41221
6017510,-0.07000,82.8125,123,69,0.40781
6017520,-0.04000,98.2500,123,69,0.39951
6017530,-0.00500,105.3750,123,69,0.39512
6017540,0.02500,111.3125,123,69,0.39096
6017550,0.05000,116.0625,123,69,0.38632
6017560,0.08000,122.0000,123,69,0.37753
6017570,0.10500,123.3125,123,69,0.37436
6017580,0.13000,123.5625,123,69,0.37021
6017590,0.13000,123.5625,123,69,0.37021
6017600,0.17000,120.2500,123,69,0.35336
6017610,0.17500,118.5625,123,69,0.34725
6017620,0.16500,116.7500,123,69,0.34164
6017630,0.12500,115.0000,123,69,0.33602
6017640,0.07000,111.6250,123,69,0.32576
6017650,0.01500,110.0625,123,69,0.32112
6017660,-0.02500,108.5625,123,69,0.31770
6017670,-0.05500,107.1875,123,69,0.31477
6017680,-0.07500,104.5625,123,69,0.30672
6017690,-0.09500,103.3125,123,69,0.30256
6017700,-0.10500,102.0000,123,69,0.29866
6017710,-0.11000,100.6250,123,69,0.29475
6017720,-0.11000,97.2500,123,69,0.28596
6017730,-0.11500,95.1875,123,69,0.28107
6017740,-0.11500,93.0000,123,69,0.27692
6017750,-0.11500,90.7500,123,69,0.27375
6017760,-0.11500,86.5000,123,69,0.27253
6017770,-0.11500,84.6875,123,69,0.27643
6017780,-0.12000,83.1875,123,69,0.28425
6017790,-0.11500,81.9375,123,69,0.29719
6017800,-0.10000,80.3750,123,69,0.34090
6017810,-0.07500,79.9375,123,69,0.37143
6017820,-0.05500,79.6875,123,69,0.40659
6017830,-0.04500,79.5625,123,69,0.44542
6017840,-0.03500,79.6875,123,69,0.52747
6017850,-0.01000,79.8125,123,69,0.56801
6017860,0.01000,80.0000,123,69,0.60147
6017870,0.00000,80.1250,123,69,0.62930
6017880,-0.02500,80.1875,123,69,0.68352
6017890,-0.06000,80.1250,123,69,0.70549
6017900,-0.10500,80.0000,123,69,0.72308
6017910,-0.15500,79.8125,123,69,0.73602
6017920,-0.17500,79.1875,123,69,0.74921
6017930,-0.18000,78.8125,123,69,0.75043
6017940,-0.17000,78.3750,123,69,0.74872
6017950,-0.16000,77.8750,123,69,0.74457
6017960,-0.15000,76.8125,123,69,0.73114
6017970,-0.16500,76.3750,123,69,0.72234
6017980,-0.24000,75.9375,123,69,0.71233
6017990,-0.14500,75.5000,123,69,0.70134
6018000,0.34000,74.6875,123,68,0.67570
6018010,0.34000,74.6875,123,68,0.67570
6018020,1.60000,73.9375,123,68,0.64567
6018030,0.98000,73.5625,123,68,0.62979
6018040,0.03000,72.8125,123,68,0.59683
6018050,-0.35500,72.4375,123,68,0.57973
6018060,-0.34500,72.0000,123,68,0.56435
6018070,-0.28000,71.5625,123,68,0.54994
6018080,-0.25500,70.7500,123,68,0.51746
6018090,-0.25500,70.7500,123,68,0.51746
6018100,-0.23500,69.8750,123,68,0.48718
6018110,-0.23000,69.5000,123,68,0.47350
6018120,-0.22000,68.6875,123,68,0.44957
6018130,-0.21000,68.3125,123,68,0.43956
6018140,-0.19500,68.0000,123,68,0.43053
6018150,-0.18500,67.6250,123,68,0.42271
6018160,-0.17500,66.8750,123,68,0.40977
6018170,-0.16500,66.5625,123,68,0.40513
6018180,-0.15500,66.3750,123,68,0.40073
6018190,-0.14000,66.4375,123,68,0.39634
6018200,-0.12000,68.5000,123,68,0.38828
6018210,-0.10000,71.5625,123,68,0.38388
6018220,-0.07500,76.4375,123,68,0.37900
6018230,-0.05000,83.1250,123,68,0.37436
6018240,-0.02500,98.3125,123,68,0.36532
6018250,0.00500,105.0000,123,68,0.36093
6018260,0.03500,110.4375,123,68,0.35751
6018270,0.07000,114.7500,123,68,0.35458
6018280,0.09500,120.0000,123,68,0.34750
6018290,0.12000,120.9375,123,68,0.34359
6018300,0.14000,121.0000,123,68,0.33968
6018310,0.15500,120.2500,123,68,0.33553
6018320,0.17500,117.4375,123,68,0.32674
6018330,0.17500,115.8125,123,68,0.32259
6018340,0.15500,114.1875,123,68,0.31819
6018350,0.10000,112.5625,123,68,0.31380
6018360,0.04000,109.3750,123,68,0.30574
6018370,-0.01500,107.9375,123,68,0.30305
6018380,-0.06000,106.4375,123,68,0.29939
6018390,-0.09000,105.0625,123,68,0.29524
6018400,-0.10500,102.3125,123,68,0.28645
6018410,-0.11500,101.0000,123,68,0.27741
6018420,-0.12500,99.5625,123,68,0.26642
6018430,-0.12500,98.0625,123,68,0.25885
6018440,-0.13000,94.5625,123,68,0.24786
6018450,-0.13000,92.5000,123,68,0.24322
6018460,-0.13000,90.3125,123,68,0.24054
6018470,-0.13500,88.0625,123,68,0.23883
6018480,-0.13500,84.3125,123,68,0.23785
6018490,-0.13500,82.8750,123,68,0.24127
6018500,-0.13500,81.6875,123,68,0.24908
6018510,-0.12500,80.6875,123,68,0.26227
6018520,-0.11000,79.3750,123,68,0.30647
6018530,-0.08500,79.0625,123,68,0.33724
6018540,-0.07500,78.9375,123,68,0.37241
6018550,-0.06500,78.8750,123,68,0.41074
6018560,-0.05000,79.0625,123,68,0.47790
6018570,-0.02500,79.2500,123,68,0.51331
6018580,-0.02500,79.4375,123,68,0.54823
6018590,-0.05500,79.5625,123,68,0.58095
6018600,-0.08500,79.6875,123,68,0.63516
6018610,-0.12500,79.6250,123,68,0.65568
6018620,-0.17500,79.5000,123,68,0.67204
6018630,-0.21000,79.3125,123,68,0.68400
6018640,-0.22000,78.6875,123,68,0.69646
6018650,-0.22000,78.3125,123,68,0.69768
6018660,-0.21000,77.8125,123,68,0.69573
6018670,-0.20000,77.3750,123,68,0.69182
6018680,-0.19500,76.3750,123,68,0.67985
6018690,-0.25000,75.9375,123,68,0.67179
6018700,-0.25000,75.5000,123,68,0.66252
6018710,0.06500,75.0625,123,68,0.65177
6018720,0.79500,74.3125,123,68,0.62613
6018730,1.51000,73.9375,123,68,0.61148
6018740,1.28500,73.5625,123,68,0.59585
6018750,0.33000,73.1875,123,68,0.57973
6018760,-0.30000,72.3750,123,68,0.55067
6018770,-0.39500,71.9375,123,68,0.53529
6018780,-0.32000,71.5000,123,68,0.51941
6018790,-0.27500,71.0625,123,68,0.50354
6018800,-0.26000,70.1875,123,68,0.47326
6018810,-0.24000,69.7500,123,68,0.45885
6018820,-0.23000,69.3125,123,68,0.44567
6018830,-0.21000,68.8750,123,68,0.43346
6018840,-0.20500,68.0625,123,68,0.41221
6018850,-0.19500,67.6875,123,68,0.40317
6018860,-0.18500,67.3125,123,68,0.39585
6018870,-0.17500,66.9375,123,68,0.38999
6018880,-0.16500,66.3125,123,68,0.37949
6018890,-0.15500,66.1875,123,68,0.37509
6018900,-0.13500,66.3125,123,68,0.37143
6018910,-0.11500,66.9375,123,68,0.36801
6018920,-0.09500,71.6250,123,68,0.36093
6018930,-0.07500,76.6875,123,68,0.35751
6018940,-0.05000,83.5000,123,68,0.35409
6018950,-0.01500,91.1875,123,68,0.35067
6018960,0.01000,105.3125,123,68,0.34530
6018970,0.04000,110.6875,123,68,0.34164
6018980,0.07000,114.8750,123,68,0.33748
6018990,0.10000,118.0625,123,68,0.33333
6019000,0.12000,121.2500,123,68,0.32576
6019010,0.14500,121.3750,123,68,0.32210
6019020,0.16500,120.7500,123,68,0.31819
6019030,0.18500,119.5625,123,68,0.31404
6019040,0.19500,116.4375,123,68,0.30476
6019050,0.18000,114.7500,123,68,0.30012
6019060,0.13500,113.0000,123,68,0.29646
6019070,0.07500,111.3750,123,68,0.29328
6019080,0.01000,108.3750,123,68,0.28523
6019090,-0.03500,107.0000,123,68,0.28132
6019100,-0.06500,105.6875,123,68,0.27692
6019110,-0.08500,104.3750,123,68,0.27253
6019120,-0.09500,102.0000,123,68,0.26349
6019130,-0.09500,100.8125,123,68,0.25910
6019140,-0.09500,99.4375,123,68,0.25470
6019150,-0.09500,97.9375,123,68,0.25055
6019160,-0.09500,94.1875,123,68,0.24542
6019170,-0.09500,92.0000,123,68,0.24274
6019180,-0.09500,89.6875,123,68,0.24005
6019190,-0.09500,87.5000,123,68,0.23834
6019200,-0.09500,83.8125,123,68,0.24298
6019210,-0.09500,82.4375,123,68,0.25177
6019220,-0.08500,81.2500,123,68,0.26569
6019230,-0.07500,80.3125,123,68,0.28547
6019240,-0.05000,79.1875,123,68,0.34212
6019250,-0.03000,78.9375,123,68,0.37753
6019260,-0.02500,78.8125,123,68,0.41050
6019270,-0.00500,78.8750,123,68,0.44274
6019280,0.01000,79.1250,123,68,0.51600
6019290,0.01000,79.2500,123,68,0.55165
6019300,-0.01500,79.3750,123,68,0.58462
6019310,-0.04500,79.4375,123,68,0.61441
6019320,-0.09000,79.4375,123,68,0.66178
6019330,-0.13500,79.3125,123,68,0.67912
6019340,-0.17500,79.1250,123,68,0.69231
6019350,-0.19000,78.9375,123,68,0.70134
6019360,-0.19000,78.3125,123,68,0.70598
6019370,-0.18000,77.8750,123,68,0.70476
6019380,-0.17000,77.5000,123,68,0.70134
6019390,-0.16000,77.0625,123,68,0.69621
6019400,-0.21500,76.1250,123,68,0.68059
6019410,-0.23500,75.6875,123,68,0.67082
6019420,0.06000,75.2500,123,68,0.66032
6019430,0.75000,74.8750,123,68,0.64884
6019440,1.47500,74.0625,123,68,0.62344
6019450,1.37500,73.6250,123,68,0.60928
6019460,0.42000,73.2500,123,68,0.59560
6019470,-0.28000,72.8750,123,68,0.58193
6019480,-0.38500,72.0000,123,68,0.55092
6019490,-0.31500,71.6250,123,68,0.53455
6019500,-0.27500,71.1875,123,68,0.51819
6019510,-0.25500,70.7500,123,68,0.50183
6019520,-0.24000,69.8750,123,68,0.47106
6019530,-0.22500,69.4375,123,68,0.45641
6019540,-0.21500,69.0000,123,68,0.44298
6019550,-0.20000,68.6250,123,68,0.43101
6019560,-0.19500,67.8125,123,68,0.41319
6019570,-0.18500,67.4375,123,68,0.40488
6019580,-0.17500,67.0625,123,68,0.39707
6019590,-0.16500,66.6875,123,68,0.39023
6019600,-0.15500,66.3750,123,68,0.37827
6019610,-0.13500,66.6250,123,68,0.37338
6019620,-0.12000,67.5000,123,68,0.36899
6019630,-0.10000,69.5000,123,68,0.36484
6019640,-0.08000,78.9375,123,68,0.35702
6019650,-0.05500,86.1250,123,68,0.35360
6019660,-0.03000,93.8750,123,68,0.35116
6019670,0.00000,101.1875,123,68,0.34896
6019680,0.03000,112.5625,123,68,0.34188
6019690,0.06000,116.5000,123,68,0.33773
6019700,0.09000,119.4375,123,68,0.33382
6019710,0.11500,121.2500,123,68,0.32991
6019720,0.14000,122.0000,123,68,0.32259
6019730,0.16000,121.3125,123,68,0.31893
6019740,0.17500,120.1875,123,68,0.31477
6019750,0.18500,118.7500,123,68,0.31038
6019760,0.16500,115.5625,123,68,0.30427
6019770,0.12000,114.0000,123,68,0.30061
6019780,0.06000,112.5625,123,68,0.29646
6019790,0.06000,112.5625,123,68,0.29206
6019800,-0.05000,108.4375,123,68,0.28327
6019810,-0.08500,107.2500,123,68,0.27912
6019820,-0.10000,106.0625,123,68,0.27497
6019830,-0.11000,104.8750,123,68,0.27082
6019840,-0.11500,102.3750,123,68,0.26154
6019850,-0.11500,101.0000,123,68,0.25690
6019860,-0.11500,99.5000,123,68,0.25372
6019870,-0.11000,97.8125,123,68,0.25104
6019880,-0.10500,93.6250,123,68,0.24420
6019890,-0.10500,91.2500,123,68,0.24127
6019900,-0.11000,88.9375,123,68,0.24005
6019910,-0.11000,86.8750,123,68,0.24151
6019920,-0.10500,83.5625,123,68,0.25690
6019930,-0.10500,83.5625,123,68,0.25690
6019940,-0.08500,81.3125,123,68,0.29548
6019950,-0.06000,80.5000,123,68,0.32332
6019960,-0.04500,79.6875,123,68,0.38120
6019970,-0.04000,79.5625,123,68,0.41636
6019980,-0.02500,79.6250,123,68,0.45495
6019990,0.00000,79.6875,123,68,0.49475
6020000,-0.00500,80.0000,123,68,0.57045
6020010,-0.02500,80.1250,123,68,0.60391
6020020,-0.06500,80.3125,123,68,0.63346
6020030,-0.10500,80.3750,123,68,0.65885
6020040,-0.15500,80.3750,123,68,0.69646
6020050,-0.19000,80.2500,123,68,0.70916
6020060,-0.20000,80.0625,123,68,0.71648
6020070,-0.20000,80.0625,123,68,0.71648
6020080,-0.19000,79.1250,123,68,0.72039
6020090,-0.17500,78.6875,123,68,0.71722
6020100,-0.18000,78.2500,123,68,0.71184
6020110,-0.24000,77.8125,123,68,0.70476
6020120,-0.24000,76.9375,123,68,0.68669
6020130,-0.05500,76.5000,123,68,0.67595
6020140,-0.05500,76.5000,123,68,0.67595
6020150,1.10000,75.6875,123,68,0.65275
6020160,1.11000,74.8750,123,68,0.62906
6020170,0.53500,74.4375,123,68,0.61538
6020180,0.07000,74.0000,123,68,0.60024
6020190,0.07000,74.0000,123,68,0.60024
6020200,-0.36500,72.6875,123,68,0.55043
6020210,-0.35500,72.2500,123,68,0.53284
6020220,-0.31500,71.8125,123,68,0.51575
6020230,-0.29000,71.3750,123,68,0.49939
6020240,-0.28000,70.5625,123,68,0.46911
6020250,-0.26000,70.1875,123,68,0.45690
6020260,-0.22000,69.8125,123,68,0.44615
6020270,-0.17000,69.4375,123,68,0.43541
6020280,-0.15000,68.6250,123,68,0.41612
6020290,-0.14500,68.2500,123,68,0.40781
6020300,-0.14500,67.9375,123,68,0.40049
6020310,-0.15000,67.6875,123,68,0.39414
6020320,-0.14500,68.3125,123,68,0.38364
6020330,-0.10500,69.8125,123,68,0.37900
6020340,-0.05500,72.8750,123,68,0.37485
6020350,-0.03000,77.8125,123,68,0.37070
6020360,-0.06000,92.2500,123,68,0.36484
6020370,-0.07500,100.0625,123,68,0.36166
6020380,-0.02000,106.9375,123,68,0.35800
6020390,0.03500,112.6875,123,68,0.35433
6020400,0.08000,120.5625,123,68,0.34725
6020410,0.12000,122.8750,123,68,0.34335
6020420,0.17000,124.0625,123,68,0.33895
6020430,0.20500,124.3125,123,68,0.33480
6020440,0.19500,122.7500,123,68,0.32674
6020450,0.19500,121.4375,123,68,0.32381
6020460,0.20500,119.9375,123,68,0.32527
6020470,0.18000,118.3750,123,68,0.32796
6020480,0.05500,115.3750,123,68,0.32479
6020490,-0.04500,113.9375,123,68,0.32112
6020500,-0.03500,112.6250,123,68,0.31697
6020510,0.03500,111.3750,123,68,0.31233
6020520,0.01500,109.0625,123,68,0.30256
6020530,-0.10500,107.8750,123,68,0.29817
6020540,-0.16500,106.7500,123,68,0.29377
6020550,-0.16000,105.6250,123,68,0.28962
6020560,-0.14500,103.0625,123,68,0.28376
6020570,-0.12000,101.4375,123,68,0.27961
6020580,-0.11500,99.6250,123,68,0.27521
6020590,-0.10500,97.5000,123,68,0.27106
6020600,-0.09500,92.8125,123,68,0.26569
6020610,-0.10000,90.5625,123,68,0.26593
6020620,-0.10500,88.5000,123,68,0.26984
6020630,-0.09500,86.6875,123,68,0.27863
6020640,-0.08500,83.9375,123,68,0.31355
6020650,-0.06500,82.9375,123,68,0.33602
6020660,-0.04000,82.2500,123,68,0.36142
6020670,-0.02500,81.7500,123,68,0.39390
6020680,-0.02500,81.3125,123,68,0.47179
6020690,-0.00500,81.2500,123,68,0.51380
6020700,0.01000,81.3750,123,68,0.55531
6020710,0.00000,81.5000,123,68,0.59487
6020720,-0.02500,81.8750,123,68,0.66398
6020730,-0.05500,82.0000,123,68,0.69206
6020740,-0.10000,82.1250,123,68,0.71526
6020750,-0.15000,82.1250,123,68,0.73382
6020760,-0.18000,81.8750,123,68,0.75385
6020770,-0.18500,81.6250,123,68,0.75995
6020780,-0.18000,81.3125,123,68,0.76386
6020790,-0.17000,80.9375,123,68,0.76532
6020800,-0.16000,80.0000,123,68,0.76068
6020810,-0.16000,79.5000,123,68,0.75507
6020820,-0.22000,78.9375,123,68,0.74750
6020830,-0.16000,78.4375,123,68,0.73871
6020840,0.08000,77.5000,123,68,0.71770
6020850,0.71500,77.0625,123,68,0.70647
6020860,1.28500,76.5625,123,68,0.69475
6020870,0.95500,76.1250,123,68,0.68181
6020880,0.10000,75.2500,123,68,0.65250
6020890,-0.34500,74.8125,123,68,0.63639
6020900,-0.30500,74.3750,123,68,0.61954
6020910,-0.27000,74.0000,123,68,0.60220
6020920,-0.28000,73.1875,123,68,0.56703
6020930,-0.30000,72.8125,123,68,0.54945
6020940,-0.30000,72.4375,123,68,0.53260
6020950,-0.27000,72.0625,123,68,0.51624
6020960,-0.22000,71.2500,123,68,0.49035
6020970,-0.18500,70.8750,123,68,0.47814
6020980,-0.18500,70.8750,123,68,0.47814
6020990,-0.18000,70.0625,123,68,0.45641
6021000,-0.11000,69.1875,123,68,0.43932
6021010,-0.11000,69.1875,123,68,0.43932
6021020,-0.02500,68.7500,123,68,0.42613
6021030,-0.01500,69.1875,123,68,0.42076
6021040,-0.01500,73.3125,123,68,0.41074
6021050,0.01000,78.0000,123,68,0.40684
6021060,0.05000,84.6250,123,68,0.40366
6021070,0.09000,92.4375,123,68,0.40024
6021080,0.09000,92.4375,123,68,0.40024
6021090,0.06000,114.1250,123,68,0.38950
6021100,0.08000,118.9375,123,68,0.38608
6021110,0.12000,122.5000,123,68,0.38242
6021120,0.12500,126.1875,123,68,0.37460
6021130,0.12000,126.4375,123,68,0.37045
6021140,0.15500,125.8750,123,68,0.36606
6021150,0.19500,124.7500,123,68,0.36142
6021160,0.22000,121.6250,123,68,0.35409
6021170,0.25000,119.9375,123,68,0.34969
6021180,0.19500,118.3750,123,68,0.34481
6021190,0.10000,116.8125,123,68,0.33968
6021200,0.03500,113.8750,123,68,0.32918
6021210,-0.02000,112.5000,123,68,0.32479
6021220,-0.06500,111.2500,123,68,0.32063
6021230,-0.08500,110.0625,123,68,0.31673
6021240,-0.10000,107.7500,123,68,0.30842
6021250,-0.10500,106.5625,123,68,0.30501
6021260,-0.11500,105.3125,123,68,0.30183
6021270,-0.11500,103.9375,123,68,0.29744
6021280,-0.11500,100.5000,123,68,0.28889
6021290,-0.11500,98.4375,123,68,0.28498
6021300,-0.11500,96.1875,123,68,0.28132
6021310,-0.11500,93.8125,123,68,0.27888
6021320,-0.11500,89.3750,123,68,0.28230
6021330,-0.11500,87.5000,123,68,0.29011
6021340,-0.11500,85.9375,123,68,0.30354
6021350,-0.10000,84.6250,123,68,0.32283
6021360,-0.08500,82.9375,123,68,0.36947
6021370,-0.06000,82.4375,123,68,0.40244
6021380,-0.04500,82.1875,123,68,0.44078
6021390,-0.04500,82.0000,123,68,0.48230
6021400,-0.02500,82.1875,123,68,0.56654
6021410,-0.00500,82.3125,123,68,0.60684
6021420,-0.00500,82.5000,123,68,0.64371
6021430,-0.03500,82.6875,123,68,0.67668
6021440,-0.06500,82.7500,123,68,0.72845
6021450,-0.11000,82.6875,123,68,0.74432
6021460,-0.16000,82.5625,123,68,0.75482
6021470,-0.19000,82.2500,123,68,0.76361
6021480,-0.20000,81.5000,123,68,0.77338
6021490,-0.19000,81.0000,123,68,0.77436
6021500,-0.19500,80.4375,123,68,0.77289
6021510,-0.21000,79.8125,123,68,0.76899
6021520,-0.22500,78.5625,123,68,0.75556
6021530,-0.29000,78.0000,123,68,0.74701
6021540,-0.19500,77.5000,123,68,0.73700
6021550,0.29500,77.0000,123,68,0.72601
6021560,1.12000,76.0000,123,68,0.70330
6021570,1.67500,75.6250,123,68,0.69035
6021580,1.12500,75.1875,123,68,0.67619
6021590,0.12500,74.7500,123,68,0.66105
6021600,-0.26000,74.0000,123,68,0.62784
6021610,-0.14500,73.5625,123,68,0.61050
6021620,0.00500,73.1875,123,68,0.59292
6021630,0.14000,72.8125,123,68,0.57509
6021640,0.20500,72.0000,123,68,0.54115
6021650,0.08500,71.6250,123,68,0.52698
6021660,-0.04500,71.1875,123,68,0.51429
6021670,-0.11500,70.7500,123,68,0.50110
6021680,-0.14500,69.9375,123,68,0.47619
6021690,-0.18000,69.5000,123,68,0.46520
6021700,-0.23000,69.1250,123,68,0.45543
6021710,-0.21000,68.7500,123,68,0.44713
6021720,-0.17000,68.0625,123,68,0.43370
6021730,-0.17000,67.9375,123,68,0.42784
6021740,-0.19000,68.3125,123,68,0.42222
6021750,-0.19500,69.5000,123,68,0.41709
6021760,-0.18000,76.8125,123,68,0.40952
6021770,-0.16000,83.4375,123,68,0.40562
6021780,-0.12500,91.2500,123,68,0.40122
6021790,-0.09500,99.1875,123,68,0.39707
6021800,-0.06000,112.3125,123,68,0.38901
6021810,-0.02500,117.0000,123,68,0.38486
6021820,0.01000,120.4375,123,68,0.38022
6021830,0.04000,122.6875,123,68,0.37534
6021840,0.06500,124.1250,123,68,0.36557
6021850,0.09000,123.5000,123,68,0.36190
6021860,0.11000,122.3125,123,68,0.35849
6021870,0.13000,120.8750,123,68,0.35385
6021880,0.13500,117.5000,123,68,0.34408
6021890,0.11000,115.8125,123,68,0.33895
6021900,0.06500,114.1875,123,68,0.33358
6021910,0.01000,112.5625,123,68,0.32821
6021920,-0.04500,109.6250,123,68,0.31722
6021930,-0.07500,108.2500,123,68,0.31233
6021940,-0.10000,107.0000,123,68,0.30745
6021950,-0.11500,105.7500,123,68,0.30256
6021960,-0.12500,103.1875,123,68,0.29646
6021970,-0.13000,101.7500,123,68,0.29304
6021980,-0.13500,100.2500,123,68,0.28913
6021990,-0.13500,98.4375,123,68,0.28474
6022000,-0.13500,98.4375,123,68,0.28474
6022010,-0.13500,91.8125,123,68,0.27350
6022020,-0.13500,89.4375,123,68,0.27155
6022030,-0.13000,87.1875,123,68,0.27204
6022040,-0.12500,83.6250,123,68,0.28449
6022050,-0.09500,82.3750,123,68,0.29548
6022060,-0.06500,81.3750,123,68,0.31038
6022070,-0.05500,80.6875,123,68,0.33187
6022080,0.04000,79.8750,123,68,0.39219
6022090,0.16000,79.7500,123,68,0.42906
6022100,0.10000,79.7500,123,68,0.46911
6022110,0.42000,79.8125,123,68,0.51038
6022120,-0.04500,80.2500,123,68,0.59023
6022130,-0.07500,80.4375,123,68,0.62589
6022140,-0.07500,80.5625,123,68,0.65739
6022150,-0.08000,80.5625,123,68,0.68132
6022160,-0.13500,80.4375,123,68,0.71575
6022170,-0.21000,80.2500,123,68,0.72918
6022180,-0.26000,80.0000,123,68,0.73895
6022190,-0.28000,79.6875,123,68,0.74481
6022200,-0.26500,78.8750,123,68,0.74774
6022210,-0.23000,78.3750,123,68,0.74481
6022220,-0.18500,77.8750,123,68,0.73968
6022230,-0.14000,77.3750,123,68,0.73284
6022240,-0.13000,76.4375,123,68,0.71429
6022250,-0.08500,76.0000,123,68,0.70379
6022260,0.12500,75.5625,123,68,0.69280
6022270,0.69500,75.1250,123,68,0.68059
6022280,1.47000,74.3750,123,68,0.65226
6022290,1.50000,74.0000,123,68,0.63639
6022300,1.50000,74.0000,123,68,0.63639
6022310,-0.27000,73.1875,123,68,0.60220
6022320,-0.43500,72.3125,123,68,0.56654
6022330,-0.34500,71.9375,123,68,0.54896
6022340,-0.28500,71.5000,123,68,0.53187
6022350,-0.27000,71.0625,123,68,0.51722
6022360,-0.25000,70.1875,123,68,0.49011
6022370,-0.24000,69.7500,123,68,0.47643
6022380,-0.23000,69.3125,123,68,0.46300
6022390,-0.22000,68.8750,123,68,0.45031
6022400,-0.21000,68.1250,123,68,0.42784
6022410,-0.19500,67.7500,123,68,0.41832
6022420,-0.18500,67.3750,123,68,0.41001
6022430,-0.17000,67.0000,123,68,0.40317
6022440,-0.16000,66.5000,123,68,0.39292
6022450,-0.14500,66.6250,123,68,0.38926
6022460,-0.13000,67.3125,123,68,0.38632
6022470,-0.11000,68.9375,123,68,0.38291
6022480,-0.09000,77.3125,123,68,0.37534
6022490,-0.06500,84.1250,123,68,0.37167
6022500,-0.03500,91.8125,123,68,0.36825
6022510,-0.00500,99.3750,123,68,0.36068
6022520,0.02000,111.3125,123,68,0.34457
6022530,0.05000,115.3750,123,68,0.33895
6022540,0.07500,118.4375,123,68,0.33407
6022550,0.09000,120.5000,123,68,0.33040
6022560,0.11000,121.4375,123,68,0.32283
6022570,0.14500,120.6875,123,68,0.31844
6022580,0.18500,119.3750,123,68,0.31380
6022590,0.26000,117.7500,123,68,0.30891
6022600,0.30500,114.4375,123,68,0.29963
6022610,0.19500,112.7500,123,68,0.29499
6022620,0.05000,111.1875,123,68,0.29011
6022630,-0.02500,109.5625,123,68,0.28547
6022640,-0.05500,106.6250,123,68,0.27717
6022650,-0.07500,105.2500,123,68,0.27448
6022660,-0.09500,104.0000,123,68,0.27228
6022670,-0.08500,102.7500,123,68,0.26935
6022680,-0.05500,100.1875,123,68,0.26154
6022690,-0.06500,98.7500,123,68,0.25714
6022700,-0.10500,97.1875,123,68,0.25275
6022710,-0.12500,95.3750,123,68,0.24811
6022720,-0.13500,91.0625,123,68,0.23932
6022730,-0.13000,88.7500,123,68,0.23614
6022740,-0.10000,86.5625,123,68,0.23443
6022750,-0.05500,84.6250,123,68,0.23541
6022760,-0.06500,81.6875,123,68,0.24615
6022770,-0.06500,80.6250,123,68,0.25812
6022780,-0.01500,79.7500,123,68,0.27570
6022790,0.01000,79.1250,123,68,0.29915
6022800,0.03000,78.6875,123,68,0.36117
6022810,0.07000,78.6875,123,68,0.39805
6022820,0.04000,78.7500,123,68,0.43687
6022830,0.01000,78.8750,123,68,0.47619
6022840,0.04000,79.1875,123,68,0.55116
6022850,0.04000,79.3125,123,68,0.58022
6022860,0.02500,79.3750,123,68,0.60366
6022870,-0.04000,79.3750,123,68,0.62662
6022880,-0.13500,79.1875,123,68,0.66447
6022890,-0.19000,79.0000,123,68,0.67741
6022900,-0.20500,78.7500,123,68,0.68645
6022910,-0.20000,78.4375,123,68,0.69182
6022920,-0.19500,77.6250,123,68,0.69304
6022930,-0.18500,77.1875,123,68,0.68987
6022940,-0.18000,76.7500,123,68,0.68498
6022950,-0.21000,76.2500,123,68,0.67839
6022960,-0.27000,75.4375,123,68,0.66129
6022970,-0.09500,75.0000,123,68,0.65079
6022980,0.51000,74.6250,123,68,0.63907
6022990,1.32000,74.2500,123,68,0.62613
6023000,1.50000,73.4375,123,68,0.59731
6023010,0.71000,73.0000,123,68,0.58169
6023020,-0.13500,72.6250,123,68,0.56557
6023030,-0.40500,72.1875,123,68,0.54921
6023040,-0.35500,71.3125,123,68,0.51526
6023050,-0.29000,70.8750,123,68,0.50037
6023060,-0.26500,70.4375,123,68,0.48669
6023070,-0.25000,70.0000,123,68,0.47204
6023080,-0.23500,69.1250,123,68,0.44371
6023090,-0.22500,68.7500,123,68,0.43077
6023100,-0.22000,68.3750,123,68,0.41905
6023110,-0.22000,68.0000,123,68,0.40830
6023120,-0.21500,67.2500,123,68,0.38974
6023130,-0.21000,66.8750,123,68,0.38169
6023140,-0.21000,66.8750,123,68,0.38169
6023150,-0.06000,66.2500,123,68,0.36972
6023160,-0.03000,66.3125,123,68,0.36142
6023170,-0.07000,66.9375,123,68,0.35775
6023180,-0.06500,68.6250,123,68,0.35433
6023190,0.01000,71.8750,123,68,0.35116
6023200,0.13000,83.7500,123,68,0.34481
6023210,0.13000,91.3750,123,68,0.34164
6023220,0.03000,98.7500,123,68,0.33871
6023230,0.02000,105.1875,123,68,0.33553
6023240,0.03000,114.6250,123,68,0.32821
6023250,0.05000,117.7500,123,68,0.32552
6023260,0.07000,119.8125,123,68,0.32308
6023270,0.09000,120.8750,123,68,0.31990
6023280,0.10500,120.3125,123,68,0.31233
6023290,0.13000,119.2500,123,68,0.30818
6023300,0.16000,117.8125,123,68,0.30379
6023310,0.16500,116.2500,123,68,0.29939
6023320,0.12000,112.9375,123,68,0.28962
6023330,0.05000,111.3750,123,68,0.28449
6023340,0.00000,109.8750,123,68,0.27985
6023350,-0.04500,108.3750,123,68,0.27643
6023360,-0.08500,105.6875,123,68,0.27009
6023370,-0.09000,104.5000,123,68,0.26593
6023380,-0.10500,103.3125,123,68,0.26203
6023390,-0.12000,102.1250,123,68,0.25861
6023400,-0.11500,99.6250,123,68,0.25104
6023410,-0.11000,98.1250,123,68,0.24689
6023420,-0.10500,96.4375,123,68,0.24249
6023430,-0.10500,94.4375,123,68,0.23834
6023440,-0.10500,89.9375,123,68,0.23150
6023450,-0.10500,87.7500,123,68,0.23053
6023460,-0.11000,85.7500,123,68,0.23175
6023470,-0.11000,84.0000,123,68,0.23492
6023480,-0.10500,81.3125,123,68,0.25495
6023490,-0.09500,80.3750,123,68,0.27326
6023500,-0.08000,79.6250,123,68,0.29719
6023510,-0.06500,79.1250,123,68,0.32625
6023520,-0.05500,78.6875,123,68,0.39707
6023530,-0.04000,78.6875,123,68,0.43614
6023540,-0.01500,78.7500,123,68,0.47619
6023550,-0.00500,78.8125,123,68,0.51038
6023560,-0.01500,79.1875,123,68,0.57118
6023570,-0.05500,79.3125,123,68,0.60073
6023580,-0.09000,79.3125,123,68,0.62711
6023590,-0.13500,79.3125,123,68,0.64957
6023600,-0.17500,79.0000,123,68,0.68156
6023610,-0.20000,78.8125,123,68,0.69133
6023620,-0.20500,78.5000,123,68,0.69744
6023630,-0.20000,78.1875,123,68,0.70037
6023640,-0.18500,77.3125,123,68,0.69719
6023650,-0.18000,76.8750,123,68,0.69255
6023660,-0.19500,76.4375,123,68,0.68645
6023670,-0.26000,76.0000,123,68,0.67888
6023680,-0.14500,75.1875,123,68,0.66081
6023690,0.37500,74.7500,123,68,0.65006
6023700,0.37500,74.7500,123,68,0.65006
6023710,1.55500,73.9375,123,68,0.62515
6023720,0.90000,73.1250,123,68,0.59609
6023730,-0.02500,72.6875,123,68,0.58046
6023740,-0.40500,72.2500,123,68,0.56435
6023750,-0.38500,71.8750,123,68,0.54945
6023760,-0.30500,71.0625,123,68,0.51941
6023770,-0.26500,70.6250,123,68,0.50354
6023780,-0.24000,70.1875,123,68,0.48816
6023790,-0.21500,69.7500,123,68,0.47326
6023800,-0.20000,68.8750,123,68,0.44542
6023810,-0.20000,68.5000,123,68,0.43321
6023820,-0.15500,68.1250,123,68,0.42198
6023830,-0.13500,67.7500,123,68,0.41172
6023840,-0.13500,67.7500,123,68,0.41172
6023850,-0.12500,66.6875,123,68,0.38803
6023860,-0.08000,66.4375,123,68,0.38144
6023870,-0.05500,66.3750,123,68,0.37558
6023880,-0.06500,67.6875,123,68,0.36532
6023890,-0.07000,69.8125,123,68,0.36093
6023900,-0.04500,73.6875,123,68,0.35702
6023910,-0.00500,79.5000,123,68,0.35360
6023920,0.04500,94.5000,123,68,0.34725
6023930,0.09500,101.6875,123,68,0.34359
6023940,0.09000,107.8125,123,68,0.33968
6023950,0.04500,112.7500,123,68,0.33675
6023960,0.05000,119.5625,123,68,0.33040
6023970,0.06500,121.3750,123,68,0.32674
6023980,0.08500,122.1250,123,68,0.32283
6023990,0.11000,121.8750,123,68,0.31917
6024000,0.13000,119.8125,123,68,0.31136
6024010,0.14500,118.3125,123,68,0.30745
6024020,0.14000,116.7500,123,68,0.30305
6024030,0.10000,115.0625,123,68,0.29866
6024040,0.05000,111.8750,123,68,0.29060
6024050,0.00000,110.3750,123,68,0.28767
6024060,-0.04500,109.0625,123,68,0.28425
6024070,-0.08500,107.8125,123,68,0.28059
6024080,-0.11000,105.4375,123,68,0.27228
6024090,-0.12500,104.3125,123,68,0.26740
6024100,-0.13500,103.1875,123,68,0.26276
6024110,-0.13500,101.9375,123,68,0.25812
6024120,-0.13500,99.0625,123,68,0.24884
6024130,-0.13500,97.3125,123,68,0.24444
6024140,-0.13000,95.3125,123,68,0.24054
6024150,-0.13000,93.1250,123,68,0.23834
6024160,-0.13000,88.5000,123,68,0.23590
6024170,-0.13500,86.4375,123,68,0.23663
6024180,-0.13500,84.6875,123,68,0.24103
6024190,-0.13500,84.6875,123,68,0.24103
6024200,-0.11500,81.0625,123,68,0.28400
6024210,-0.10000,80.3125,123,68,0.30989
6024220,-0.08000,79.8750,123,68,0.34115
6024230,-0.07000,79.6250,123,68,0.37680
6024240,-0.05500,79.5000,123,68,0.45055
6024250,-0.03500,79.5625,123,68,0.48303
6024260,-0.02000,79.6875,123,68,0.51893
6024270,-0.04000,79.8125,123,68,0.55458
6024280,-0.07000,80.0625,123,68,0.61856
6024290,-0.09500,80.1875,123,68,0.64469
6024300,-0.13500,80.1875,123,68,0.66642
6024310,-0.18500,80.1250,123,68,0.68400
6024320,-0.18500,80.1250,123,68,0.68400
6024330,-0.27000,79.4375,123,68,0.71209
6024340,-0.23500,79.1250,123,68,0.71453
6024350,-0.19500,78.7500,123,68,0.71355
6024360,-0.15500,77.9375,123,68,0.70501
6024370,-0.17000,77.5000,123,68,0.69890
6024380,-0.23000,77.0625,123,68,0.69133
6024390,-0.04500,76.6250,123,68,0.68230
6024400,0.55000,75.8750,123,68,0.66081
6024410,1.33500,75.5000,123,68,0.64860
6024420,1.60500,75.0625,123,68,0.63541
6024430,0.82000,74.5625,123,68,0.62125
6024440,0.82000,74.5625,123,68,0.62125
6024450,-0.37500,73.1875,123,68,0.57827
6024460,-0.30500,72.7500,123,68,0.56288
6024470,-0.22000,72.3125,123,68,0.54628
6024480,-0.16500,71.5000,123,68,0.51209
6024490,-0.17500,71.0625,123,68,0.49573
6024500,-0.22000,70.6250,123,68,0.48010
6024510,-0.26000,70.2500,123,68,0.46520
6024520,-0.29000,69.5000,123,68,0.43932
6024530,-0.28000,69.1250,123,68,0.42833
6024540,-0.27000,68.7500,123,68,0.41856
6024550,-0.24000,68.3125,123,68,0.41050
6024560,-0.14000,67.5625,123,68,0.41270
6024570,-0.04500,67.3750,123,68,0.41074
6024580,-0.08500,67.4375,123,68,0.40708
6024590,-0.18000,68.0625,123,68,0.40317
6024600,-0.20000,72.8750,123,68,0.39536
6024610,-0.18000,78.1250,123,68,0.39145
6024620,-0.15500,85.0625,123,68,0.38755
6024630,-0.13500,92.9375,123,68,0.38364
6024640,-0.10500,107.3750,123,68,0.37729
6024650,-0.08000,112.8750,123,68,0.37509
6024660,-0.05500,117.1250,123,68,0.37241
6024670,-0.04500,120.3125,123,68,0.36947
6024680,-0.03500,123.3750,123,68,0.36361
6024690,-0.01500,123.3750,123,68,0.36020
6024700,0.00500,122.6875,123,68,0.35629
6024710,0.02000,121.5000,123,68,0.35238
6024720,0.03500,118.6250,123,68,0.34310
6024730,0.02500,117.1250,123,68,0.33797
6024740,0.02500,117.1250,123,68,0.33797
6024750,-0.06500,114.1875,123,68,0.32943
6024760,-0.12500,111.5000,123,68,0.32357
6024770,-0.17000,110.2500,123,68,0.31941
6024780,-0.20500,109.0625,123,68,0.31502
6024790,-0.22000,107.8125,123,68,0.31062
6024800,-0.23000,105.3750,123,68,0.30256
6024810,-0.23000,104.1875,123,68,0.29841
6024820,-0.23000,102.8750,123,68,0.29377
6024830,-0.22500,101.5000,123,68,0.28864
6024840,-0.22000,98.0625,123,68,0.28059
6024850,-0.21500,96.0000,123,68,0.27839
6024860,-0.21000,93.6875,123,68,0.27595
6024870,-0.21000,91.3750,123,68,0.27399
6024880,-0.20500,87.2500,123,68,0.27668
6024890,-0.20500,85.5625,123,68,0.28400
6024900,-0.19500,84.1250,123,68,0.29646
6024910,-0.18000,83.0000,123,68,0.31477
6024920,-0.15500,81.4375,123,68,0.36923
6024930,-0.13500,81.0000,123,68,0.40464
6024940,-0.13500,80.8125,123,68,0.44347
6024950,-0.12500,80.7500,123,68,0.47888
6024960,-0.10000,80.8750,123,68,0.54969
6024970,-0.10000,81.0625,123,68,0.58730
6024980,-0.12000,81.2500,123,68,0.62295
6024990,-0.16500,81.4375,123,68,0.65519
6025000,-0.21000,81.6875,123,68,0.70647
6025010,-0.26000,81.7500,123,68,0.72552
6025020,-0.30500,81.6875,123,68,0.73968
6025030,-0.33000,81.5000,123,68,0.74945
6025040,-0.34000,80.8750,123,68,0.75873
6025050,-0.34500,80.5000,123,68,0.75824
6025060,-0.34500,80.0000,123,68,0.75629
6025070,-0.36000,79.4375,123,68,0.75287
6025080,-0.44000,78.3750,123,68,0.74164
6025090,-0.47000,77.8750,123,68,0.73382
6025100,-0.17000,77.3750,123,68,0.72454
6025110,0.58000,76.9375,123,68,0.71404
6025120,1.36000,76.0625,123,68,0.68938
6025130,1.20000,75.6250,123,68,0.67497
6025140,0.19500,75.1875,123,68,0.65983
6025150,-0.54000,74.6875,123,68,0.64518
6025160,-0.69000,73.7500,123,68,0.61465
6025170,-0.62500,73.3125,123,68,0.59780
6025180,-0.58000,72.8750,123,68,0.57998
6025190,-0.57500,72.4375,123,68,0.56190
6025200,-0.57000,71.6875,123,68,0.52821
6025210,-0.56000,71.2500,123,68,0.51258
6025220,-0.54000,70.8125,123,68,0.49792
6025230,-0.51500,70.3750,123,68,0.48425
6025240,-0.51500,70.3750,123,68,0.48425
6025250,-0.45000,69.1250,123,68,0.45324
6025260,-0.41000,68.6875,123,68,0.44444
6025270,-0.38500,68.3125,123,68,0.43639
6025280,-0.39000,67.9375,123,68,0.42295
6025290,-0.41500,68.3750,123,68,0.41758
6025300,-0.41000,69.8125,123,68,0.41245
6025310,-0.37000,72.7500,123,68,0.40806
6025320,-0.31500,84.3125,123,68,0.40122
6025330,-0.25000,92.0625,123,68,0.39829
6025340,-0.21500,99.9375,123,68,0.39536
6025350,-0.24500,107.0000,123,68,0.39267
6025360,-0.23500,117.6250,123,68,0.38681
6025370,-0.18500,121.0625,123,68,0.38339
6025380,-0.14500,123.4375,123,68,0.37973
6025390,-0.10500,124.7500,123,68,0.37582
6025400,-0.07500,124.6250,123,68,0.36777
6025410,-0.05000,123.5625,123,68,0.36337
6025420,-0.02000,122.1875,123,68,0.35897
6025430,0.00000,120.6250,123,68,0.35482
6025440,0.00000,120.6250,123,68,0.35482
6025450,-0.04500,115.8750,123,68,0.34457
6025460,-0.09500,114.3750,123,68,0.34017
6025470,-0.13500,112.9375,123,68,0.33553
6025480,-0.15000,110.3125,123,68,0.32503
6025490,-0.16000,109.0625,123,68,0.31941
6025500,-0.19000,107.9375,123,68,0.31355
6025510,-0.23000,106.6875,123,68,0.30818
6025520,-0.24000,104.1250,123,68,0.29817
6025530,-0.23000,102.6250,123,68,0.29280
6025540,-0.19500,101.0625,123,68,0.28767
6025550,-0.20000,99.1875,123,68,0.28400
6025560,-0.23000,94.8750,123,68,0.27839
6025570,-0.23500,92.5625,123,68,0.27595
6025580,-0.22500,90.2500,123,68,0.27521
6025590,-0.22000,88.1250,123,68,0.27790
6025600,-0.21500,84.8125,123,68,0.29744
6025610,-0.20500,83.6250,123,68,0.31526
6025620,-0.19500,82.7500,123,68,0.33919
6025630,-0.19000,82.0625,123,68,0.36899
6025640,-0.16500,81.3750,123,68,0.43639
6025650,-0.15000,81.3125,123,68,0.46886
6025660,-0.15500,81.3125,123,68,0.50696
6025670,-0.17000,81.4375,123,68,0.54725
6025680,-0.19500,81.6875,123,68,0.62369
6025690,-0.23000,81.7500,123,68,0.65739
6025700,-0.27000,81.8125,123,68,0.68718
6025710,-0.32000,81.8125,123,68,0.71233
6025720,-0.38500,81.5000,123,68,0.74896
6025730,-0.48000,81.1875,123,68,0.76093
6025740,-0.60500,80.7500,123,68,0.76752
6025750,-0.73500,80.3125,123,68,0.76996
6025760,-0.81500,79.1250,123,68,0.77021
6025770,-0.86000,78.5000,123,68,0.76703
6025780,-0.88000,77.9375,123,68,0.76166
6025790,-0.88000,77.9375,123,68,0.76166
6025800,-1.00500,76.2500,123,68,0.73578
6025810,-0.72500,75.8125,123,68,0.72479
6025820,-0.02000,75.3125,123,68,0.71282
6025830,0.79000,74.8750,123,68,0.70012
6025840,0.85500,74.0625,123,68,0.67302
6025850,-0.08500,73.6250,123,68,0.65910
6025860,-0.90000,73.2500,123,68,0.64322
6025870,-1.05000,72.8125,123,68,0.62613
6025880,-0.96500,72.0000,123,68,0.59048
6025890,-0.91000,71.6250,123,68,0.57289
6025900,-0.88000,71.1875,123,68,0.55580
6025910,-0.85000,70.8125,123,68,0.53919
6025920,-0.81500,69.9375,123,68,0.50891
6025930,-0.78500,69.5000,123,68,0.49499
6025940,-0.75500,69.0625,123,68,0.48303
6025950,-0.72500,68.6875,123,68,0.47253
6025960,-0.69500,67.8750,123,68,0.45250
6025970,-0.66500,67.5000,123,68,0.44371
6025980,-0.63500,67.0625,123,68,0.43614
6025990,-0.60500,66.7500,123,68,0.42955
6026000,-0.57000,66.9375,123,68,0.41880
6026010,-0.53500,68.1250,123,68,0.41416
6026020,-0.49500,70.7500,123,68,0.40952
6026030,-0.45500,75.1875,123,68,0.40513
6026040,-0.41500,89.0625,123,68,0.39780
6026050,-0.37500,97.0000,123,68,0.39487
6026060,-0.32500,104.2500,123,68,0.39096
6026070,-0.27500,110.3125,123,68,0.38657
6026080,-0.23000,118.6875,123,68,0.37705
6026090,-0.18000,121.1250,123,68,0.37216
6026100,-0.14500,122.5000,123,68,0.36679
6026110,-0.10500,122.8750,123,68,0.36117
6026120,-0.07500,121.1875,123,68,0.35067
6026130,-0.04500,119.6250,123,68,0.34579
6026140,-0.02500,117.9375,123,68,0.34237
6026150,-0.02500,116.1250,123,68,0.33919
6026160,-0.05500,112.5000,123,68,0.33065
6026170,-0.10000,110.8750,123,68,0.32601
6026180,-0.14500,109.2500,123,68,0.32137
6026190,-0.18000,107.7500,123,68,0.31648
6026200,-0.21000,104.9375,123,68,0.30623
6026210,-0.22000,103.5625,123,68,0.30085
6026220,-0.22500,102.1875,123,68,0.29548
6026230,-0.22500,100.8125,123,68,0.29060
6026240,-0.22000,97.7500,123,68,0.28230
6026250,-0.21000,95.8750,123,68,0.27985
6026260,-0.20000,93.8750,123,68,0.27692
6026270,-0.19000,91.6250,123,68,0.27375
6026280,-0.19000,91.6250,123,68,0.27375
6026290,-0.17000,84.9375,123,68,0.26740
6026300,-0.16000,83.1250,123,68,0.26935
6026310,-0.15000,81.6250,123,68,0.27497
6026320,-0.13500,79.5000,123,68,0.30085
6026330,-0.11500,78.8125,123,68,0.32210
6026340,-0.09000,78.4375,123,68,0.34481
6026350,-0.06000,78.2500,123,68,0.37045
6026360,-0.03500,78.2500,123,68,0.44054
6026370,-0.02500,78.4375,123,68,0.48059
6026380,0.00500,78.6875,123,68,0.52161
6026390,0.03000,78.8750,123,68,0.56190
6026400,0.04000,79.3125,123,68,0.63370
6026410,0.02000,79.3750,123,68,0.66349
6026420,-0.00500,79.3750,123,68,0.68889
6026430,-0.04500,79.2500,123,68,0.70940
6026440,-0.08500,78.7500,123,68,0.73455
6026450,-0.11500,78.4375,123,68,0.73968
6026460,-0.11500,78.0000,123,68,0.74261
6026470,-0.10500,77.5625,123,68,0.74286
6026480,-0.09000,76.5625,123,68,0.73651
6026490,-0.07500,76.0000,123,68,0.73016
6026500,-0.07500,75.5000,123,68,0.72186
6026510,-0.14500,75.0000,123,68,0.71184
6026520,-0.09500,74.0625,123,68,0.68816
6026530,0.33000,73.6250,123,68,0.67473
6026540,1.11500,73.2500,123,68,0.66154
6026550,1.66500,72.8125,123,68,0.64811
6026560,1.23500,72.0000,123,68,0.61685
6026570,0.28000,71.5625,123,68,0.60000
6026580,-0.20500,71.1250,123,68,0.58266
6026590,-0.21000,70.6250,123,68,0.56484
6026600,-0.12500,69.6250,123,68,0.52454
6026610,-0.08500,69.1875,123,68,0.50012
6026620,-0.05500,68.8125,123,68,0.48083
6026630,-0.03500,68.4375,123,68,0.46398
6026640,-0.01500,67.5625,123,68,0.43712
6026650,-0.00500,67.1875,123,68,0.42686
6026660,0.00000,66.7500,123,68,0.41636
6026670,0.01000,66.3750,123,68,0.40659
6026680,0.02000,65.6250,123,68,0.38999
6026690,0.02000,65.2500,123,68,0.38339
6026700,0.03000,64.9375,123,68,0.37778
6026710,0.04000,64.8125,123,68,0.37314
6026720,0.05000,65.4375,123,68,0.36508
6026730,0.06500,66.9375,123,68,0.36166
6026740,0.08500,69.9375,123,68,0.35922
6026750,0.10000,74.7500,123,68,0.35726
6026760,0.12000,88.9375,123,68,0.35140
6026770,0.14000,96.5000,123,68,0.34750
6026780,0.16500,103.1250,123,68,0.34335
6026790,0.19000,108.6250,123,68,0.33919
6026800,0.21500,116.1250,123,68,0.33114
6026810,0.23000,118.3125,123,68,0.32723
6026820,0.24000,119.4375,123,68,0.32332
6026830,0.24500,119.5000,123,68,0.31893
6026840,0.24500,119.5000,123,68,0.31893
6026850,0.23500,116.3750,123,68,0.30769
6026860,0.21500,114.8125,123,68,0.30403
6026870,0.16500,113.1875,123,68,0.29939
6026880,0.16500,109.8750,123,68,0.28913
6026890,0.02500,108.3125,123,68,0.28376
6026900,-0.04000,106.8125,123,68,0.27839
6026910,-0.09500,105.4375,123,68,0.27302
6026920,-0.13000,102.8125,123,68,0.26325
6026930,-0.15000,101.5000,123,68,0.25910
6026940,-0.16000,100.2500,123,68,0.25617
6026950,-0.17000,98.8750,123,68,0.25397
6026960,-0.17500,95.8750,123,68,0.24689
6026970,-0.17500,94.0000,123,68,0.24274
6026980,-0.17500,91.9375,123,68,0.23883
6026990,-0.17500,89.6875,123,68,0.23492
6027000,-0.18000,85.2500,122,68,0.22906
6027010,-0.18000,83.3125,122,68,0.22833
6027020,-0.18000,81.6875,122,68,0.23053
6027030,-0.17500,80.3125,122,68,0.23639
6027040,-0.16500,78.1875,122,68,0.26105
6027050,-0.15500,77.5000,122,68,0.27912
6027060,-0.13000,77.0625,122,68,0.30403
6027070,-0.11500,76.8125,122,68,0.33455
6027080,-0.10500,76.8125,122,68,0.40806
6027090,-0.08000,76.9375,122,68,0.44786
6027100,-0.05500,77.1250,122,68,0.48791
6027110,-0.05500,77.3125,122,68,0.52650
6027120,-0.07500,77.5625,122,68,0.59536
6027130,-0.10500,77.6250,122,68,0.62369
6027140,-0.14500,77.6250,122,68,0.64444
6027150,-0.18500,77.5000,122,68,0.65983
6027160,-0.21000,77.1250,122,68,0.68400
6027170,-0.21000,76.8125,122,68,0.69133
6027180,-0.20000,76.5000,122,68,0.69573
6027190,-0.18500,76.0625,122,68,0.69719
6027200,-0.17000,75.2500,122,68,0.69206
6027210,-0.17000,74.8750,122,68,0.68669
6027220,-0.22500,74.4375,122,68,0.67937
6027230,-0.21000,74.0000,122,68,0.67057
6027240,0.13000,73.1250,122,68,0.64982
6027250,0.85000,72.7500,122,68,0.63858
6027260,1.49000,72.2500,122,68,0.62589
6027270,1.17000,71.8125,122,68,0.61172
6027280,0.26500,70.8750,122,68,0.58022
6027290,-0.25000,70.4375,122,68,0.56386
6027300,-0.30500,69.9375,122,68,0.54701
6027310,-0.23500,69.4375,122,68,0.52991
6027320,-0.19000,68.4375,122,68,0.49597
6027330,-0.16500,67.9375,122,68,0.48010
6027340,-0.14500,67.5000,122,68,0.46667
6027350,-0.12500,67.0625,122,68,0.45470
6027360,-0.10000,66.3750,122,68,0.43028
6027370,-0.07500,66.0625,122,68,0.41880
6027380,-0.05000,65.7500,122,68,0.40830
6027390,-0.03000,65.3750,122,68,0.39878
6027400,0.00000,64.6250,122,68,0.38266
6027410,0.03000,64.3125,122,68,0.37607
6027420,0.07500,64.1875,122,68,0.36996
6027430,0.13000,64.3125,122,68,0.36459
6027440,0.17500,65.0000,122,68,0.36020
6027450,0.24000,66.6250,122,68,0.35726
6027460,0.30000,69.8750,122,68,0.35507
6027470,0.35000,75.0625,122,68,0.35214
6027480,0.39500,89.3750,122,68,0.34505
6027490,0.44000,96.6250,122,68,0.34115
6027500,0.48500,102.9375,122,68,0.33724
6027510,0.53500,108.1250,122,68,0.33333
6027520,0.58500,115.4375,122,68,0.32576
6027530,0.67500,117.6250,122,68,0.32186
6027540,0.78500,118.6875,122,68,0.31795
6027550,0.88000,118.8750,122,68,0.31477
6027560,0.93000,117.1875,122,68,0.30842
6027570,0.95500,115.8750,122,68,0.30427
6027580,0.94000,114.3125,122,68,0.29988
6027590,0.90000,112.7500,122,68,0.29499
6027600,0.84000,109.6250,122,68,0.28425
6027610,0.77500,108.1250,122,68,0.27863
6027620,0.71500,106.7500,122,68,0.27326
6027630,0.67000,105.3750,122,68,0.26789
6027640,0.63500,102.7500,122,68,0.26032
6027650,0.61000,101.5000,122,68,0.25812
6027660,0.58500,100.2500,122,68,0.25470
6027670,0.56500,98.9375,122,68,0.25079
6027680,0.54000,96.0000,122,68,0.24274
6027690,0.52000,94.2500,122,68,0.23858
6027700,0.49500,92.2500,122,68,0.23419
6027710,0.46500,90.0625,122,68,0.23004
6027720,0.43500,85.5625,122,68,0.22320
6027730,0.41000,83.6250,122,68,0.22198
6027740,0.39000,81.9375,122,68,0.22393
6027750,0.37000,80.5000,122,68,0.22906
6027760,0.36000,78.3125,122,68,0.25275
6027770,0.34500,77.6250,122,68,0.27326
6027780,0.26500,77.1250,122,68,0.29963
6027790,0.07000,76.8750,122,68,0.33138
6027800,-0.14500,76.8125,122,68,0.40586
6027810,-0.27500,76.8750,122,68,0.44591
6027820,-0.35500,77.0000,122,68,0.48620
6027830,-0.43500,77.1250,122,68,0.52479
6027840,-0.51000,77.2500,122,68,0.58926
6027850,-0.57500,77.3125,122,68,0.61197
6027860,-0.64000,77.2500,122,68,0.63419
6027870,-0.70500,77.1250,122,68,0.65397
6027880,-0.74000,76.6875,122,68,0.68230
6027890,-0.76500,76.4375,122,68,0.69084
6027900,-0.79000,76.0625,122,68,0.69573
6027910,-0.83000,75.6875,122,68,0.69744
6027920,-0.88500,74.8750,122,68,0.69328
6027930,-1.00000,74.4375,122,68,0.68816
6027940,-1.17000,74.0625,122,68,0.68156
6027950,-1.06000,73.6875,122,68,0.67375
6027960,-0.46500,72.8750,122,68,0.65470
6027970,0.24500,72.4375,122,68,0.64347
6027980,0.14500,72.0000,122,68,0.63077
6027990,-0.72500,71.6250,122,68,0.61685
6028000,-1.35500,70.7500,122,68,0.58584
6028010,-1.47000,70.3125,122,68,0.56923
6028020,-1.39000,69.8750,122,68,0.55214
6028030,-1.32500,69.4375,122,68,0.53455
6028040,-1.28500,68.6250,122,68,0.50208
6028050,-1.24500,68.2500,122,68,0.48816
6028060,-1.20000,67.8125,122,68,0.47350
6028070,-1.16000,67.4375,122,68,0.45885
6028080,-1.11500,66.6250,122,68,0.43199
6028090,-1.07500,66.2500,122,68,0.42002
6028100,-1.03500,65.8750,122,68,0.40879
6028110,-1.00000,65.5000,122,68,0.39829
6028120,-0.96500,64.8125,122,68,0.38120
6028130,-0.92500,64.5000,122,68,0.37411
6028140,-0.88500,64.4375,122,68,0.36801
6028150,-0.84000,64.7500,122,68,0.36337
6028160,-0.79500,67.7500,122,68,0.35653
6028170,-0.74500,71.5000,122,68,0.35287
6028180,-0.70000,77.1250,122,68,0.34896
6028190,-0.64500,84.1875,122,68,0.34505
6028200,-0.59500,98.9375,122,68,0.33748
6028210,-0.54500,105.0000,122,68,0.33407
6028220,-0.49500,109.9375,122,68,0.33065
6028230,-0.44500,113.7500,122,68,0.32698
6028240,-0.39500,118.4375,122,68,0.32063
6028250,-0.35500,119.2500,122,68,0.31795
6028260,-0.31500,119.2500,122,68,0.31453
6028270,-0.27000,118.5625,122,68,0.31087
6028280,-0.24000,116.1875,122,68,0.30281
6028290,-0.23500,114.6875,122,68,0.29841
6028300,-0.25000,113.1250,122,68,0.29402
6028310,-0.29000,111.5625,122,68,0.28938
6028320,-0.32500,108.6250,122,68,0.28010
6028330,-0.35000,107.1875,122,68,0.27497
6028340,-0.36000,105.8125,122,68,0.27009
6028350,-0.35500,104.5000,122,68,0.26667
6028360,-0.34000,101.9375,122,68,0.26032
6028370,-0.32000,100.6875,122,68,0.25617
6028380,-0.30000,99.3750,122,68,0.25177
6028390,-0.27500,97.8750,122,68,0.24762
6028400,-0.25500,94.5000,122,68,0.23956
6028410,-0.23500,92.5000,122,68,0.23565
6028420,-0.21500,90.2500,122,68,0.23223
6028430,-0.19500,87.9375,122,68,0.22955
6028440,-0.19500,87.9375,122,68,0.22955
6028450,-0.15000,82.2500,122,68,0.23297
6028460,-0.12500,80.8750,122,68,0.23980
6028470,-0.09000,79.6875,122,68,0.25104
6028480,-0.05000,78.1250,122,68,0.29011
6028490,-0.01500,77.6250,122,68,0.31819
6028500,0.02000,77.3750,122,68,0.35140
6028510,0.06500,77.2500,122,68,0.38852
6028520,0.11000,77.3750,122,68,0.46886
6028530,0.15000,77.5000,122,68,0.50965
6028540,0.16000,77.6250,122,68,0.54872
6028550,0.12500,77.6875,122,68,0.58046
6028560,0.07000,77.8125,122,68,0.63223
6028570,0.03500,77.8125,122,68,0.65568
6028580,0.05500,77.6250,122,68,0.67546
6028590,0.17500,77.4375,122,68,0.69109
6028600,0.36000,77.2500,122,68,0.71038
6028610,0.47500,77.1250,122,68,0.71453
6028620,0.50500,76.9375,122,68,0.71551
6028630,0.49500,76.6250,122,68,0.71380
6028640,0.42000,75.8125,122,68,0.70476
6028650,0.39500,75.4375,122,68,0.69792
6028660,0.71500,75.1250,122,68,0.69792
6028670,1.40500,74.8750,122,68,0.70037
6028680,2.07500,74.6250,122,68,0.68669
6028690,1.90500,74.3125,122,68,0.67497
6028700,0.97000,73.8750,122,68,0.66129
6028710,0.34500,73.2500,122,68,0.64615
6028720,0.25000,71.7500,122,68,0.61270
6028730,0.30000,71.0000,122,68,0.59560
6028740,0.32000,70.3125,122,68,0.57827
6028750,0.32000,69.6250,122,68,0.56264
6028760,0.32000,68.2500,122,68,0.53284
6028770,0.31000,67.6875,122,68,0.51746
6028780,0.31000,67.2500,122,68,0.50256
6028790,0.31000,66.9375,122,68,0.48840
6028800,0.31500,66.4375,122,68,0.46276
6028810,0.32000,66.2500,122,68,0.45201
6028820,0.33000,66.1250,122,68,0.44249
6028830,0.34000,65.9375,122,68,0.43419
6028840,0.34000,65.9375,122,68,0.43419
6028850,0.35000,65.8750,122,68,0.41612
6028860,0.36000,66.5625,122,68,0.41099
6028870,0.37500,68.1875,122,68,0.40586
6028880,0.39000,76.0000,122,68,0.39707
6028890,0.40000,82.3750,122,68,0.39316
6028900,0.41000,89.6250,122,68,0.38974
6028910,0.41500,96.8125,122,68,0.38657
6028920,0.42000,108.6875,122,68,0.37998
6028930,0.42000,113.0625,122,68,0.37582
6028940,0.42500,116.4375,122,68,0.37167
6028950,0.42500,118.7500,122,68,0.36874
6028960,0.42000,120.5625,122,68,0.36459
6028970,0.41000,120.1875,122,68,0.36239
6028980,0.40500,119.3125,122,68,0.36020
6028990,0.39000,118.1250,122,68,0.35800
6029000,0.35000,115.3125,122,68,0.35385
6029010,0.28500,113.8750,122,68,0.35140
6029020,0.21000,112.5000,122,68,0.34847
6029030,0.21000,112.5000,122,68,0.34847
6029040,1.49000,74.5625,122,68,0.72772
6029050,1.49000,74.5625,122,68,0.72772
6029060,1.49000,74.5625,122,68,0.72772
6029070,1.49000,74.5625,122,68,0.72772
6029080,1.49000,74.5625,122,68,0.72772
6029090,1.49000,74.5625,122,68,0.72772
6029100,1.49000,74.5625,122,68,0.72772
6029110,1.49000,74.5625,122,68,0.72772
6029120,1.49000,74.5625,122,68,0.72772
6029130,1.49000,74.5625,122,68,0.72772
6029140,1.49000,74.5625,122,68,0.72772
6029150,1.49000,74.5625,122,68,0.72772
6029160,1.49000,74.5625,122,68,0.72772
6029170,1.49000,74.5625,122,68,0.72772
6029180,1.49000,74.5625,122,68,0.72772
6029190,-0.15500,71.9375,122,68,0.65421
6029200,-0.15500,71.9375,122,68,0.65421
6029210,-0.15500,71.9375,122,68,0.65421
6029220,-0.15500,71.9375,122,68,0.65421
6029230,-0.15500,71.9375,122,68,0.65421
6029240,-0.15500,71.9375,122,68,0.65421
6029250,-0.15500,71.9375,122,68,0.65421
6029260,-0.15500,71.9375,122,68,0.65421
6029270,-0.15500,71.9375,122,68,0.65421
6029280,-0.15500,71.9375,122,68,0.65421
6029290,-0.15500,71.9375,122,68,0.65421
6029300,-0.15500,71.9375,122,68,0.65421
6029310,-0.15500,71.9375,122,68,0.65421
6029320,-0.15500,71.9375,122,68,0.65421
6029330,-0.15500,71.9375,122,68,0.65421
6029340,-0.15500,71.9375,122,68,0.65421
6029350,-0.15500,71.9375,122,68,0.65421
6029360,-0.15500,71.9375,122,68,0.65421
6029370,-0.15500,71.9375,122,68,0.65421
6029380,-0.15500,71.9375,122,68,0.65421
6029390,-0.15500,71.9375,122,68,0.65421
6029400,-0.15500,71.9375,122,68,0.65421
6029410,-0.15500,71.9375,122,68,0.65421
6029420,-0.15500,71.9375,122,68,0.65421
6029430,-0.15500,71.9375,122,68,0.65421
6029440,-0.15500,71.9375,122,68,0.65421
6029450,0.18500,70.5000,122,68,0.60464
6029460,0.28000,70.0625,122,68,0.58730
6029470,0.35000,69.5625,122,68,0.57021
6029480,0.39500,68.7500,122,68,0.53748
6029490,0.42000,68.3750,122,68,0.52186
6029500,0.43000,67.9375,122,68,0.50696
6029510,0.42500,67.5625,122,68,0.49255
6029520,0.42500,66.7500,122,68,0.46740
6029530,0.44500,66.3125,122,68,0.45641
6029540,0.48000,65.8750,122,68,0.44762
6029550,0.51500,65.5625,122,68,0.44029
6029560,0.54000,65.7500,122,68,0.42662
6029570,0.56500,67.0000,122,68,0.42076
6029580,0.58000,69.6875,122,68,0.41563
6029590,0.60000,74.2500,122,68,0.41123
6029600,0.61500,88.3750,122,68,0.40342
6029610,0.62500,96.3750,122,68,0.40000
6029620,0.62500,103.7500,122,68,0.39658
6029630,0.62000,110.0000,122,68,0.39365
6029640,0.61000,118.6250,122,68,0.38852
6029650,0.60000,121.1875,122,68,0.38681
6029660,0.59000,122.5625,122,68,0.38437
6029670,0.57500,122.9375,122,68,0.38144
6029680,0.56500,121.3750,122,68,0.37411
6029690,0.55000,119.9375,122,68,0.37021
6029700,0.51500,118.3125,122,68,0.36630
6029710,0.46500,116.6875,122,68,0.36215
6029720,0.40000,113.4375,122,68,0.35287
6029730,0.33000,112.0000,122,68,0.34799
6029740,0.26500,110.6250,122,68,0.34432
6029750,0.22000,109.4375,122,68,0.34115
6029760,0.19000,106.9375,122,68,0.33211
6029770,0.17500,105.6875,122,68,0.32723
6029780,0.17000,104.4375,122,68,0.32259
6029790,0.17000,103.1875,122,68,0.31844
6029800,0.17500,100.3750,122,68,0.31038
6029810,0.17500,98.6875,122,68,0.30598
6029820,0.17500,96.8125,122,68,0.30159
6029830,0.17500,94.7500,122,68,0.29695
6029840,0.18000,90.3125,122,68,0.29035
6029850,0.19000,88.1875,122,68,0.28938
6029860,0.19500,86.3125,122,68,0.28938
6029870,0.20500,84.6875,122,68,0.29231
6029880,0.21500,82.3125,122,68,0.31209
6029890,0.23500,81.5000,122,68,0.33162
6029900,0.25000,80.9375,122,68,0.35775
6029910,0.25500,80.5625,122,68,0.38974
6029920,0.25000,80.2500,122,68,0.46789
6029930,0.25500,80.2500,122,68,0.51087
6029940,0.26500,80.3125,122,68,0.54847
6029950,0.24500,80.3750,122,68,0.58242
6029960,0.21000,80.5625,122,68,0.65397
6029970,0.17000,80.5625,122,68,0.68571
6029980,0.12500,80.5625,122,68,0.71331
6029990,0.08000,80.4375,122,68,0.73626
