RelativeTimeMilliseconds,ECG,ART,ART (Sys),ART (Dia),PPG
6355470,-0.20000,68.1250,117,65,0.51697
6355480,-0.19500,67.3750,117,65,0.49035
6355490,-0.19000,67.0000,117,65,0.47717
6355500,-0.18000,66.5625,117,65,0.46398
6355510,-0.17500,66.2500,117,65,0.45128
6355520,-0.17000,65.5000,117,65,0.42882
6355530,-0.16000,65.1875,117,65,0.41905
6355540,-0.15500,64.8125,117,65,0.41050
6355550,-0.15500,64.5000,117,65,0.40269
6355560,-0.15500,64.5000,117,65,0.40269
6355570,-0.13500,65.5000,117,65,0.38364
6355580,-0.12000,67.5625,117,65,0.37949
6355590,-0.10500,71.4375,117,65,0.37631
6355600,-0.09000,84.4375,117,65,0.36874
6355610,-0.07000,92.1250,117,65,0.36508
6355620,-0.04500,99.1875,117,65,0.36190
6355630,-0.01500,105.1875,117,65,0.35897
6355640,0.01000,113.7500,117,65,0.35336
6355650,0.03000,116.6250,117,65,0.35067
6355660,0.05500,118.5000,117,65,0.34750
6355670,0.07500,119.3750,117,65,0.34432
6355680,0.09500,118.7500,117,65,0.33968
6355690,0.11500,117.7500,117,65,0.33651
6355700,0.13500,116.6250,117,65,0.33309
6355710,0.14000,115.3125,117,65,0.32967
6355720,0.13000,112.6250,117,65,0.32234
6355730,0.09000,111.2500,117,65,0.31868
6355740,0.04000,110.0000,117,65,0.31502
6355750,-0.00500,108.7500,117,65,0.31111
6355760,-0.04500,106.3125,117,65,0.30256
6355770,-0.07500,105.0625,117,65,0.29817
6355780,-0.09000,103.8125,117,65,0.29548
6355790,-0.10000,102.5625,117,65,0.29328
6355800,-0.10000,100.0000,117,65,0.28645
6355810,-0.10000,98.5625,117,65,0.28254
6355820,-0.09500,97.0000,117,65,0.27888
6355830,-0.09500,95.2500,117,65,0.27570
6355840,-0.09500,91.1875,117,65,0.27302
6355850,-0.09500,91.1875,117,65,0.27302
6355860,-0.09500,86.7500,117,65,0.28107
6355870,-0.09500,84.7500,117,65,0.29158
6355880,-0.09500,81.3750,117,65,0.32088
6355890,-0.08500,80.0625,117,65,0.34359
6355900,-0.06500,79.0000,117,65,0.37143
6355910,0.42000,78.1875,117,65,0.40366
6355920,-0.05000,77.1250,117,65,0.47692
6355930,-0.03500,76.8750,117,65,0.51477
6355940,-0.01000,76.6875,117,65,0.55140
6355950,0.00000,76.6250,117,65,0.58559
6355960,-0.00500,76.6250,117,65,0.64322
6355970,-0.04000,76.6875,117,65,0.66642
6355980,-0.07500,76.7500,117,65,0.68327
6355990,-0.12500,76.8750,117,65,0.69548
6356000,-0.16000,76.9375,117,65,0.71624
6356010,-0.18000,76.8750,117,65,0.72332
6356020,-0.18000,76.7500,117,65,0.72796
6356030,-0.17000,76.5000,117,65,0.73016
6356040,-0.17000,76.5000,117,65,0.73016
6356050,-0.17500,75.6250,117,65,0.72357
6356060,-0.17500,75.6250,117,65,0.72357
6356070,-0.19000,74.8750,117,65,0.71038
6356080,0.22000,74.0625,117,65,0.69353
6356090,0.98500,73.6250,117,65,0.68376
6356100,1.57500,73.1875,117,65,0.67277
6356110,1.16500,72.8125,117,65,0.66056
6356120,0.22000,72.0000,117,65,0.63443
6356130,-0.28000,71.6250,117,65,0.62002
6356140,-0.33500,71.2500,117,65,0.60513
6356150,-0.30000,70.8750,117,65,0.58974
6356160,-0.28000,70.1875,117,65,0.55775
6356170,-0.26500,69.8125,117,65,0.54164
6356180,-0.25500,69.4375,117,65,0.52747
6356190,-0.25000,69.0625,117,65,0.51453
6356200,-0.24000,68.2500,117,65,0.48767
6356210,-0.24000,68.2500,117,65,0.48767
6356220,-0.23000,67.4375,117,65,0.46252
6356230,-0.22000,67.0625,117,65,0.45128
6356240,-0.21000,66.2500,117,65,0.43175
6356250,-0.19500,65.8750,117,65,0.42344
6356260,-0.18500,65.6250,117,65,0.41587
6356270,-0.17500,65.8125,117,65,0.40904
6356280,-0.16000,68.8750,117,65,0.40024
6356290,-0.14500,72.7500,117,65,0.39756
6356300,-0.13000,78.5625,117,65,0.39536
6356310,-0.11500,85.8125,117,65,0.39267
6356320,-0.09000,100.8750,117,65,0.38632
6356330,-0.06000,107.1875,117,65,0.38315
6356340,-0.03000,112.1250,117,65,0.37949
6356350,-0.00500,115.9375,117,65,0.37558
6356360,0.02000,120.3750,117,65,0.36801
6356370,0.04000,121.1875,117,65,0.36410
6356380,0.06000,121.2500,117,65,0.36142
6356390,0.08000,120.6250,117,65,0.35922
6356400,0.10000,118.1875,117,65,0.35311
6356410,0.12000,116.8125,117,65,0.34945
6356420,0.12000,115.3750,117,65,0.34554
6356430,0.09000,113.9375,117,65,0.34115
6356440,0.09000,113.9375,117,65,0.34115
6356450,0.04000,110.9375,117,65,0.33236
6356460,-0.03500,108.0000,117,65,0.32357
6356470,-0.06500,106.6875,117,65,0.31966
6356480,-0.08500,104.0625,117,65,0.31477
6356490,-0.10000,102.8125,117,65,0.31209
6356500,-0.10500,101.4375,117,65,0.30867
6356510,-0.11500,100.0625,117,65,0.30452
6356520,-0.11500,96.9375,117,65,0.29695
6356530,-0.11500,95.1250,117,65,0.29377
6356540,-0.11500,93.1875,117,65,0.29133
6356550,-0.11000,91.0625,117,65,0.29060
6356560,-0.11000,86.6875,117,65,0.29817
6356570,-0.12000,84.6875,117,65,0.30842
6356580,-0.12500,82.9375,117,65,0.32137
6356590,-0.11500,81.3750,117,65,0.33797
6356600,-0.09000,79.1250,117,65,0.39072
6356610,-0.07500,78.3750,117,65,0.42466
6356620,-0.07000,77.7500,117,65,0.46203
6356630,-0.06500,77.2500,117,65,0.50110
6356640,-0.05000,76.6875,117,65,0.57802
6356650,-0.05000,76.6875,117,65,0.57802
6356660,-0.02500,76.6250,117,65,0.64371
6356670,-0.02500,76.6250,117,65,0.67082
6356680,-0.05500,76.6250,117,65,0.70598
6356690,-0.07500,76.6250,117,65,0.72015
6356700,-0.11500,76.5625,117,65,0.73211
6356710,-0.18000,76.4375,117,65,0.74164
6356720,-0.19500,76.0625,117,65,0.75140
6356730,-0.19000,75.7500,117,65,0.75214
6356740,-0.17500,75.4375,117,65,0.75067
6356750,-0.14500,75.0625,117,65,0.74725
6356760,-0.17500,74.2500,117,65,0.73553
6356770,-0.27500,73.8125,117,65,0.72772
6356780,-0.20000,73.3750,117,65,0.71941
6356790,0.29500,73.0000,117,65,0.71013
6356800,1.03500,72.1875,117,65,0.68816
6356810,1.44000,71.7500,117,65,0.67546
6356820,1.00000,71.3750,117,65,0.66154
6356830,0.14000,70.9375,117,65,0.64664
6356840,-0.31500,70.0625,117,65,0.61465
6356850,-0.37500,69.6875,117,65,0.59829
6356860,-0.30000,69.2500,117,65,0.58144
6356870,-0.27000,68.8750,117,65,0.56435
6356880,-0.26000,68.0625,117,65,0.53578
6356890,-0.22000,67.6875,117,65,0.52137
6356900,-0.23500,67.3125,117,65,0.50720
6356910,-0.24000,66.8750,117,65,0.49353
6356920,-0.21000,66.0000,117,65,0.46862
6356930,-0.22000,65.5625,117,65,0.45714
6356940,-0.22500,65.1250,117,65,0.44664
6356950,-0.20000,64.7500,117,65,0.43687
6356960,-0.19000,64.0000,117,65,0.42027
6356970,-0.22500,63.7500,117,65,0.41392
6356980,-0.24500,63.8750,117,65,0.40879
6356990,-0.23500,64.6250,117,65,0.40391
6357000,-0.18500,70.1875,117,65,0.39414
6357010,-0.17500,75.7500,117,65,0.38974
6357020,-0.19000,82.6875,117,65,0.38559
6357030,-0.15500,90.2500,117,65,0.38144
6357040,-0.13500,103.5000,117,65,0.37314
6357050,-0.08000,108.3750,117,65,0.36874
6357060,-0.03000,112.1250,117,65,0.36410
6357070,-0.00500,114.8750,117,65,0.35946
6357080,0.01500,117.6250,117,65,0.35336
6357090,0.06000,117.6875,117,65,0.34945
6357100,0.06000,117.6875,117,65,0.34945
6357110,0.05000,116.0000,117,65,0.34066
6357120,0.05500,113.1875,117,65,0.33211
6357130,0.07500,111.6250,117,65,0.32772
6357140,0.10000,110.0000,117,65,0.32308
6357150,0.06500,108.4375,117,65,0.31844
6357160,0.02500,105.5000,117,65,0.30916
6357170,-0.01000,104.0625,117,65,0.30549
6357180,-0.01000,104.0625,117,65,0.30549
6357190,-0.07000,101.2500,117,65,0.29866
6357200,-0.08500,98.6250,117,65,0.29060
6357210,-0.08000,97.3125,117,65,0.28645
6357220,-0.09000,95.8750,117,65,0.28230
6357230,-0.10000,94.3750,117,65,0.27790
6357240,-0.09500,90.7500,117,65,0.26960
6357250,-0.08500,88.6250,117,65,0.26642
6357260,-0.11000,86.3750,117,65,0.26496
6357270,-0.14000,84.1250,117,65,0.26618
6357280,-0.11000,80.2500,117,65,0.27766
6357290,-0.05500,78.7500,117,65,0.28987
6357300,-0.03500,77.5000,117,65,0.30769
6357310,-0.06500,76.5000,117,65,0.33089
6357320,-0.08500,75.0625,117,65,0.39194
6357330,-0.08500,74.6250,117,65,0.42784
6357340,-0.08500,74.3750,117,65,0.46496
6357350,-0.07500,74.1875,117,65,0.50232
6357360,-0.03000,74.2500,117,65,0.57265
6357370,0.02500,74.3750,117,65,0.59976
6357380,0.07500,74.4375,117,65,0.62198
6357390,0.03000,74.5000,117,65,0.64396
6357400,-0.08000,74.5000,117,65,0.68083
6357410,-0.11500,74.4375,117,65,0.69426
6357420,-0.13500,74.3125,117,65,0.70403
6357430,-0.16000,74.1250,117,65,0.71038
6357440,-0.19000,73.6250,117,65,0.71453
6357450,-0.20000,73.3125,117,65,0.71233
6357460,-0.21500,72.9375,117,65,0.70794
6357470,-0.21500,72.5625,117,65,0.70183
6357480,-0.24000,71.7500,117,65,0.68571
6357490,-0.27000,71.3750,117,65,0.67619
6357500,-0.08000,71.0000,117,65,0.66545
6357510,0.47500,70.6250,117,65,0.65397
6357520,1.20000,69.8750,117,65,0.62759
6357530,1.31000,69.5000,117,65,0.61294
6357540,0.54500,69.1250,117,65,0.59780
6357550,-0.15500,68.7500,117,65,0.58217
6357560,-0.32500,68.0000,117,65,0.54945
6357570,-0.29000,67.6250,117,65,0.53480
6357580,-0.27500,67.2500,117,65,0.52088
6357590,-0.27500,66.8125,117,65,0.50574
6357600,-0.26000,66.0000,117,65,0.47521
6357610,-0.22000,65.5625,117,65,0.46081
6357620,-0.20000,65.1250,117,65,0.44713
6357630,-0.20000,65.1250,117,65,0.44713
6357640,-0.19500,64.0000,117,65,0.41221
6357650,-0.21000,63.6875,117,65,0.40244
6357660,-0.22000,63.3125,117,65,0.39390
6357670,-0.21000,63.0000,117,65,0.38608
6357680,-0.21000,62.4375,117,65,0.37509
6357690,-0.20000,62.3750,117,65,0.36996
6357700,-0.18000,62.8125,117,65,0.36508
6357710,-0.16500,64.0625,117,65,0.36093
6357720,-0.14500,71.0625,117,65,0.35336
6357730,-0.12000,77.2500,117,65,0.34994
6357740,-0.10000,84.4375,117,65,0.34628
6357750,-0.08000,91.6875,117,65,0.34286
6357760,-0.06000,103.4375,117,65,0.33626
6357770,-0.02500,107.5625,117,65,0.33358
6357780,0.03500,110.8125,117,65,0.33162
6357790,0.07000,113.1250,117,65,0.32869
6357800,0.05000,115.1875,117,65,0.32137
6357810,0.05500,114.9375,117,65,0.31770
6357820,0.08000,114.1250,117,65,0.31404
6357830,0.10000,112.9375,117,65,0.31038
6357840,0.11500,110.0000,117,65,0.30232
6357850,0.11000,108.4375,117,65,0.29792
6357860,0.08000,106.9375,117,65,0.29353
6357870,0.03500,105.3750,117,65,0.28938
6357880,-0.01000,102.3125,117,65,0.28376
6357890,-0.05000,100.8750,117,65,0.28059
6357900,-0.07500,99.5000,117,65,0.27692
6357910,-0.09000,98.2500,117,65,0.27350
6357920,-0.10000,95.6250,117,65,0.26642
6357930,-0.10000,94.3125,117,65,0.26252
6357940,-0.10500,92.8125,117,65,0.25812
6357950,-0.10000,91.2500,117,65,0.25397
6357960,-0.09500,87.5000,117,65,0.24713
6357970,-0.09000,85.3125,117,65,0.24591
6357980,-0.08500,83.1875,117,65,0.24664
6357990,-0.07500,81.1250,117,65,0.24884
6358000,-0.08000,77.8125,117,64,0.26300
6358010,-0.08500,76.5625,117,64,0.27692
6358020,-0.08500,75.4375,117,64,0.29646
6358030,-0.07000,74.5625,117,64,0.32112
6358040,-0.05000,73.3750,117,64,0.38437
6358050,-0.03500,73.0000,117,64,0.42076
6358060,-0.03500,72.8750,117,64,0.45836
6358070,-0.00500,72.8125,117,64,0.49597
6358080,0.02000,72.9375,117,64,0.55531
6358090,0.02000,73.0625,117,64,0.58388
6358100,-0.00500,73.1250,117,64,0.61050
6358110,-0.04500,73.1875,117,64,0.63370
6358120,-0.08500,73.3125,117,64,0.66838
6358130,-0.13500,73.2500,117,64,0.67961
6358140,-0.16000,73.0625,117,64,0.68742
6358150,-0.17000,72.8750,117,64,0.69206
6358160,-0.17000,72.4375,117,64,0.69304
6358170,-0.16000,72.1250,117,64,0.69035
6358180,-0.15000,71.7500,117,64,0.68596
6358190,-0.17500,71.4375,117,64,0.68034
6358200,-0.23000,70.6875,117,64,0.66545
6358210,-0.10500,70.3750,117,64,0.65617
6358220,0.40500,70.0000,117,64,0.64567
6358230,1.14500,69.6875,117,64,0.63370
6358240,1.38500,69.0000,117,64,0.60635
6358250,0.74000,68.6250,117,64,0.59121
6358260,-0.02500,68.2500,117,64,0.57558
6358270,-0.30500,67.8750,117,64,0.55946
6358280,-0.30000,67.0625,117,64,0.53138
6358290,-0.26000,66.6875,117,64,0.51624
6358300,-0.25000,66.3125,117,64,0.50061
6358310,-0.24000,65.8750,117,64,0.48523
6358320,-0.23000,65.0625,117,64,0.45617
6358330,-0.22000,64.6250,117,64,0.44274
6358340,-0.21500,64.2500,117,64,0.43053
6358350,-0.20500,63.8750,117,64,0.41978
6358360,-0.20000,63.1875,117,64,0.40000
6358370,-0.19000,62.8125,117,64,0.39243
6358380,-0.18000,62.4375,117,64,0.38657
6358390,-0.17000,62.1875,117,64,0.38022
6358400,-0.16000,62.0000,117,64,0.36899
6358410,-0.15500,62.5000,117,64,0.36459
6358420,-0.14000,63.7500,117,64,0.36068
6358430,-0.12500,66.5000,117,64,0.35702
6358440,-0.12500,66.5000,117,64,0.35702
6358450,-0.08500,84.7500,117,64,0.34725
6358460,-0.06500,92.0625,117,64,0.34432
6358470,-0.04000,98.5625,117,64,0.34164
6358480,-0.01500,108.0000,117,64,0.33797
6358490,0.01000,111.2500,117,64,0.33504
6358500,0.01000,111.2500,117,64,0.33504
6358510,0.05000,115.0000,117,64,0.32845
6358520,0.07000,115.0625,117,64,0.32161
6358530,0.10000,114.1875,117,64,0.31819
6358540,0.12000,113.0000,117,64,0.31477
6358550,0.13000,111.6250,117,64,0.31136
6358560,0.12500,108.6250,117,64,0.30403
6358570,0.09500,107.0000,117,64,0.30134
6358580,0.05000,105.5000,117,64,0.29915
6358590,0.00000,104.0000,117,64,0.29597
6358600,-0.04000,101.1875,117,64,0.28889
6358610,-0.07000,99.8125,117,64,0.28523
6358620,-0.08500,98.4375,117,64,0.28132
6358630,-0.09000,97.1250,117,64,0.27717
6358640,-0.09500,94.5000,117,64,0.26789
6358650,-0.09500,94.5000,117,64,0.26789
6358660,-0.09500,91.5625,117,64,0.25934
6358670,-0.09000,89.8750,117,64,0.25592
6358680,-0.09000,85.9375,117,64,0.25397
6358690,-0.08500,83.8125,117,64,0.25446
6358700,-0.08500,81.7500,117,64,0.25690
6358710,-0.08500,81.7500,117,64,0.25690
6358720,-0.08500,76.8750,117,64,0.28620
6358730,-0.08000,75.7500,117,64,0.30598
6358740,-0.06500,74.8750,117,64,0.33138
6358750,-0.04000,74.1250,117,64,0.36166
6358760,-0.03500,73.2500,117,64,0.43248
6358770,-0.03000,73.0625,117,64,0.46569
6358780,-0.00500,72.9375,117,64,0.49646
6358790,0.02000,72.9375,117,64,0.52967
6358800,0.02000,73.0000,117,64,0.59267
6358810,-0.01500,73.0625,117,64,0.62002
6358820,-0.05500,73.1250,117,64,0.64347
6358830,-0.09500,73.1250,117,64,0.66325
6358840,-0.09500,73.1250,117,64,0.66325
6358850,-0.17500,73.0000,117,64,0.69988
6358860,-0.21000,72.8125,117,64,0.70501
6358870,-0.25000,72.6250,117,64,0.70623
6358880,-0.21000,72.1250,117,64,0.70208
6358890,-0.14000,71.8125,117,64,0.69744
6358900,-0.17000,71.4375,117,64,0.69133
6358910,-0.17000,71.4375,117,64,0.69133
6358920,-0.11500,70.4375,117,64,0.66593
6358930,0.36500,70.0625,117,64,0.65543
6358940,1.12000,69.6875,117,64,0.64420
6358950,1.45500,69.3750,117,64,0.63223
6358960,0.80500,68.6250,117,64,0.60488
6358970,-0.02000,68.2500,117,64,0.59170
6358980,-0.33500,67.8750,117,64,0.57875
6358990,-0.31000,67.5000,117,64,0.56410
6359000,-0.27000,66.6875,117,65,0.53284
6359010,-0.29000,66.3125,117,65,0.51697
6359020,-0.28500,65.8750,117,65,0.50110
6359030,-0.24000,65.4375,117,65,0.48620
6359040,-0.22000,64.6250,117,65,0.45812
6359050,-0.22000,64.6250,117,65,0.45812
6359060,-0.22000,63.8750,117,65,0.43419
6359070,-0.20500,63.5000,117,65,0.42515
6359080,-0.14500,62.8125,117,65,0.40904
6359090,-0.16000,62.5000,117,65,0.40098
6359100,-0.17000,62.2500,117,65,0.39365
6359110,-0.13000,62.1250,117,65,0.38706
6359120,-0.10500,63.0000,117,65,0.37534
6359130,-0.09500,64.7500,117,65,0.37021
6359140,-0.09500,64.7500,117,65,0.37021
6359150,-0.09000,73.5625,117,65,0.36215
6359160,-0.09000,73.5625,117,65,0.36215
6359170,-0.05500,94.8750,117,65,0.35238
6359180,-0.03500,100.7500,117,65,0.35043
6359190,-0.01000,105.5625,117,65,0.34799
6359200,-0.00500,112.5000,117,65,0.34212
6359210,0.00500,114.6875,117,65,0.33944
6359220,0.03500,115.8750,117,65,0.33626
6359230,0.07000,116.1250,117,65,0.33284
6359240,0.10000,114.8125,117,65,0.32527
6359250,0.12500,113.6875,117,65,0.32161
6359260,0.13000,112.4375,117,65,0.31819
6359270,0.12000,111.1875,117,65,0.31575
6359280,0.09500,108.5000,117,65,0.31111
6359290,0.05500,107.0625,117,65,0.30794
6359300,0.01000,105.6875,117,65,0.30427
6359310,-0.03500,104.2500,117,65,0.30037
6359320,-0.06500,101.6250,117,65,0.29182
6359330,-0.08000,100.3750,117,65,0.28718
6359340,-0.09000,99.1250,117,65,0.28303
6359350,-0.09500,97.8750,117,65,0.27888
6359360,-0.09500,95.1250,117,65,0.27082
6359370,-0.09500,93.6250,117,65,0.26764
6359380,-0.09500,92.0000,117,65,0.26545
6359390,-0.09000,90.1250,117,65,0.26276
6359400,-0.08500,85.8750,117,65,0.26007
6359410,-0.08500,83.7500,117,65,0.26227
6359420,-0.09500,81.8750,117,65,0.26886
6359430,-0.10000,80.1875,117,65,0.28034
6359440,-0.10000,80.1875,117,65,0.28034
6359450,-0.08500,76.5625,117,65,0.34799
6359460,-0.08000,75.7500,117,65,0.38022
6359470,-0.05000,75.0625,117,65,0.41099
6359480,-0.01000,74.3750,117,65,0.47570
6359490,0.03000,74.2500,117,65,0.51184
6359500,0.06000,74.1250,117,65,0.54750
6359510,0.06000,74.1250,117,65,0.58095
6359520,-0.00500,74.1875,117,65,0.63761
6359530,-0.09000,74.3125,117,65,0.66032
6359540,-0.09500,74.3750,117,65,0.67937
6359550,-0.08000,74.4375,117,65,0.69475
6359560,-0.13000,74.4375,117,65,0.71551
6359570,-0.15000,74.3750,117,65,0.72039
6359580,-0.10500,74.1875,117,65,0.72210
6359590,-0.06500,74.0000,117,65,0.72259
6359600,-0.16000,73.4375,117,65,0.71746
6359610,-0.26500,73.0625,117,65,0.71209
6359620,-0.27500,72.7500,117,65,0.70525
6359630,-0.12500,72.3750,117,65,0.69670
6359640,-0.12500,72.3750,117,65,0.69670
6359650,1.35000,71.2500,117,65,0.66520
6359660,1.44500,70.9375,117,65,0.65299
6359670,0.62000,70.5625,117,65,0.64103
6359680,0.62000,70.5625,117,65,0.64103
6359690,-0.33500,69.5000,117,65,0.60098
6359700,-0.22500,69.0625,117,65,0.58559
6359710,-0.29500,68.6875,117,65,0.56972
6359720,-0.30500,67.8750,117,65,0.53773
6359730,-0.19000,67.4375,117,65,0.52210
6359740,-0.09500,67.0625,117,65,0.50696
6359750,-0.16000,66.6250,117,65,0.49231
6359760,-0.25000,65.8125,117,65,0.46496
6359770,-0.23000,65.4375,117,65,0.45421
6359780,-0.27000,65.0625,117,65,0.44493
6359790,-0.28500,64.6875,117,65,0.43516
6359800,-0.18000,64.0000,117,65,0.41734
6359810,-0.10500,63.8125,117,65,0.40952
6359820,-0.07500,63.8750,117,65,0.40269
6359830,-0.07500,64.5000,117,65,0.39609
6359840,-0.09500,69.2500,117,65,0.38510
6359850,-0.15500,74.3125,117,65,0.38046
6359860,-0.15500,81.0000,117,65,0.37631
6359870,-0.11500,88.5000,117,65,0.37363
6359880,-0.09500,102.2500,117,65,0.36923
6359890,-0.06000,107.5000,117,65,0.36654
6359900,-0.03000,111.7500,117,65,0.36386
6359910,0.00000,115.0000,117,65,0.36068
6359920,0.02500,118.6250,117,65,0.35409
6359930,0.05000,119.1250,117,65,0.35043
6359940,0.07000,118.8750,117,65,0.34676
6359950,0.09500,118.1875,117,65,0.34335
6359960,0.12000,115.7500,117,65,0.33675
6359970,0.14000,114.3125,117,65,0.33407
6359980,0.13000,112.8750,117,65,0.33162
6359990,0.09000,111.5625,117,65,0.32845
6360000,0.04000,108.9375,117,65,0.32161
6360010,-0.00500,107.5625,117,65,0.31819
6360020,-0.04500,106.1875,117,65,0.31429
6360030,-0.07000,104.8125,117,65,0.30989
6360040,-0.08500,102.1250,117,65,0.30134
6360050,-0.09000,100.8125,117,65,0.29719
6360060,-0.09500,99.4375,117,65,0.29304
6360070,-0.09000,98.0625,117,65,0.29011
6360080,-0.08500,95.0625,117,65,0.28474
6360090,-0.08500,93.3125,117,65,0.28205
6360100,-0.11000,91.3750,117,65,0.28034
6360110,-0.22500,89.3125,117,65,0.28010
6360120,-0.38500,85.0625,117,65,0.28864
6360130,-0.48500,83.1875,117,65,0.29963
6360140,-0.53500,81.6250,117,65,0.31575
6360150,-0.54500,80.2500,117,65,0.33748
6360160,-0.54500,80.2500,117,65,0.33748
6360170,-0.52500,77.5000,117,65,0.42686
6360180,-0.52500,77.0000,117,65,0.45739
6360190,-0.50500,76.6250,117,65,0.49255
6360200,-0.42000,76.3125,117,65,0.56581
6360210,-0.41500,76.2500,117,65,0.60000
6360220,-0.47500,76.2500,117,65,0.63126
6360230,-0.48000,76.2500,117,65,0.65910
6360240,-0.49000,76.3750,117,65,0.70232
6360250,-0.50000,76.3750,117,65,0.71795
6360260,-0.54000,76.3750,117,65,0.72991
6360270,-0.56000,76.3750,117,65,0.73700
6360280,-0.55000,76.0625,117,65,0.74310
6360290,-0.55000,75.7500,117,65,0.74408
6360300,-0.56000,75.4375,117,65,0.74310
6360310,-0.54000,75.0625,117,65,0.74042
6360320,-0.54000,75.0625,117,65,0.74042
6360330,-0.47000,73.8750,117,65,0.72112
6360340,-0.09500,73.5000,117,65,0.71184
6360350,0.64500,73.0625,117,65,0.70159
6360360,1.25500,72.3125,117,65,0.67863
6360370,0.97000,71.9375,117,65,0.66691
6360380,0.04500,71.5000,117,65,0.65519
6360390,-0.55000,71.0625,117,65,0.64274
6360400,-0.62500,70.3750,117,65,0.61465
6360410,-0.54000,70.0000,117,65,0.59951
6360420,-0.44000,69.5625,117,65,0.58388
6360430,-0.40500,69.1875,117,65,0.56825
6360440,-0.47000,68.4375,117,65,0.53675
6360450,-0.52000,68.0625,117,65,0.52161
6360460,-0.52500,67.6875,117,65,0.50745
6360470,-0.50000,67.3125,117,65,0.49524
6360480,-0.46500,66.6250,117,65,0.47302
6360490,-0.46500,66.2500,117,65,0.46203
6360500,-0.44500,65.8750,117,65,0.45177
6360510,-0.34500,65.5000,117,65,0.44249
6360520,-0.31500,65.3125,117,65,0.42662
6360530,-0.35000,65.9375,117,65,0.42002
6360540,-0.32500,67.6250,117,65,0.41416
6360550,-0.30000,70.9375,117,65,0.40928
6360560,-0.27500,82.8750,117,65,0.40000
6360570,-0.24000,90.4375,117,65,0.39634
6360580,-0.22000,97.9375,117,65,0.39316
6360590,-0.19500,104.5000,117,65,0.38974
6360600,-0.16500,114.1250,117,65,0.38339
6360610,-0.12500,117.1875,117,65,0.38046
6360620,-0.09500,119.1875,117,65,0.37729
6360630,-0.07500,120.2500,117,65,0.37387
6360640,-0.05500,120.1875,117,65,0.36703
6360650,-0.02500,119.3750,117,65,0.36361
6360660,0.00000,118.2500,117,65,0.35971
6360670,0.02500,117.0625,117,65,0.35629
6360680,0.03000,114.3125,117,65,0.34945
6360690,0.02000,112.8750,117,65,0.34505
6360700,-0.01500,111.5000,117,65,0.34066
6360710,-0.01500,111.5000,117,65,0.34066
6360720,-0.09000,107.2500,117,65,0.32796
6360730,-0.11500,105.8125,117,65,0.32405
6360740,-0.13500,104.5000,117,65,0.32039
6360750,-0.14500,103.1250,117,65,0.31673
6360760,-0.14500,100.3125,117,65,0.31013
6360770,-0.14500,98.8750,117,65,0.30745
6360780,-0.14500,97.3125,117,65,0.30379
6360790,-0.14500,97.3125,117,65,0.30379
6360800,-0.13500,91.5625,117,65,0.29548
6360810,-0.12500,89.3125,117,65,0.29573
6360820,-0.12000,87.0625,117,65,0.29841
6360830,-0.12000,87.0625,117,65,0.29841
6360840,-0.11500,81.3125,117,65,0.33455
6360850,-0.10500,79.8750,117,65,0.35726
6360860,-0.09500,78.7500,117,65,0.38535
6360870,-0.06500,77.8125,117,65,0.41270
6360880,-0.04000,76.6250,117,65,0.47473
6360890,-0.03000,76.3125,117,65,0.51160
6360900,-0.01500,76.1875,117,65,0.54896
6360910,0.01000,76.1250,117,65,0.58535
6360920,0.02000,76.1875,117,65,0.65031
6360930,0.02000,76.2500,117,65,0.67766
6360940,-0.01000,76.3125,117,65,0.70110
6360950,-0.04500,76.3125,117,65,0.72039
6360960,-0.09000,76.1250,117,65,0.74505
6360970,-0.13500,76.0625,117,65,0.75043
6360980,-0.16000,75.8750,117,65,0.75433
6360990,-0.16000,75.8750,117,65,0.75433
6361000,-0.16000,74.9375,117,65,0.75507
6361010,-0.16000,74.5625,117,65,0.75092
6361020,-0.18000,74.1250,117,65,0.74530
6361030,-0.25000,73.6875,117,65,0.73846
6361040,-0.22000,72.8750,117,65,0.72112
6361050,0.16500,72.4375,117,65,0.71087
6361060,0.89500,72.0625,117,65,0.69963
6361070,1.47000,71.6875,117,65,0.68816
6361080,1.09000,70.8750,117,65,0.66349
6361090,0.18500,70.4375,117,65,0.64908
6361100,-0.31000,70.0000,117,65,0.63321
6361110,-0.37500,69.5625,117,65,0.61685
6361120,-0.33500,68.6875,117,65,0.58339
6361130,-0.32000,68.3125,117,65,0.56630
6361140,-0.32000,68.3125,117,65,0.56630
6361150,-0.30500,67.5000,117,65,0.53333
6361160,-0.29500,66.6250,117,65,0.50379
6361170,-0.28000,66.2500,117,65,0.49182
6361180,-0.27500,65.8125,117,65,0.47912
6361190,-0.26500,65.3750,117,65,0.46691
6361200,-0.26500,65.3750,117,65,0.46691
6361210,-0.24500,64.1250,117,65,0.43590
6361220,-0.23000,63.7500,117,65,0.42808
6361230,-0.20500,63.5000,117,65,0.42149
6361240,-0.18000,63.9375,117,65,0.41001
6361250,-0.16000,65.3750,117,65,0.40513
6361260,-0.14000,68.3750,117,65,0.40024
6361270,-0.11500,73.3125,117,65,0.39634
6361280,-0.09500,87.6875,117,65,0.38901
6361290,-0.06500,95.1875,117,65,0.38535
6361300,-0.03500,101.8125,117,65,0.38193
6361310,-0.00500,107.1250,117,65,0.37851
6361320,0.02500,114.3125,117,65,0.37070
6361330,0.06000,116.5000,117,65,0.36679
6361340,0.09500,117.6875,117,65,0.36313
6361350,0.12500,117.9375,117,65,0.35922
6361360,0.15500,116.4375,117,65,0.35116
6361370,0.18500,115.0000,117,65,0.34799
6361380,0.21000,113.5000,117,65,0.34408
6361390,0.22000,111.8750,117,65,0.33968
6361400,0.20500,108.6875,117,65,0.33016
6361410,0.16500,107.1250,117,65,0.32527
6361420,0.12000,105.6875,117,65,0.32063
6361430,0.08000,104.2500,117,65,0.31575
6361440,0.08000,104.2500,117,65,0.31575
6361450,0.02500,100.0625,117,65,0.30183
6361460,0.01000,98.8125,117,65,0.29719
6361470,0.00000,97.5625,117,65,0.29377
6361480,0.00000,94.8125,117,65,0.28669
6361490,0.00000,93.1875,117,65,0.28254
6361500,-0.00500,91.3125,117,65,0.27839
6361510,-0.01500,89.3125,117,65,0.27473
6361520,-0.01500,85.0000,117,65,0.27131
6361530,-0.01500,85.0000,117,65,0.27131
6361540,-0.02000,81.0625,117,65,0.27863
6361550,-0.02000,79.4375,117,65,0.28889
6361560,-0.01500,77.1250,117,65,0.32186
6361570,-0.00500,76.3125,117,65,0.34261
6361580,0.01000,75.6875,117,65,0.36972
6361590,0.03000,75.2500,117,65,0.40220
6361600,0.04000,74.7500,117,65,0.47570
6361610,0.04500,74.6250,117,65,0.51355
6361620,0.04500,74.6250,117,65,0.51355
6361630,0.09500,74.5625,117,65,0.58339
6361640,0.09000,74.5625,117,65,0.64029
6361650,0.06000,74.5625,117,65,0.66276
6361660,0.02500,74.5625,117,65,0.68107
6361670,-0.00500,74.5000,117,65,0.69353
6361680,-0.05000,74.3125,117,65,0.70769
6361690,-0.08000,74.1250,117,65,0.71184
6361700,-0.08500,73.8750,117,65,0.71331
6361710,-0.08000,73.5625,117,65,0.71233
6361720,-0.06500,72.8125,117,65,0.70452
6361730,-0.05500,72.4375,117,65,0.69841
6361740,-0.08500,72.0000,117,65,0.69109
6361750,-0.14000,71.5625,117,65,0.68254
6361760,-0.00500,70.6875,117,65,0.66325
6361770,0.51000,70.3125,117,65,0.65275
6361780,1.26000,69.9375,117,65,0.64054
6361790,1.50000,69.5625,117,65,0.62711
6361800,0.85500,68.8125,117,65,0.59780
6361810,0.07500,68.4375,117,65,0.58242
6361820,-0.21000,68.0625,117,65,0.56654
6361830,-0.19500,67.6875,117,65,0.55043
6361840,-0.15500,66.9375,117,65,0.51941
6361850,-0.13500,66.5625,117,65,0.50427
6361860,-0.12000,66.1875,117,65,0.48962
6361870,-0.11500,65.7500,117,65,0.47717
6361880,-0.10500,64.9375,117,65,0.45470
6361890,-0.10500,64.5000,117,65,0.44322
6361900,-0.09500,64.1250,117,65,0.43199
6361910,-0.08500,63.7500,117,65,0.42149
6361920,-0.06500,62.9375,117,65,0.40366
6361930,0.01500,62.6250,117,65,0.39609
6361940,0.15000,62.3750,117,65,0.38926
6361950,0.27000,62.2500,117,65,0.38315
6361960,0.33000,63.1875,117,65,0.37363
6361970,0.36000,65.0625,117,65,0.37045
6361980,0.38000,68.5625,117,65,0.36703
6361990,0.39500,73.9375,117,65,0.36361
6362000,0.41000,88.1875,117,64,0.35775
6362010,0.42000,95.1250,117,64,0.35482
6362020,0.43500,100.9375,117,64,0.35165
6362030,0.45000,105.6250,117,64,0.34823
6362040,0.46500,112.0000,117,64,0.34164
6362050,0.47500,113.8125,117,64,0.33797
6362060,0.48500,114.7500,117,64,0.33407
6362070,0.48500,114.8125,117,64,0.33114
6362080,0.50000,113.2500,117,64,0.32527
6362090,0.51000,112.0000,117,64,0.32186
6362100,0.51500,110.5000,117,64,0.31844
6362110,0.50500,108.9375,117,64,0.31502
6362120,0.47000,105.8125,117,64,0.30794
6362130,0.42000,104.1875,117,64,0.30379
6362140,0.36000,102.5625,117,64,0.29963
6362150,0.25500,101.0000,117,64,0.29548
6362160,0.05000,98.0625,117,64,0.28791
6362170,-0.14500,96.6875,117,64,0.28547
6362180,-0.24500,95.3125,117,64,0.28205
6362190,-0.29000,93.9375,117,64,0.27814
6362200,-0.31000,91.1250,117,64,0.26935
6362210,-0.31500,89.4375,117,64,0.26471
6362220,-0.32000,87.5625,117,64,0.26032
6362230,-0.31500,85.5625,117,64,0.25690
6362240,-0.31500,85.5625,117,64,0.25690
6362250,-0.30500,79.6250,117,64,0.25763
6362260,-0.30000,78.0625,117,64,0.26447
6362270,-0.30000,76.6875,117,64,0.27424
6362280,-0.29000,74.6250,117,64,0.30720
6362290,-0.27500,73.8750,117,64,0.33236
6362300,-0.25000,73.2500,117,64,0.36215
6362310,-0.23500,72.8750,117,64,0.39585
6362320,-0.22000,72.5625,117,64,0.47009
6362330,-0.19500,72.5625,117,64,0.50720
6362340,-0.16500,72.6250,117,64,0.54286
6362350,-0.15500,72.6875,117,64,0.57582
6362360,-0.17000,72.8125,117,64,0.62735
6362370,-0.21000,72.8750,117,64,0.64444
6362380,-0.24000,72.8750,117,64,0.66056
6362390,-0.28500,72.8750,117,64,0.67424
6362400,-0.31000,72.7500,117,64,0.69206
6362410,-0.31500,72.5625,117,64,0.69646
6362420,-0.31000,72.3125,117,64,0.69792
6362430,-0.29500,72.0000,117,64,0.69646
6362440,-0.29500,72.0000,117,64,0.69646
6362450,-0.29000,70.9375,117,64,0.67326
6362460,-0.34500,70.5625,117,64,0.66447
6362470,-0.27000,70.2500,117,64,0.65543
6362480,-0.27000,70.2500,117,64,0.65543
6362490,0.85500,69.1250,117,64,0.62173
6362500,1.33500,68.8125,117,64,0.60855
6362510,0.84500,68.4375,117,64,0.59463
6362520,0.01000,67.7500,117,64,0.56557
6362530,-0.35500,67.3125,117,64,0.55067
6362540,-0.39500,66.9375,117,64,0.53553
6362550,-0.35500,66.5000,117,64,0.52039
6362560,-0.33500,65.7500,117,64,0.49255
6362570,-0.32000,65.3750,117,64,0.48059
6362580,-0.30500,65.0000,117,64,0.46740
6362590,-0.30000,64.5625,117,64,0.45421
6362600,-0.29000,63.7500,117,64,0.42979
6362610,-0.28500,63.3750,117,64,0.41880
6362620,-0.27500,63.0625,117,64,0.40879
6362630,-0.27000,62.6875,117,64,0.39976
6362640,-0.25500,61.9375,117,64,0.38486
6362650,-0.24000,61.7500,117,64,0.37875
6362660,-0.23000,61.6250,117,64,0.37387
6362670,-0.21500,61.8750,117,64,0.36972
6362680,-0.20000,64.5625,117,64,0.36142
6362690,-0.18500,68.0625,117,64,0.35775
6362700,-0.17000,73.4375,117,64,0.35433
6362710,-0.15500,80.2500,117,64,0.35140
6362720,-0.13000,94.6250,117,64,0.34530
6362730,-0.10500,100.5625,117,64,0.34212
6362740,-0.08000,105.3750,117,64,0.33919
6362750,-0.05500,109.1875,117,64,0.33626
6362760,-0.03000,113.9375,117,64,0.33114
6362770,-0.01000,114.8125,117,64,0.32894
6362780,0.01000,114.9375,117,64,0.32601
6362790,0.03000,114.3750,117,64,0.32259
6362800,0.05500,112.2500,117,64,0.31575
6362810,0.07500,110.9375,117,64,0.31209
6362820,0.08000,109.5625,117,64,0.30842
6362830,0.06000,108.1250,117,64,0.30501
6362840,0.01500,105.0625,117,64,0.29792
6362850,-0.03500,103.5625,117,64,0.29402
6362860,-0.07500,102.0625,117,64,0.29133
6362870,-0.11500,100.6875,117,64,0.28913
6362880,-0.13500,97.8750,117,64,0.28230
6362890,-0.15500,96.5000,117,64,0.27863
6362900,-0.16000,95.0625,117,64,0.27497
6362910,-0.16000,93.6250,117,64,0.27131
6362920,-0.16000,90.4375,117,64,0.26325
6362930,-0.16000,88.6875,117,64,0.25958
6362940,-0.15500,86.6875,117,64,0.25641
6362950,-0.15500,84.6250,117,64,0.25446
6362960,-0.15000,80.5625,117,64,0.25739
6362970,-0.15000,78.8750,117,64,0.26349
6362980,-0.14500,77.5000,117,64,0.27350
6362990,-0.14500,76.3125,117,64,0.28840
6363000,-0.13000,74.5625,117,64,0.33407
6363010,-0.11000,73.9375,117,64,0.36459
6363020,-0.09500,73.5000,117,64,0.39878
6363030,-0.09000,73.2500,117,64,0.43541
6363040,-0.06500,73.1250,117,64,0.50989
6363050,-0.04000,73.1250,117,64,0.54579
6363060,-0.02500,73.2500,117,64,0.57509
6363070,-0.04500,73.3750,117,64,0.59951
6363080,-0.08000,73.6250,117,64,0.64591
6363090,-0.11500,73.6875,117,64,0.66496
6363100,-0.15500,73.7500,117,64,0.68059
6363110,-0.19000,73.6875,117,64,0.69255
6363120,-0.20000,73.4375,117,64,0.70598
6363130,-0.19000,73.2500,117,64,0.70842
6363140,-0.17500,72.9375,117,64,0.70818
6363150,-0.16000,72.5625,117,64,0.70574
6363160,-0.16000,71.8750,117,64,0.69573
6363170,-0.22000,71.4375,117,64,0.68840
6363180,-0.18000,71.0625,117,64,0.67985
6363190,0.18500,70.7500,117,64,0.67009
6363200,0.88000,70.0000,117,64,0.64689
6363210,1.42500,69.6875,117,64,0.63370
6363220,1.10500,69.3125,117,64,0.61978
6363230,0.24500,68.9375,117,64,0.60513
6363240,-0.22000,68.1250,117,64,0.57460
6363250,-0.28000,67.7500,117,64,0.55873
6363260,-0.24000,67.3750,117,64,0.54432
6363270,-0.21000,66.9375,117,64,0.53114
6363280,-0.20000,66.0625,117,64,0.50232
6363290,-0.18000,65.6875,117,64,0.48791
6363300,-0.17000,65.2500,117,64,0.47399
6363310,-0.15500,64.8125,117,64,0.46081
6363320,-0.14500,64.0000,117,64,0.43712
6363330,-0.13000,63.6250,117,64,0.42662
6363340,-0.11500,63.2500,117,64,0.41709
6363350,-0.10000,62.8750,117,64,0.40855
6363360,-0.07500,62.3125,117,64,0.39512
6363370,-0.04000,62.2500,117,64,0.39048
6363380,0.04000,62.5000,117,64,0.38584
6363390,0.19000,63.5000,117,64,0.38169
6363400,0.33000,69.5000,117,64,0.37460
6363410,0.40500,75.1875,117,64,0.37143
6363420,0.45000,82.1875,117,64,0.36850
6363430,0.47500,89.5000,117,64,0.36557
6363440,0.50500,101.9375,117,64,0.35971
6363450,0.52000,106.5000,117,64,0.35678
6363460,0.54500,110.0625,117,64,0.35458
6363470,0.56500,112.7500,117,64,0.35263
6363480,0.57500,115.5625,117,64,0.34652
6363490,0.59000,115.6875,117,64,0.34261
6363500,0.60000,115.1875,117,64,0.33846
6363510,0.61500,114.3125,117,64,0.33431
6363520,0.62000,111.8750,117,64,0.32625
6363530,0.61000,110.5000,117,64,0.32234
6363540,0.57500,109.0625,117,64,0.31868
6363550,0.52000,107.6250,117,64,0.31526
6363560,0.45500,105.0000,117,64,0.30818
6363570,0.40500,103.6875,117,64,0.30549
6363580,0.36000,102.3750,117,64,0.30183
6363590,0.33000,101.0625,117,64,0.29792
6363600,0.31000,98.5000,117,64,0.29011
6363610,0.29500,97.1875,117,64,0.28596
6363620,0.28500,95.8750,117,64,0.28181
6363630,0.27000,94.4375,117,64,0.27741
6363640,0.26500,91.0625,117,64,0.26984
6363650,0.25500,89.1250,117,64,0.26667
6363660,0.25000,87.0000,117,64,0.26569
6363670,0.24000,84.8125,117,64,0.26691
6363680,0.23500,80.8750,117,64,0.27643
6363690,0.23000,79.2500,117,64,0.28694
6363700,0.22500,77.9375,117,64,0.30256
6363710,0.22500,76.8125,117,64,0.32357
6363720,0.23500,75.1250,117,64,0.38022
6363730,0.24500,74.6250,117,64,0.41416
6363740,0.24000,74.2500,117,64,0.45055
6363750,0.25500,74.0625,117,64,0.48816
6363760,0.27500,74.0000,117,64,0.55580
6363770,0.27500,74.0625,117,64,0.58193
6363780,0.24500,74.1875,117,64,0.60904
6363790,0.20000,74.2500,117,64,0.63443
6363800,0.15500,74.3750,117,64,0.67595
6363810,0.11000,74.3750,117,64,0.69109
6363820,0.06500,74.3750,117,64,0.70256
6363830,0.04000,74.3125,117,64,0.71038
6363840,0.04000,73.9375,117,64,0.71746
6363850,0.04000,73.9375,117,64,0.71746
6363860,0.04000,73.3750,117,64,0.71502
6363870,0.02000,73.1250,117,64,0.71087
6363880,-0.05000,72.5000,117,64,0.69915
6363890,0.00500,72.1250,117,64,0.69133
6363900,0.40500,71.8125,117,64,0.68205
6363910,1.13000,71.4375,117,64,0.67179
6363920,1.64500,70.7500,117,64,0.64835
6363930,1.19500,70.3750,117,64,0.63492
6363940,0.31000,70.0000,117,64,0.62076
6363950,-0.12500,69.6250,117,64,0.60562
6363960,-0.18000,69.0000,117,64,0.57534
6363970,-0.14500,68.6250,117,64,0.56142
6363980,-0.12500,68.3125,117,64,0.54603
6363990,-0.12000,67.9375,117,64,0.53040
6364000,-0.11500,67.2500,117,64,0.50012
6364010,-0.10500,66.9375,117,64,0.48571
6364020,-0.10500,66.6250,117,64,0.47179
6364030,-0.09500,66.2500,117,64,0.45885
6364040,-0.09500,65.5625,117,64,0.43516
6364050,-0.09500,65.2500,117,64,0.42466
6364060,-0.09000,64.8750,117,64,0.41612
6364070,-0.08500,64.5625,117,64,0.40928
6364080,-0.08000,64.4375,117,64,0.39536
6364090,-0.07500,65.1875,117,64,0.38926
6364100,-0.06500,67.0625,117,64,0.38388
6364110,-0.05500,70.6250,117,64,0.37924
6364120,-0.04000,83.1250,117,64,0.37094
6364130,-0.02500,90.8125,117,64,0.36728
6364140,-0.00500,98.0625,117,64,0.36410
6364150,0.01500,104.2500,117,64,0.36142
6364160,0.04000,113.1250,117,64,0.35751
6364170,0.06000,116.1250,117,64,0.35629
6364180,0.08500,118.1875,117,64,0.35409
6364190,0.10500,119.1875,117,64,0.35165
6364200,0.12500,118.6875,117,64,0.34554
6364210,0.14000,117.6250,117,64,0.34237
6364220,0.16000,116.4375,117,64,0.33944
6364230,0.17000,115.1250,117,64,0.33651
6364240,0.17000,112.3750,117,64,0.32967
6364250,0.14500,111.0000,117,64,0.32601
6364260,0.10000,109.5625,117,64,0.32308
6364270,0.05000,108.2500,117,64,0.32088
6364280,0.00500,105.6250,117,64,0.31477
6364290,0.00500,105.6250,117,64,0.31477
6364300,-0.05500,103.1250,117,64,0.30818
6364310,-0.07000,101.8750,117,64,0.30476
6364320,-0.07500,99.3125,117,64,0.29817
6364330,-0.07500,98.0000,117,64,0.29524
6364340,-0.07500,96.5625,117,64,0.29231
6364350,-0.07500,94.9375,117,64,0.28913
6364360,-0.07500,91.0625,117,64,0.28694
6364370,-0.07500,89.0000,117,64,0.28694
6364380,-0.07500,86.8750,117,64,0.28889
6364390,-0.07500,84.9375,117,64,0.29402
6364400,-0.06500,81.6875,117,64,0.31795
6364410,-0.05000,80.3750,117,64,0.33822
6364420,-0.03500,79.3125,117,64,0.36435
6364430,-0.01500,78.4375,117,64,0.39536
6364440,0.01000,77.4375,117,64,0.46862
6364450,0.04000,77.1250,117,64,0.50794
6364460,0.06000,76.9375,117,64,0.54188
6364470,0.04500,76.8125,117,64,0.57167
6364480,0.01000,76.8125,117,64,0.63858
6364490,-0.04500,76.8750,117,64,0.67546
6364500,-0.11500,76.9375,117,64,0.70403
6364510,-0.16000,77.0000,117,64,0.72625
6364520,-0.17000,76.9375,117,64,0.75604
6364530,-0.17500,76.8125,117,64,0.76508
6364540,-0.16500,76.6250,117,64,0.77094
6364550,-0.16000,76.4375,117,64,0.77436
6364560,-0.16000,75.8750,117,64,0.77143
6364570,-0.23500,75.5000,117,64,0.76752
6364580,-0.24000,75.1250,117,64,0.76239
6364590,0.10000,74.7500,117,64,0.75580
6364600,0.81500,73.9375,117,64,0.73944
6364610,1.48500,73.5625,117,64,0.72943
6364620,1.31500,73.1250,117,64,0.71868
6364630,0.39500,72.7500,117,64,0.70696
6364640,-0.24000,72.0000,117,64,0.68059
6364650,-0.34500,71.5625,117,64,0.66569
6364660,-0.30500,71.1250,117,64,0.65153
6364670,-0.28500,70.6875,117,64,0.63736
6364680,-0.27500,69.8750,117,64,0.60513
6364690,-0.26000,69.5000,117,64,0.58852
6364700,-0.25000,69.1250,117,64,0.57216
6364710,-0.25000,68.7500,117,64,0.55604
6364720,-0.24000,68.1250,117,64,0.52503
6364730,-0.24000,67.8125,117,64,0.51062
6364740,-0.23000,67.4375,117,64,0.49695
6364750,-0.22000,67.0625,117,64,0.48425
6364760,-0.21500,66.4375,117,64,0.46496
6364770,-0.20500,66.3750,117,64,0.45641
6364780,-0.19000,66.8125,117,64,0.44811
6364790,-0.18000,68.1250,117,64,0.44054
6364800,-0.17000,75.3125,117,64,0.42759
6364810,-0.15500,81.5000,117,64,0.42173
6364820,-0.13000,88.8125,117,64,0.41636
6364830,-0.11000,96.2500,117,64,0.41172
6364840,-0.11000,96.2500,117,64,0.41172
6364850,-0.05500,113.1875,117,64,0.39878
6364860,-0.03000,116.5625,117,64,0.39585
6364870,-0.00500,118.9375,117,64,0.39292
6364880,0.01500,121.0000,117,64,0.38608
6364890,0.03500,120.8125,117,64,0.38242
6364900,0.05000,120.0000,117,64,0.37875
6364910,0.07000,118.8750,117,64,0.37509
6364920,0.09000,116.1250,117,64,0.36752
6364930,0.09500,114.7500,117,64,0.36386
6364940,0.08000,113.3125,117,64,0.36020
6364950,0.04500,111.9375,117,64,0.35604
6364960,0.00000,109.0625,117,64,0.34945
6364970,-0.04000,107.6250,117,64,0.34530
6364980,-0.07000,106.2500,117,64,0.34090
6364990,-0.09500,104.8125,117,64,0.33651
6365000,-0.10500,102.0000,117,64,0.32772
6365010,-0.12000,100.5000,117,64,0.32357
6365020,-0.13000,99.0000,117,64,0.31941
6365030,-0.13500,97.3750,117,64,0.31526
6365040,-0.13500,93.6250,117,64,0.30794
6365050,-0.14000,91.4375,117,64,0.30574
6365060,-0.14500,89.1875,117,64,0.30549
6365070,-0.14500,86.8750,117,64,0.30769
6365080,-0.14000,82.8750,117,64,0.32063
6365090,-0.14500,81.2500,117,64,0.33431
6365100,-0.14500,80.0000,117,64,0.35360
6365110,-0.14500,79.0000,117,64,0.37851
6365120,-0.13500,77.5000,117,64,0.44225
6365130,-0.12500,77.0625,117,64,0.47985
6365140,-0.09500,76.7500,117,64,0.51917
6365150,-0.08500,76.5625,117,64,0.55873
6365160,-0.08500,76.5000,117,64,0.62125
6365170,-0.06500,76.5625,117,64,0.65153
6365180,-0.04000,76.5625,117,64,0.68034
6365190,-0.03500,76.5625,117,64,0.70623
6365200,-0.05500,76.5000,117,64,0.74628
6365210,-0.08500,76.3750,117,64,0.76020
6365220,-0.12500,76.1875,117,64,0.77045
6365230,-0.17000,75.9375,117,64,0.77729
6365240,-0.21000,75.3125,117,64,0.78193
6365250,-0.22000,74.9375,117,64,0.78022
6365260,-0.21000,74.5625,117,64,0.77607
6365270,-0.20000,74.1250,117,64,0.77021
6365280,-0.19500,73.2500,117,64,0.75458
6365290,-0.24000,72.7500,117,64,0.74481
6365300,-0.28500,72.3125,117,64,0.73358
6365310,-0.05500,71.8750,117,64,0.72112
6365320,0.55000,71.0625,117,64,0.69328
6365330,1.28000,70.6250,117,64,0.67839
6365340,1.38000,70.1875,117,64,0.66276
6365350,0.57500,69.8125,117,64,0.64640
6365360,-0.17000,69.0625,117,64,0.61612
6365370,-0.35500,68.6875,117,64,0.60000
6365380,-0.35500,68.6875,117,64,0.60000
6365390,-0.30000,67.9375,117,64,0.56581
6365400,-0.29000,67.1875,117,64,0.53309
6365410,-0.28000,66.8125,117,64,0.51795
6365420,-0.26500,66.3750,117,64,0.50354
6365430,-0.25500,66.0000,117,64,0.48987
6365440,-0.25500,66.0000,117,64,0.48987
6365450,-0.24000,64.8125,117,64,0.45397
6365460,-0.23500,64.4375,117,64,0.44518
6365470,-0.23000,64.0625,117,64,0.43810
6365480,-0.21500,63.4375,117,64,0.42393
6365490,-0.20500,63.2500,117,64,0.41783
6365500,-0.19000,63.3125,117,64,0.41221
6365510,-0.18000,64.0000,117,64,0.40684
6365520,-0.16500,69.3750,117,64,0.39683
6365530,-0.15000,74.8125,117,64,0.39219
6365540,-0.13000,81.8750,117,64,0.38803
6365550,-0.10500,89.6250,117,64,0.38364
6365560,-0.08500,103.3750,117,64,0.37729
6365570,-0.06000,108.4375,117,64,0.37363
6365580,-0.03000,112.2500,117,64,0.36972
6365590,-0.00500,115.0625,117,64,0.36581
6365600,0.02000,117.7500,117,64,0.35678
6365610,0.04000,117.6875,117,64,0.35189
6365620,0.06000,116.9375,117,64,0.34701
6365630,0.08000,115.7500,117,64,0.34237
6365640,0.10500,112.8125,117,64,0.33309
6365650,0.11500,111.3125,117,64,0.32869
6365660,0.11000,109.7500,117,64,0.32527
6365670,0.08500,108.1875,117,64,0.32259
6365680,0.04500,105.0625,117,64,0.31526
6365690,0.00500,103.5625,117,64,0.31111
6365700,-0.03500,102.0625,117,64,0.30647
6365710,-0.06500,100.5625,117,64,0.30183
6365720,-0.09000,97.5625,117,64,0.29304
6365730,-0.11000,96.0000,117,64,0.28864
6365740,-0.11500,94.5000,117,64,0.28425
6365750,-0.12500,92.8125,117,64,0.27985
6365760,-0.12500,89.0625,117,64,0.27473
6365770,-0.13500,86.9375,117,64,0.27204
6365780,-0.13500,84.7500,117,64,0.26984
6365790,-0.14500,82.6250,117,64,0.26935
6365800,-0.14000,79.0625,117,64,0.27668
6365810,-0.14500,77.7500,117,64,0.28669
6365820,-0.14500,76.6250,117,64,0.30256
6365830,-0.14000,75.6875,117,64,0.32430
6365840,-0.12500,74.5000,117,64,0.38510
6365850,-0.10500,74.1875,117,64,0.42198
6365860,-0.08500,73.9375,117,64,0.45568
6365870,-0.07500,73.8750,117,64,0.48816
6365880,-0.06500,73.8750,117,64,0.56117
6365890,-0.03000,74.0000,117,64,0.59609
6365900,-0.00500,74.1250,117,64,0.62808
6365910,-0.01500,74.1875,117,64,0.65665
6365920,-0.05000,74.3750,117,64,0.70061
6365930,-0.09500,74.3750,117,64,0.71600
6365940,-0.13500,74.2500,117,64,0.72723
6365950,-0.17500,74.0625,117,64,0.73455
6365960,-0.19500,73.5000,117,64,0.73797
6365970,-0.20000,73.2500,117,64,0.73675
6365980,-0.18500,72.8750,117,64,0.73358
6365990,-0.18000,72.5000,117,64,0.72845
6366000,-0.17500,71.6875,117,64,0.71258
6366010,-0.23000,71.2500,117,64,0.70232
6366020,-0.23500,71.1146,117,64,0.69919
6366030,-0.03500,70.8750,117,64,0.69084
6366040,0.56000,70.1250,117,64,0.66496
6366050,1.26000,69.8125,117,64,0.65055
6366060,1.24000,69.5000,117,64,0.63663
6366070,0.45500,69.1875,117,64,0.62295
6366080,-0.18000,68.5000,117,64,0.59096
6366090,-0.34500,68.1250,117,64,0.57387
6366100,-0.31500,67.7500,117,64,0.55653
6366110,-0.28000,67.3750,117,64,0.53895
6366120,-0.27000,66.5625,117,64,0.50598
6366130,-0.26000,66.1250,117,64,0.49060
6366140,-0.25000,65.6875,117,64,0.47570
6366150,-0.24000,65.1875,117,64,0.46178
6366160,-0.23000,64.3125,117,64,0.43883
6366170,-0.22000,63.8750,117,64,0.43004
6366180,-0.21500,63.5000,117,64,0.42125
6366190,-0.20500,63.1250,117,64,0.41270
6366200,-0.19500,62.5000,117,64,0.39683
6366210,-0.18500,62.2500,117,64,0.38999
6366220,-0.18000,62.0000,117,64,0.38364
6366230,-0.16500,62.0000,117,64,0.37827
6366240,-0.15500,63.5000,117,64,0.36923
6366250,-0.13500,65.7500,117,64,0.36606
6366260,-0.12000,69.7500,117,64,0.36386
6366270,-0.10500,75.3750,117,64,0.36215
6366280,-0.08500,89.0625,117,64,0.35653
6366290,-0.06500,95.3750,117,64,0.35311
6366300,-0.04000,100.6875,117,64,0.34969
6366310,-0.01500,104.8750,117,64,0.34628
6366320,0.00000,110.5000,117,64,0.33968
6366330,0.02000,111.8750,117,64,0.33578
6366340,0.04000,112.3125,117,64,0.33187
6366350,0.06000,111.9375,117,64,0.32772
6366360,0.08500,109.6875,117,64,0.32063
6366370,0.10500,108.1875,117,64,0.31844
6366380,0.10000,106.5625,117,64,0.31551
6366390,0.07000,104.8750,117,64,0.31233
6366400,0.02000,101.6250,117,64,0.30525
6366410,-0.02500,100.0000,117,64,0.30134
6366420,-0.05500,98.4375,117,64,0.29719
6366430,-0.08000,96.9375,117,64,0.29280
6366440,-0.09500,94.0625,117,64,0.28376
6366450,-0.10000,92.6875,117,64,0.27863
6366460,-0.10000,91.2500,117,64,0.27521
6366470,-0.10500,89.7500,117,64,0.27277
6366480,-0.10500,86.3750,117,64,0.26520
6366490,-0.10500,86.3750,117,64,0.26520
6366500,-0.09500,82.4375,117,64,0.25763
6366510,-0.09000,80.3750,117,64,0.25446
6366520,-0.09000,76.8125,117,64,0.25299
6366530,-0.09500,75.3750,117,64,0.25592
6366540,-0.09500,74.1250,117,64,0.26203
6366550,-0.08500,73.0625,117,64,0.27228
6366560,-0.07500,71.7500,117,64,0.30476
6366570,-0.05500,71.3750,117,64,0.32479
6366580,-0.04500,71.1875,117,64,0.35092
6366590,-0.03500,71.1250,117,64,0.38169
6366600,-0.01000,71.1875,117,64,0.45055
6366610,0.02000,71.3125,117,64,0.48547
6366620,0.02500,71.4375,117,64,0.51917
6366630,0.00500,71.6250,117,64,0.55043
6366640,-0.03500,71.8750,117,64,0.60171
6366650,-0.07500,71.8750,117,64,0.60171
6366660,-0.12500,71.9375,117,64,0.63516
6366670,-0.15500,71.8125,117,64,0.64469
6366680,-0.17000,71.5625,117,64,0.65812
6366690,-0.16500,71.3125,117,64,0.66129
6366700,-0.16000,71.0625,117,64,0.66178
6366710,-0.14500,70.7500,117,64,0.65983
6366720,-0.16000,70.0625,117,64,0.65006
6366730,-0.22000,69.7500,117,64,0.64249
6366740,-0.13500,69.4375,117,64,0.63370
6366750,0.29000,69.1250,117,64,0.62418
6366760,1.02000,68.4375,117,64,0.60269
6366770,1.42500,68.1250,117,64,0.59170
6366780,0.87500,67.8125,117,64,0.57900
6366790,0.06000,67.5000,117,64,0.56508
6366800,-0.28000,66.8750,117,64,0.53455
6366810,-0.30000,66.5625,117,64,0.51868
6366820,-0.26000,66.2500,117,64,0.50305
6366830,-0.24000,65.9375,117,64,0.48767
6366840,-0.23000,65.2500,117,64,0.45861
6366850,-0.23000,65.2500,117,64,0.45861
6366860,-0.20500,64.4375,117,64,0.43370
6366870,-0.19000,64.0625,117,64,0.42369
6366880,-0.18500,63.3750,117,64,0.40317
6366890,-0.17500,63.0000,117,64,0.39365
6366900,-0.17000,62.6875,117,64,0.38486
6366910,-0.17000,62.3750,117,64,0.37753
6366920,-0.16000,61.8125,117,64,0.36557
6366930,-0.16000,61.8125,117,64,0.36557
6366940,-0.14000,61.6250,117,64,0.35702
6366950,-0.12500,62.0000,117,64,0.35360
6366960,-0.11000,65.4375,117,64,0.34872
6366970,-0.09500,69.5000,117,64,0.34725
6366980,-0.09500,69.5000,117,64,0.34725
6366990,-0.06000,82.3125,117,64,0.34310
6367000,-0.04000,96.0000,116,64,0.33822
6367010,-0.01000,101.3125,116,64,0.33578
6367020,0.01000,105.5625,116,64,0.33309
6367030,0.03500,108.8125,116,64,0.33040
6367040,0.05500,112.5625,116,64,0.32503
6367050,0.08000,113.1250,116,64,0.32210
6367060,0.10000,112.8750,116,64,0.31966
6367070,0.13000,112.0000,116,64,0.31770
6367080,0.14500,109.3125,116,64,0.31258
6367090,0.15500,107.7500,116,64,0.30965
6367100,0.13000,106.1875,116,64,0.30647
6367110,0.08500,104.5625,116,64,0.30305
6367120,0.03500,101.3750,116,64,0.29646
6367130,-0.01000,99.8125,116,64,0.29328
6367140,-0.04000,98.3125,116,64,0.28987
6367150,-0.06000,96.9375,116,64,0.28620
6367160,-0.07500,94.1250,116,64,0.27937
6367170,-0.07500,92.6875,116,64,0.27741
6367180,-0.08000,91.2500,116,64,0.27473
6367190,-0.08000,89.6875,116,64,0.27155
6367200,-0.07500,86.2500,116,64,0.26545
6367210,-0.07000,84.3125,116,64,0.26300
6367220,-0.07000,82.2500,116,64,0.26081
6367230,-0.07000,82.2500,116,64,0.26081
6367240,-0.07500,76.5625,116,64,0.26300
6367250,-0.07500,75.1875,116,64,0.27033
6367260,-0.07000,74.0625,116,64,0.28010
6367270,-0.06000,73.1250,116,64,0.29304
6367280,-0.04500,71.8750,116,64,0.33602
6367290,-0.04500,71.8750,116,64,0.33602
6367300,-0.02500,71.3750,116,64,0.39805
6367310,-0.01000,71.3125,116,64,0.43321
6367320,0.01500,71.5000,116,64,0.50574
6367330,0.03000,71.6250,116,64,0.54017
6367340,0.02000,71.7500,116,64,0.57192
6367350,-0.02000,71.9375,116,64,0.60024
6367360,-0.06500,72.1875,116,64,0.64322
6367370,-0.10500,72.1875,116,64,0.65714
6367380,-0.14500,72.1875,116,64,0.66984
6367390,-0.16500,72.1250,116,64,0.68010
6367400,-0.17000,71.7500,116,64,0.69206
6367410,-0.16000,71.5000,116,64,0.69377
6367420,-0.15000,71.1875,116,64,0.69304
6367430,-0.15500,70.8750,116,64,0.69011
6367440,-0.21000,70.2500,116,64,0.67741
6367450,-0.20500,69.8750,116,64,0.66862
6367460,0.10500,69.5625,116,64,0.65934
6367470,0.10500,69.5625,116,64,0.65934
6367480,1.35500,68.6250,116,64,0.62613
6367490,1.13500,68.3125,116,64,0.61294
6367500,0.29500,68.0000,116,64,0.59902
6367510,-0.23000,67.6875,116,64,0.58462
6367520,-0.32000,66.9375,116,64,0.55336
6367530,-0.29000,66.5000,116,64,0.53724
6367540,-0.27000,66.1250,116,64,0.52088
6367550,-0.25500,65.6875,116,64,0.50476
6367560,-0.24500,64.8750,116,64,0.47497
6367570,-0.23000,64.4375,116,64,0.46276
6367580,-0.22500,64.0625,116,64,0.45031
6367590,-0.21500,63.6250,116,64,0.43834
6367600,-0.21000,62.8750,116,64,0.41734
6367610,-0.20000,62.5625,116,64,0.40806
6367620,-0.20000,62.1875,116,64,0.39976
6367630,-0.19000,61.8750,116,64,0.39219
6367640,-0.18000,61.3750,116,64,0.37949
6367650,-0.16500,61.3125,116,64,0.37411
6367660,-0.15500,61.6250,116,64,0.37021
6367670,-0.14000,62.6250,116,64,0.36703
6367680,-0.12500,68.4375,116,64,0.36093
6367690,-0.10500,74.0000,116,64,0.35824
6367700,-0.08500,80.9375,116,64,0.35580
6367710,-0.07000,88.1875,116,64,0.35360
6367720,-0.04500,100.3750,116,64,0.34921
6367730,-0.01500,104.7500,116,64,0.34652
6367740,0.00500,108.1875,116,64,0.34359
6367750,0.03000,110.7500,116,64,0.34042
6367760,0.05000,113.2500,116,64,0.33504
6367770,0.07000,113.2500,116,64,0.33358
6367780,0.09500,112.6250,116,64,0.33138
6367790,0.11500,111.6250,116,64,0.32869
6367800,0.12000,108.9375,116,64,0.32161
6367810,0.11000,107.5000,116,64,0.31795
6367820,0.07000,106.0000,116,64,0.31429
6367830,0.02000,104.5000,116,64,0.31087
6367840,-0.02500,101.5625,116,64,0.30403
6367850,-0.06500,100.1250,116,64,0.30037
6367860,-0.08500,98.7500,116,64,0.29744
6367870,-0.10000,97.4375,116,64,0.29499
6367880,-0.11500,94.9375,116,64,0.28816
6367890,-0.11500,93.6250,116,64,0.28425
6367900,-0.11500,92.1875,116,64,0.28010
6367910,-0.11500,90.6875,116,64,0.27595
6367920,-0.11500,87.1875,116,64,0.26813
6367930,-0.11000,85.2500,116,64,0.26471
6367940,-0.10500,83.1875,116,64,0.26227
6367950,-0.11000,81.2500,116,64,0.26154
6367960,-0.11000,77.9375,116,64,0.26789
6367970,-0.10500,76.6250,116,64,0.27619
6367980,-0.09500,75.4375,116,64,0.28938
6367990,-0.07500,74.5000,116,64,0.30769
6368000,-0.05500,73.1875,117,64,0.35946
6368010,-0.04500,72.8125,117,64,0.39170
6368020,-0.04500,72.8125,117,64,0.39170
6368030,-0.01000,72.4375,117,64,0.46398
6368040,0.01000,72.4375,117,64,0.53773
6368050,0.00500,72.5000,117,64,0.57118
6368060,-0.03000,72.5625,117,64,0.59780
6368070,-0.07000,72.6875,117,64,0.61978
6368080,-0.11500,72.9375,117,64,0.66007
6368090,-0.15500,73.0000,117,64,0.67546
6368100,-0.17000,73.0000,117,64,0.68767
6368110,-0.17500,72.9375,117,64,0.69646
6368120,-0.17000,72.6875,117,64,0.70598
6368130,-0.16000,72.4375,117,64,0.70672
6368140,-0.16000,72.1875,117,64,0.70476
6368150,-0.21500,71.8750,117,64,0.70061
6368160,-0.23000,71.1875,117,64,0.68791
6368170,0.02000,70.9375,117,64,0.67961
6368180,0.66000,70.6250,117,64,0.66984
6368190,1.35000,70.3125,117,64,0.65910
6368200,1.23500,69.6875,117,64,0.63492
6368210,1.23500,69.6875,117,64,0.63492
6368220,-0.22000,69.0000,117,64,0.60733
6368230,-0.35000,68.6875,117,64,0.59267
6368240,-0.30500,67.8750,117,64,0.56142
6368250,-0.28000,67.5000,117,64,0.54554
6368260,-0.28000,67.5000,117,64,0.54554
6368270,-0.25000,66.6875,117,64,0.51868
6368280,-0.24500,65.8750,117,64,0.49035
6368290,-0.23500,65.5000,117,64,0.47643
6368300,-0.23000,65.1250,117,64,0.46325
6368310,-0.22000,64.8125,117,64,0.45079
6368320,-0.22000,64.1250,117,64,0.42808
6368330,-0.21000,63.8125,117,64,0.41807
6368340,-0.20500,63.5625,117,64,0.40928
6368350,-0.19000,63.3125,117,64,0.40171
6368360,-0.17500,63.2500,117,64,0.39170
6368370,-0.16000,63.8125,117,64,0.38706
6368380,-0.15000,65.2500,117,64,0.38266
6368390,-0.13500,68.1250,117,64,0.37875
6368400,-0.11000,79.0625,117,64,0.37241
6368410,-0.09000,86.2500,117,64,0.36947
6368420,-0.07000,93.3750,117,64,0.36679
6368430,-0.04500,99.6875,117,64,0.36361
6368440,-0.02500,108.8750,117,64,0.35751
6368450,0.00000,111.9375,117,64,0.35482
6368460,0.03000,114.0625,117,64,0.35287
6368470,0.05000,115.3750,117,64,0.35116
6368480,0.07000,115.5000,117,64,0.34701
6368490,0.09500,114.6875,117,64,0.34408
6368500,0.12000,113.5625,117,64,0.34090
6368510,0.13500,112.2500,117,64,0.33773
6368520,0.12000,109.3125,117,64,0.33162
6368530,0.08500,107.7500,117,64,0.32796
6368540,0.03500,106.2500,117,64,0.32430
6368550,-0.00500,104.6875,117,64,0.32039
6368560,-0.04500,101.6875,117,64,0.31477
6368570,-0.07000,100.2500,117,64,0.31087
6368580,-0.08500,98.8125,117,64,0.30672
6368590,-0.09500,97.4375,117,64,0.30134
6368600,-0.09500,94.6250,117,64,0.29133
6368610,-0.10000,93.1875,117,64,0.28718
6368620,-0.10000,91.6250,117,64,0.28327
6368630,-0.09500,89.9375,117,64,0.27937
6368640,-0.10000,86.1250,117,64,0.27302
6368650,-0.10000,84.1875,117,64,0.27179
6368660,-0.09500,82.3125,117,64,0.27302
6368670,-0.09500,80.5625,117,64,0.27717
6368680,-0.11000,77.8125,117,64,0.29792
6368690,-0.21500,76.7500,117,64,0.31600
6368700,-0.38500,75.8750,117,64,0.34017
6368710,-0.48000,75.2500,117,64,0.36996
6368720,-0.52500,74.5625,117,64,0.44225
6368730,-0.54000,74.4375,117,64,0.48254
6368740,-0.52000,74.4375,117,64,0.52381
6368750,-0.50000,74.4375,117,64,0.56459
6368760,-0.50000,74.6250,117,64,0.62735
6368770,-0.53000,74.7500,117,64,0.65690
6368780,-0.55500,74.8750,117,64,0.68425
6368790,-0.59000,75.0000,117,64,0.70842
6368800,-0.62000,75.0625,117,64,0.74408
6368810,-0.63000,74.9375,117,64,0.75556
6368820,-0.62500,74.8125,117,64,0.76361
6368830,-0.60500,74.5625,117,64,0.76801
6368840,-0.58500,74.0000,117,64,0.76777
6368850,-0.57500,73.6875,117,64,0.76361
6368860,-0.63500,73.3125,117,64,0.75751
6368870,-0.63500,72.8750,117,64,0.74969
6368880,-0.30000,72.0625,117,64,0.72991
6368890,0.40500,71.6250,117,64,0.71795
6368900,1.08500,71.1875,117,64,0.70501
6368910,0.95000,70.8125,117,64,0.69133
6368920,0.07000,70.1250,117,64,0.66178
6368930,-0.55000,69.7500,117,64,0.64591
6368940,-0.63500,69.4375,117,64,0.62955
6368950,-0.58000,69.0625,117,64,0.61270
6368960,-0.54000,68.3750,117,64,0.58217
6368970,-0.51500,68.0625,117,64,0.56581
6368980,-0.49500,67.7500,117,64,0.54921
6368990,-0.47500,67.3750,117,64,0.53284
6369000,-0.46000,66.6250,117,64,0.50256
6369010,-0.44000,66.2500,117,64,0.48840
6369020,-0.42500,65.9375,117,64,0.47497
6369030,-0.40500,65.5625,117,64,0.46300
6369040,-0.40500,65.5625,117,64,0.46300
6369050,-0.37000,64.6250,117,64,0.43419
6369060,-0.35000,64.4375,117,64,0.42759
6369070,-0.32500,64.3125,117,64,0.42222
6369080,-0.30500,65.5000,117,64,0.41172
6369090,-0.29000,67.6250,117,64,0.40733
6369100,-0.26500,71.4375,117,64,0.40317
6369110,-0.24000,76.9375,117,64,0.39927
6369120,-0.21000,91.1875,117,64,0.39243
6369130,-0.18000,98.1250,117,64,0.38926
6369140,-0.15500,104.0625,117,64,0.38608
6369150,-0.12000,108.8125,117,64,0.38315
6369160,-0.08500,114.8750,117,64,0.37827
6369170,-0.05500,116.4375,117,64,0.37509
6369180,-0.03500,117.0625,117,64,0.37118
6369190,-0.01000,116.9375,117,64,0.36703
6369200,0.01500,115.1250,117,64,0.35873
6369210,0.04000,113.8125,117,64,0.35458
6369220,0.05500,112.3750,117,64,0.35043
6369230,0.05000,110.8125,117,64,0.34603
6369240,0.02000,107.6875,117,64,0.33773
6369250,-0.01500,106.1250,117,64,0.33358
6369260,-0.01500,106.1250,117,64,0.33358
6369270,-0.09500,103.0000,117,64,0.32772
6369280,-0.11500,100.0000,117,64,0.32015
6369290,-0.13500,98.5625,117,64,0.31600
6369300,-0.14000,97.0625,117,64,0.31209
6369310,-0.14500,95.5625,117,64,0.30818
6369320,-0.14500,92.3750,117,64,0.30061
6369330,-0.14000,90.5625,117,64,0.29695
6369340,-0.13500,88.6250,117,64,0.29328
6369350,-0.13500,86.6250,117,64,0.29060
6369360,-0.14000,82.6250,117,64,0.29035
6369370,-0.13500,80.7500,117,64,0.29328
6369380,-0.14000,79.1875,117,64,0.29939
6369390,-0.13500,77.8750,117,64,0.31013
6369400,-0.13000,76.0625,117,64,0.34725
6369410,-0.11500,75.4375,117,64,0.37411
6369420,-0.09000,75.0000,117,64,0.40635
6369430,-0.07000,74.7500,117,64,0.44249
6369440,-0.07000,74.5000,117,64,0.52234
6369450,-0.04500,74.5000,117,64,0.56313
6369460,-0.02000,74.5000,117,64,0.59707
6369470,-0.00500,74.5000,117,64,0.62613
6369480,-0.02500,74.5625,117,64,0.68400
6369490,-0.05500,74.5625,117,64,0.70916
6369500,-0.09500,74.5625,117,64,0.73065
6369510,-0.14000,74.5000,117,64,0.74799
6369520,-0.16500,74.2500,117,64,0.77070
6369530,-0.16500,74.2500,117,64,0.77070
6369540,-0.17000,73.7500,117,64,0.77900
6369550,-0.16000,73.3750,117,64,0.77827
6369560,-0.14500,72.5625,117,64,0.76874
6369570,-0.17500,72.1875,117,64,0.76093
6369580,-0.22000,71.7500,117,64,0.75189
6369590,-0.03500,71.3125,117,64,0.74139
6369600,0.56000,70.5625,117,64,0.71697
6369610,1.31500,70.1875,117,64,0.70354
6369620,1.43500,69.8750,117,64,0.68913
6369630,0.68000,69.5000,117,64,0.67350
6369640,-0.05500,68.8125,117,64,0.64054
6369650,-0.27000,68.5000,117,64,0.62295
6369660,-0.23000,68.1875,117,64,0.60708
6369670,-0.18000,67.8125,117,64,0.59219
6369680,-0.14500,67.1250,117,64,0.55995
6369690,-0.11000,66.7500,117,64,0.54383
6369700,-0.07000,66.3750,117,64,0.52845
6369710,-0.02500,65.9375,117,64,0.51331
6369720,-0.02500,65.9375,117,64,0.51331
6369730,0.06000,64.8750,117,64,0.47228
6369740,0.09500,64.5000,117,64,0.46056
6369750,0.15500,64.1875,117,64,0.45006
6369760,0.23500,63.4375,117,64,0.43443
6369770,0.29000,63.1250,117,64,0.42759
6369780,0.32000,62.9375,117,64,0.42149
6369790,0.34000,62.9375,117,64,0.41612
6369800,0.35000,64.8125,117,64,0.40708
6369810,0.36000,67.6250,117,64,0.40342
6369820,0.36000,72.2500,117,64,0.40024
6369830,0.37500,78.5625,117,64,0.39658
6369840,0.39000,93.1875,117,64,0.38926
6369850,0.40500,99.5000,117,64,0.38632
6369860,0.42000,104.5625,117,64,0.38364
6369870,0.43500,108.4375,117,64,0.37998
6369880,0.44500,113.2500,117,64,0.37143
6369890,0.46000,114.3125,117,64,0.36703
6369900,0.46000,114.3125,117,64,0.36703
6369910,0.49000,113.8750,117,64,0.35873
6369920,0.50500,111.3125,117,64,0.34921
6369930,0.51500,109.6875,117,64,0.34408
6369940,0.49500,107.9375,117,64,0.33919
6369950,0.46000,106.1875,117,64,0.33431
6369960,0.40500,102.6875,117,64,0.32796
6369970,0.35500,101.0000,117,64,0.32430
6369980,0.31000,99.3125,117,64,0.31990
6369990,0.27500,97.6875,117,64,0.31551
6370000,0.24500,94.6250,116,64,0.30745
6370010,0.22500,93.1250,116,64,0.30354
6370020,0.21000,91.6250,116,64,0.29939
6370030,0.20500,90.1250,116,64,0.29499
6370040,0.19500,86.6875,116,64,0.28596
6370050,0.19500,84.8125,116,64,0.28303
6370060,0.20500,82.8125,116,64,0.28107
6370070,0.22500,80.8750,116,64,0.27912
6370080,0.25000,77.3750,116,64,0.27888
6370090,0.27500,75.8750,116,64,0.28254
6370100,0.28500,74.6875,116,64,0.29011
6370110,0.26500,73.7500,116,64,0.30232
6370120,0.22500,72.4375,116,64,0.34310
6370130,0.15000,72.0625,116,64,0.37216
6370140,0.07500,71.8750,116,64,0.40610
6370150,0.03000,71.8125,116,64,0.44347
6370160,0.00500,71.8750,116,64,0.50989
6370170,0.00000,72.0000,116,64,0.54579
6370180,0.00000,72.1875,116,64,0.58193
6370190,0.00000,72.3125,116,64,0.61587
6370200,0.00000,72.5000,116,64,0.67253
6370210,-0.04500,72.5000,116,64,0.69451
6370220,-0.08000,72.5000,116,64,0.71184
6370230,0.14500,72.4375,116,64,0.72503
6370240,0.77000,72.1875,116,64,0.73846
6370250,1.45000,71.9375,116,64,0.73919
6370260,1.33000,71.6875,116,64,0.73700
6370270,0.49500,71.3750,116,64,0.73333
6370280,-0.09500,70.6250,116,64,0.71990
6370290,-0.22500,70.2500,116,64,0.71038
6370300,-0.18500,69.8750,116,64,0.69939
6370310,-0.16000,69.5000,116,64,0.68718
6370320,-0.15500,68.6875,116,64,0.65934
6370330,-0.14500,68.2500,116,64,0.64396
6370340,-0.14500,67.8125,116,64,0.62808
6370350,-0.13500,67.3750,116,64,0.61172
6370360,-0.13000,66.5000,116,64,0.58193
6370370,-0.12000,66.1250,116,64,0.56557
6370380,-0.11500,65.7500,116,64,0.54872
6370390,-0.11500,65.7500,116,64,0.54872
6370400,-0.10500,64.7500,116,64,0.49841
6370410,-0.09500,64.4375,116,64,0.48278
6370420,-0.08500,64.2500,116,64,0.46789
6370430,-0.07500,64.1875,116,64,0.45397
6370440,-0.06500,64.9375,116,64,0.42882
6370450,-0.04500,66.3125,116,64,0.41929
6370460,-0.03500,68.9375,116,64,0.41148
6370470,-0.01500,73.0625,116,64,0.40366
6370480,0.00000,84.8125,116,64,0.38950
6370490,0.02000,90.9375,116,64,0.38388
6370500,0.04000,96.3125,116,64,0.37900
6370510,0.06000,100.6875,116,64,0.37509
6370520,0.08000,106.5625,116,64,0.36777
6370530,0.10000,108.2500,116,64,0.36410
6370540,0.10000,108.2500,116,64,0.36410
6370550,0.14500,109.3125,116,64,0.35751
6370560,0.16500,107.8125,116,64,0.35336
6370570,0.16000,106.4375,116,64,0.35092
6370580,0.13000,104.9375,116,64,0.34799
6370590,0.08000,103.3125,116,64,0.34457
6370600,0.03000,99.8750,116,64,0.33773
6370610,-0.01000,98.1875,116,64,0.33431
6370620,-0.04000,96.5000,116,64,0.33040
6370630,-0.06000,94.8750,116,64,0.32625
6370640,-0.06500,91.8750,116,64,0.30476
6370650,-0.07000,90.3750,116,64,0.29792
6370660,-0.07000,88.9375,116,64,0.29377
6370670,-0.06500,87.4375,116,64,0.28987
6370680,-0.06500,84.0625,116,64,0.28156
6370690,-0.07000,82.1875,116,64,0.27717
6370700,-0.07000,80.2500,116,64,0.27350
6370710,-0.07000,78.2500,116,64,0.27009
6370720,-0.07500,74.9375,116,64,0.26569
6370730,-0.08000,73.6250,116,64,0.26618
6370740,-0.08500,72.5000,116,64,0.26960
6370750,-0.09000,71.5000,116,64,0.27668
6370760,-0.09500,70.2500,116,64,0.29939
6370770,-0.09500,69.8750,116,64,0.31795
6370780,-0.09500,69.7500,116,64,0.34139
6370790,-0.09500,69.6875,116,64,0.36923
6370800,-0.09500,69.9375,116,64,0.43370
6370810,-0.08000,70.0625,116,64,0.46764
6370820,-0.06000,70.2500,116,64,0.50085
6370830,-0.04500,70.3750,116,64,0.53236
6370840,-0.03500,70.6250,116,64,0.58730
6370850,-0.01500,70.6875,116,64,0.60659
6370860,0.01500,70.6875,116,64,0.62125
6370870,0.02000,70.5625,116,64,0.63468
6370880,-0.00500,70.2500,116,64,0.65226
6370890,-0.05000,70.0625,116,64,0.65617
6370900,-0.09500,69.7500,116,64,0.65714
6370910,-0.13500,69.4375,116,64,0.65592
6370920,-0.16000,68.8125,116,64,0.64640
6370930,-0.17000,68.4375,116,64,0.63858
6370940,-0.16000,68.0625,116,64,0.62882
6370950,-0.15500,67.6250,116,64,0.61758
6370960,-0.14500,66.8125,116,64,0.59414
6370970,-0.18000,66.4375,116,64,0.58071
6370980,-0.21000,66.0625,116,64,0.56654
6370990,-0.01500,65.6875,116,64,0.55165
6371000,0.51000,65.0625,115,64,0.51990
6371010,1.20000,64.7500,115,64,0.50330
6371020,1.34000,64.5000,115,64,0.48645
6371030,0.60000,64.2500,115,64,0.46984
6371040,-0.11000,63.7500,115,64,0.43810
6371050,-0.31500,63.4375,115,64,0.42540
6371060,-0.30000,63.1250,115,64,0.41416
6371070,-0.27000,62.8125,115,64,0.40220
6371080,-0.25500,62.1875,115,64,0.37924
6371090,-0.24500,61.8750,115,64,0.36923
6371100,-0.23500,61.5625,115,64,0.36044
6371110,-0.22500,61.2500,115,64,0.35287
6371120,-0.22000,60.6250,115,64,0.34042
6371130,-0.21500,60.3750,115,64,0.33529
6371140,-0.21000,60.0625,115,64,0.33089
6371150,-0.20000,59.8125,115,64,0.32698
6371160,-0.20000,59.3125,115,64,0.32259
6371170,-0.19000,59.1250,115,64,0.31990
6371180,-0.18000,59.1250,115,64,0.31722
6371190,-0.17000,59.5625,115,64,0.31477
6371200,-0.15500,63.8125,115,64,0.30965
6371210,-0.13500,68.7500,115,64,0.30720
6371220,-0.11500,75.6250,115,64,0.30452
6371230,-0.09500,83.6250,115,64,0.30183
6371240,-0.07500,98.3750,115,64,0.29573
6371250,-0.05000,103.8125,115,64,0.29353
6371260,-0.02500,108.1250,115,64,0.29158
6371270,-0.00500,111.4375,115,64,0.28889
6371280,0.02000,114.8750,115,64,0.28303
6371290,0.04500,115.1250,115,64,0.27985
6371300,0.07000,114.5625,115,64,0.27643
6371310,0.09500,113.4375,115,64,0.27277
6371320,0.12500,110.5625,115,64,0.26496
6371330,0.14500,108.9375,115,64,0.26081
6371340,0.15500,107.3125,115,64,0.25641
6371350,0.14000,105.6250,115,64,0.25226
6371360,0.09500,102.3125,115,64,0.24786
6371370,0.04000,100.6250,115,64,0.24567
6371380,-0.00500,99.0000,115,64,0.24298
6371390,-0.04000,97.4375,115,64,0.24029
6371400,-0.06500,94.4375,115,64,0.23394
6371410,-0.08500,92.9375,115,64,0.23077
6371420,-0.09500,91.4375,115,64,0.22759
6371430,-0.10500,89.8750,115,64,0.22442
6371440,-0.10500,89.8750,115,64,0.22442
6371450,-0.10500,84.4375,115,64,0.21685
6371460,-0.10000,82.4375,115,64,0.21587
6371470,-0.10000,80.4375,115,64,0.21465
6371480,-0.09500,77.0000,115,64,0.21734
6371490,-0.09500,75.6875,115,64,0.22393
6371500,-0.09500,74.6250,115,64,0.23565
6371510,-0.09500,73.6875,115,64,0.25348
6371520,-0.08500,72.3750,115,64,0.30842
6371530,-0.07500,71.9375,115,64,0.34505
6371540,-0.05500,71.6875,115,64,0.38608
6371550,-0.05000,71.5625,115,64,0.42369
6371560,-0.03500,71.6250,115,64,0.49963
6371570,-0.03500,71.6250,115,64,0.49963
6371580,0.01000,71.8125,115,64,0.57924
6371590,0.01000,71.8125,115,64,0.57924
6371600,-0.02500,72.1250,115,64,0.67375
6371610,-0.07000,72.1875,115,64,0.69621
6371620,-0.11000,72.1250,115,64,0.71404
6371630,-0.15500,72.0625,115,64,0.72747
6371640,-0.17500,71.6875,115,64,0.74139
6371650,-0.18000,71.4375,115,64,0.74237
6371660,-0.17500,71.1250,115,64,0.74017
6371670,-0.16500,70.8125,115,64,0.73651
6371680,-0.16000,70.0625,115,64,0.72405
6371690,-0.20000,69.6875,115,64,0.71526
6371700,-0.25000,69.3125,115,64,0.70476
6371710,-0.04000,68.9375,115,64,0.69255
6371720,0.52500,68.2500,115,64,0.66422
6371730,1.22500,68.0000,115,64,0.64860
6371740,1.32500,67.6875,115,64,0.63223
6371750,0.56000,67.4375,115,64,0.61709
6371760,-0.13500,66.7500,115,64,0.58608
6371770,-0.32000,66.3750,115,64,0.56947
6371780,-0.30000,66.0625,115,64,0.55238
6371790,-0.27500,65.6875,115,64,0.53504
6371800,-0.26500,64.8750,115,64,0.50183
6371810,-0.25500,64.5000,115,64,0.48571
6371820,-0.24000,64.1250,115,64,0.47033
6371830,-0.23500,63.7500,115,64,0.45592
6371840,-0.22000,63.0625,115,64,0.42979
6371850,-0.21500,62.6875,115,64,0.41954
6371860,-0.20000,62.3750,115,64,0.41099
6371870,-0.19000,62.0625,115,64,0.40244
6371880,-0.18500,61.3750,115,64,0.38706
6371890,-0.18000,61.0625,115,64,0.38095
6371900,-0.16500,60.9375,115,64,0.37534
6371910,-0.15500,61.1250,115,64,0.36996
6371920,-0.14000,63.4375,115,64,0.36142
6371930,-0.12500,66.5000,115,64,0.35775
6371940,-0.10500,71.4375,115,64,0.35409
6371950,-0.09000,77.8750,115,64,0.35140
6371960,-0.07000,91.9375,115,64,0.34579
6371970,-0.05000,97.8125,115,64,0.34237
6371980,-0.02500,102.6250,115,64,0.33871
6371990,0.00000,106.3125,115,64,0.33529
6372000,0.02000,111.1875,115,64,0.32845
6372010,0.04000,112.3125,115,64,0.32479
6372020,0.06000,112.6250,115,64,0.32112
6372030,0.08000,112.1250,115,64,0.31746
6372040,0.10000,110.0000,115,64,0.31062
6372050,0.11000,108.6250,115,64,0.30769
6372060,0.10500,107.1875,115,64,0.30525
6372070,0.07500,105.6875,115,64,0.30183
6372080,0.03000,102.8125,115,64,0.29377
6372090,-0.01500,101.4375,115,64,0.28962
6372100,-0.05000,100.0625,115,64,0.28523
6372110,-0.07500,98.6875,115,64,0.28083
6372120,-0.09000,96.0625,115,64,0.27228
6372130,-0.10000,94.8750,115,64,0.26838
6372140,-0.10500,93.6875,115,64,0.26447
6372150,-0.10500,92.4375,115,64,0.26178
6372160,-0.10500,89.8125,115,64,0.25617
6372170,-0.10500,88.2500,115,64,0.25226
6372180,-0.09500,86.5000,115,64,0.24835
6372190,-0.09500,84.5625,115,64,0.24469
6372200,-0.09500,80.5625,115,64,0.24176
6372210,-0.09500,78.8125,115,64,0.24444
6372220,-0.09500,77.2500,115,64,0.25128
6372230,-0.09000,75.8750,115,64,0.26349
6372240,-0.07500,73.7500,115,64,0.30525
6372250,-0.05500,73.0625,115,64,0.32991
6372260,-0.04500,72.5625,115,64,0.35702
6372270,-0.04000,72.2500,115,64,0.39072
6372280,-0.01500,72.0625,115,64,0.46764
6372290,0.00500,72.1250,115,64,0.50696
6372300,0.01000,72.1875,115,64,0.54481
6372310,-0.01000,72.3125,115,64,0.58046
6372320,-0.05000,72.5000,115,64,0.64103
6372330,-0.09000,72.6250,115,64,0.66496
6372340,-0.13000,72.6250,115,64,0.68449
6372350,-0.16000,72.6250,115,64,0.69744
6372360,-0.17000,72.5000,115,64,0.71355
6372370,-0.17000,72.3750,115,64,0.71844
6372380,-0.16000,72.1875,115,64,0.72088
6372390,-0.15500,72.0000,115,64,0.72112
6372400,-0.18000,71.4375,115,64,0.71502
6372410,-0.24000,71.1250,115,64,0.70891
6372420,-0.12500,70.7500,115,64,0.70110
6372430,0.37500,70.4375,115,64,0.69182
6372440,0.37500,70.4375,115,64,0.69182
6372450,1.41500,69.3750,115,64,0.65812
6372460,0.80500,69.0625,115,64,0.64615
6372470,-0.00500,68.6875,115,64,0.63297
6372480,-0.32000,68.0000,115,64,0.60317
6372490,-0.31500,67.6250,115,64,0.58730
6372500,-0.27500,67.2500,115,64,0.57070
6372510,-0.26000,66.8750,115,64,0.55360
6372520,-0.25000,66.1250,115,64,0.51941
6372530,-0.24000,65.7500,115,64,0.50281
6372540,-0.23000,65.3750,115,64,0.48645
6372550,-0.22000,65.0000,115,64,0.47253
6372560,-0.21500,64.2500,115,64,0.44713
6372570,-0.21000,63.8750,115,64,0.43492
6372580,-0.20000,63.5000,115,64,0.42393
6372590,-0.19500,63.1875,115,64,0.41392
6372600,-0.18000,62.5625,115,64,0.39560
6372610,-0.17000,62.5000,115,64,0.38779
6372620,-0.16000,62.7500,115,64,0.38095
6372630,-0.14500,63.8125,115,64,0.37485
6372640,-0.13000,70.1875,115,64,0.36435
6372650,-0.13000,70.1875,115,64,0.36435
6372660,-0.08500,83.5000,115,64,0.35849
6372670,-0.06000,91.0000,115,64,0.35580
6372680,-0.03500,103.4375,115,64,0.35702
6372690,-0.00500,107.9375,115,64,0.36435
6372700,0.02000,111.5000,115,64,0.36654
6372710,0.04500,114.1875,115,64,0.36630
6372720,0.07000,116.5625,115,64,0.36337
6372730,0.09000,116.3750,115,64,0.36093
6372740,0.11500,115.6250,115,64,0.35824
6372750,0.14000,114.5000,115,64,0.35604
6372760,0.15500,111.8750,115,64,0.35092
6372770,0.15500,110.3750,115,64,0.34701
6372780,0.13000,108.8750,115,64,0.34310
6372790,0.08000,107.3125,115,64,0.33895
6372800,0.03000,104.3750,115,64,0.33089
6372810,-0.01500,102.9375,115,64,0.32698
6372820,-0.04500,101.5625,115,64,0.32332
6372830,-0.06500,100.1875,115,64,0.31966
6372840,-0.06500,100.1875,115,64,0.31966
6372850,-0.08500,96.1250,115,64,0.30989
6372860,-0.08500,94.8125,115,64,0.30720
6372870,-0.09000,93.3750,115,64,0.30354
6372880,-0.09000,90.1250,115,64,0.29597
6372890,-0.09000,88.1875,115,64,0.29280
6372900,-0.08500,86.1875,115,64,0.29035
6372910,-0.09000,84.1250,115,64,0.28962
6372920,-0.09500,80.5000,115,64,0.29744
6372930,-0.09500,79.0000,115,64,0.30720
6372940,-0.09000,77.8125,115,64,0.32210
6372950,-0.07500,76.7500,115,64,0.33944
6372960,-0.05500,75.4375,115,64,0.38706
6372970,-0.04500,75.0000,115,64,0.41905
6372980,-0.04500,75.0000,115,64,0.41905
6372990,-0.02500,74.6250,115,64,0.49304
6373000,0.00000,74.6250,115,64,0.56874
6373010,0.00000,74.6875,115,64,0.60415
6373020,-0.01500,74.7500,115,64,0.63663
6373030,-0.05000,74.8750,115,64,0.66545
6373040,-0.08500,74.9375,115,64,0.71087
6373050,-0.13000,74.8750,115,64,0.72527
6373060,-0.17000,74.8125,115,64,0.73504
6373070,-0.18000,74.7500,115,64,0.74335
6373080,-0.18000,74.3750,115,64,0.75287
6373090,-0.17000,74.1875,115,64,0.75385
6373100,-0.15500,73.8750,115,64,0.75263
6373110,-0.18000,73.5625,115,64,0.74921
6373120,-0.25000,72.8125,115,64,0.73651
6373130,-0.12000,72.4375,115,64,0.72845
6373140,0.39000,72.0625,115,64,0.71941
6373150,1.17000,71.6875,115,64,0.70989
6373160,1.54000,70.8750,115,64,0.68864
6373170,0.88500,70.5000,115,64,0.67619
6373180,0.01000,70.1250,115,64,0.66252
6373190,-0.31500,69.6875,115,64,0.64786
6373200,-0.31500,68.8125,115,64,0.61636
6373210,-0.28000,68.4375,115,64,0.60000
6373220,-0.26000,68.0625,115,64,0.58339
6373230,-0.25000,67.6875,115,64,0.56703
6373240,-0.24000,67.0000,115,64,0.53602
6373250,-0.23000,66.6250,115,64,0.52308
6373260,-0.22000,66.2500,115,64,0.51136
6373270,-0.21500,65.9375,115,64,0.49939
6373280,-0.21000,65.2500,115,64,0.47668
6373290,-0.20000,64.9375,115,64,0.46667
6373300,-0.19000,64.5625,115,64,0.45763
6373310,-0.18000,64.1875,115,64,0.44957
6373320,-0.16500,63.8125,115,64,0.43565
6373330,-0.15500,64.2500,115,64,0.42955
6373340,-0.14000,65.6875,115,64,0.42369
6373350,-0.12500,68.6250,115,64,0.41905
6373360,-0.10500,79.6875,115,64,0.41074
6373370,-0.08000,87.0625,115,64,0.40708
6373380,-0.05500,94.4375,115,64,0.40342
6373390,-0.03000,101.0625,115,64,0.40000
6373400,-0.00500,110.8750,115,64,0.39341
6373410,0.02000,114.1250,115,64,0.39023
6373420,0.04000,116.4375,115,64,0.38730
6373430,0.06500,117.8125,115,64,0.38437
6373440,0.08500,117.8750,115,64,0.37924
6373450,0.10500,117.0000,115,64,0.37705
6373460,0.12500,115.7500,115,64,0.37387
6373470,0.14000,114.3750,115,64,0.37045
6373480,0.14000,111.2500,115,64,0.36313
6373490,0.12000,109.6250,115,64,0.35897
6373500,0.08000,108.0000,115,64,0.35433
6373510,0.03500,106.5000,115,64,0.34969
6373520,0.00000,103.4375,115,64,0.34139
6373530,-0.03000,101.9375,115,64,0.33724
6373540,-0.05000,100.5000,115,64,0.33309
6373550,-0.06500,99.0625,115,64,0.32991
6373560,-0.07000,96.3125,115,64,0.32405
6373570,-0.07500,94.8750,115,64,0.32039
6373580,-0.07500,93.3125,115,64,0.31648
6373590,-0.08000,91.5625,115,64,0.31282
6373600,-0.08000,87.7500,115,64,0.30672
6373610,-0.08000,85.6875,115,64,0.30525
6373620,-0.08000,83.6875,115,64,0.30574
6373630,-0.08500,81.8125,115,64,0.30916
6373640,-0.08500,78.6875,115,64,0.32503
6373650,-0.08500,78.6875,115,64,0.32503
6373660,-0.08500,76.5625,115,64,0.35678
6373670,-0.06000,75.8125,115,64,0.38120
6373680,-0.03500,74.8750,115,64,0.44469
6373690,-0.03500,74.6875,115,64,0.48156
6373700,-0.02500,74.6250,115,64,0.51990
6373710,-0.00500,74.6250,115,64,0.55849
6373720,0.01000,74.8750,115,64,0.62955
6373730,-0.00500,75.0000,115,64,0.66032
6373740,-0.03500,75.1250,115,64,0.68718
6373750,-0.07000,75.1250,115,64,0.70672
6373760,-0.11500,75.0000,115,64,0.73504
6373770,-0.15500,74.8750,115,64,0.74628
6373780,-0.18000,74.6875,115,64,0.75482
6373790,-0.18000,74.5000,115,64,0.75995
6373800,-0.16500,73.9375,115,64,0.76190
6373810,-0.15500,73.6250,115,64,0.75922
6373820,-0.16500,73.1875,115,64,0.75409
6373830,-0.24000,72.8125,115,64,0.74725
6373840,-0.18000,72.0000,115,64,0.72943
6373850,0.25500,71.5625,115,64,0.71966
6373860,1.01000,71.1875,115,64,0.70891
6373870,1.51000,70.8125,115,64,0.69744
6373880,1.06500,70.1250,115,64,0.67204
6373890,0.15000,69.7500,115,64,0.65836
6373900,-0.30000,69.4375,115,64,0.64396
6373910,-0.32000,69.1250,115,64,0.62857
6373920,-0.28000,68.3750,115,64,0.59658
6373930,-0.26500,68.0000,115,64,0.58022
6373940,-0.25000,67.6250,115,64,0.56386
6373950,-0.24000,67.2500,115,64,0.54921
6373960,-0.23000,66.3750,115,64,0.52161
6373970,-0.22500,65.9375,115,64,0.50769
6373980,-0.22000,65.5625,115,64,0.49426
6373990,-0.21000,65.1875,115,64,0.48205
6374000,-0.20000,64.4375,114,64,0.46105
6374010,-0.20000,64.4375,114,64,0.46105
6374020,-0.19000,63.6875,114,64,0.44444
6374030,-0.18000,63.3750,114,64,0.43712
6374040,-0.18000,63.3750,114,64,0.43712
6374050,-0.15500,64.5000,114,64,0.42247
6374060,-0.14000,66.8750,114,64,0.41880
6374070,-0.12500,71.0000,114,64,0.41514
6374080,-0.10500,84.0000,114,64,0.40855
6374090,-0.10500,84.0000,114,64,0.40855
6374100,-0.06000,97.8750,114,64,0.40195
6374110,-0.03500,103.3750,114,64,0.39853
6374120,-0.00500,111.0625,114,64,0.39170
6374130,0.02000,113.5000,114,64,0.38803
6374140,0.04000,115.0000,114,64,0.38413
6374150,0.06000,115.5000,114,64,0.38095
6374160,0.08500,114.3125,114,64,0.37485
6374170,0.10500,113.1250,114,64,0.37118
6374180,0.13000,111.6875,114,64,0.36777
6374190,0.13000,110.1250,114,64,0.36435
6374200,0.13000,110.1250,114,64,0.36435
6374210,0.07500,105.1250,114,64,0.35385
6374220,0.03000,103.5625,114,64,0.34994
6374230,-0.00500,101.9375,114,64,0.34579
6374240,-0.04500,98.8750,114,64,0.33822
6374250,-0.07000,97.4375,114,64,0.33504
6374260,-0.08500,96.0000,114,64,0.33114
6374270,-0.09500,94.6250,114,64,0.32698
6374280,-0.10500,91.6875,114,64,0.31795
6374290,-0.10500,90.0625,114,64,0.31331
6374300,-0.10500,88.3750,114,64,0.30867
6374310,-0.10500,86.4375,114,64,0.30427
6374320,-0.10500,82.3750,114,64,0.29768
6374330,-0.10500,80.5000,114,64,0.29670
6374340,-0.10500,78.8125,114,64,0.29792
6374350,-0.11000,77.3125,114,64,0.30183
6374360,-0.10500,75.1250,114,64,0.32112
6374370,-0.10000,74.3125,114,64,0.33846
6374380,-0.08500,73.6875,114,64,0.36117
6374390,-0.06500,73.2500,114,64,0.38901
6374400,-0.05000,72.8125,114,64,0.45641
6374410,-0.04500,72.7500,114,64,0.49328
6374420,-0.02000,72.8125,114,64,0.53040
6374430,0.00000,72.9375,114,64,0.56630
6374440,0.01000,73.1875,114,64,0.62637
6374450,-0.02000,73.3125,114,64,0.64786
6374460,-0.06500,73.3750,114,64,0.66911
6374470,-0.10500,73.3750,114,64,0.68767
6374480,-0.15000,73.1250,114,64,0.71453
6374490,-0.17500,72.9375,114,64,0.72259
6374500,-0.18000,72.6875,114,64,0.72723
6374510,-0.18000,72.4375,114,64,0.72894
6374520,-0.17000,71.7500,114,64,0.72454
6374530,-0.16500,71.3750,114,64,0.71917
6374540,-0.19000,71.0625,114,64,0.71184
6374550,-0.24000,70.6875,114,64,0.70354
6374560,-0.08500,69.9375,114,64,0.68449
6374570,0.44000,69.5625,114,64,0.67326
6374580,1.17000,69.2500,114,64,0.66105
6374590,1.35500,68.9375,114,64,0.64786
6374600,0.65500,68.2500,114,64,0.61954
6374610,-0.09000,67.9375,114,64,0.60440
6374620,-0.33000,67.5625,114,64,0.58877
6374630,-0.31000,67.1875,114,64,0.57289
6374640,-0.28000,66.4375,114,64,0.54286
6374650,-0.26500,66.0625,114,64,0.52967
6374660,-0.25000,65.6875,114,64,0.51551
6374670,-0.25000,65.3125,114,64,0.50085
6374680,-0.25500,64.4375,114,64,0.47277
6374690,-0.26000,64.0000,114,64,0.45983
6374700,-0.27500,63.5625,114,64,0.44811
6374710,-0.29000,63.1875,114,64,0.43736
6374720,-0.27500,62.4375,114,64,0.41929
6374730,-0.25000,62.1250,114,64,0.40342
6374740,-0.22000,61.8750,114,64,0.38437
6374750,-0.18500,61.6875,114,64,0.37314
6374760,-0.17000,62.1250,114,64,0.35995
6374770,-0.16000,63.2500,114,64,0.35556
6374780,-0.14000,65.5000,114,64,0.35189
6374790,-0.11500,69.3750,114,64,0.34872
6374800,-0.08500,81.6875,114,64,0.34164
6374810,-0.06000,88.6875,114,64,0.33822
6374820,-0.03000,95.0000,114,64,0.33455
6374830,-0.00500,100.3125,114,64,0.33114
6374840,0.01500,107.7500,114,64,0.32503
6374850,0.03000,110.1875,114,64,0.32283
6374860,0.05000,111.6875,114,64,0.31990
6374870,0.07000,112.3125,114,64,0.31624
6374880,0.09500,111.2500,114,64,0.30867
6374890,0.12000,110.0625,114,64,0.30476
6374900,0.14000,108.5625,114,64,0.30061
6374910,0.14000,106.9375,114,64,0.29646
6374920,0.11500,103.5625,114,64,0.28840
6374930,0.06500,101.8750,114,64,0.28474
6374940,0.01500,100.2500,114,64,0.28107
6374950,-0.02500,98.6875,114,64,0.27863
6374960,-0.05500,95.6875,114,64,0.27253
6374970,-0.07500,94.3125,114,64,0.26838
6374980,-0.08500,92.9375,114,64,0.26398
6374990,-0.09500,91.5625,114,64,0.25910
6375000,-0.10000,88.7500,114,63,0.24884
6375010,-0.10000,87.1250,114,63,0.24444
6375020,-0.11000,85.3750,114,63,0.24029
6375030,-0.12000,83.4375,114,63,0.23639
6375040,-0.11500,79.5000,114,63,0.23150
6375050,-0.10500,77.6875,114,63,0.23175
6375060,-0.10000,76.0625,114,63,0.23346
6375070,-0.09500,74.7500,114,63,0.23785
6375080,-0.09000,72.6875,114,63,0.25812
6375090,-0.07500,71.9375,114,63,0.27619
6375100,-0.06000,71.4375,114,63,0.29963
6375110,-0.04500,71.1250,114,63,0.32821
6375120,-0.03500,70.9375,114,63,0.39707
6375130,-0.02000,71.0000,114,63,0.43468
6375140,0.00500,71.0625,114,63,0.47277
6375150,0.02000,71.1250,114,63,0.50501
6375160,0.01000,71.3125,114,63,0.56190
6375170,-0.03000,71.3750,114,63,0.58926
6375180,-0.07500,71.4375,114,63,0.61319
6375190,-0.12000,71.4375,114,63,0.63346
6375200,-0.15500,71.3750,114,63,0.66203
6375210,-0.17000,71.2500,114,63,0.67082
6375220,-0.17500,71.0625,114,63,0.67595
6375230,-0.16500,70.8125,114,63,0.67790
6375240,-0.15500,70.1875,114,63,0.67375
6375250,-0.15500,69.8125,114,63,0.66813
6375260,-0.22000,69.4375,114,63,0.66105
6375270,-0.21000,69.1250,114,63,0.65275
6375280,0.10500,68.5000,114,63,0.63248
6375290,0.76000,68.2500,114,63,0.62051
6375300,1.34500,68.0000,114,63,0.60733
6375310,1.12500,67.7500,114,63,0.59341
6375320,0.28500,67.1875,114,63,0.56386
6375330,-0.24000,66.8750,114,63,0.54847
6375340,-0.32500,66.5000,114,63,0.53431
6375350,-0.28500,66.1250,114,63,0.52063
6375360,-0.26500,65.3750,114,63,0.48913
6375370,-0.25500,65.0000,114,63,0.47302
6375380,-0.24500,64.6250,114,63,0.45690
6375390,-0.23000,64.2500,114,63,0.44176
6375400,-0.22500,63.4375,114,63,0.41392
6375410,-0.21000,63.0000,114,63,0.40147
6375420,-0.21000,62.6875,114,63,0.39023
6375430,-0.20000,62.3125,114,63,0.37998
6375440,-0.19000,61.6875,114,63,0.36337
6375450,-0.17500,61.3750,114,63,0.35751
6375460,-0.16500,61.1250,114,63,0.35189
6375470,-0.15500,61.0625,114,63,0.34628
6375480,-0.14500,62.2500,114,63,0.33651
6375490,-0.13000,64.3125,114,63,0.33260
6375500,-0.11500,68.0000,114,63,0.32918
6375510,-0.09500,73.5000,114,63,0.32625
6375520,-0.07500,87.6875,114,63,0.32137
6375530,-0.05000,94.3125,114,63,0.31893
6375540,-0.02500,99.8125,114,63,0.31697
6375550,0.00000,104.1250,114,63,0.31526
6375560,0.02000,109.9375,114,63,0.31013
6375570,0.05000,111.5625,114,63,0.30720
6375580,0.05000,111.5625,114,63,0.30720
6375590,0.09000,111.9375,114,63,0.30085
6375600,0.11500,109.9375,114,63,0.29426
6375610,0.14000,108.5625,114,63,0.29109
6375620,0.14500,107.1250,114,63,0.28816
6375630,0.13500,105.5625,114,63,0.28547
6375640,0.09500,102.3750,114,63,0.27985
6375650,0.04500,100.8125,114,63,0.27790
6375660,-0.00500,99.3125,114,63,0.27497
6375670,-0.04500,97.8750,114,63,0.27131
6375680,-0.07000,95.1250,114,63,0.26325
6375690,-0.08000,93.7500,114,63,0.25910
6375700,-0.08000,92.5000,114,63,0.25495
6375710,-0.07500,91.1875,114,63,0.25055
6375720,-0.07500,91.1875,114,63,0.25055
6375730,-0.04500,86.6875,114,63,0.23883
6375740,-0.01500,84.8750,114,63,0.23639
6375750,0.02000,82.8750,114,63,0.23468
6375760,0.05500,78.8125,114,63,0.23077
6375770,0.07000,77.0625,114,63,0.23077
6375780,0.05500,75.5625,114,63,0.23370
6375790,0.01500,74.3750,114,63,0.24078
6375800,-0.05500,72.5000,114,63,0.27009
6375810,-0.12500,71.9375,114,63,0.29304
6375820,-0.16000,71.5000,114,63,0.32161
6375830,-0.16000,71.5000,114,63,0.32161
6375840,-0.17000,71.3125,114,63,0.35507
6375850,-0.16000,71.1875,114,63,0.45665
6375860,-0.15500,71.3125,114,63,0.49158
6375870,-0.15000,71.3750,114,63,0.52674
6375880,-0.20500,71.6875,114,63,0.58901
6375890,-0.24000,71.8125,114,63,0.61490
6375900,0.03000,71.9375,114,63,0.63687
6375910,0.68500,72.0625,114,63,0.65470
6375920,1.33000,72.0000,114,63,0.67937
6375930,1.17000,71.8750,114,63,0.68596
6375940,0.32500,71.6250,114,63,0.68816
6375950,-0.23000,71.3750,114,63,0.68742
6375960,-0.33000,70.7500,114,63,0.68132
6375970,-0.29500,70.3750,114,63,0.67546
6375980,-0.26500,70.0000,114,63,0.66789
6375990,-0.25000,69.6250,114,63,0.65910
6376000,-0.24000,68.7500,114,63,0.63810
6376010,-0.23000,68.3125,114,63,0.62613
6376020,-0.22500,67.8750,114,63,0.61343
6376030,-0.21500,67.4375,114,63,0.59976
6376040,-0.21000,66.6250,114,63,0.57070
6376050,-0.19500,66.2500,114,63,0.55702
6376060,-0.18000,65.8750,114,63,0.54139
6376070,-0.17000,65.5625,114,63,0.52503
6376080,-0.16500,64.9375,114,63,0.49182
6376090,-0.15500,64.8750,114,63,0.47546
6376100,-0.14000,65.0000,114,63,0.45983
6376110,-0.12500,65.5000,114,63,0.44469
6376120,-0.11000,69.1250,114,63,0.41734
6376130,-0.09000,72.9375,114,63,0.40513
6376140,-0.07500,78.1250,114,63,0.39536
6376150,-0.04500,84.0625,114,63,0.38706
6376160,-0.02500,95.5625,114,63,0.37045
6376170,0.00000,100.1250,114,63,0.36288
6376180,0.02500,103.7500,114,63,0.35653
6376190,0.04500,106.5000,114,63,0.35092
6376200,0.06500,109.5000,114,63,0.34188
6376210,0.09500,109.8125,114,63,0.33822
6376220,0.11500,109.5000,114,63,0.33504
6376230,0.13000,108.6875,114,63,0.33236
6376240,0.12000,106.1875,114,63,0.32869
6376250,0.09000,104.7500,114,63,0.32723
6376260,0.04000,103.1250,114,63,0.32503
6376270,-0.00500,101.5000,114,63,0.32234
6376280,-0.04000,98.1875,114,63,0.31648
6376290,-0.06500,96.5625,114,63,0.31331
6376300,-0.07500,95.0625,114,63,0.31038
6376310,-0.08000,93.6250,114,63,0.30745
6376320,-0.08500,90.8750,114,63,0.30134
6376330,-0.08500,89.5000,114,63,0.29792
6376340,-0.08500,88.0000,114,63,0.29524
6376350,-0.09000,86.4375,114,63,0.29280
6376360,-0.09500,82.8125,114,63,0.28571
6376370,-0.09000,80.8125,114,63,0.28205
6376380,-0.09000,78.9375,114,63,0.27863
6376390,-0.09000,77.1250,114,63,0.27570
6376400,-0.08500,74.1875,114,63,0.27546
6376410,-0.09000,73.0625,114,63,0.27985
6376420,-0.09000,72.1250,114,63,0.28816
6376430,-0.09000,71.4375,114,63,0.30110
6376440,-0.09500,70.6250,114,63,0.33797
6376450,-0.09500,70.5000,114,63,0.35922
6376460,-0.09500,70.5000,114,63,0.38608
6376470,-0.09000,70.5000,114,63,0.41685
6376480,-0.07500,70.7500,114,63,0.48303
6376490,-0.05000,70.9375,114,63,0.51502
6376500,-0.03500,71.0625,114,63,0.54530
6376510,-0.02000,71.1875,114,63,0.57265
6376520,0.00000,71.3750,114,63,0.61709
6376530,0.03000,71.3750,114,63,0.63370
6376540,0.03000,71.3125,114,63,0.64493
6376550,0.01000,71.1250,114,63,0.65226
6376560,-0.03000,70.7500,114,63,0.66154
6376570,-0.07000,70.4375,114,63,0.66252
6376580,-0.11500,70.1875,114,63,0.66105
6376590,-0.14500,69.8750,114,63,0.65714
6376600,-0.15500,69.2500,114,63,0.64274
6376610,-0.15000,68.8750,114,63,0.63272
6376620,-0.14000,68.5000,114,63,0.62125
6376630,-0.14000,68.5000,114,63,0.62125
6376640,-0.17500,67.3750,114,63,0.58339
6376650,-0.18500,67.0625,114,63,0.57118
6376660,0.06500,66.8125,114,63,0.55775
6376670,0.66500,66.5000,114,63,0.54335
6376680,1.32500,66.0625,114,63,0.51184
6376690,1.28500,65.8125,114,63,0.49524
6376700,0.46000,65.5625,114,63,0.47839
6376710,-0.18000,65.3125,114,63,0.46203
6376720,-0.32500,64.6875,114,63,0.43053
6376730,-0.29000,64.3750,114,63,0.41661
6376740,-0.26000,64.0000,114,63,0.40513
6376750,-0.24500,63.6875,114,63,0.39560
6376760,-0.23500,63.0000,114,63,0.37631
6376770,-0.22500,62.6250,114,63,0.36703
6376780,-0.22000,62.3125,114,63,0.36630
6376790,-0.21000,62.0000,114,63,0.37021
6376800,-0.20000,61.3750,114,63,0.36557
6376810,-0.19000,61.1250,114,63,0.36190
6376820,-0.18500,60.8750,114,63,0.35824
6376830,-0.18000,60.6250,114,63,0.35458
6376840,-0.17000,60.3750,114,63,0.34896
6376850,-0.16000,60.8750,114,63,0.34701
6376860,-0.15000,62.3750,114,63,0.34457
6376870,-0.13500,65.5625,114,63,0.34212
6376880,-0.12000,78.1875,114,63,0.33748
6376890,-0.10000,86.5000,114,63,0.33455
6376900,-0.08000,94.5625,114,63,0.33162
6376910,-0.06000,101.5000,114,63,0.32869
6376920,-0.03500,111.3125,114,63,0.32259
6376930,-0.00500,114.5625,114,63,0.31941
6376940,0.01500,116.7500,114,63,0.31697
6376950,0.04000,117.8750,114,63,0.31502
6376960,0.06000,117.5000,114,63,0.30916
6376970,0.09000,116.4375,114,63,0.30574
6376980,0.12000,115.1250,114,63,0.30208
6376990,0.14500,113.6250,114,63,0.29817
6377000,0.17500,110.3750,115,63,0.29109
6377010,0.18000,108.7500,115,63,0.28767
6377020,0.15500,107.1875,115,63,0.28400
6377030,0.11500,105.6250,115,63,0.28034
6377040,0.06000,102.5625,115,63,0.27619
6377050,0.01500,101.1250,115,63,0.27326
6377060,-0.02000,99.6875,115,63,0.27009
6377070,-0.04500,98.2500,115,63,0.26691
6377080,-0.06500,95.3125,115,63,0.26007
6377090,-0.07500,93.7500,115,63,0.25641
6377100,-0.08500,92.1250,115,63,0.25275
6377110,-0.08500,90.3750,115,63,0.24884
6377120,-0.09000,86.4375,115,63,0.24225
6377130,-0.09000,84.3750,115,63,0.24054
6377140,-0.09500,82.4375,115,63,0.24103
6377150,-0.09500,80.7500,115,63,0.24420
6377160,-0.10000,77.9375,115,63,0.26154
6377170,-0.10500,76.8750,115,63,0.27863
6377180,-0.10000,76.0625,115,63,0.30208
6377190,-0.09500,75.5000,115,63,0.33284
6377200,-0.07500,74.8125,115,63,0.41294
6377210,-0.05500,74.6875,115,63,0.45934
6377220,-0.04500,74.6250,115,63,0.50745
6377230,-0.04000,74.6875,115,63,0.55531
6377240,-0.01500,74.8125,115,63,0.63053
6377250,0.00000,75.0000,115,63,0.66642
6377260,-0.00500,75.0625,115,63,0.70012
6377270,-0.03500,75.1250,115,63,0.72991
6377280,-0.07000,75.0625,115,63,0.77607
6377290,-0.11000,74.9375,115,63,0.79219
6377300,-0.16000,74.7500,115,63,0.80391
6377310,-0.18500,74.5625,115,63,0.81123
6377320,-0.19000,74.1250,115,63,0.81538
6377330,-0.18000,73.8750,115,63,0.81343
6377340,-0.18000,73.8750,115,63,0.81343
6377350,-0.17500,73.1875,115,63,0.80171
6377360,-0.24000,72.5000,115,63,0.78339
6377370,-0.23500,72.1875,115,63,0.77216
6377380,0.13000,71.8125,115,63,0.75995
6377390,0.85000,71.5000,115,63,0.74652
6377400,1.46000,70.8125,115,63,0.71673
6377410,1.19000,70.4375,115,63,0.70012
6377420,0.27000,70.0625,115,63,0.68254
6377430,-0.29000,69.6875,115,63,0.66422
6377440,-0.35500,68.8750,115,63,0.63077
6377450,-0.30500,68.5000,115,63,0.61294
6377460,-0.28000,68.1250,115,63,0.59463
6377470,-0.27000,67.7500,115,63,0.57680
6377480,-0.25500,67.0625,115,63,0.54286
6377490,-0.24500,66.7500,115,63,0.52698
6377500,-0.24000,66.3750,115,63,0.51233
6377510,-0.23000,66.0000,115,63,0.49866
6377520,-0.22000,65.3125,115,63,0.47497
6377530,-0.21000,65.0000,115,63,0.46496
6377540,-0.20000,64.6875,115,63,0.45739
6377550,-0.19000,64.3750,115,63,0.45104
6377560,-0.18000,64.0625,115,63,0.43932
6377570,-0.17000,64.3125,115,63,0.43419
6377580,-0.15500,65.2500,115,63,0.42930
6377590,-0.14500,67.3125,115,63,0.42442
6377600,-0.12500,76.2500,115,63,0.41538
6377610,-0.10500,82.9375,115,63,0.41123
6377620,-0.08500,90.0625,115,63,0.40733
6377630,-0.06000,96.8125,115,63,0.40415
6377640,-0.03500,107.3125,115,63,0.39927
6377650,-0.01000,110.8750,115,63,0.39634
6377660,0.01000,113.4375,115,63,0.39292
6377670,0.03000,115.1250,115,63,0.38926
6377680,0.05000,116.0625,115,63,0.38071
6377690,0.07000,115.5000,115,63,0.37631
6377700,0.09000,114.5000,115,63,0.37167
6377710,0.11000,113.1875,115,63,0.36703
6377720,0.11500,109.9375,115,63,0.35775
6377730,0.10000,108.3125,115,63,0.35287
6377740,0.06500,106.6250,115,63,0.34921
6377750,0.02500,105.1250,115,63,0.34628
6377760,-0.01500,102.2500,115,63,0.33919
6377770,-0.04500,100.8750,115,63,0.33553
6377780,-0.06500,99.5000,115,63,0.33162
6377790,-0.08000,98.1250,115,63,0.32772
6377800,-0.09500,95.3125,115,63,0.31941
6377810,-0.10500,93.8750,115,63,0.31551
6377820,-0.11000,92.2500,115,63,0.31160
6377830,-0.11500,90.5000,115,63,0.30769
6377840,-0.11500,90.5000,115,63,0.30769
6377850,-0.12000,84.3125,115,63,0.30012
6377860,-0.12000,82.2500,115,63,0.29817
6377870,-0.12000,80.4375,115,63,0.29817
6377880,-0.12500,77.6875,115,63,0.30867
6377890,-0.12000,76.7500,115,63,0.32112
6377900,-0.11500,75.9375,115,63,0.33944
6377910,-0.10000,75.3125,115,63,0.36361
6377920,-0.07500,74.3750,115,63,0.42784
6377930,-0.05000,74.1250,115,63,0.46569
6377940,-0.04500,73.9375,115,63,0.50061
6377950,-0.02500,73.8750,115,63,0.53407
6377960,0.01000,74.0000,115,63,0.60952
6377970,0.03000,74.1250,115,63,0.64591
6377980,0.02000,74.1875,115,63,0.67888
6377990,-0.00500,74.2500,115,63,0.70745
6378000,-0.04000,74.2500,114,63,0.75067
6378010,-0.08000,74.1875,114,63,0.76532
6378020,-0.11500,74.1250,114,63,0.77582
6378030,-0.12500,73.9375,114,63,0.78242
6378040,-0.12000,73.5000,114,63,0.78413
6378050,-0.11000,73.1875,114,63,0.78242
6378060,-0.10000,72.8750,114,63,0.77973
6378070,-0.12500,72.5000,114,63,0.77582
6378080,-0.17000,71.6250,114,63,0.76435
6378090,-0.01500,71.1250,114,63,0.75629
6378100,0.55500,70.6250,114,63,0.74603
6378110,1.32500,70.0625,114,63,0.73358
6378120,1.52000,69.1875,114,63,0.70256
6378130,0.79000,68.8125,114,63,0.68425
6378140,-0.01500,68.5000,114,63,0.66667
6378150,-0.27000,68.1250,114,63,0.64957
6378160,-0.24500,67.4375,114,63,0.61221
6378170,-0.21000,67.0625,114,63,0.59414
6378180,-0.20000,66.6875,114,63,0.57680
6378190,-0.19000,66.3125,114,63,0.56020
6378200,-0.18000,65.5000,114,63,0.52991
6378210,-0.17000,65.1250,114,63,0.51600
6378220,-0.16000,64.6250,114,63,0.50305
6378230,-0.15500,64.1875,114,63,0.49133
6378240,-0.15000,63.3125,114,63,0.47424
6378250,-0.14000,62.8750,114,63,0.46642
6378260,-0.13500,62.5000,114,63,0.45910
6378270,-0.12500,62.1875,114,63,0.45201
6378280,-0.11500,62.0000,114,63,0.43810
6378290,-0.10500,62.4375,114,63,0.43175
6378300,-0.09500,63.6875,114,63,0.42564
6378310,-0.07500,66.3125,114,63,0.42027
6378320,-0.05500,76.9375,114,63,0.41148
6378330,-0.03500,84.1875,114,63,0.40806
6378340,-0.01500,91.5000,114,63,0.40586
6378350,0.01000,98.0000,114,63,0.40391
6378360,0.04000,107.5000,114,63,0.39805
6378370,0.06000,110.5625,114,63,0.39414
6378380,0.08500,112.6875,114,63,0.38999
6378390,0.11000,113.8750,114,63,0.38535
6378400,0.13000,113.6875,114,63,0.37460
6378410,0.16000,112.6250,114,63,0.36874
6378420,0.18500,111.1875,114,63,0.36288
6378430,0.21000,109.5000,114,63,0.35702
6378440,0.21000,109.5000,114,63,0.35702
6378450,0.18000,104.1875,114,63,0.34286
6378460,0.13500,102.4375,114,63,0.33797
6378470,0.09000,100.6875,114,63,0.33284
6378480,0.04000,97.3750,114,63,0.32234
6378490,0.01000,95.8125,114,63,0.31697
6378500,-0.01500,94.2500,114,63,0.31184
6378510,-0.03000,92.6875,114,63,0.30672
6378520,-0.04500,89.5000,114,63,0.29621
6378530,-0.05000,87.8125,114,63,0.29133
6378540,-0.05000,87.8125,114,63,0.29133
6378550,-0.06500,84.0625,114,63,0.28474
6378560,-0.06500,79.9375,114,63,0.27595
6378570,-0.06500,77.9375,114,63,0.27179
6378580,-0.07500,76.2500,114,63,0.26911
6378590,-0.07500,74.8125,114,63,0.26886
6378600,-0.08000,72.7500,114,63,0.28034
6378610,-0.08000,72.0625,114,63,0.29402
6378620,-0.07500,71.6250,114,63,0.31429
6378630,-0.06000,71.3750,114,63,0.34090
6378640,-0.04000,71.2500,114,63,0.39878
6378650,-0.02500,71.3750,114,63,0.43516
6378660,-0.02500,71.5000,114,63,0.47521
6378670,0.00000,71.6875,114,63,0.51624
6378680,0.02000,72.1250,114,63,0.59438
6378690,0.03000,72.2500,114,63,0.62882
6378700,0.00000,72.3750,114,63,0.65958
6378710,-0.03500,72.4375,114,63,0.68596
6378720,-0.08000,72.2500,114,63,0.72527
6378730,-0.12500,72.0625,114,63,0.73773
6378740,-0.15500,71.8125,114,63,0.74457
6378750,-0.16500,71.5000,114,63,0.74750
6378760,-0.16500,70.8125,114,63,0.74725
6378770,-0.16000,70.3750,114,63,0.74359
6378780,-0.15500,69.9375,114,63,0.73748
6378790,-0.18000,69.5000,114,63,0.72943
6378800,-0.22500,68.6250,114,63,0.70818
6378810,-0.07000,68.2500,114,63,0.69499
6378820,0.46500,67.8750,114,63,0.68010
6378830,1.19000,67.5625,114,63,0.65299
6378840,1.19000,67.5625,114,63,0.65299
6378850,0.61000,66.5625,114,63,0.57949
6378860,-0.09500,66.2500,114,63,0.56166
6378870,-0.31500,65.9375,114,63,0.54457
6378880,-0.31500,65.9375,114,63,0.54457
6378890,-0.25500,64.8750,114,63,0.49499
6378900,-0.25500,64.8750,114,63,0.49499
6378910,-0.23500,64.1875,114,63,0.46398
6378920,-0.22500,63.4375,114,63,0.43639
6378930,-0.21500,63.0625,114,63,0.42564
6378940,-0.21000,62.6875,114,63,0.41636
6378950,-0.20000,62.3125,114,63,0.40684
6378960,-0.19000,61.6250,114,63,0.38901
6378970,-0.18000,61.2500,114,63,0.38120
6378980,-0.17000,60.9375,114,63,0.37411
6378990,-0.15500,60.6875,114,63,0.36777
6379000,-0.14500,60.3750,114,63,0.35824
6379010,-0.13000,60.5625,114,63,0.35507
6379020,-0.11500,61.1875,114,63,0.35238
6379030,-0.09500,62.7500,114,63,0.35018
6379040,-0.07500,70.0625,114,63,0.34750
6379050,-0.05500,76.1250,114,63,0.34603
6379060,-0.03500,82.9375,114,63,0.34383
6379070,-0.00500,89.6250,114,63,0.34115
6379080,0.02000,100.0625,114,63,0.33529
6379090,0.04500,103.5625,114,63,0.33187
6379100,0.07000,106.1875,114,63,0.32845
6379110,0.09500,107.8750,114,63,0.32503
6379120,0.12000,108.6875,114,63,0.31770
6379130,0.15000,108.0000,114,63,0.31502
6379140,0.18000,106.8125,114,63,0.31306
6379150,0.20500,105.3750,114,63,0.31062
6379160,0.19500,101.9375,114,63,0.30452
6379170,0.16000,100.1875,114,63,0.30134
6379180,0.11000,98.5000,114,63,0.29792
6379190,0.06000,96.7500,114,63,0.29426
6379200,0.02000,93.4375,114,63,0.28645
6379210,-0.00500,91.8750,114,63,0.28254
6379220,-0.02000,90.3125,114,63,0.27863
6379230,-0.02500,88.7500,114,63,0.27497
6379240,-0.03000,85.7500,114,63,0.27106
6379250,-0.03000,84.1250,114,63,0.26813
6379260,-0.02500,82.4375,114,63,0.26471
6379270,-0.02500,80.5625,114,63,0.26105
6379280,-0.02500,76.8750,114,63,0.25397
6379290,-0.02500,75.1250,114,63,0.25079
6379300,-0.02500,73.6250,114,63,0.24835
6379310,-0.02500,72.4375,114,63,0.24762
6379320,-0.02500,70.5000,114,63,0.25324
6379330,-0.02000,69.8750,114,63,0.26032
6379340,-0.01250,69.4375,114,63,0.27057
6379350,0.00000,69.1875,114,63,0.28596
6379360,0.02000,69.0625,114,63,0.33187
6379370,0.03000,69.1875,114,63,0.36142
6379380,0.04500,69.3125,114,63,0.39390
6379390,0.08000,69.4375,114,63,0.42784
6379400,0.10500,69.8125,114,63,0.49524
6379410,0.10000,70.0000,114,63,0.52625
6379420,0.06500,70.1250,114,63,0.55458
6379430,0.06500,70.1250,114,63,0.55458
6379440,0.02000,70.1250,114,63,0.57998
6379450,-0.05500,69.9375,114,63,0.62711
6379460,-0.07500,69.8125,114,63,0.63785
6379470,-0.08000,69.6250,114,63,0.64542
6379480,-0.07000,69.1250,114,63,0.65128
6379490,-0.05500,68.8125,114,63,0.65006
6379500,-0.05000,68.5000,114,63,0.64640
6379510,-0.09500,68.1875,114,63,0.64054
6379520,-0.10500,67.5625,114,63,0.62344
6379530,0.14000,67.2500,114,63,0.61368
6379540,0.73500,66.9375,114,63,0.60342
6379550,1.39500,66.6250,114,63,0.59145
6379560,1.31500,66.0625,114,63,0.56361
6379570,1.31500,66.0625,114,63,0.56361
6379580,-0.11000,65.4375,114,63,0.53358
6379590,-0.24000,65.1250,114,63,0.51819
6379600,-0.21000,64.5000,114,63,0.48742
6379610,-0.18000,64.1250,114,63,0.47253
6379620,-0.17000,63.8125,114,63,0.45836
6379630,-0.16000,63.4375,114,63,0.44493
6379640,-0.15000,62.6875,114,63,0.42320
6379650,-0.14500,62.3125,114,63,0.41245
6379660,-0.14500,61.9375,114,63,0.40195
6379670,-0.14000,61.5625,114,63,0.39194
6379680,-0.12500,61.0000,114,63,0.37411
6379690,-0.12500,60.6875,114,63,0.36630
6379700,-0.11500,60.3750,114,63,0.35971
6379710,-0.10500,60.1875,114,63,0.35433
6379720,-0.09500,60.1875,114,63,0.34579
6379730,-0.08500,60.7500,114,63,0.34310
6379740,-0.07000,62.0625,114,63,0.34090
6379750,-0.05500,64.6250,114,63,0.33871
6379760,-0.04000,74.7500,114,63,0.33480
6379770,-0.02500,81.6250,114,63,0.33284
6379780,-0.00500,88.5000,114,63,0.33089
6379790,0.02000,94.5625,114,63,0.32845
6379800,0.02000,94.5625,114,63,0.32845
6379810,0.06500,105.8125,114,63,0.32137
6379820,0.09000,107.6875,114,63,0.31868
6379830,0.11500,108.7500,114,63,0.31624
6379840,0.14000,108.3125,114,63,0.31380
6379850,0.16500,107.2500,114,63,0.31160
6379860,0.19000,105.8125,114,63,0.30867
6379870,0.20500,104.2500,114,63,0.30574
6379880,0.18500,100.9375,114,63,0.29939
6379890,0.14000,99.3125,114,63,0.29621
6379900,0.08500,97.6250,114,63,0.29328
6379910,0.03000,96.0000,114,63,0.29035
6379920,0.03000,96.0000,114,63,0.29035
6379930,-0.04000,91.3750,114,63,0.28181
6379940,-0.06000,89.9375,114,63,0.27985
6379950,-0.07000,88.5625,114,63,0.27692
6379960,-0.07500,85.5625,114,63,0.27057
6379970,-0.08000,84.0000,114,63,0.26740
6379980,-0.08500,82.3125,114,63,0.26398
6379990,-0.08500,80.5000,114,63,0.26007
6380000,-0.08500,76.7500,114,63,0.25324
6380010,-0.08500,76.7500,114,63,0.25324
6380020,-0.08500,73.7500,114,63,0.25031
6380030,-0.08500,72.5625,114,63,0.25153
6380040,-0.09000,70.8125,114,63,0.26129
6380050,-0.08500,70.1875,114,63,0.27155
6380060,-0.07000,69.7500,114,63,0.28669
6380070,-0.05500,69.5000,114,63,0.30696
6380080,-0.04500,69.4375,114,63,0.36117
6380090,-0.03500,69.4375,114,63,0.39365
6380100,-0.01000,69.5625,114,63,0.42808
6380110,0.02000,69.6875,114,63,0.46325
6380120,0.02000,70.0625,114,63,0.53138
6380130,-0.00500,70.2500,114,63,0.55849
6380140,-0.04500,70.3750,114,63,0.58071
6380150,-0.09500,70.4375,114,63,0.60269
6380160,-0.13500,70.3750,114,63,0.63907
6380170,-0.16500,70.2500,114,63,0.65226
6380180,-0.17500,70.1250,114,63,0.66178
6380190,-0.17000,69.8750,114,63,0.66789
6380200,-0.16000,69.3125,114,63,0.67106
6380210,-0.15500,69.0000,114,63,0.66862
6380220,-0.17000,68.6875,114,63,0.66422
6380230,-0.22500,68.3750,114,63,0.65788
6380240,-0.10500,67.7500,114,63,0.64200
6380250,0.39000,67.5000,114,63,0.63199
6380260,1.11000,67.2500,114,63,0.62100
6380270,1.34500,67.0000,114,63,0.60879
6380280,0.71000,66.4375,114,63,0.58169
6380290,-0.04500,66.1250,114,63,0.56728
6380300,-0.31500,65.8125,114,63,0.55214
6380310,-0.30500,65.4375,114,63,0.53675
6380320,-0.27000,64.7500,114,63,0.50647
6380330,-0.26000,64.3750,114,63,0.49353
6380340,-0.24500,64.0000,114,63,0.48156
6380350,-0.24000,63.5625,114,63,0.46886
6380360,-0.23000,62.8125,114,63,0.44347
6380370,-0.22500,62.3750,114,63,0.43126
6380380,-0.22000,62.0000,114,63,0.41978
6380390,-0.21000,61.6250,114,63,0.40928
6380400,-0.19500,60.9375,114,63,0.39194
6380410,-0.18500,60.6250,114,63,0.38462
6380420,-0.17500,60.3750,114,63,0.37851
6380430,-0.16500,60.2500,114,63,0.37338
6380440,-0.15500,60.6875,114,63,0.36654
6380450,-0.14500,61.8125,114,63,0.36361
6380460,-0.14500,61.8125,114,63,0.36361
6380470,-0.11500,68.0625,114,63,0.35849
6380480,-0.09500,80.3750,114,63,0.35385
6380490,-0.07500,87.1875,114,63,0.35189
6380500,-0.05500,93.3125,114,63,0.34994
6380510,-0.03500,98.3125,114,63,0.34799
6380520,-0.01000,105.1875,114,63,0.34383
6380530,0.01000,107.3750,114,63,0.34237
6380540,0.03000,108.7500,114,63,0.34066
6380550,0.05500,109.3125,114,63,0.33846
6380560,0.08000,108.1875,114,63,0.33333
6380570,0.11000,106.8750,114,63,0.33065
6380580,0.13000,105.3125,114,63,0.32796
6380590,0.12000,103.6250,114,63,0.32552
6380600,0.09000,100.2500,114,63,0.31966
6380610,0.03500,98.5625,114,63,0.31624
6380620,-0.01500,97.0000,114,63,0.31282
6380630,-0.06500,95.5000,114,63,0.31038
6380640,-0.09500,92.6875,114,63,0.30501
6380650,-0.11500,91.3750,114,63,0.30110
6380660,-0.13000,90.0000,114,63,0.29695
6380670,-0.12500,88.6875,114,63,0.29304
6380680,0.10000,86.0000,114,63,0.28498
6380690,0.35000,84.5000,114,63,0.28107
6380700,0.30000,82.9375,114,63,0.27717
6380710,0.16500,81.1875,114,63,0.27375
6380720,0.08000,77.5625,114,63,0.26813
6380730,0.01500,75.9375,114,63,0.26740
6380740,-0.02500,74.4375,114,63,0.26862
6380750,-0.04500,73.2500,114,63,0.27131
6380760,-0.06000,71.3750,114,63,0.28571
6380770,-0.05000,70.8125,114,63,0.29963
6380780,-0.02000,70.4375,114,63,0.31868
6380790,-0.01000,70.1875,114,63,0.34286
6380800,-0.02000,70.0625,114,63,0.40342
6380810,-0.06500,70.1250,114,63,0.43761
6380820,-0.13500,70.2500,114,63,0.47277
6380830,-0.13500,70.2500,114,63,0.47277
6380840,-0.27000,70.6875,114,63,0.55922
6380850,-0.30000,70.7500,114,63,0.58730
6380860,-0.31000,70.8125,114,63,0.61294
6380870,-0.30500,70.8125,114,63,0.63516
6380880,-0.29500,70.6875,114,63,0.71551
6380890,-0.28500,70.5625,114,63,0.74090
6380900,-0.28500,70.3750,114,63,0.75556
6380910,-0.34500,70.1250,114,63,0.76337
6380920,-0.30000,69.6250,114,63,0.76508
6380930,0.13000,69.3750,114,63,0.76142
6380940,0.87000,69.1875,114,63,0.75531
6380950,1.31000,68.9375,114,63,0.74725
6380960,1.31000,68.9375,114,63,0.74725
6380970,-0.00500,68.0625,114,63,0.71526
6380980,-0.39500,67.7500,114,63,0.70208
6380990,-0.41500,67.3750,114,63,0.68791
6381000,-0.36000,66.5625,114,63,0.65714
6381010,-0.33500,66.1875,114,63,0.64054
6381020,-0.31500,65.7500,114,63,0.62344
6381030,-0.30000,65.3750,114,63,0.60757
6381040,-0.29000,64.5625,114,63,0.57607
6381050,-0.27500,64.1875,114,63,0.55922
6381060,-0.26500,63.8750,114,63,0.54237
6381070,-0.25500,63.5625,114,63,0.52601
6381080,-0.24000,62.9375,114,63,0.49451
6381090,-0.23000,62.6875,114,63,0.48034
6381100,-0.22000,62.4375,114,63,0.46716
6381110,-0.20500,62.3125,114,63,0.45495
6381120,-0.19000,62.6250,114,63,0.43321
6381130,-0.17000,63.5625,114,63,0.42515
6381140,-0.15500,65.5625,114,63,0.41856
6381150,-0.15500,65.5625,114,63,0.41856
6381160,-0.12000,80.5625,114,63,0.40122
6381170,-0.10000,87.3750,114,63,0.39707
6381180,-0.07500,93.6875,114,63,0.39365
6381190,-0.04500,99.0000,114,63,0.39023
6381200,-0.02000,106.3750,114,63,0.38388
6381210,0.00500,108.6875,114,63,0.38071
6381220,0.03000,110.1250,114,63,0.37753
6381230,0.05000,110.7500,114,63,0.37534
6381240,0.08000,109.9375,114,63,0.37021
6381250,0.11000,108.7500,114,63,0.36679
6381260,0.13500,107.3125,114,63,0.36313
6381270,0.13500,105.8125,114,63,0.35946
6381280,0.10500,102.4375,114,63,0.35140
6381290,0.05500,100.7500,114,63,0.34701
6381300,0.00500,99.1250,114,63,0.34261
6381310,-0.04000,97.5000,114,63,0.33797
6381320,-0.07000,94.4375,114,63,0.32943
6381330,-0.09000,93.0000,114,63,0.32674
6381340,-0.10000,91.5625,114,63,0.32454
6381350,-0.10500,90.1250,114,63,0.32137
6381360,-0.11000,87.3125,114,63,0.31306
6381370,-0.11000,85.8750,114,63,0.30818
6381380,-0.11000,84.2500,114,63,0.30354
6381390,-0.11000,82.4375,114,63,0.29915
6381400,-0.11000,78.7500,114,63,0.29158
6381410,-0.11500,77.0000,114,63,0.28913
6381420,-0.11500,75.5625,114,63,0.28864
6381430,-0.11500,74.3125,114,63,0.29109
6381440,-0.11500,74.3125,114,63,0.29109
6381450,-0.11500,72.0625,114,63,0.31990
6381460,-0.12000,71.6875,114,63,0.34017
6381470,-0.11500,71.4375,114,63,0.36654
6381480,-0.10000,71.4375,114,63,0.43468
6381490,-0.07500,71.5625,114,63,0.47399
6381500,-0.06000,71.7500,114,63,0.51477
6381510,-0.06000,72.0000,114,63,0.55556
6381520,-0.04000,72.4375,114,63,0.63126
6381530,-0.01000,72.5625,114,63,0.66032
6381540,-0.00500,72.6875,114,63,0.68400
6381550,-0.03000,72.6875,114,63,0.70720
6381560,-0.07000,72.5625,114,63,0.74530
6381570,-0.11500,72.4375,114,63,0.75849
6381580,-0.15500,72.3125,114,63,0.76801
6381590,-0.18000,72.0625,114,63,0.77363
6381600,-0.18500,71.4375,114,63,0.77509
6381610,-0.18000,71.0000,114,63,0.77143
6381620,-0.17000,70.6250,114,63,0.76532
6381630,-0.17000,70.1875,114,63,0.75751
6381640,-0.21500,69.4375,114,63,0.73748
6381650,-0.21000,69.0625,114,63,0.72479
6381660,0.08000,68.6875,114,63,0.71087
6381670,0.76500,68.3125,114,63,0.69597
6381680,1.44500,67.6875,114,63,0.66398
6381690,1.23000,67.3125,114,63,0.64737
6381700,0.32500,67.0000,114,63,0.63028
6381710,-0.27000,66.6875,114,63,0.61270
6381720,-0.37000,66.0625,114,63,0.57753
6381730,-0.32000,65.7500,114,63,0.56190
6381740,-0.29000,65.4375,114,63,0.54750
6381750,-0.28000,65.0625,114,63,0.53236
6381760,-0.27000,64.5000,114,63,0.50330
6381770,-0.26000,64.1875,114,63,0.49011
6381780,-0.25500,63.8750,114,63,0.47814
6381790,-0.25000,63.5625,114,63,0.46691
6381800,-0.24500,62.9375,114,63,0.44786
6381810,-0.24000,62.6250,114,63,0.43980
6381820,-0.23000,62.3125,114,63,0.43297
6381830,-0.22500,62.0000,114,63,0.42784
6381840,-0.21500,61.7500,114,63,0.42076
6381850,-0.21500,61.7500,114,63,0.42076
6381860,-0.18500,63.1875,114,63,0.41490
6381870,-0.17000,65.6875,114,63,0.41245
6381880,-0.15500,75.9375,114,63,0.40659
6381890,-0.13500,83.1875,114,63,0.40366
6381900,-0.11500,90.6875,114,63,0.40073
6381910,-0.09000,97.5000,114,63,0.39780
6381920,-0.06000,107.4375,114,63,0.39267
6381930,-0.06000,107.4375,114,63,0.39267
6381940,-0.00500,112.8125,114,63,0.38877
6381950,0.02000,114.0000,114,63,0.38559
6381960,0.04500,113.8125,114,63,0.37802
6381970,0.04500,113.8125,114,63,0.37802
6381980,0.10000,111.3125,114,63,0.37021
6381990,0.12500,109.6250,114,63,0.36654
6382000,0.14500,106.1250,113,63,0.35849
6382010,0.14000,104.3750,113,63,0.35409
6382020,0.11000,102.6875,113,63,0.34969
6382030,0.06500,101.0000,113,63,0.34628
6382040,0.01500,97.8750,113,63,0.33968
6382050,-0.02500,96.3750,113,63,0.33578
6382060,-0.05500,94.9375,113,63,0.33187
6382070,-0.08000,93.5000,113,63,0.32796
6382080,-0.09500,90.6250,113,63,0.32015
6382090,-0.10500,89.1250,113,63,0.31600
6382100,-0.11000,87.5000,113,63,0.31184
6382110,-0.11500,85.7500,113,63,0.30794
6382120,-0.11500,82.1250,113,63,0.30061
6382130,-0.11500,80.3750,113,63,0.29866
6382140,-0.11500,78.6875,113,63,0.29817
6382150,-0.12000,77.1875,113,63,0.29841
6382160,-0.12500,75.0000,113,63,0.30745
6382170,-0.12500,74.2500,113,63,0.31893
6382180,-0.12500,73.6875,113,63,0.33651
6382190,-0.11500,73.3125,113,63,0.36068
6382200,-0.09500,72.8750,113,63,0.42784
6382210,-0.07500,72.8750,113,63,0.46911
6382220,-0.07000,72.8750,113,63,0.51306
6382230,-0.06500,73.0000,113,63,0.55189
6382240,-0.03500,73.3750,113,63,0.62613
6382250,-0.01500,73.5625,113,63,0.66447
6382260,-0.02500,73.6250,113,63,0.69988
6382270,-0.05500,73.6875,113,63,0.73162
6382280,-0.09500,73.6250,113,63,0.78120
6382290,-0.14000,73.5000,113,63,0.79853
6382300,-0.18000,73.3125,113,63,0.81123
6382310,-0.20000,73.0000,113,63,0.81978
6382320,-0.20000,72.3125,113,63,0.82564
6382330,-0.19000,71.8750,113,63,0.82344
6382340,-0.18000,71.4375,113,63,0.81856
6382350,-0.19500,71.0625,113,63,0.81197
6382360,-0.25500,70.1250,113,63,0.79390
6382370,-0.13500,69.6875,113,63,0.78266
6382380,0.36000,69.2500,113,63,0.76996
6382390,1.13500,68.8125,113,63,0.75629
6382400,1.51000,68.0625,113,63,0.72625
6382410,0.85500,67.6875,113,63,0.71013
6382420,-0.03500,67.2500,113,63,0.69328
6382430,-0.34500,66.8750,113,63,0.67766
6382440,-0.33500,66.1875,113,63,0.64640
6382450,-0.30000,65.8125,113,63,0.62930
6382460,-0.28000,65.4375,113,63,0.61245
6382470,-0.27000,65.1250,113,63,0.59585
6382480,-0.25500,64.3750,113,63,0.56459
6382490,-0.24500,64.0000,113,63,0.55018
6382500,-0.23000,63.6250,113,63,0.53675
6382510,-0.22500,63.2500,113,63,0.52454
6382520,-0.21500,62.5000,113,63,0.50427
6382530,-0.21000,62.1875,113,63,0.49670
6382540,-0.20000,61.8125,113,63,0.48889
6382550,-0.19000,61.5000,113,63,0.48156
6382560,-0.17500,61.1250,113,63,0.46935
6382570,-0.16000,61.3125,113,63,0.46374
6382580,-0.14500,62.0625,113,63,0.45885
6382590,-0.13000,63.7500,113,63,0.45470
6382600,-0.11000,71.7500,113,63,0.44762
6382610,-0.08500,77.9375,113,63,0.44444
6382620,-0.06500,84.6875,113,63,0.44078
6382630,-0.04500,91.2500,113,63,0.43761
6382640,-0.02000,101.3125,113,63,0.43077
6382650,0.00500,104.6875,113,63,0.42686
6382660,0.03500,107.0625,113,63,0.42271
6382670,0.06000,108.5625,113,63,0.41783
6382680,0.08500,109.0625,113,63,0.40757
6382690,0.11000,108.2500,113,63,0.40244
6382700,0.14000,106.9375,113,63,0.39731
6382710,0.16000,105.3750,113,63,0.39219
6382720,0.16500,101.7500,113,63,0.38193
6382730,0.13500,99.9375,113,63,0.37802
6382740,0.09000,98.0625,113,63,0.37338
6382750,0.03500,96.3125,113,63,0.36850
6382760,-0.01000,92.8750,113,63,0.35800
6382770,-0.04500,91.2500,113,63,0.35263
6382780,-0.06500,89.6250,113,63,0.34701
6382790,-0.08500,88.0625,113,63,0.34115
6382800,-0.09000,85.0000,113,63,0.32967
6382810,-0.09000,85.0000,113,63,0.32967
6382820,-0.10500,81.6875,113,63,0.31941
6382830,-0.10500,79.8750,113,63,0.31575
6382840,-0.10500,79.8750,113,63,0.31575
6382850,-0.10000,76.1875,113,63,0.30842
6382860,-0.10500,72.9375,113,63,0.30110
6382870,-0.10500,71.6875,113,63,0.29939
6382880,-0.10500,70.0000,113,63,0.30427
6382890,-0.10500,69.4375,113,63,0.31282
6382900,-0.10000,69.0625,113,63,0.32674
6382910,-0.08500,68.9375,113,63,0.34603
6382920,-0.06500,69.0000,113,63,0.38462
6382930,-0.04500,69.1250,113,63,0.39316
6382940,-0.03000,69.3125,113,63,0.41563
6382950,0.15500,69.5625,113,63,0.44591
6382960,0.32000,69.9375,113,63,0.51502
6382970,0.25500,70.1250,113,63,0.54921
6382980,0.14000,70.1875,113,63,0.58071
6382990,0.14000,70.1875,113,63,0.58071
6383000,-0.03000,70.0000,113,63,0.65177
6383010,-0.09500,69.8125,113,63,0.66716
6383020,-0.14000,69.6250,113,63,0.67839
6383030,-0.16000,69.4375,113,63,0.68449
6383040,-0.16000,68.8750,113,63,0.68645
6383050,-0.16000,68.6250,113,63,0.68425
6383060,-0.15500,68.3125,113,63,0.67961
6383070,-0.18000,68.0000,113,63,0.67302
6383080,-0.21500,67.3750,113,63,0.65470
6383090,-0.04000,67.0625,113,63,0.64347
6383100,0.49500,66.7500,113,63,0.63126
6383110,1.21000,66.4375,113,63,0.61807
6383120,1.32500,65.8125,113,63,0.59023
6383130,0.55500,65.4375,113,63,0.57680
6383140,-0.16500,65.0625,113,63,0.56117
6383150,-0.35500,64.6875,113,63,0.54481
6383160,-0.33000,64.0000,113,63,0.51160
6383170,-0.29500,63.6250,113,63,0.49475
6383180,-0.28000,63.2500,113,63,0.47863
6383190,-0.27000,62.9375,113,63,0.46325
6383200,-0.26000,62.2500,113,63,0.43443
6383210,-0.24500,61.9375,113,63,0.42173
6383220,-0.23000,61.5625,113,63,0.41001
6383230,-0.22000,61.1875,113,63,0.40073
6383240,-0.21000,60.5000,113,63,0.38535
6383250,-0.20000,60.1875,113,63,0.37851
6383260,-0.18500,59.8750,113,63,0.37216
6383270,-0.18000,59.5625,113,63,0.36654
6383280,-0.17500,59.2500,113,63,0.35702
6383290,-0.18000,59.5000,113,63,0.35311
6383300,-0.17000,60.2500,113,63,0.34969
6383310,-0.15500,61.8750,113,63,0.34652
6383320,-0.13500,69.9375,113,63,0.34139
6383330,-0.11500,76.1875,113,63,0.33993
6383340,-0.09500,83.0000,113,63,0.33797
6383350,-0.06500,89.3750,113,63,0.33602
6383360,-0.03500,98.8750,113,63,0.33211
6383370,0.00000,102.0000,113,63,0.32991
6383380,0.03000,104.3125,113,63,0.32723
6383390,0.07000,105.8125,113,63,0.32405
6383400,0.11000,106.3125,113,63,0.31722
6383410,0.13000,105.4375,113,63,0.31355
6383420,0.17500,104.1250,113,63,0.30965
6383430,0.23500,102.5625,113,63,0.30647
6383440,0.24000,99.0000,113,63,0.30012
6383450,0.16500,97.1250,113,63,0.29573
6383460,0.09000,95.3125,113,63,0.29133
6383470,0.01500,93.5000,113,63,0.28645
6383480,-0.04500,90.0000,113,63,0.27717
6383490,-0.08500,88.3750,113,63,0.27253
6383500,-0.10500,86.8750,113,63,0.26813
6383510,-0.11500,85.4375,113,63,0.26398
6383520,-0.12000,82.4375,113,63,0.25788
6383530,-0.12000,80.8750,113,63,0.25568
6383540,-0.12000,80.8750,113,63,0.25568
6383550,-0.11500,77.4375,113,63,0.24884
6383560,-0.11500,74.0000,113,63,0.24127
6383570,-0.12000,72.4375,113,63,0.23761
6383580,-0.12500,71.2500,113,63,0.23443
6383590,-0.12500,70.2500,113,63,0.23248
6383600,-0.12500,68.8125,113,63,0.23663
6383610,-0.12500,68.3750,113,63,0.24469
6383620,-0.11500,68.1250,113,63,0.25788
6383630,-0.09500,68.0625,113,63,0.27326
6383640,-0.07500,68.3125,113,63,0.31600
6383650,-0.07500,68.5625,113,63,0.34554
6383660,-0.05500,68.8125,113,63,0.37875
6383670,-0.02500,69.0625,113,63,0.41441
6383680,-0.00500,69.4375,113,63,0.48767
6383690,-0.02500,69.5625,113,63,0.52210
6383700,-0.06500,69.6875,113,63,0.55360
6383710,-0.10500,69.6875,113,63,0.58169
6383720,-0.15500,69.5000,113,63,0.62295
6383730,-0.19000,69.3125,113,63,0.63541
6383740,-0.21000,69.1250,113,63,0.64591
6383750,-0.21000,68.8125,113,63,0.65397
6383760,-0.20000,68.2500,113,63,0.66105
6383770,-0.19000,67.9375,113,63,0.66032
6383780,-0.18500,67.6875,113,63,0.65690
6383790,-0.23000,67.3750,113,63,0.65104
6383800,-0.19000,66.8125,113,63,0.63321
6383810,0.17500,66.5000,113,63,0.62198
6383820,0.87500,66.2500,113,63,0.60928
6383830,1.37500,65.9375,113,63,0.59683
6383840,0.99000,65.3750,113,63,0.56996
6383850,0.13000,65.0625,113,63,0.55482
6383860,-0.30500,64.7500,113,63,0.53944
6383870,-0.34500,64.3750,113,63,0.52381
6383880,-0.30000,63.6250,113,63,0.49206
6383890,-0.28000,63.2500,113,63,0.47692
6383900,-0.26500,62.9375,113,63,0.46227
6383910,-0.25500,62.5625,113,63,0.44835
6383920,-0.24000,61.9375,113,63,0.42418
6383930,-0.23500,61.5625,113,63,0.41441
6383940,-0.23000,61.2500,113,63,0.40415
6383950,-0.22500,60.9167,113,63,0.39418
6383960,-0.22000,60.5625,113,63,0.38486
6383970,-0.21500,60.1875,113,63,0.37656
6383980,-0.20500,59.8750,113,63,0.36899
6383990,-0.19500,59.5625,113,63,0.36215
6384000,-0.18500,59.1875,112,63,0.35116
6384010,-0.17000,59.3125,112,63,0.34676
6384020,-0.15500,59.9375,112,63,0.34286
6384030,-0.13500,61.3750,112,63,0.33944
6384040,-0.13500,61.3750,112,63,0.33944
6384050,-0.09500,75.0000,112,63,0.33382
6384060,-0.07500,81.8750,112,63,0.33211
6384070,-0.04500,88.5000,112,63,0.33065
6384080,-0.02500,98.5625,112,63,0.32698
6384090,0.00000,102.0000,112,63,0.32503
6384100,0.02000,104.5000,112,63,0.32283
6384110,0.06000,106.1875,112,63,0.32015
6384120,0.14000,107.0625,112,63,0.31429
6384130,0.25500,106.4375,112,63,0.31258
6384140,0.28500,105.3750,112,63,0.31136
6384150,0.24000,104.0000,112,63,0.30965
6384160,0.19000,100.7500,112,63,0.30452
6384170,0.12000,99.0625,112,63,0.30183
6384180,0.03500,97.3125,112,63,0.29890
6384190,-0.02000,95.6250,112,63,0.29548
6384200,-0.02000,92.4375,112,63,0.29548
6384210,-0.03000,90.8750,112,63,0.28400
6384220,-0.07500,89.3750,112,63,0.27961
6384230,-0.07500,89.3750,112,63,0.27961
6384240,-0.13500,85.0000,112,63,0.26935
6384250,-0.14500,83.5000,112,63,0.26642
6384260,-0.14500,81.8750,112,63,0.26300
6384270,-0.14500,80.1875,112,63,0.25934
6384280,-0.14500,76.5000,112,63,0.25153
6384290,-0.14500,74.7500,112,63,0.24811
6384300,-0.15500,73.1250,112,63,0.24542
6384310,-0.15500,71.7500,112,63,0.24396
6384320,-0.15500,69.6875,112,63,0.24737
6384330,-0.14500,69.0000,112,63,0.25324
6384340,-0.12500,68.4375,112,63,0.26252
6384350,-0.10500,68.0625,112,63,0.27668
6384360,-0.09500,67.8750,112,63,0.32063
6384370,-0.08500,67.8750,112,63,0.35043
6384380,-0.05000,68.0000,112,63,0.38437
6384390,-0.02000,68.1875,112,63,0.42100
6384400,-0.02500,68.5000,112,63,0.49695
6384410,-0.05500,68.6875,112,63,0.53333
6384420,-0.10500,68.8125,112,63,0.56679
6384430,-0.15000,68.9375,112,63,0.59292
6384440,-0.15000,68.9375,112,63,0.59292
6384450,-0.21000,69.0000,112,63,0.65226
6384460,-0.22000,68.8750,112,63,0.66667
6384470,-0.21000,68.6875,112,63,0.67741
6384480,-0.20000,68.2500,112,63,0.68742
6384490,-0.19500,68.0000,112,63,0.68791
6384500,-0.23000,67.6875,112,63,0.68571
6384510,-0.28000,67.3750,112,63,0.68132
6384520,-0.08500,66.8125,112,63,0.66642
6384530,0.47000,66.5000,112,63,0.65739
6384540,1.16500,66.1875,112,63,0.64762
6384550,1.26000,65.9375,112,63,0.63614
6384560,0.50000,65.3125,112,63,0.60928
6384570,-0.18000,65.0000,112,63,0.59414
6384580,-0.37000,64.6875,112,63,0.57851
6384590,-0.34500,64.3125,112,63,0.56215
6384600,-0.31000,63.6250,112,63,0.52821
6384610,-0.29000,63.3125,112,63,0.51160
6384620,-0.28000,62.9375,112,63,0.49548
6384630,-0.27000,62.6250,112,63,0.48156
6384640,-0.27000,61.9375,112,63,0.45519
6384650,-0.26000,61.5625,112,63,0.44151
6384660,-0.24500,61.2500,112,63,0.42882
6384670,-0.23000,60.9375,112,63,0.41709
6384680,-0.22000,60.3750,112,63,0.39707
6384690,-0.21000,60.1250,112,63,0.38852
6384700,-0.19000,59.8125,112,63,0.38120
6384710,-0.17500,59.5625,112,63,0.37436
6384720,-0.16000,59.6875,112,63,0.36288
6384730,-0.14500,60.3750,112,63,0.35897
6384740,-0.12500,62.0625,112,63,0.35580
6384750,-0.11000,65.1250,112,63,0.35214
6384760,-0.09000,76.3125,112,63,0.34579
6384770,-0.07000,83.2500,112,63,0.34286
6384780,-0.04500,89.8750,112,63,0.33993
6384790,-0.01500,95.5000,112,63,0.33748
6384800,0.01000,103.3750,112,63,0.33309
6384810,0.04000,105.9375,112,63,0.33089
6384820,0.06500,107.6250,112,63,0.32869
6384830,0.09000,108.5000,112,63,0.32723
6384840,0.12000,107.8750,112,63,0.32454
6384850,0.15000,106.7500,112,63,0.32234
6384860,0.16500,105.2500,112,63,0.31941
6384870,0.15500,103.6875,112,63,0.31624
6384880,0.12000,100.3125,112,63,0.30867
6384890,0.06500,98.6250,112,63,0.30452
6384900,0.01000,96.9375,112,63,0.30037
6384910,-0.03500,95.3125,112,63,0.29646
6384920,-0.07000,92.2500,112,63,0.28962
6384930,-0.08500,90.8125,112,63,0.28718
6384940,-0.09500,89.3750,112,63,0.28523
6384950,-0.10000,88.0000,112,63,0.28230
6384960,-0.10000,85.2500,112,63,0.27497
6384970,-0.09500,83.8125,112,63,0.27057
6384980,-0.09000,82.2500,112,63,0.27204
6384990,-0.07500,80.5625,112,63,0.27595
6385000,-0.05500,76.9375,112,63,0.27375
6385010,-0.02500,75.2500,112,63,0.27155
6385020,0.01000,73.7500,112,63,0.27033
6385030,0.04000,72.5000,112,63,0.27155
6385040,0.04000,70.6250,112,63,0.28254
6385050,0.02000,70.0625,112,63,0.29402
6385060,-0.03500,69.6875,112,63,0.31087
6385070,-0.11500,69.5000,112,63,0.33333
6385080,-0.11500,69.5000,112,63,0.33333
6385090,-0.21000,69.4375,112,63,0.43394
6385100,-0.21500,69.5625,112,63,0.47473
6385110,-0.21000,69.7500,112,63,0.51648
6385120,-0.21000,70.1875,112,63,0.59829
6385130,-0.20000,70.3125,112,63,0.63077
6385140,-0.21000,70.4375,112,63,0.65739
6385150,-0.27000,70.5625,112,63,0.68376
6385160,-0.22000,70.6250,112,63,0.72796
6385170,0.19500,70.6875,112,63,0.74408
6385180,0.93000,70.6250,112,63,0.75580
6385190,1.35500,70.5000,112,63,0.76313
6385200,0.81500,70.1250,112,63,0.76728
6385210,-0.01000,69.8125,112,63,0.76508
6385220,-0.35500,69.5000,112,63,0.76044
6385230,-0.37000,69.1875,112,63,0.75385
6385240,-0.32000,68.4375,112,63,0.73602
6385250,-0.30000,68.0000,112,63,0.72527
6385260,-0.30000,67.5625,112,63,0.71331
6385270,-0.29500,67.1250,112,63,0.70012
6385280,-0.29000,66.2500,112,63,0.67082
6385290,-0.28000,65.8125,112,63,0.65470
6385300,-0.27500,65.3750,112,63,0.63761
6385310,-0.26500,65.0000,112,63,0.62002
6385320,-0.25500,64.3125,112,63,0.58388
6385330,-0.24500,63.9375,112,63,0.56752
6385340,-0.23000,63.6250,112,63,0.55263
6385350,-0.21500,63.3750,112,63,0.53724
6385360,-0.20000,63.1250,112,63,0.50720
6385370,-0.18000,63.3125,112,63,0.49280
6385380,-0.16500,64.0000,112,63,0.47961
6385390,-0.15000,65.5625,112,63,0.46716
6385400,-0.13000,72.8125,112,63,0.44591
6385410,-0.10500,78.4375,112,63,0.43687
6385420,-0.08500,84.6250,112,63,0.42882
6385430,-0.05500,90.6250,112,63,0.42247
6385440,-0.05500,90.6250,112,63,0.42247
6385450,-0.00500,103.3750,112,63,0.40879
6385460,0.02000,105.8125,112,63,0.40464
6385470,0.04500,107.4375,112,63,0.40122
6385480,0.07000,108.1875,112,63,0.39536
6385490,0.10000,107.5625,112,63,0.39267
6385500,0.11500,106.4375,112,63,0.38999
6385510,0.10500,105.0000,112,63,0.38755
