RelativeTimeMilliseconds,ECG,ART,ART (Sys),ART (Dia),PPG
6600000,-0.08500,88.5625,106,57,0.30085
6600010,-0.09500,87.1250,106,57,0.29866
6600020,-0.09500,85.7500,106,57,0.29670
6600030,-0.09500,84.3750,106,57,0.29426
6600040,-0.09000,81.6875,106,57,0.28547
6600050,-0.09000,80.3125,106,57,0.28010
6600060,-0.09000,78.8125,106,57,0.27546
6600070,-0.08500,77.3125,106,57,0.27179
6600080,-0.08500,74.0625,106,57,0.27009
6600090,-0.10000,72.3750,106,57,0.27350
6600100,-0.15500,70.7500,106,57,0.28083
6600110,-0.18000,69.3125,106,57,0.29255
6600120,-0.13500,66.9375,106,57,0.32454
6600130,-0.10500,65.9375,106,57,0.34896
6600140,-0.10500,65.1875,106,57,0.37900
6600150,-0.08000,64.5625,106,57,0.41392
6600160,-0.04000,63.7500,106,57,0.49328
6600170,0.00000,63.5625,106,57,0.53431
6600180,0.00000,63.4375,106,57,0.57387
6600190,-0.04500,63.4375,106,57,0.61099
6600200,-0.09000,63.5000,106,57,0.67448
6600210,-0.13500,63.6875,106,57,0.69988
6600220,-0.17000,63.8125,106,57,0.71819
6600230,-0.17000,63.8125,106,57,0.71819
6600240,-0.17000,64.1875,106,57,0.75189
6600250,-0.16000,64.2500,106,57,0.75824
6600260,-0.15500,64.1875,106,57,0.76166
6600270,-0.14500,64.1250,106,57,0.76239
6600280,-0.20000,63.8750,106,57,0.75580
6600290,-0.20000,63.8750,106,57,0.75580
6600300,0.05000,63.4375,106,57,0.74066
6600310,0.70000,63.2500,106,57,0.73016
6600320,1.39500,62.8125,106,57,0.70769
6600330,1.31500,62.5625,106,57,0.69499
6600340,0.46000,62.3125,106,57,0.68132
6600350,-0.17000,62.0625,106,57,0.66691
6600360,-0.30000,61.5000,106,57,0.63565
6600370,-0.26500,61.2500,106,57,0.61954
6600380,-0.24000,60.9375,106,57,0.60293
6600390,-0.22500,60.6875,106,57,0.58608
6600400,-0.22000,60.0000,106,57,0.55165
6600410,-0.21500,59.6250,106,57,0.53455
6600420,-0.21000,59.2500,106,57,0.51966
6600430,-0.20000,58.8750,106,57,0.50598
6600440,-0.20000,58.8750,106,57,0.50598
6600450,-0.19000,57.8125,106,57,0.46325
6600460,-0.18500,57.5000,106,57,0.45006
6600470,-0.18000,57.1875,106,57,0.43712
6600480,-0.17000,56.6250,106,57,0.41416
6600490,-0.16000,56.4375,106,57,0.40464
6600500,-0.15500,56.5000,106,57,0.39634
6600510,-0.14500,57.1250,106,57,0.38877
6600520,-0.13500,61.9375,106,57,0.37827
6600530,-0.12000,66.9375,106,57,0.37363
6600540,-0.10500,73.3125,106,57,0.36899
6600550,-0.08500,80.2500,106,57,0.36484
6600560,-0.07000,92.7500,106,57,0.35751
6600570,-0.04500,97.5000,106,57,0.35409
6600580,-0.02500,101.2500,106,57,0.35116
6600590,-0.00500,104.1250,106,57,0.34823
6600600,0.00500,107.1250,106,57,0.34261
6600610,0.02500,107.3750,106,57,0.33993
6600620,0.05000,106.9375,106,57,0.33822
6600630,0.07500,106.0000,106,57,0.33724
6600640,0.09000,103.3750,106,57,0.33382
6600650,0.08500,101.9375,106,57,0.33187
6600660,0.05500,100.4375,106,57,0.32991
6600670,0.01000,98.8125,106,57,0.32772
6600680,-0.03500,95.4375,106,57,0.32234
6600690,-0.08000,93.8125,106,57,0.31917
6600700,-0.10500,92.2500,106,57,0.31600
6600710,-0.12500,90.7500,106,57,0.31258
6600720,-0.13000,87.8750,106,57,0.30818
6600730,-0.13000,86.4375,106,57,0.30574
6600740,-0.13000,85.0625,106,57,0.30305
6600750,-0.13000,83.6875,106,57,0.29988
6600760,-0.12500,80.8125,106,57,0.29377
6600770,-0.12500,79.3125,106,57,0.29133
6600780,-0.12500,77.7500,106,57,0.28962
6600790,-0.12500,76.1250,106,57,0.29011
6600800,-0.12500,72.8750,106,57,0.30208
6600810,-0.12500,71.4375,106,57,0.31526
6600820,-0.11500,70.1875,106,57,0.33089
6600830,-0.09500,69.0625,106,57,0.34994
6600840,-0.08500,67.1875,106,57,0.40806
6600850,-0.08000,66.5000,106,57,0.44444
6600860,-0.06500,66.0000,106,57,0.48376
6600870,-0.04500,65.6250,106,57,0.52479
6600880,-0.03500,65.2500,106,57,0.60537
6600890,-0.05500,65.1250,106,57,0.64225
6600900,-0.09500,65.1250,106,57,0.67546
6600910,-0.13500,65.1875,106,57,0.70476
6600920,-0.13500,65.1875,106,57,0.70476
6600930,-0.21000,65.5000,106,57,0.75824
6600940,-0.22000,65.6250,106,57,0.77070
6600950,-0.21000,65.6875,106,57,0.78022
6600960,-0.20500,65.7500,106,57,0.78974
6600970,-0.19000,65.6250,106,57,0.78999
6600980,-0.21500,65.5000,106,57,0.78755
6600990,-0.28500,65.3125,106,57,0.78291
6601000,-0.14000,64.8750,106,57,0.76801
6601010,0.40000,64.5625,106,57,0.75873
6601020,1.19500,64.2500,106,57,0.74847
6601030,1.55500,63.9375,106,57,0.73700
6601040,0.90000,63.2500,106,57,0.71062
6601050,0.01000,62.9375,106,57,0.69573
6601060,-0.32000,62.6250,106,57,0.68010
6601070,-0.31000,62.3125,106,57,0.66398
6601080,-0.27000,61.6875,106,57,0.63028
6601090,-0.25000,61.3750,106,57,0.61294
6601100,-0.24000,61.1250,106,57,0.59560
6601110,-0.22500,60.8750,106,57,0.57827
6601120,-0.22000,60.4375,106,57,0.54774
6601130,-0.21000,60.1250,106,57,0.53236
6601140,-0.20000,59.8750,106,57,0.51722
6601150,-0.19500,59.5625,106,57,0.50232
6601160,-0.19000,58.9375,106,57,0.47448
6601170,-0.19000,58.6250,106,57,0.46203
6601180,-0.18500,58.3125,106,57,0.45031
6601190,-0.18000,58.0000,106,57,0.43980
6601200,-0.17000,57.8125,106,57,0.42173
6601210,-0.16000,58.5625,106,57,0.41538
6601220,-0.14500,60.5625,106,57,0.41001
6601230,-0.13000,64.1875,106,57,0.40464
6601240,-0.11000,76.4375,106,57,0.39536
6601250,-0.08500,83.5625,106,57,0.39170
6601260,-0.06500,90.1875,106,57,0.38852
6601270,-0.04000,95.8750,106,57,0.38535
6601280,-0.02000,103.9375,106,57,0.37875
6601290,0.00500,106.6250,106,57,0.37582
6601300,0.03000,108.3125,106,57,0.37289
6601310,0.05000,109.0000,106,57,0.36996
6601320,0.07000,108.0625,106,57,0.36630
6601330,0.09500,106.9375,106,57,0.36386
6601340,0.11500,105.5625,106,57,0.36093
6601350,0.12000,104.1250,106,57,0.35775
6601360,0.10000,100.9375,106,57,0.35165
6601370,0.07000,99.1875,106,57,0.34872
6601380,0.02500,97.5000,106,57,0.34554
6601390,-0.01500,95.8125,106,57,0.34188
6601400,-0.04000,92.6875,106,57,0.33431
6601410,-0.05500,91.1875,106,57,0.33162
6601420,-0.07000,89.7500,106,57,0.32943
6601430,-0.08000,88.3125,106,57,0.32625
6601440,-0.08500,85.3125,106,57,0.31844
6601450,-0.09500,83.8125,106,57,0.31429
6601460,-0.09500,82.3125,106,57,0.31062
6601470,-0.09500,80.7500,106,57,0.30745
6601480,-0.10000,77.3750,106,57,0.30403
6601490,-0.10000,75.6250,106,57,0.30549
6601500,-0.10000,73.9375,106,57,0.31038
6601510,-0.10500,72.2500,106,57,0.32015
6601520,-0.10500,69.4375,106,57,0.34823
6601530,-0.09000,68.3125,106,57,0.37118
6601540,-0.07000,67.4375,106,57,0.40024
6601550,-0.05500,66.7500,106,57,0.43443
6601560,-0.05500,65.8125,106,57,0.51233
6601570,-0.04500,65.5625,106,57,0.55336
6601580,-0.01500,65.3750,106,57,0.59389
6601590,0.00000,65.3125,106,57,0.63223
6601600,-0.01500,65.2500,106,57,0.69866
6601610,-0.05000,65.3125,106,57,0.72186
6601620,-0.09500,65.3750,106,57,0.73944
6601630,-0.14000,65.5000,106,57,0.75604
6601640,-0.14000,65.5000,106,57,0.75604
6601650,-0.18000,65.6250,106,57,0.78828
6601660,-0.17500,65.6250,106,57,0.79267
6601670,-0.16500,65.5625,106,57,0.79414
6601680,-0.15500,65.3125,106,57,0.78999
6601690,-0.18000,65.0625,106,57,0.78437
6601700,-0.24000,64.7500,106,57,0.77680
6601710,-0.10000,64.4375,106,57,0.76777
6601720,0.45000,63.6875,106,57,0.74725
6601730,1.24000,63.3750,106,57,0.73553
6601740,1.49500,63.0625,106,57,0.72259
6601750,0.81000,62.7500,106,57,0.70891
6601760,-0.02000,62.1250,106,57,0.67888
6601770,-0.31000,61.8125,106,57,0.66227
6601780,-0.29500,61.5625,106,57,0.64518
6601790,-0.26000,61.2500,106,57,0.62759
6601800,-0.25500,60.6875,106,57,0.59096
6601810,-0.24500,60.4375,106,57,0.57411
6601820,-0.24000,60.1250,106,57,0.55873
6601830,-0.23000,59.8125,106,57,0.54237
6601840,-0.23000,59.8125,106,57,0.54237
6601850,-0.23000,58.6250,106,57,0.49426
6601860,-0.22000,58.1875,106,57,0.47985
6601870,-0.21500,57.8125,106,57,0.46618
6601880,-0.21000,57.1250,106,57,0.44200
6601890,-0.20500,56.8125,106,57,0.43150
6601900,-0.20000,56.5000,106,57,0.42198
6601910,-0.18500,56.3125,106,57,0.41343
6601920,-0.17500,57.0625,106,57,0.40171
6601930,-0.16000,58.8125,106,57,0.39658
6601940,-0.14500,62.0625,106,57,0.39194
6601950,-0.12500,67.1250,106,57,0.38755
6601960,-0.10500,80.5625,106,57,0.37973
6601970,-0.10500,80.5625,106,57,0.37973
6601980,-0.05500,93.0000,106,57,0.37314
6601990,-0.02500,97.6250,106,57,0.36972
6602000,0.00000,103.8750,105,57,0.36239
6602010,0.02500,105.6250,105,57,0.35922
6602020,0.05000,106.5000,105,57,0.35604
6602030,0.07000,106.5625,105,57,0.34652
6602040,0.09500,104.8750,105,57,0.32527
6602050,0.12000,103.4375,105,57,0.31844
6602060,0.12500,101.8125,105,57,0.31306
6602070,0.11000,100.1250,105,57,0.30818
6602080,0.07500,96.6250,105,57,0.30012
6602090,0.03500,94.8125,105,57,0.29646
6602100,-0.00500,93.0000,105,57,0.29280
6602110,-0.03500,91.2500,105,57,0.28938
6602120,-0.06500,87.9375,105,57,0.28498
6602130,-0.08500,86.3750,105,57,0.28205
6602140,-0.09000,84.8125,105,57,0.27839
6602150,-0.09000,83.2500,105,57,0.27399
6602160,-0.09000,80.1250,105,57,0.26520
6602170,-0.09000,78.5625,105,57,0.26081
6602180,-0.09000,76.9375,105,57,0.25690
6602190,-0.09500,75.2500,105,57,0.25348
6602200,-0.09500,71.6875,105,57,0.25055
6602210,-0.09500,70.0625,105,57,0.25275
6602220,-0.10000,68.5625,105,57,0.25812
6602230,-0.10500,67.2500,105,57,0.26691
6602240,-0.10000,65.3125,105,57,0.30012
6602250,-0.08000,64.6250,105,57,0.32454
6602260,-0.05500,64.0625,105,57,0.35409
6602270,-0.05500,63.6875,105,57,0.38755
6602280,-0.03500,63.3125,105,57,0.46300
6602290,0.00000,63.2500,105,57,0.50159
6602300,0.02000,63.3125,105,57,0.53871
6602310,0.00000,63.3750,105,57,0.57314
6602320,-0.04000,63.6250,105,57,0.62149
6602330,-0.08500,63.7500,105,57,0.64249
6602340,-0.12500,63.8750,105,57,0.66105
6602350,-0.16000,64.0000,105,57,0.67595
6602360,-0.17500,64.1250,105,57,0.69524
6602370,-0.18000,64.0625,105,57,0.69963
6602380,-0.17000,64.0000,105,57,0.70085
6602390,-0.16500,63.8750,105,57,0.69915
6602400,-0.16500,63.4375,105,57,0.68938
6602410,-0.22000,63.1875,105,57,0.68205
6602420,-0.22500,62.9375,105,57,0.67350
6602430,0.07000,62.6875,105,57,0.66374
6602440,0.73500,62.1250,105,57,0.64005
6602450,1.37000,61.8750,105,57,0.62637
6602460,1.17000,61.6250,105,57,0.61172
6602470,0.30000,61.3750,105,57,0.59609
6602480,-0.25500,60.8125,105,57,0.56288
6602490,-0.33500,60.5000,105,57,0.54579
6602500,-0.30000,60.1875,105,57,0.52845
6602510,-0.27500,59.8125,105,57,0.51136
6602520,-0.26500,59.0625,105,57,0.48327
6602530,-0.25500,58.6875,105,57,0.46886
6602540,-0.24500,58.3125,105,57,0.45421
6602550,-0.23500,58.0000,105,57,0.44005
6602560,-0.22000,57.3125,105,57,0.41294
6602570,-0.21500,56.9375,105,57,0.40024
6602580,-0.20000,56.5625,105,57,0.38803
6602590,-0.19500,56.1875,105,57,0.37680
6602600,-0.18500,55.5000,105,57,0.35751
6602610,-0.17000,55.2500,105,57,0.35092
6602620,-0.15500,55.0000,105,57,0.34603
6602630,-0.14500,54.9375,105,57,0.34066
6602640,-0.13000,56.3750,105,57,0.33065
6602650,-0.11500,58.6250,105,57,0.32625
6602660,-0.10500,62.5625,105,57,0.32210
6602670,-0.08500,68.0625,105,57,0.31819
6602680,-0.06000,81.2500,105,57,0.31209
6602690,-0.03500,87.2500,105,57,0.30965
6602700,-0.03500,92.1250,105,57,0.30745
6602710,0.01000,96.0000,105,57,0.30623
6602720,0.03500,101.3125,105,57,0.30403
6602730,0.06000,102.6875,105,57,0.30183
6602740,0.08000,103.1875,105,57,0.29915
6602750,0.10500,102.9375,105,57,0.29597
6602760,0.13000,100.8750,105,57,0.28987
6602770,0.14000,99.3750,105,57,0.28718
6602780,0.11000,97.7500,105,57,0.28449
6602790,0.04000,96.0000,105,57,0.28156
6602800,-0.07500,92.3750,105,57,0.27570
6602810,-0.13000,90.5625,105,57,0.27350
6602820,-0.16500,88.8125,105,57,0.27179
6602830,-0.23000,87.1250,105,57,0.26911
6602840,-0.26000,84.0000,105,57,0.26300
6602850,-0.28000,82.5625,105,57,0.25983
6602860,-0.28000,82.5625,105,57,0.25983
6602870,-0.25000,79.8125,105,57,0.25250
6602880,-0.19000,77.0625,105,57,0.24469
6602890,-0.14500,75.5000,105,57,0.24103
6602900,-0.11500,73.8125,105,57,0.23761
6602910,-0.09000,72.0625,105,57,0.23590
6602920,-0.08500,68.7500,105,57,0.23712
6602930,-0.10500,67.3125,105,57,0.24054
6602940,-0.10500,66.1250,105,57,0.24737
6602950,-0.07500,65.1250,105,57,0.25812
6602960,-0.04500,63.5625,105,57,0.29377
6602970,-0.02000,63.0000,105,57,0.31917
6602980,-0.01000,62.5625,105,57,0.34896
6602990,0.00500,62.3125,105,57,0.38242
6603000,0.03500,62.0625,105,57,0.45543
6603010,0.05000,62.0625,105,57,0.48791
6603020,0.05000,62.0625,105,57,0.48791
6603030,0.02000,62.2500,105,57,0.54701
6603040,-0.02000,62.5000,105,57,0.60220
6603050,-0.06500,62.6875,105,57,0.62540
6603060,-0.10000,62.8125,105,57,0.64493
6603070,-0.11500,62.9375,105,57,0.66032
6603080,-0.12000,63.0000,105,57,0.67937
6603090,-0.11500,63.0000,105,57,0.68303
6603100,-0.10000,62.9375,105,57,0.68327
6603110,-0.10000,62.8125,105,57,0.68034
6603120,-0.15500,62.5000,105,57,0.66886
6603130,-0.15500,62.2500,105,57,0.66081
6603140,0.11500,62.0000,105,57,0.65128
6603150,0.76500,61.7500,105,57,0.64054
6603160,1.42500,61.2500,105,57,0.61563
6603170,1.26500,61.0000,105,57,0.60195
6603180,0.42500,60.7500,105,57,0.58755
6603190,-0.15000,60.4375,105,57,0.57241
6603200,-0.27000,59.8750,105,57,0.54017
6603210,-0.23500,59.5625,105,57,0.52527
6603220,-0.21000,59.3125,105,57,0.51111
6603230,-0.19500,59.0000,105,57,0.49573
6603240,-0.18500,58.3750,105,57,0.46422
6603250,-0.18000,58.0625,105,57,0.44957
6603260,-0.17000,57.8125,105,57,0.43541
6603270,-0.16000,57.5000,105,57,0.42173
6603280,-0.15500,56.8750,105,57,0.39683
6603290,-0.15500,56.5625,105,57,0.38584
6603300,-0.14500,56.3125,105,57,0.37558
6603310,-0.13500,56.0000,105,57,0.36752
6603320,-0.12500,55.3750,105,57,0.35385
6603330,-0.12000,55.1875,105,57,0.34676
6603340,-0.11000,55.2500,105,57,0.33993
6603350,-0.09500,55.8125,105,57,0.33358
6603360,-0.08000,60.0000,105,57,0.32332
6603370,-0.08000,60.0000,105,57,0.32332
6603380,-0.04500,70.5000,105,57,0.31600
6603390,-0.02500,77.3125,105,57,0.31306
6603400,-0.00500,89.6875,105,57,0.30842
6603410,0.02000,94.3750,105,57,0.30696
6603420,0.04000,98.0625,105,57,0.30623
6603430,0.05500,100.8750,105,57,0.30476
6603440,0.05500,100.8750,105,57,0.30476
6603450,0.09500,104.5625,105,57,0.29939
6603460,0.11500,104.3750,105,57,0.29744
6603470,0.11500,104.3750,105,57,0.29744
6603480,0.15500,101.1250,105,57,0.28962
6603490,0.14500,99.6250,105,57,0.28694
6603500,0.14500,99.6250,105,57,0.28694
6603510,0.07000,96.1875,105,57,0.28254
6603520,0.02000,92.6875,105,57,0.27961
6603530,-0.01500,91.0000,105,57,0.27717
6603540,-0.04500,89.3750,105,57,0.27424
6603550,-0.06500,87.8125,105,57,0.27106
6603560,-0.07500,84.8125,105,57,0.26447
6603570,-0.07500,84.8125,105,57,0.26447
6603580,-0.07500,81.9375,105,57,0.25812
6603590,-0.07500,80.5625,105,57,0.25495
6603600,-0.06500,77.6875,105,57,0.24835
6603610,-0.06500,76.1250,105,57,0.24689
6603620,-0.06500,74.4375,105,57,0.24664
6603630,-0.06500,72.7500,105,57,0.24689
6603640,-0.06500,69.4375,105,57,0.25226
6603650,-0.06500,68.0625,105,57,0.25983
6603660,-0.05500,66.9375,105,57,0.27204
6603670,-0.04500,66.0625,105,57,0.28962
6603680,-0.03500,64.6250,105,57,0.34090
6603690,-0.02000,64.0625,105,57,0.37436
6603700,0.00000,63.6875,105,57,0.41148
6603710,0.02500,63.4375,105,57,0.44518
6603720,0.00500,63.1875,105,57,0.51258
6603730,-0.07500,63.1250,105,57,0.54847
6603740,-0.13500,63.1250,105,57,0.58266
6603750,-0.16500,63.1875,105,57,0.61392
6603760,-0.19000,63.3125,105,57,0.66569
6603770,-0.20000,63.3750,105,57,0.68547
6603780,-0.19000,63.4375,105,57,0.70085
6603790,-0.18000,63.5000,105,57,0.71209
6603800,-0.16500,63.5000,105,57,0.72234
6603810,-0.17000,63.4375,105,57,0.72186
6603820,-0.18000,63.3125,105,57,0.71844
6603830,-0.25000,63.1250,105,57,0.71380
6603840,-0.23500,62.6875,105,57,0.69963
6603850,0.09500,62.4375,105,57,0.69035
6603860,0.74500,62.1875,105,57,0.67985
6603870,1.29000,61.9375,105,57,0.66813
6603880,0.98000,61.5000,105,57,0.64200
6603890,0.10500,61.1875,105,57,0.62808
6603900,-0.37500,60.9375,105,57,0.61343
6603910,-0.42500,60.6250,105,57,0.59927
6603920,-0.35500,60.0000,105,57,0.56581
6603930,-0.29500,59.6875,105,57,0.54750
6603940,-0.30000,59.3125,105,57,0.53407
6603950,-0.32000,59.0000,105,57,0.51893
6603960,-0.28500,58.2500,105,57,0.48767
6603970,-0.26500,57.9375,105,57,0.47253
6603980,-0.29000,57.6250,105,57,0.45763
6603990,-0.29500,57.2500,105,57,0.44347
6604000,-0.26500,56.6875,106,57,0.41734
6604010,-0.25000,56.3750,106,57,0.40684
6604020,-0.22000,56.0625,106,57,0.39780
6604030,-0.19500,55.6875,106,57,0.38828
6604040,-0.18000,55.3750,106,57,0.36972
6604050,-0.15500,55.6250,106,57,0.36142
6604060,-0.15500,55.6250,106,57,0.36142
6604070,-0.11000,58.6875,106,57,0.34823
6604080,-0.08500,67.8125,106,57,0.34994
6604090,-0.07000,74.5000,106,57,0.34921
6604100,-0.06500,81.5000,106,57,0.34725
6604110,-0.04500,87.7500,106,57,0.34554
6604120,-0.00500,97.1875,106,57,0.34237
6604130,-0.00500,100.5000,106,57,0.34017
6604140,-0.01500,103.0625,106,57,0.33773
6604150,-0.01000,104.7500,106,57,0.33504
6604160,0.01500,105.5000,106,57,0.32991
6604170,0.05500,104.9375,106,57,0.32747
6604180,0.10000,103.9375,106,57,0.32527
6604190,0.12000,102.7500,106,57,0.32283
6604200,0.11500,99.8750,106,57,0.31697
6604210,0.09500,98.3125,106,57,0.31453
6604220,0.07000,96.6875,106,57,0.31233
6604230,0.03000,95.0000,106,57,0.30940
6604240,-0.01000,91.7500,106,57,0.30354
6604250,-0.05500,90.1250,106,57,0.30037
6604260,-0.08500,88.6250,106,57,0.29719
6604270,-0.09000,87.1250,106,57,0.29377
6604280,-0.09500,84.2500,106,57,0.28694
6604290,-0.09000,82.9375,106,57,0.28303
6604300,-0.08000,81.6250,106,57,0.27863
6604310,-0.06500,80.1875,106,57,0.27546
6604320,-0.05000,77.1875,106,57,0.27082
6604330,-0.04000,75.4375,106,57,0.26911
6604340,-0.04500,73.6875,106,57,0.26886
6604350,-0.05500,72.0000,106,57,0.27131
6604360,-0.05000,69.0000,106,57,0.28767
6604370,-0.03500,67.7500,106,57,0.30330
6604380,-0.01500,66.7500,106,57,0.32430
6604390,-0.00500,65.9375,106,57,0.35092
6604400,0.01000,64.6250,106,57,0.41856
6604410,0.04000,64.1875,106,57,0.45226
6604420,0.07000,63.9375,106,57,0.48474
6604430,0.08000,63.7500,106,57,0.52161
6604440,0.05000,63.6875,106,57,0.59634
6604450,0.01000,63.7500,106,57,0.63028
6604460,0.01000,63.7500,106,57,0.63028
6604470,-0.07500,63.9375,106,57,0.68620
6604480,-0.11500,64.2500,106,57,0.72503
6604490,-0.13500,64.3750,106,57,0.73797
6604500,-0.14500,64.5000,106,57,0.74725
6604510,-0.14500,64.5000,106,57,0.75189
6604520,-0.12000,64.3750,106,57,0.75214
6604530,-0.13500,64.3125,106,57,0.74969
6604540,-0.19500,64.1250,106,57,0.74530
6604550,-0.07500,63.9375,106,57,0.73895
6604560,0.39000,63.5000,106,57,0.72088
6604570,1.14500,63.3125,106,57,0.70965
6604580,1.52000,63.0625,106,57,0.69744
6604590,0.89000,62.8125,106,57,0.68400
6604600,0.05500,62.1875,106,57,0.65617
6604610,-0.26000,61.8750,106,57,0.64225
6604620,-0.27000,61.5625,106,57,0.62686
6604630,-0.25000,61.2500,106,57,0.61050
6604640,-0.25000,60.6875,106,57,0.57631
6604650,-0.24000,60.3750,106,57,0.55897
6604660,-0.22000,60.0625,106,57,0.54188
6604670,-0.20000,59.6875,106,57,0.52503
6604680,-0.18000,59.0625,106,57,0.49206
6604690,-0.17000,58.7500,106,57,0.47643
6604700,-0.16500,58.4375,106,57,0.46178
6604710,-0.16500,58.1250,106,57,0.44957
6604720,-0.15500,57.5000,106,57,0.42784
6604730,-0.14500,57.1875,106,57,0.41685
6604740,-0.12500,56.9375,106,57,0.40635
6604750,-0.11000,56.8125,106,57,0.39658
6604760,-0.09000,58.2500,106,57,0.37973
6604770,-0.07500,60.6875,106,57,0.37265
6604780,-0.05500,64.8125,106,57,0.36654
6604790,-0.03500,70.6875,106,57,0.36117
6604800,-0.00500,84.5625,106,57,0.35238
6604810,0.03000,90.8125,106,57,0.34969
6604820,0.05500,96.0000,106,57,0.34701
6604830,0.08000,100.1875,106,57,0.34432
6604840,0.10500,106.0000,106,57,0.33919
6604850,0.12500,107.5625,106,57,0.33724
6604860,0.14000,108.2500,106,57,0.33529
6604870,0.14500,108.1875,106,57,0.33333
6604880,0.15500,106.5000,106,57,0.32869
6604890,0.17500,105.3125,106,57,0.32625
6604900,0.18500,103.8750,106,57,0.32357
6604910,0.17000,102.3750,106,57,0.32161
6604920,0.14000,99.2500,106,57,0.31746
6604930,0.09000,97.6250,106,57,0.31477
6604940,0.05000,96.0000,106,57,0.31160
6604950,0.01500,94.3750,106,57,0.30867
6604960,-0.00500,91.4375,106,57,0.30305
6604970,-0.01000,90.0000,106,57,0.30037
6604980,-0.01500,88.6250,106,57,0.29768
6604990,-0.01500,87.1875,106,57,0.29475
6605000,-0.01500,84.3750,106,57,0.28889
6605010,-0.02500,83.0000,106,57,0.28694
6605020,-0.02500,81.5625,106,57,0.28425
6605030,-0.03500,80.0000,106,57,0.28156
6605040,-0.03500,76.6875,106,57,0.27985
6605050,-0.03500,74.9375,106,57,0.28303
6605060,-0.03500,73.3125,106,57,0.29011
6605070,-0.03000,71.8750,106,57,0.30208
6605080,-0.00500,69.5000,106,57,0.34310
6605090,0.01500,68.5625,106,57,0.37241
6605100,0.01500,68.5625,106,57,0.37241
6605110,0.02000,67.0625,106,57,0.43956
6605120,0.02000,67.0625,106,57,0.43956
6605130,0.05000,65.8750,106,57,0.54994
6605140,0.05000,65.6875,106,57,0.58901
6605150,0.02500,65.6875,106,57,0.62589
6605160,-0.01500,65.7500,106,57,0.68864
6605170,-0.06500,65.8125,106,57,0.71380
6605180,-0.11500,65.8750,106,57,0.73455
6605190,-0.14000,66.0000,106,57,0.75092
6605200,-0.15500,66.0625,106,57,0.77094
6605210,-0.14500,66.0000,106,57,0.77436
6605220,-0.13000,65.9375,106,57,0.77631
6605230,-0.12500,65.8750,106,57,0.77631
6605240,-0.18000,65.5625,106,57,0.77094
6605250,-0.19500,65.4375,106,57,0.76532
6605260,0.11000,65.1875,106,57,0.75751
6605270,0.82000,65.0000,106,57,0.74799
6605280,1.55000,64.5000,106,57,0.72552
6605290,1.41000,64.1875,106,57,0.71258
6605300,0.51000,63.9375,106,57,0.69890
6605310,-0.15500,63.6250,106,57,0.68547
6605320,-0.30000,62.8750,106,57,0.65714
6605330,-0.26000,62.5000,106,57,0.64103
6605340,-0.24000,62.1250,106,57,0.62442
6605350,-0.23000,61.7500,106,57,0.60757
6605360,-0.22000,61.0625,106,57,0.57411
6605370,-0.21000,60.7500,106,57,0.55800
6605380,-0.20000,60.4375,106,57,0.54188
6605390,-0.19500,60.1250,106,57,0.52576
6605400,-0.18500,59.6250,106,57,0.49768
6605410,-0.17500,59.3750,106,57,0.48620
6605420,-0.17000,59.0625,106,57,0.47399
6605430,-0.16000,58.7500,106,57,0.46178
6605440,-0.15500,58.1250,106,57,0.43956
6605450,-0.14500,58.0000,106,57,0.42979
6605460,-0.13500,58.2500,106,57,0.42100
6605470,-0.11500,59.4375,106,57,0.41270
6605480,-0.10500,66.1250,106,57,0.39878
6605490,-0.08500,72.0625,106,57,0.39267
6605500,-0.06500,78.9375,106,57,0.38706
6605510,-0.04000,86.0625,106,57,0.38266
6605520,-0.01500,97.8125,106,57,0.37558
6605530,0.01000,102.0625,106,57,0.37192
6605540,0.03500,105.3750,106,57,0.36850
6605550,0.05500,107.6875,106,57,0.36532
6605560,0.07000,109.7500,106,57,0.36020
6605570,0.09000,109.6250,106,57,0.35800
6605580,0.11000,109.0000,106,57,0.35604
6605590,0.13000,108.0000,106,57,0.35409
6605600,0.14000,105.4375,106,57,0.35018
6605610,0.13500,103.9375,106,57,0.34847
6605620,0.11000,102.3750,106,57,0.34579
6605630,0.06000,100.7500,106,57,0.34237
6605640,0.02000,97.6250,106,57,0.33480
6605650,-0.01500,96.1250,106,57,0.33065
6605660,-0.04000,94.6250,106,57,0.32674
6605670,-0.06000,93.1875,106,57,0.32283
6605680,-0.07000,90.2500,106,57,0.31600
6605690,-0.07500,88.7500,106,57,0.31258
6605700,-0.07500,88.7500,106,57,0.31258
6605710,-0.08000,85.8750,106,57,0.30745
6605720,-0.08500,82.8125,106,57,0.30379
6605730,-0.08000,81.1250,106,57,0.30159
6605740,-0.08000,79.3750,106,57,0.30012
6605750,-0.08500,77.5000,106,57,0.30061
6605760,-0.09500,73.9375,106,57,0.31136
6605770,-0.11500,72.3125,106,57,0.32381
6605780,-0.12000,71.0000,106,57,0.34188
6605790,-0.07500,69.8125,106,57,0.36581
6605800,-0.03000,68.1250,106,57,0.42491
6605810,-0.01500,68.1250,106,57,0.45519
6605820,-0.01500,67.0000,106,57,0.49158
6605830,0.01000,66.6250,106,57,0.53089
6605840,0.01000,66.6250,106,57,0.53089
6605850,0.03500,66.1875,106,57,0.64567
6605860,0.01000,66.1875,106,57,0.67863
6605870,-0.02500,66.1875,106,57,0.70769
6605880,-0.07000,66.2500,106,57,0.75311
6605890,-0.11500,66.3125,106,57,0.76923
6605900,-0.11500,66.3125,106,57,0.76923
6605910,-0.14500,66.2500,106,57,0.78828
6605920,-0.13500,66.0000,106,57,0.79194
6605930,-0.12500,65.7500,106,57,0.79121
6605940,-0.12500,65.5000,106,57,0.78779
6605950,-0.19000,65.1875,106,57,0.78315
6605960,-0.19000,64.5625,106,57,0.77118
6605970,0.16500,64.2500,106,57,0.75873
6605980,0.88500,63.9375,106,57,0.74628
6605990,1.54000,63.6250,106,57,0.73309
6606000,1.33500,63.0625,105,57,0.71013
6606010,0.40000,62.6875,105,57,0.69890
6606020,-0.21000,62.3750,105,57,0.68156
6606030,-0.30000,62.0625,105,57,0.66471
6606040,-0.26000,61.3750,105,57,0.63687
6606050,-0.24000,61.0000,105,57,0.61538
6606060,-0.23500,60.6875,105,57,0.59536
6606070,-0.23000,60.4375,105,57,0.58071
6606080,-0.22000,59.8750,105,57,0.54457
6606090,-0.21500,59.5625,105,57,0.52674
6606100,-0.21000,59.1875,105,57,0.51404
6606110,-0.20000,58.8750,105,57,0.50232
6606120,-0.19000,58.2500,105,57,0.45665
6606130,-0.18000,57.9375,105,57,0.44176
6606140,-0.18000,57.9375,105,57,0.44176
6606150,-0.17000,57.2500,105,57,0.41758
6606160,-0.16000,56.8750,105,57,0.39829
6606170,-0.14500,57.1875,105,57,0.39023
6606180,-0.13000,58.3125,105,57,0.38144
6606190,-0.11500,60.7500,105,57,0.37289
6606200,-0.09500,70.6875,105,57,0.36435
6606210,-0.07500,77.5625,105,57,0.36142
6606220,-0.05500,84.5625,105,57,0.35604
6606230,-0.03000,90.8125,105,57,0.35092
6606240,-0.00500,100.0625,105,57,0.34310
6606250,0.01500,103.1875,105,57,0.33846
6606260,0.04000,105.4375,105,57,0.33529
6606270,0.06000,106.8125,105,57,0.33284
6606280,0.08500,107.0000,105,57,0.32601
6606290,0.10500,106.0625,105,57,0.32283
6606300,0.13000,104.8750,105,57,0.31941
6606310,0.14500,103.4375,105,57,0.31600
6606320,0.14000,100.3750,105,57,0.30916
6606330,0.11000,98.8125,105,57,0.30549
6606340,0.11000,98.8125,105,57,0.30549
6606350,0.02000,95.5000,105,57,0.29573
6606360,-0.01500,92.3750,105,57,0.28718
6606370,-0.04000,90.8125,105,57,0.28352
6606380,-0.05500,89.2500,105,57,0.27985
6606390,-0.07000,87.6875,105,57,0.27619
6606400,-0.07500,84.6250,105,57,0.27155
6606410,-0.08000,83.1250,105,57,0.26886
6606420,-0.08500,81.6250,105,57,0.26593
6606430,-0.09000,80.0625,105,57,0.26300
6606440,-0.09500,76.5625,105,57,0.25861
6606450,-0.09500,74.6875,105,57,0.25836
6606460,-0.09500,72.8750,105,57,0.26081
6606470,-0.10000,71.1875,105,57,0.26716
6606480,-0.10000,68.3125,105,57,0.29402
6606490,-0.09500,67.1875,105,57,0.31233
6606500,-0.08500,66.2500,105,57,0.33333
6606510,-0.06000,65.5000,105,57,0.36117
6606520,-0.05000,64.4375,105,57,0.42930
6606530,-0.04500,64.1250,105,57,0.46618
6606540,-0.02500,64.0000,105,57,0.50305
6606550,0.00500,63.8750,105,57,0.53871
6606560,0.01000,63.9375,105,57,0.60147
6606570,-0.01500,64.0625,105,57,0.62711
6606580,-0.05500,64.1875,105,57,0.64908
6606590,-0.09500,64.3125,105,57,0.66691
6606600,-0.14500,64.5000,105,57,0.68620
6606610,-0.17500,64.5625,105,57,0.69231
6606620,-0.18500,64.5625,105,57,0.69621
6606630,-0.18500,64.5000,105,57,0.69792
6606640,-0.18000,64.2500,105,57,0.69377
6606650,-0.17000,64.0625,105,57,0.68864
6606660,-0.19000,63.8750,105,57,0.68156
6606670,-0.19000,63.8750,105,57,0.68156
6606680,-0.14500,63.1250,105,57,0.65226
6606690,0.31500,62.8125,105,57,0.64127
6606700,1.05500,62.5625,105,57,0.63004
6606710,1.44500,62.2500,105,57,0.61734
6606720,0.83500,61.6875,105,57,0.58852
6606730,0.00000,61.3750,105,57,0.57289
6606740,-0.31000,61.0625,105,57,0.55678
6606750,-0.31500,60.6875,105,57,0.54017
6606760,-0.27500,60.0625,105,57,0.50647
6606770,-0.26000,59.7500,105,57,0.48987
6606780,-0.25000,59.4375,105,57,0.47375
6606790,-0.24000,59.1250,105,57,0.45788
6606800,-0.23500,58.4375,105,57,0.43321
6606810,-0.23500,58.1250,105,57,0.42100
6606820,-0.22500,57.7500,105,57,0.40855
6606830,-0.21000,57.3750,105,57,0.39634
6606840,-0.21000,57.3750,105,57,0.39634
6606850,-0.19000,56.3750,105,57,0.36532
6606860,-0.22000,56.0000,105,57,0.35678
6606870,-0.23000,55.6875,105,57,0.34921
6606880,-0.19000,55.5000,105,57,0.33700
6606890,-0.19000,56.0625,105,57,0.33284
6606900,-0.24000,57.4375,105,57,0.32967
6606910,-0.27500,60.2500,105,57,0.32601
6606920,-0.24000,70.8125,105,57,0.31990
6606930,-0.15000,77.5625,105,57,0.31697
6606940,-0.07500,84.1250,105,57,0.31404
6606950,-0.03500,89.7500,105,57,0.31136
6606960,-0.00500,97.9375,105,57,0.30623
6606970,0.01000,100.6875,105,57,0.30379
6606980,0.04000,102.5625,105,57,0.30159
6606990,0.07000,103.6250,105,57,0.29915
6607000,0.10000,103.5000,105,57,0.29597
6607010,0.13000,102.5625,105,57,0.29377
6607020,0.15500,101.2500,105,57,0.29109
6607030,0.16000,99.7500,105,57,0.28840
6607040,0.12000,96.6250,105,57,0.28254
6607050,0.09000,95.0000,105,57,0.27912
6607060,0.05500,93.3125,105,57,0.27570
6607070,0.02000,91.6250,105,57,0.27204
6607080,-0.01500,88.3125,105,57,0.26496
6607090,-0.03000,86.7500,105,57,0.26252
6607100,-0.04500,85.2500,105,57,0.26056
6607110,-0.05000,83.8125,105,57,0.25763
6607120,-0.05500,80.9375,105,57,0.25006
6607130,-0.05500,79.4375,105,57,0.24689
6607140,-0.05500,77.9375,105,57,0.24396
6607150,-0.05500,76.3125,105,57,0.24151
6607160,-0.05500,72.8750,105,57,0.23907
6607170,-0.05500,71.1250,105,57,0.24029
6607180,-0.05500,69.5625,105,57,0.24396
6607190,-0.05500,68.1250,105,57,0.25128
6607200,-0.05500,65.8125,105,57,0.27424
6607210,-0.04000,64.9375,105,57,0.29328
6607220,-0.02000,64.1250,105,57,0.31770
6607230,-0.00500,63.5000,105,57,0.34676
6607240,-0.00500,62.7500,105,57,0.41490
6607250,0.02000,62.5625,105,57,0.45128
6607260,0.04500,62.4375,105,57,0.48718
6607270,0.05000,62.4375,105,57,0.52137
6607280,0.02000,62.5625,105,57,0.58071
6607290,-0.01500,62.6250,105,57,0.60195
6607300,-0.06500,62.7500,105,57,0.61807
6607310,-0.11500,62.8750,105,57,0.63321
6607320,-0.14000,63.0625,105,57,0.65665
6607330,-0.15000,63.1250,105,57,0.66374
6607340,-0.15000,63.1250,105,57,0.66789
6607350,-0.16000,63.1250,105,57,0.66935
6607360,-0.17000,62.8125,105,57,0.66398
6607370,-0.17000,62.6250,105,57,0.65788
6607380,-0.22000,62.4375,105,57,0.64982
6607390,-0.13500,62.2500,105,57,0.64005
6607400,0.31000,61.7500,105,57,0.61929
6607410,1.04500,61.5000,105,57,0.60757
6607420,1.42500,61.1875,105,57,0.59463
6607430,0.90000,60.9375,105,57,0.58071
6607440,0.08000,60.4375,105,57,0.55165
6607450,-0.28000,60.1875,105,57,0.53651
6607460,-0.30500,59.8750,105,57,0.52137
6607470,-0.29500,59.5625,105,57,0.50574
6607480,-0.31500,58.9375,105,57,0.47473
6607490,-0.29500,58.6250,105,57,0.46105
6607500,-0.24500,58.3125,105,57,0.44860
6607510,-0.23000,58.0000,105,57,0.43541
6607520,-0.23000,57.3125,105,57,0.40952
6607530,-0.22000,57.0000,105,57,0.39707
6607540,-0.21000,56.6250,105,57,0.38510
6607550,-0.19500,56.3125,105,57,0.37411
6607560,-0.18000,55.6875,105,57,0.35385
6607570,-0.17500,55.3750,105,57,0.34530
6607580,-0.19500,55.1250,105,57,0.33748
6607590,-0.23500,55.0000,105,57,0.33040
6607600,-0.25500,55.8125,105,57,0.32234
6607610,-0.23000,57.4375,105,57,0.31893
6607620,-0.19000,60.5625,105,57,0.31575
6607630,-0.15000,65.3750,105,57,0.31258
6607640,-0.11500,78.2500,105,57,0.30647
6607650,-0.07500,84.6250,105,57,0.30330
6607660,-0.03500,90.0625,105,57,0.30012
6607670,0.00000,94.4375,105,57,0.29719
6607680,0.03000,100.6875,105,57,0.29206
6607690,0.03000,100.6875,105,57,0.29206
6607700,0.08000,103.6875,105,57,0.28962
6607710,0.07500,103.9375,105,57,0.28816
6607720,0.08000,102.5000,105,57,0.28498
6607730,0.12000,101.2500,105,57,0.28278
6607740,0.14000,99.8125,105,57,0.28059
6607750,0.12000,98.3125,105,57,0.27814
6607760,0.08000,95.0625,105,57,0.27302
6607770,0.05000,93.3125,105,57,0.26984
6607780,0.02000,91.6875,105,57,0.26667
6607790,-0.00500,90.0625,105,57,0.26374
6607800,-0.02500,86.8750,105,57,0.26032
6607810,-0.03500,85.3750,105,57,0.25788
6607820,-0.04500,83.8750,105,57,0.25495
6607830,-0.04500,82.4375,105,57,0.25153
6607840,-0.04500,82.4375,105,57,0.25153
6607850,-0.09000,78.1250,105,57,0.24078
6607860,-0.08000,76.6250,105,57,0.23810
6607870,-0.06500,75.0000,105,57,0.23614
6607880,-0.07000,71.5625,105,57,0.23736
6607890,-0.06500,69.9375,105,57,0.24127
6607900,-0.06500,69.9375,105,57,0.24127
6607910,-0.03500,67.2500,105,57,0.25910
6607920,-0.02000,65.2500,105,57,0.29573
6607930,-0.00500,64.4375,105,57,0.32137
6607940,0.00000,63.8125,105,57,0.35116
6607950,0.01000,63.3125,105,57,0.38462
6607960,0.04000,62.6250,105,57,0.45739
6607970,0.06500,62.5000,105,57,0.49402
6607980,0.06000,62.5000,105,57,0.52894
6607990,0.03000,62.5000,105,57,0.56142
6608000,-0.02000,62.7500,105,57,0.60708
6608010,-0.07000,62.8750,105,57,0.62686
6608020,-0.11500,63.0000,105,57,0.64469
6608030,-0.14000,63.0625,105,57,0.65934
6608040,-0.14500,63.1250,105,57,0.67888
6608050,-0.14500,63.1250,105,57,0.68352
6608060,-0.13500,63.0625,105,57,0.68523
6608070,-0.12500,62.8750,105,57,0.68400
6608080,-0.15500,62.5625,105,57,0.67448
6608090,-0.21000,62.3750,105,57,0.66716
6608100,-0.08000,62.1875,105,57,0.65861
6608110,0.40000,62.0000,105,57,0.64884
6608120,1.13500,61.5000,105,57,0.62613
6608130,1.43000,61.3125,105,57,0.61343
6608140,0.71500,61.1250,105,57,0.59976
6608150,-0.10500,60.9375,105,57,0.58535
6608160,-0.33500,60.4375,105,57,0.56435
6608170,-0.31000,60.1250,105,57,0.56215
6608180,-0.27000,59.8125,105,57,0.55238
6608190,-0.25000,59.5000,105,57,0.54090
6608200,-0.24000,58.9375,105,57,0.51380
6608210,-0.23000,58.5625,105,57,0.49817
6608220,-0.22000,58.2500,105,57,0.48278
6608230,-0.22000,57.8750,105,57,0.46789
6608240,-0.21000,57.2500,105,57,0.43980
6608250,-0.21000,56.9375,105,57,0.42686
6608260,-0.20000,56.6250,105,57,0.41490
6608270,-0.19000,56.3125,105,57,0.40366
6608280,-0.18000,55.8125,105,57,0.38388
6608290,-0.17000,55.5625,105,57,0.37656
6608300,-0.19000,55.5625,105,57,0.37045
6608310,-0.20500,56.0000,105,57,0.36435
6608320,-0.17000,59.7500,105,57,0.35263
6608330,-0.14000,63.9375,105,57,0.34774
6608340,-0.11500,69.6875,105,57,0.34335
6608350,-0.09500,76.3750,105,57,0.33919
6608360,-0.07500,88.8750,105,57,0.33236
6608370,-0.05500,93.7500,105,57,0.32967
6608380,-0.03500,97.5625,105,57,0.32747
6608390,-0.01500,100.6250,105,57,0.32625
6608400,0.00000,104.3750,105,57,0.32381
6608410,0.02500,104.9375,105,57,0.32210
6608420,0.04500,104.8125,105,57,0.32039
6608430,0.07000,104.0625,105,57,0.31819
6608440,0.09500,101.6875,105,57,0.31404
6608450,0.09500,101.6875,105,57,0.31404
6608460,0.08000,98.7500,105,57,0.30916
6608470,0.04000,97.1875,105,57,0.30672
6608480,-0.02000,93.9375,105,57,0.30159
6608490,-0.08500,92.2500,105,57,0.29988
6608500,-0.13500,90.6875,105,57,0.29841
6608510,-0.16500,89.1875,105,57,0.29573
6608520,-0.16000,86.3125,105,57,0.28889
6608530,-0.14000,84.9375,105,57,0.28547
6608540,-0.12500,83.6250,105,57,0.28205
6608550,-0.11500,82.3125,105,57,0.27863
6608560,-0.11500,79.5625,105,57,0.27228
6608570,-0.12500,78.1250,105,57,0.26960
6608580,-0.12500,76.5000,105,57,0.26764
6608590,-0.11500,74.8750,105,57,0.26764
6608600,-0.12500,71.5000,105,57,0.27546
6608610,-0.12000,70.0000,105,57,0.28523
6608620,-0.09500,68.7500,105,57,0.30012
6608630,-0.06500,67.6875,105,57,0.32015
6608640,-0.04000,66.0625,105,57,0.37631
6608650,-0.03000,65.3750,105,57,0.41099
6608660,-0.01500,64.8750,105,57,0.44860
6608670,0.02000,64.5000,105,57,0.48816
6608680,0.03500,64.1250,105,57,0.56606
6608690,0.01500,64.0000,105,57,0.59731
6608700,-0.03000,64.0000,105,57,0.62369
6608710,-0.07000,64.0000,105,57,0.65079
6608720,-0.11000,64.1250,105,57,0.69768
6608730,-0.15000,64.2500,105,57,0.71575
6608740,-0.16000,64.3125,105,57,0.72967
6608750,-0.16500,64.3750,105,57,0.73993
6608760,-0.16000,64.4375,105,57,0.74969
6608770,-0.14500,64.3750,105,57,0.74994
6608780,-0.15000,64.3125,105,57,0.74774
6608790,-0.20000,64.1875,105,57,0.74310
6608800,-0.22500,63.8750,105,57,0.72845
6608810,0.03500,63.6250,105,57,0.71941
6608820,0.69000,63.4375,105,57,0.70891
6608830,1.39000,63.1875,105,57,0.69744
6608840,1.28000,62.6250,105,57,0.67106
6608850,0.43500,62.3125,105,57,0.65665
6608860,-0.18000,62.0000,105,57,0.64127
6608870,-0.32500,61.7500,105,57,0.62515
6608880,-0.29000,61.1250,105,57,0.59170
6608890,-0.26000,60.7500,105,57,0.57631
6608900,-0.25000,60.3750,105,57,0.56142
6608910,-0.25000,60.3750,105,57,0.56142
6608920,-0.24000,59.3125,105,57,0.51380
6608930,-0.23000,59.0000,105,57,0.49817
6608940,-0.22500,58.7500,105,57,0.48327
6608950,-0.21500,58.4375,105,57,0.46935
6608960,-0.20500,57.8125,105,57,0.44396
6608970,-0.19500,57.5625,105,57,0.43248
6608980,-0.19000,57.2500,105,57,0.42149
6608990,-0.18000,57.0000,105,57,0.41270
6609000,-0.17500,56.8125,106,57,0.39707
6609010,-0.16000,57.3125,106,57,0.38950
6609020,-0.15500,58.6250,106,57,0.38242
6609030,-0.13500,61.3750,106,57,0.37582
6609040,-0.12000,71.9375,106,57,0.36484
6609050,-0.10000,78.8750,106,57,0.36020
6609060,-0.08000,85.6875,106,57,0.35604
6609070,-0.06000,91.7500,106,57,0.35214
6609080,-0.03500,100.8125,106,57,0.34579
6609090,-0.01000,104.0000,106,57,0.34383
6609100,0.01000,106.2500,106,57,0.34261
6609110,0.02500,107.6875,106,57,0.34066
6609120,0.04000,108.1250,106,57,0.33602
6609130,0.06500,107.4375,106,57,0.33333
6609140,0.08500,106.3125,106,57,0.33065
6609150,0.10000,105.0000,106,57,0.32747
6609160,0.10000,102.0000,106,57,0.32112
6609170,0.07000,100.3750,106,57,0.31795
6609180,0.02500,98.7500,106,57,0.31453
6609190,-0.02500,97.1250,106,57,0.31209
6609200,-0.06500,93.8750,106,57,0.30794
6609210,-0.06500,93.8750,106,57,0.30794
6609220,-0.11500,90.8750,106,57,0.30281
6609230,-0.12500,89.5000,106,57,0.29988
6609240,-0.12500,86.6875,106,57,0.29280
6609250,-0.12500,85.2500,106,57,0.28913
6609260,-0.12500,83.8750,106,57,0.28547
6609270,-0.13000,82.3750,106,57,0.28230
6609280,-0.15000,79.2500,106,57,0.27839
6609290,-0.20000,77.6250,106,57,0.27937
6609300,-0.25000,75.9375,106,57,0.28327
6609310,-0.23000,74.3125,106,57,0.29035
6609320,-0.18000,71.5000,106,57,0.31844
6609330,-0.12500,70.3125,106,57,0.34042
6609340,-0.09000,69.3125,106,57,0.36801
6609350,-0.08000,68.3750,106,57,0.40073
6609360,-0.09500,67.0000,106,57,0.47692
6609370,-0.11000,66.5000,106,57,0.51819
6609380,-0.08500,66.1250,106,57,0.55922
6609390,-0.03500,65.8125,106,57,0.59341
6609400,-0.02500,65.5000,106,57,0.65348
6609410,-0.04500,65.4375,106,57,0.68230
6609420,-0.04500,65.4375,106,57,0.68230
6609430,-0.13000,65.5000,106,57,0.72869
6609440,-0.13000,65.5000,106,57,0.72869
6609450,-0.16000,65.8750,106,57,0.76972
6609460,-0.18500,65.9375,106,57,0.77656
6609470,-0.20500,65.9375,106,57,0.77998
6609480,-0.17500,65.8125,106,57,0.77802
6609490,-0.17000,65.6875,106,57,0.77338
6609500,-0.23000,65.5000,106,57,0.76679
6609510,-0.10500,65.2500,106,57,0.75873
6609520,0.42000,64.7500,106,57,0.73871
6609530,1.21000,64.4375,106,57,0.72698
6609540,1.56500,64.1875,106,57,0.71429
6609550,0.95000,63.8750,106,57,0.70061
6609560,0.05000,63.3125,106,57,0.67057
6609570,-0.31500,63.0000,106,57,0.65470
6609580,-0.32500,62.6875,106,57,0.63810
6609590,-0.29500,62.3750,106,57,0.62247
6609600,-0.27500,61.8125,106,57,0.59145
6609610,-0.25500,61.5625,106,57,0.57485
6609620,-0.25500,61.5625,106,57,0.57485
6609630,-0.24000,61.0000,106,57,0.54164
6609640,-0.23000,60.4375,106,57,0.51013
6609650,-0.21500,60.1250,106,57,0.49499
6609660,-0.20500,59.7500,106,57,0.48083
6609670,-0.19000,59.4375,106,57,0.46716
6609680,-0.18000,58.6875,106,57,0.44225
6609690,-0.17000,58.3750,106,57,0.43272
6609700,-0.15500,58.1250,106,57,0.42466
6609710,-0.14500,58.1875,106,57,0.41636
6609720,-0.12500,60.3125,106,57,0.40171
6609730,-0.11000,63.3750,106,57,0.39585
6609740,-0.10500,68.1875,106,57,0.39096
6609750,-0.11500,74.4375,106,57,0.38632
6609760,-0.09500,88.3125,106,57,0.37851
6609770,-0.09500,88.3125,106,57,0.37851
6609780,-0.01500,99.4375,106,57,0.37118
6609790,0.00000,103.4375,106,57,0.36850
6609800,0.00000,108.6875,106,57,0.36361
6609810,0.00000,110.0000,106,57,0.36093
6609820,0.02500,110.3750,106,57,0.35873
6609830,0.07500,109.9375,106,57,0.35629
6609840,0.10000,107.7500,106,57,0.35092
6609850,0.10000,106.4375,106,57,0.34823
6609860,0.08500,105.0000,106,57,0.34554
6609870,0.06000,103.4375,106,57,0.34286
6609880,0.03000,100.1250,106,57,0.33748
6609890,0.00000,98.4375,106,57,0.33553
6609900,-0.03500,96.7500,106,57,0.33358
6609910,-0.05000,95.1875,106,57,0.33065
6609920,-0.06500,92.0625,106,57,0.32430
6609930,-0.07500,90.5625,106,57,0.32112
6609940,-0.07500,89.0625,106,57,0.31795
6609950,-0.06500,87.5625,106,57,0.31453
6609960,-0.06500,84.5625,106,57,0.30818
6609970,-0.06500,83.0000,106,57,0.30598
6609980,-0.06000,81.3750,106,57,0.30501
6609990,-0.06000,81.3750,106,57,0.30501
6610000,-0.05000,76.0625,106,57,0.31355
6610010,-0.03500,74.3125,106,57,0.32259
6610020,-0.02500,72.6250,106,57,0.33626
6610030,-0.02000,71.1250,106,57,0.35531
6610040,-0.01000,68.6875,106,57,0.40904
6610050,0.01500,67.8125,106,57,0.44249
6610060,0.03000,67.0625,106,57,0.47937
6610070,0.02000,66.5000,106,57,0.51844
6610080,0.04000,65.8125,106,57,0.59194
6610090,0.07000,65.6250,106,57,0.62222
6610100,0.09000,65.5625,106,57,0.65421
6610110,0.08000,65.5625,106,57,0.68498
6610120,0.05000,65.6875,106,57,0.73675
6610130,0.00500,65.8125,106,57,0.75653
6610140,-0.04500,65.9375,106,57,0.77216
6610150,-0.07500,66.0000,106,57,0.78388
6610160,-0.08500,65.9375,106,57,0.79609
6610170,-0.07500,65.8125,106,57,0.79707
6610180,-0.06500,65.6875,106,57,0.79512
6610190,-0.05500,65.4375,106,57,0.79048
6610200,-0.09500,64.9375,106,57,0.77607
6610210,-0.16000,64.6250,106,57,0.75531
6610220,0.05000,64.3125,106,57,0.72747
6610230,0.67000,64.0000,106,57,0.70794
6610240,1.43500,63.4375,106,57,0.67717
6610250,1.56000,63.1250,106,57,0.66276
6610260,0.75500,62.8750,106,57,0.64835
6610270,-0.02000,62.5625,106,57,0.63346
6610280,-0.23000,62.0000,106,57,0.60391
6610290,-0.20000,61.6875,106,57,0.58999
6610300,-0.17000,61.3750,106,57,0.57485
6610310,-0.16000,61.1250,106,57,0.55897
6610320,-0.15500,60.5000,106,57,0.52625
6610330,-0.14000,60.1875,106,57,0.51013
6610340,-0.13500,59.8125,106,57,0.49451
6610350,-0.13500,59.4375,106,57,0.47961
6610360,-0.13500,58.6875,106,57,0.45201
6610370,-0.12500,58.3750,106,57,0.43932
6610380,-0.11000,58.0625,106,57,0.42759
6610390,-0.09000,57.7500,106,57,0.41783
6610400,-0.08000,57.1250,106,57,0.40049
6610410,-0.07000,56.8750,106,57,0.39219
6610420,-0.06000,56.9375,106,57,0.38437
6610430,-0.04500,57.6250,106,57,0.37729
6610440,-0.04500,57.6250,106,57,0.37729
6610450,-0.01000,67.7500,106,57,0.35946
6610460,0.00000,74.0625,106,57,0.35458
6610470,0.01500,80.8750,106,57,0.35018
6610480,0.02000,92.9375,106,57,0.34359
6610490,0.03000,97.4375,106,57,0.34115
6610500,0.05500,101.0000,106,57,0.33846
6610510,0.09500,103.6250,106,57,0.33553
6610520,0.12500,106.3125,106,57,0.32967
6610530,0.14500,106.4375,106,57,0.32674
6610540,0.16500,105.8125,106,57,0.32357
6610550,0.19000,104.7500,106,57,0.32015
6610560,0.20000,101.8125,106,57,0.31306
6610570,0.20500,100.1875,106,57,0.30940
6610580,0.18000,98.6250,106,57,0.30549
6610590,0.14000,96.9375,106,57,0.30256
6610600,0.10000,93.5625,106,57,0.29670
6610610,0.07500,92.0000,106,57,0.29280
6610620,0.04500,90.5000,106,57,0.28913
6610630,0.02000,89.0625,106,57,0.28547
6610640,0.00500,86.0625,106,57,0.27692
6610650,-0.00500,84.5625,106,57,0.27302
6610660,-0.00500,83.0000,106,57,0.26935
6610670,-0.00500,81.4375,106,57,0.26593
6610680,-0.01500,78.1875,106,57,0.26081
6610690,-0.01500,76.4375,106,57,0.26032
6610700,-0.02000,74.5625,106,57,0.26007
6610710,-0.02000,72.6875,106,57,0.26129
6610720,-0.02500,69.2500,106,57,0.27253
6610730,-0.02500,67.8750,106,57,0.28425
6610740,-0.02500,66.7500,106,57,0.30061
6610750,-0.01500,65.8125,106,57,0.32210
6610760,0.01000,64.3750,106,57,0.37924
6610770,0.03000,63.8750,106,57,0.41294
6610780,0.02500,63.5000,106,57,0.44860
6610790,0.04000,63.3125,106,57,0.47985
6610800,0.05000,63.1875,106,57,0.53919
6610810,0.05500,63.1875,106,57,0.56899
6610820,0.03000,63.1875,106,57,0.59609
6610830,-0.00500,63.3125,106,57,0.61978
6610840,-0.02500,63.5625,106,57,0.65617
6610850,-0.05500,63.7500,106,57,0.66862
6610860,-0.08500,63.8125,106,57,0.67766
6610870,-0.09500,63.8125,106,57,0.68327
6610880,-0.11500,63.6875,106,57,0.68620
6610890,-0.11000,63.6250,106,57,0.68400
6610900,-0.08000,63.4375,106,57,0.68034
6610910,-0.08000,63.2500,106,57,0.67497
6610920,-0.08000,63.2500,106,57,0.67497
6610930,-0.06500,62.3750,106,57,0.64884
6610940,0.37000,62.0625,106,57,0.63736
6610950,1.10000,61.8125,106,57,0.62466
6610960,1.48000,61.2500,106,57,0.59658
6610970,0.93000,61.0000,106,57,0.58095
6610980,0.11500,60.6875,106,57,0.56459
6610990,-0.22000,60.4375,106,57,0.54969
6611000,-0.23000,59.8750,105,57,0.51990
6611010,-0.19000,59.6250,105,57,0.50354
6611020,-0.17500,59.3750,105,57,0.48718
6611030,-0.17000,59.1250,105,57,0.47131
6611040,-0.16500,58.4375,105,57,0.44054
6611050,-0.16000,58.1250,105,57,0.42589
6611060,-0.16000,57.7500,105,57,0.41172
6611070,-0.16000,57.3750,105,57,0.39853
6611080,-0.16000,56.6250,105,57,0.37607
6611090,-0.16500,56.2500,105,57,0.36752
6611100,-0.18000,55.9375,105,57,0.35873
6611110,-0.18000,55.5625,105,57,0.34994
6611120,-0.18000,55.0000,105,57,0.33455
6611130,-0.18500,54.8750,105,57,0.32821
6611140,-0.18000,55.2500,105,57,0.32259
6611150,-0.16500,56.3125,105,57,0.31746
6611160,-0.13000,62.5625,105,57,0.30916
6611170,-0.09500,68.1250,105,57,0.30574
6611180,-0.07500,74.6875,105,57,0.30256
6611190,-0.05000,81.3125,105,57,0.30037
6611200,-0.03000,92.1875,105,57,0.29621
6611210,-0.02000,96.0000,105,57,0.29328
6611220,0.00000,98.9375,105,57,0.29060
6611230,0.02500,101.0625,105,57,0.28791
6611240,0.05500,102.8125,105,57,0.28181
6611250,0.09000,102.6250,105,57,0.27888
6611260,0.12500,101.8750,105,57,0.27570
6611270,0.15500,100.7500,105,57,0.27253
6611280,0.17500,97.8125,105,57,0.26764
6611290,0.15000,96.1875,105,57,0.26667
6611300,0.15000,96.1875,105,57,0.26667
6611310,0.06000,92.8125,105,57,0.26227
6611320,0.02000,89.6875,105,57,0.25641
6611330,-0.03000,88.1875,105,57,0.25348
6611340,-0.06500,86.7500,105,57,0.25031
6611350,-0.08500,85.2500,105,57,0.24689
6611360,-0.09500,82.1875,105,57,0.24029
6611370,-0.09500,82.1875,105,57,0.24029
6611380,-0.11500,79.1250,105,57,0.23346
6611390,-0.11500,77.6250,105,57,0.23126
6611400,-0.11500,74.3750,105,57,0.22735
6611410,-0.11000,72.6250,105,57,0.22540
6611420,-0.10500,70.8750,105,57,0.22491
6611430,-0.11500,69.2500,105,57,0.22686
6611440,-0.12500,66.4375,105,57,0.24078
6611450,-0.13500,65.3125,105,57,0.25446
6611460,-0.13500,64.3125,105,57,0.27302
6611470,-0.12500,63.4375,105,57,0.29670
6611480,-0.11500,62.2500,105,57,0.35165
6611490,-0.11500,61.8125,105,57,0.37924
6611500,-0.09500,61.5625,105,57,0.41148
6611510,-0.06500,61.3750,105,57,0.44591
6611520,-0.05500,61.3125,105,57,0.51355
6611530,-0.07000,61.3125,105,57,0.54408
6611540,-0.11500,61.3750,105,57,0.57167
6611550,-0.15500,61.4375,105,57,0.59560
6611560,-0.20000,61.5625,105,57,0.63126
6611570,-0.23500,61.6875,105,57,0.64298
6611580,-0.24500,61.7500,105,57,0.65079
6611590,-0.24500,61.7500,105,57,0.65421
6611600,-0.24000,61.6875,105,57,0.65324
6611610,-0.22500,61.5625,105,57,0.65031
6611620,-0.22000,61.4375,105,57,0.64567
6611630,-0.28000,61.3125,105,57,0.63932
6611640,-0.24500,61.0000,105,57,0.62271
6611650,0.11000,60.7500,105,57,0.61294
6611660,0.80000,60.5625,105,57,0.60220
6611670,1.34000,60.3125,105,57,0.59072
6611680,1.01500,59.8125,105,57,0.56679
6611690,0.15500,59.5625,105,57,0.55531
6611700,-0.31000,59.3125,105,57,0.54237
6611710,-0.36000,59.0625,105,57,0.52845
6611720,-0.32000,58.5000,105,57,0.49866
6611730,-0.30500,58.2500,105,57,0.48327
6611740,-0.29000,58.0000,105,57,0.46764
6611750,-0.28500,57.6875,105,57,0.45226
6611760,-0.27000,57.1250,105,57,0.42320
6611770,-0.26500,56.8125,105,57,0.40977
6611780,-0.25500,56.5000,105,57,0.39853
6611790,-0.24500,56.1875,105,57,0.38877
6611800,-0.23000,55.5625,105,57,0.36874
6611810,-0.22000,55.2500,105,57,0.35946
6611820,-0.21000,54.9375,105,57,0.35116
6611830,-0.20000,54.6875,105,57,0.34359
6611840,-0.19000,54.4375,105,57,0.32943
6611850,-0.19000,54.4375,105,57,0.32943
6611860,-0.18000,55.8750,105,57,0.31819
6611870,-0.18000,58.1875,105,57,0.31331
6611880,-0.16000,67.8125,105,57,0.30647
6611890,-0.14000,74.4375,105,57,0.30452
6611900,-0.11500,81.0625,105,57,0.30232
6611910,-0.10500,86.8750,105,57,0.29963
6611920,-0.08500,95.2500,105,57,0.29451
6611930,-0.06500,98.0625,105,57,0.29182
6611940,-0.04500,100.1875,105,57,0.28938
6611950,-0.02000,101.5000,105,57,0.28742
6611960,0.00000,101.6875,105,57,0.28327
6611970,0.02000,100.8750,105,57,0.28083
6611980,0.05000,99.7500,105,57,0.27937
6611990,0.06000,98.3750,105,57,0.27839
6612000,0.05000,95.1875,105,57,0.27424
6612010,0.01500,93.5000,105,57,0.27131
6612020,-0.03500,91.7500,105,57,0.26813
6612030,-0.09500,90.0000,105,57,0.26520
6612040,-0.14500,86.6250,105,57,0.25934
6612050,-0.17000,85.0625,105,57,0.25665
6612060,-0.18000,83.4375,105,57,0.25372
6612070,-0.18500,81.8750,105,57,0.25104
6612080,-0.19000,78.8750,105,57,0.24689
6612090,-0.19500,77.5000,105,57,0.24591
6612100,-0.19500,76.0625,105,57,0.24420
6612110,-0.19000,74.5625,105,57,0.24225
6612120,-0.18500,71.3750,105,57,0.23883
6612130,-0.18000,69.6875,105,57,0.23834
6612140,-0.17500,68.1250,105,57,0.24005
6612150,-0.18000,66.7500,105,57,0.24469
6612160,-0.17500,64.5625,105,57,0.26618
6612170,-0.16000,63.6875,105,57,0.28400
6612180,-0.13500,62.9375,105,57,0.30379
6612190,-0.12500,62.3125,105,57,0.32601
6612200,-0.11500,61.5000,105,57,0.38657
6612210,-0.09000,61.3125,105,57,0.42125
6612220,-0.06500,61.2500,105,57,0.45690
6612230,-0.06000,61.1875,105,57,0.49158
6612240,-0.08500,61.3125,105,57,0.55458
6612250,-0.12500,61.4375,105,57,0.58095
6612260,-0.16500,61.5625,105,57,0.61416
6612270,-0.21000,61.6875,105,57,0.64933
6612280,-0.24000,61.9375,105,57,0.68742
6612290,-0.27000,62.0000,105,57,0.69573
6612300,-0.29000,62.0000,105,57,0.70183
6612310,-0.27500,62.0000,105,57,0.70501
6612320,-0.25000,61.7500,105,57,0.70379
6612330,-0.26000,61.5625,105,57,0.69988
6612340,-0.33000,61.3750,105,57,0.69402
6612350,-0.20000,61.0000,105,57,0.67619
6612360,0.18500,60.7500,105,57,0.66471
6612370,0.91500,60.5625,105,57,0.65201
6612380,1.32000,60.3750,105,57,0.63956
6612390,0.77500,60.1250,105,57,0.62662
6612400,-0.03000,59.5625,105,57,0.59731
6612410,-0.36000,59.2500,105,57,0.58169
6612420,-0.38000,58.9375,105,57,0.56557
6612430,-0.34000,58.5625,105,57,0.54921
6612440,-0.31500,57.8750,105,57,0.51746
6612450,-0.30000,57.5625,105,57,0.50183
6612460,-0.28500,57.1875,105,57,0.48645
6612470,-0.28000,56.8750,105,57,0.47179
6612480,-0.28000,56.2500,105,57,0.44591
6612490,-0.27000,55.9375,105,57,0.43541
6612500,-0.25000,55.6250,105,57,0.42418
6612510,-0.23000,55.3750,105,57,0.41294
6612520,-0.22000,54.8125,105,57,0.39267
6612530,-0.21000,54.5000,105,57,0.38364
6612540,-0.19500,54.1875,105,57,0.37534
6612550,-0.18000,54.0625,105,57,0.36801
6612560,-0.16000,54.9375,105,57,0.35556
6612570,-0.15500,56.6250,105,57,0.35043
6612580,-0.13500,59.9375,105,57,0.34676
6612590,-0.11500,64.9375,105,57,0.34408
6612600,-0.09000,78.1250,105,57,0.33773
6612610,-0.07000,84.5000,105,57,0.33455
6612620,-0.05000,89.8750,105,57,0.33138
6612630,-0.03000,94.1250,105,57,0.32869
6612640,-0.00500,100.1250,105,57,0.32430
6612650,0.02000,101.9375,105,57,0.32210
6612660,0.05000,102.8750,105,57,0.31966
6612670,0.08000,103.0625,105,57,0.31746
6612680,0.11500,101.6250,105,57,0.31429
6612690,0.14000,100.3750,105,57,0.31331
6612700,0.14500,98.8750,105,57,0.31160
6612710,0.13000,97.2500,105,57,0.30940
6612720,0.08500,93.8125,105,57,0.30427
6612730,0.02500,92.0625,105,57,0.30110
6612740,-0.03000,90.3750,105,57,0.29792
6612750,-0.06500,88.6875,105,57,0.29426
6612760,-0.08000,85.5000,105,57,0.28694
6612770,-0.09000,84.0000,105,57,0.28278
6612780,-0.10000,82.5000,105,57,0.27961
6612790,-0.09500,81.0625,105,57,0.27741
6612800,-0.08000,78.2500,105,57,0.27082
6612810,-0.07000,76.8750,105,57,0.26716
6612820,-0.06500,75.3750,105,57,0.26398
6612830,-0.07000,73.8125,105,57,0.26129
6612840,-0.07500,70.5000,105,57,0.25934
6612850,-0.08000,68.8750,105,57,0.26178
6612860,-0.07500,67.5000,105,57,0.26764
6612870,-0.07500,66.3125,105,57,0.27790
6612880,-0.05500,64.4375,105,57,0.31062
6612890,-0.03500,63.6875,105,57,0.33138
6612900,-0.02500,63.0625,105,57,0.35897
6612910,-0.01500,62.5625,105,57,0.39194
6612920,0.01500,62.0625,105,57,0.46716
6612930,0.03500,62.0000,105,57,0.50647
6612940,0.03000,62.0000,105,57,0.54481
6612950,-0.00500,62.1250,105,57,0.58120
6612960,-0.05000,62.3750,105,57,0.64371
6612970,-0.09500,62.5625,105,57,0.66886
6612980,-0.13500,62.7500,105,57,0.68718
6612990,-0.16000,62.9375,105,57,0.70037
6613000,-0.16000,63.1875,106,57,0.72137
6613010,-0.15500,63.3125,106,57,0.72747
6613020,-0.14500,63.3125,106,57,0.73065
6613030,-0.14000,63.3125,106,57,0.73089
6613040,-0.19000,63.0625,106,57,0.72357
6613050,-0.21000,62.9375,106,57,0.71648
6613060,-0.21000,62.9375,106,57,0.71648
6613070,0.64000,62.5625,106,57,0.69792
6613080,1.35500,62.0625,106,57,0.67473
6613090,1.31500,61.8125,106,57,0.66252
6613100,0.49500,61.5625,106,57,0.64884
6613110,-0.16000,61.2500,106,57,0.63443
6613120,-0.32000,60.6875,106,57,0.60317
6613130,-0.28500,60.4375,106,57,0.58657
6613140,-0.25000,60.1250,106,57,0.56972
6613150,-0.24500,59.8750,106,57,0.55311
6613160,-0.25000,59.2500,106,57,0.52112
6613170,-0.25500,58.9375,106,57,0.50574
6613180,-0.24000,58.5625,106,57,0.49255
6613190,-0.22500,58.2500,106,57,0.48034
6613200,-0.22000,57.5625,106,57,0.45519
6613210,-0.22500,57.2500,106,57,0.44274
6613220,-0.23000,56.9375,106,57,0.43077
6613230,-0.23000,56.5625,106,57,0.41929
6613240,-0.21000,56.0000,106,57,0.39853
6613250,-0.19500,55.9375,106,57,0.38950
6613260,-0.18000,56.1875,106,57,0.38144
6613270,-0.17000,57.1250,106,57,0.37436
6613280,-0.15500,63.0625,106,57,0.36386
6613290,-0.13500,68.5000,106,57,0.36068
6613300,-0.11500,75.0625,106,57,0.35775
6613310,-0.08500,81.8125,106,57,0.35531
6613320,-0.08500,81.8125,106,57,0.35531
6613330,-0.04500,97.0625,106,57,0.34896
6613340,-0.01500,100.1875,106,57,0.34676
6613350,0.00500,102.6250,106,57,0.34432
6613360,0.03000,105.1250,106,57,0.33944
6613370,0.05000,105.1875,106,57,0.33724
6613380,0.08000,104.6875,106,57,0.33578
6613390,0.11000,103.7500,106,57,0.33480
6613400,0.13000,101.0625,106,57,0.33065
6613410,0.13000,99.6250,106,57,0.32821
6613420,0.10500,98.1250,106,57,0.32552
6613430,0.05000,96.5625,106,57,0.32259
6613440,-0.00500,93.3125,106,57,0.31697
6613450,-0.04500,91.7500,106,57,0.31429
6613460,-0.06500,90.3125,106,57,0.31160
6613470,-0.08000,88.8125,106,57,0.30842
6613480,-0.08500,85.9375,106,57,0.30232
6613490,-0.09500,84.5000,106,57,0.30012
6613500,-0.10500,83.1250,106,57,0.29719
6613510,-0.10500,81.6875,106,57,0.29377
6613520,-0.10000,78.8125,106,57,0.28694
6613530,-0.10500,77.2500,106,57,0.28425
6613540,-0.11000,75.6250,106,57,0.28278
6613550,-0.11500,74.0000,106,57,0.28352
6613560,-0.11500,70.9375,106,57,0.29451
6613570,-0.11000,69.6250,106,57,0.30623
6613580,-0.09000,68.5625,106,57,0.32039
6613590,-0.06500,67.6250,106,57,0.33797
6613600,-0.05500,66.1250,106,57,0.39194
6613610,-0.05000,65.5625,106,57,0.42589
6613620,-0.02500,65.0625,106,57,0.46325
6613630,-0.00500,64.7500,106,57,0.50232
6613640,0.01000,64.4375,106,57,0.58022
6613650,-0.00500,64.4375,106,57,0.61636
6613660,-0.03500,64.5000,106,57,0.64957
6613670,-0.07500,64.5625,106,57,0.67888
6613680,-0.12500,64.8125,106,57,0.71722
6613690,-0.16500,64.9375,106,57,0.73284
6613700,-0.17500,65.0000,106,57,0.74603
6613710,-0.16500,65.0625,106,57,0.75629
6613720,-0.15500,65.1250,106,57,0.76728
6613730,-0.15000,65.0625,106,57,0.76825
6613740,-0.18500,64.9375,106,57,0.76654
6613750,-0.27000,64.8125,106,57,0.76239
6613760,-0.14500,64.5000,106,57,0.74750
6613770,0.44000,64.2500,106,57,0.73748
6613780,1.26500,63.9375,106,57,0.72698
6613790,1.54500,63.6250,106,57,0.71600
6613800,0.83500,63.0625,106,57,0.69084
6613810,-0.04500,62.7500,106,57,0.67692
6613820,-0.35500,62.5000,106,57,0.66203
6613830,-0.32500,62.1875,106,57,0.64664
6613840,-0.32500,62.1875,106,57,0.64664
6613850,-0.27000,61.3125,106,57,0.59780
6613860,-0.27000,61.0000,106,57,0.58095
6613870,-0.26500,60.6875,106,57,0.56435
6613880,-0.25000,60.0000,106,57,0.53626
6613890,-0.24000,59.6250,106,57,0.52210
6613900,-0.22000,59.3125,106,57,0.50794
6613910,-0.21000,59.0000,106,57,0.49426
6613920,-0.20000,58.3125,106,57,0.46789
6613930,-0.19000,57.9375,106,57,0.45568
6613940,-0.19000,57.9375,106,57,0.45568
6613950,-0.18000,57.4375,106,57,0.43419
6613960,-0.16500,58.0000,106,57,0.41734
6613970,-0.15000,59.5000,106,57,0.41026
6613980,-0.13500,62.5000,106,57,0.40488
6613990,-0.11500,67.0625,106,57,0.40049
6614000,-0.10000,80.0000,106,57,0.39219
6614010,-0.10500,86.6875,106,57,0.38828
6614020,-0.08500,92.6250,106,57,0.38437
6614030,-0.04500,97.5625,106,57,0.38071
6614040,-0.01500,104.4375,106,57,0.37411
6614050,-0.01000,106.5000,106,57,0.37167
6614060,-0.00500,107.6875,106,57,0.36923
6614070,0.01500,108.0000,106,57,0.36654
6614080,0.04000,107.0000,106,57,0.36264
6614090,0.07000,105.8750,106,57,0.36020
6614100,0.10000,104.6250,106,57,0.35751
6614110,0.11500,103.1875,106,57,0.35458
6614120,0.10500,100.0625,106,57,0.34750
6614130,0.07000,98.4375,106,57,0.34383
6614140,0.03000,96.7500,106,57,0.34017
6614150,-0.00500,95.1250,106,57,0.33724
6614160,-0.03500,91.9375,106,57,0.33114
6614170,-0.05500,90.4375,106,57,0.32796
6614180,-0.06500,88.9375,106,57,0.32576
6614190,-0.08500,87.5000,106,57,0.32381
6614200,-0.10500,84.6875,106,57,0.31746
6614210,-0.11500,83.2500,106,57,0.31380
6614220,-0.10500,81.7500,106,57,0.31038
6614230,-0.10500,80.1875,106,57,0.30745
6614240,-0.10000,76.8750,106,57,0.30452
6614250,-0.09500,75.2500,106,57,0.30672
6614260,-0.09500,73.6250,106,57,0.31233
6614270,-0.10500,72.0625,106,57,0.32234
6614280,-0.09500,69.5625,106,57,0.35116
6614290,-0.07000,68.5625,106,57,0.37387
6614300,-0.03500,67.6875,106,57,0.40244
6614310,-0.03500,67.0000,106,57,0.43223
6614320,-0.04500,65.9375,106,57,0.49963
6614330,-0.01500,65.6250,106,57,0.53773
6614340,0.01500,65.4375,106,57,0.57558
6614350,0.01500,65.3125,106,57,0.61172
6614360,-0.01500,65.3125,106,57,0.67497
6614370,-0.05500,65.3750,106,57,0.70061
6614380,-0.10500,65.5000,106,57,0.71917
6614390,-0.15500,65.6250,106,57,0.73284
6614400,-0.17500,65.7500,106,57,0.75507
6614410,-0.18000,65.8125,106,57,0.76215
6614420,-0.17000,65.7500,106,57,0.76630
6614430,-0.17000,65.7500,106,57,0.76630
6614440,-0.16000,65.3125,106,57,0.76190
6614450,-0.23000,65.0625,106,57,0.75580
6614460,-0.23000,64.7500,106,57,0.74799
6614470,0.13500,64.4375,106,57,0.73846
6614480,0.87500,63.7500,106,57,0.71722
6614490,1.52500,63.4375,106,57,0.70525
6614500,1.30000,63.1250,106,57,0.69255
6614510,0.36000,62.7500,106,57,0.67912
6614520,-0.24500,62.1250,106,57,0.65031
6614530,-0.32500,61.8125,106,57,0.63492
6614540,-0.28500,61.4375,106,57,0.61905
6614550,-0.27000,61.1250,106,57,0.60269
6614560,-0.26000,60.5000,106,57,0.56923
6614570,-0.21000,60.1875,106,57,0.55263
6614580,-0.15000,59.8750,106,57,0.53797
6614590,-0.12500,59.5625,106,57,0.52454
6614600,-0.11500,58.8750,106,57,0.49695
6614610,-0.11500,58.5625,106,57,0.48352
6614620,-0.11000,58.2500,106,57,0.47057
6614630,-0.10500,57.8750,106,57,0.45836
6614640,-0.10000,57.1875,106,57,0.43736
6614650,-0.09500,56.8750,106,57,0.42808
6614660,-0.08500,56.7500,106,57,0.41905
6614670,-0.08500,57.0000,106,57,0.41099
6614680,-0.08500,60.5000,106,57,0.39927
6614690,-0.07500,64.6250,106,57,0.39341
6614700,-0.01500,70.3750,106,57,0.38803
6614710,0.03000,77.1875,106,57,0.38291
6614720,0.04000,90.1250,106,57,0.37411
6614730,0.08500,95.2500,106,57,0.37021
6614740,0.11500,99.3125,106,57,0.36679
6614750,0.11000,102.4375,106,57,0.36337
6614760,0.11000,106.1875,106,57,0.35702
6614770,0.12000,106.7500,106,57,0.35385
6614780,0.14500,106.5000,106,57,0.35165
6614790,0.16000,105.6875,106,57,0.34945
6614800,0.16500,103.0000,106,57,0.34310
6614810,0.16000,101.5000,106,57,0.33968
6614820,0.14500,99.9375,106,57,0.33602
6614830,0.11500,98.3750,106,57,0.33211
6614840,0.08000,95.0000,106,57,0.32503
6614850,0.04000,93.3125,106,57,0.32161
6614860,0.00500,91.6250,106,57,0.31795
6614870,-0.02500,90.0000,106,57,0.31404
6614880,-0.05000,86.9375,106,57,0.30891
6614890,-0.07500,85.5000,106,57,0.30598
6614900,-0.08000,84.0625,106,57,0.30256
6614910,-0.08500,82.6250,106,57,0.29915
6614920,-0.09000,79.6875,106,57,0.29231
6614930,-0.09500,78.0625,106,57,0.28938
6614940,-0.10000,76.3750,106,57,0.28718
6614950,-0.10000,76.3750,106,57,0.28718
6614960,-0.11500,71.2500,106,57,0.29011
6614970,-0.13000,69.7500,106,57,0.29744
6614980,-0.13000,68.5000,106,57,0.30745
6614990,-0.11500,67.3750,106,57,0.32088
6615000,-0.09500,65.6875,105,56,0.36630
6615010,-0.08500,65.0000,105,56,0.39683
6615020,-0.07500,64.5000,105,56,0.43126
6615030,-0.06500,64.1875,105,56,0.46813
6615040,-0.06500,64.1875,105,56,0.46813
6615050,-0.01500,63.6875,105,56,0.57827
6615060,-0.02000,63.6875,105,56,0.61050
6615070,-0.05500,63.7500,105,56,0.63883
6615080,-0.09000,63.9375,105,56,0.67668
6615090,-0.13500,64.0625,105,56,0.69231
6615100,-0.17000,64.1250,105,56,0.70549
6615110,-0.20000,64.1250,105,56,0.71600
6615120,-0.20000,64.0625,105,56,0.72821
6615130,-0.19000,64.0000,105,56,0.72991
6615140,-0.17500,63.8750,105,56,0.72894
6615150,-0.17000,63.6875,105,56,0.72552
6615160,-0.22000,63.1875,105,56,0.71233
6615170,-0.20000,62.9375,105,56,0.70330
6615180,0.13000,62.6875,105,56,0.69328
6615190,0.84000,62.5000,105,56,0.68254
6615200,1.46500,62.0000,105,56,0.65690
6615210,1.15000,61.7500,105,56,0.64225
6615220,0.27000,61.4375,105,56,0.62686
6615230,-0.24000,61.1875,105,56,0.61099
6615240,-0.31500,60.5625,105,56,0.57900
6615250,-0.23500,60.2500,105,56,0.56288
6615260,-0.19000,59.8750,105,56,0.54628
6615270,-0.20000,59.5625,105,56,0.52943
6615280,-0.20000,58.8750,105,56,0.50061
6615290,-0.19000,58.5625,105,56,0.48547
6615300,-0.18000,58.2500,105,56,0.47009
6615310,-0.18000,57.9375,105,56,0.45519
6615320,-0.18000,57.2500,105,56,0.42784
6615330,-0.17500,56.9375,105,56,0.41563
6615340,-0.16000,56.6250,105,56,0.40440
6615350,-0.15500,56.3125,105,56,0.39438
6615360,-0.15500,55.8125,105,56,0.37680
6615370,-0.15000,55.6875,105,56,0.36923
6615380,-0.14500,55.9375,105,56,0.36313
6615390,-0.14500,56.9375,105,56,0.35800
6615400,-0.12500,62.8750,105,56,0.34774
6615410,-0.10500,68.3125,105,56,0.34359
6615420,-0.08500,74.8750,105,56,0.33944
6615430,-0.06500,81.5625,105,56,0.33553
6615440,-0.04000,92.4375,105,56,0.32821
6615450,-0.02000,96.3750,105,56,0.32503
6615460,0.00000,99.4375,105,56,0.32210
6615470,0.03000,101.7500,105,56,0.31941
6615480,0.03000,101.7500,105,56,0.31941
6615490,0.07000,103.8125,105,56,0.31648
6615500,0.10000,103.6875,105,56,0.31453
6615510,0.13000,102.9375,105,56,0.31233
6615520,0.14000,100.5000,105,56,0.30794
6615530,0.14000,99.0000,105,56,0.30549
6615540,0.12000,97.4375,105,56,0.30305
6615550,0.07000,95.7500,105,56,0.30061
6615560,0.00500,92.3125,105,56,0.29548
6615570,-0.04500,90.6250,105,56,0.29255
6615580,-0.07000,88.9375,105,56,0.29035
6615590,-0.08500,87.3750,105,56,0.28889
6615600,-0.08000,84.2500,105,56,0.28449
6615610,-0.06500,82.7500,105,56,0.28181
6615620,-0.06500,81.3125,105,56,0.27888
6615630,-0.05500,79.8750,105,56,0.27570
6615640,-0.05500,76.9375,105,56,0.26935
6615650,-0.05500,75.3125,105,56,0.26642
6615660,-0.05500,73.6250,105,56,0.26398
6615670,-0.05500,71.9375,105,56,0.26276
6615680,-0.06000,68.6875,105,56,0.26691
6615690,-0.07500,67.3750,105,56,0.27253
6615700,-0.06500,66.2500,105,56,0.28181
6615710,-0.03000,65.3125,105,56,0.29548
6615720,-0.01500,63.6875,105,56,0.33773
6615730,-0.00500,63.1250,105,56,0.36630
6615740,0.02000,62.6875,105,56,0.39853
6615750,0.05000,62.3750,105,56,0.43346
6615760,0.06000,62.1250,105,56,0.50598
6615770,0.04000,62.1250,105,56,0.54090
6615780,0.00000,62.1250,105,56,0.56972
6615790,-0.04500,62.1875,105,56,0.59389
6615800,-0.09500,62.3750,105,56,0.64029
6615810,-0.13000,62.5000,105,56,0.65934
6615820,-0.14500,62.6250,105,56,0.67473
6615830,-0.14500,62.7500,105,56,0.68620
6615840,-0.13500,62.7500,105,56,0.69890
6615850,-0.12500,62.6875,105,56,0.70037
6615860,-0.12500,62.6875,105,56,0.70037
6615870,-0.20000,62.4375,105,56,0.69548
6615880,-0.15500,62.0625,105,56,0.68230
6615890,0.21500,61.8750,105,56,0.67350
6615900,0.93000,61.6875,105,56,0.66325
6615910,1.47000,61.4375,105,56,0.65201
6615920,1.04500,61.0000,105,56,0.62564
6615930,0.17000,60.7500,105,56,0.61123
6615940,-0.26000,60.4375,105,56,0.59634
6615950,-0.30500,60.1875,105,56,0.58095
6615960,-0.27000,59.5625,105,56,0.54896
6615970,-0.24000,59.2500,105,56,0.53284
6615980,-0.24000,58.9375,105,56,0.51868
6615990,-0.23000,58.6250,105,56,0.50574
6616000,-0.22000,57.9375,105,56,0.47643
6616010,-0.21000,57.5625,105,56,0.46203
6616020,-0.21000,57.1875,105,56,0.44835
6616030,-0.21000,57.1875,105,56,0.44835
6616040,-0.19500,56.2500,105,56,0.41050
6616050,-0.18000,55.9375,105,56,0.39927
6616060,-0.17000,55.6250,105,56,0.38877
6616070,-0.16000,55.3125,105,56,0.37900
6616080,-0.15000,54.9375,105,56,0.36313
6616090,-0.14000,55.0625,105,56,0.35775
6616100,-0.12500,55.8125,105,56,0.35189
6616110,-0.10500,57.5625,105,56,0.34628
6616120,-0.09000,65.6250,105,56,0.33578
6616130,-0.07000,71.8125,105,56,0.33089
6616140,-0.05000,78.5000,105,56,0.32674
6616150,-0.06500,84.8125,105,56,0.32308
6616160,-0.08500,94.4375,105,56,0.31648
6616170,-0.07500,97.8750,105,56,0.31331
6616180,-0.04500,100.6250,105,56,0.31111
6616190,-0.04500,100.6250,105,56,0.31111
6616200,0.02000,104.0625,105,56,0.30549
6616210,0.06000,103.6250,105,56,0.30305
6616220,0.10000,102.6875,105,56,0.30012
6616230,0.13500,101.3750,105,56,0.29695
6616240,0.13500,98.5000,105,56,0.29084
6616250,0.10000,96.8750,105,56,0.28791
6616260,0.05000,95.1875,105,56,0.28523
6616270,0.00000,93.5000,105,56,0.28230
6616280,-0.03500,90.1250,105,56,0.27741
6616290,-0.05000,88.5000,105,56,0.27619
6616300,-0.06000,86.9375,105,56,0.27424
6616310,-0.06500,85.3750,105,56,0.27179
6616320,-0.06500,82.5000,105,56,0.26642
6616330,-0.05500,81.1250,105,56,0.26325
6616340,-0.05500,79.8125,105,56,0.25958
6616350,-0.05500,78.4375,105,56,0.25592
6616360,-0.05500,75.3750,105,56,0.25031
6616370,-0.05000,73.6875,105,56,0.24908
6616380,-0.05500,72.0000,105,56,0.24957
6616390,-0.04000,70.3125,105,56,0.25177
6616400,-0.02500,67.5000,105,56,0.26374
6616410,0.00000,66.4375,105,56,0.27521
6616420,0.03500,65.5625,105,56,0.29158
6616430,0.06500,64.7500,105,56,0.31258
6616440,0.08000,63.5625,105,56,0.36801
6616450,0.06500,63.1250,105,56,0.40122
6616460,0.02000,62.8125,105,56,0.43663
6616470,-0.04000,62.6875,105,56,0.47302
6616480,-0.10500,62.5625,105,56,0.53993
6616490,-0.13500,62.6250,105,56,0.56606
6616500,-0.14500,62.6875,105,56,0.59292
6616510,-0.14500,62.7500,105,56,0.61807
6616520,-0.13500,63.0000,105,56,0.65885
6616530,-0.12500,63.0625,105,56,0.67375
6616540,-0.13500,63.1875,105,56,0.68498
6616550,-0.19500,63.1875,105,56,0.69255
6616560,-0.18500,63.1875,105,56,0.69768
6616570,0.13500,63.0625,105,56,0.69548
6616580,0.83500,62.9375,105,56,0.69109
6616590,1.45500,62.8125,105,56,0.68523
6616600,1.14500,62.4375,105,56,0.66935
6616610,0.27500,62.2500,105,56,0.65934
6616620,-0.22000,62.0625,105,56,0.64835
6616630,-0.30000,61.8125,105,56,0.63663
6616640,-0.27000,61.2500,105,56,0.61050
6616650,-0.25000,61.0000,105,56,0.59658
6616660,-0.24000,60.6875,105,56,0.58217
6616670,-0.23000,60.3750,105,56,0.56752
6616680,-0.23000,59.6875,105,56,0.53846
6616690,-0.22000,59.3125,105,56,0.52552
6616700,-0.21000,59.0000,105,56,0.51160
6616710,-0.20000,58.6250,105,56,0.49719
6616720,-0.19500,57.9375,105,56,0.46764
6616730,-0.18500,57.6250,105,56,0.45372
6616740,-0.18000,57.2500,105,56,0.44054
6616750,-0.16500,56.9375,105,56,0.42784
6616760,-0.15500,56.5000,105,56,0.40415
6616770,-0.14500,56.5625,105,56,0.39365
6616780,-0.13500,57.1875,105,56,0.38510
6616790,-0.11500,58.8125,105,56,0.37802
6616800,-0.10000,66.5625,105,56,0.36361
6616810,-0.08000,72.5625,105,56,0.35678
6616820,-0.06000,79.1250,105,56,0.35067
6616830,-0.03500,85.3750,105,56,0.34554
6616840,-0.01500,95.0625,105,56,0.33724
6616850,0.00500,98.5625,105,56,0.33382
6616860,0.03000,101.3750,105,56,0.33065
6616870,0.04500,103.3125,105,56,0.32796
6616880,0.07000,104.6875,105,56,0.32430
6616890,0.07000,104.6875,105,56,0.32430
6616900,0.11500,103.5000,105,56,0.32186
6616910,0.12500,102.3750,105,56,0.31990
6616920,0.11000,99.8125,105,56,0.31502
6616930,0.08000,98.3750,105,56,0.31258
6616940,0.01500,96.8750,105,56,0.31013
6616950,-0.03500,95.2500,105,56,0.30745
6616960,-0.06500,92.0000,105,56,0.30256
6616970,-0.07500,90.5000,105,56,0.30037
6616980,-0.08500,88.9375,105,56,0.29915
6616990,-0.13000,87.5000,105,56,0.29841
6617000,-0.20000,84.6875,105,56,0.29451
6617010,-0.22000,83.3750,105,56,0.29182
6617020,-0.19500,82.0000,105,56,0.28864
6617030,-0.17000,80.6250,105,56,0.28523
6617040,-0.14500,77.6250,105,56,0.27814
6617050,-0.14500,77.6250,105,56,0.27814
6617060,-0.08000,74.2500,105,56,0.27399
6617070,-0.07000,72.5625,105,56,0.27521
6617080,-0.06500,69.5625,105,56,0.28694
6617090,-0.05500,68.3750,105,56,0.29719
6617100,-0.04500,67.3125,105,56,0.31258
6617110,-0.02500,66.3750,105,56,0.33284
6617120,-0.01000,64.9375,105,56,0.38706
6617130,-0.00500,64.4375,105,56,0.41978
6617140,0.02000,64.1250,105,56,0.45495
6617150,0.04000,63.8750,105,56,0.49158
6617160,0.01000,63.7500,105,56,0.56215
6617170,-0.04500,63.7500,105,56,0.59414
6617180,-0.08000,63.8750,105,56,0.61905
6617190,-0.10500,64.0000,105,56,0.63932
6617200,-0.14000,64.2500,105,56,0.67595
6617210,-0.16000,64.3125,105,56,0.68987
6617220,-0.15500,64.3750,105,56,0.70061
6617230,-0.13500,64.3750,105,56,0.70769
6617240,-0.12500,64.3125,105,56,0.71306
6617250,-0.11500,64.1875,105,56,0.71184
6617260,-0.12500,64.0625,105,56,0.70842
6617270,-0.18500,63.8750,105,56,0.70305
6617280,-0.16000,63.5000,105,56,0.68767
6617290,0.17500,63.2500,105,56,0.67814
6617300,0.87500,62.9375,105,56,0.66764
6617310,1.45500,62.6875,105,56,0.65617
6617320,1.11500,62.1250,105,56,0.63028
6617330,0.23500,61.8125,105,56,0.61636
6617340,-0.26000,61.5625,105,56,0.60220
6617350,-0.26000,61.5625,105,56,0.60220
6617360,-0.29000,60.6875,105,56,0.55727
6617370,-0.26000,60.4375,105,56,0.54212
6617380,-0.25000,60.1250,105,56,0.52821
6617390,-0.23500,59.7500,105,56,0.51526
6617400,-0.23000,59.1250,105,56,0.48767
6617410,-0.22000,58.8125,105,56,0.47399
6617420,-0.20000,58.5000,105,56,0.46056
6617430,-0.19000,58.1875,105,56,0.44786
6617440,-0.18500,57.5625,105,56,0.42442
6617450,-0.18000,57.2500,105,56,0.41368
6617460,-0.17000,56.9375,105,56,0.40366
6617470,-0.16500,56.6250,105,56,0.39414
6617480,-0.17000,56.4375,105,56,0.38071
6617490,-0.16500,56.8750,105,56,0.37411
6617500,-0.15000,58.2500,105,56,0.36801
6617510,-0.13000,61.1250,105,56,0.36215
6617520,-0.10500,72.1875,105,56,0.35189
6617530,-0.08000,79.3125,105,56,0.34750
6617540,-0.08000,79.3125,105,56,0.34750
6617550,-0.06000,86.3125,105,56,0.34408
6617560,-0.01500,101.3125,105,56,0.33602
6617570,0.01500,104.5000,105,56,0.33358
6617580,0.03500,106.8750,105,56,0.33187
6617590,0.06000,108.3125,105,56,0.33065
6617600,0.08000,108.7500,105,56,0.32650
6617610,0.11000,108.1250,105,56,0.32405
6617620,0.13000,107.1875,105,56,0.32137
6617630,0.15000,106.0000,105,56,0.31893
6617640,0.14000,103.0625,105,56,0.31380
6617650,0.11000,101.5000,105,56,0.31087
6617660,0.06000,99.8750,105,56,0.30794
6617670,0.01000,98.3125,105,56,0.30476
6617680,-0.02500,95.1250,105,56,0.30061
6617690,-0.05500,93.6250,105,56,0.29817
6617700,-0.07500,92.0625,105,56,0.29524
6617710,-0.08000,90.6250,105,56,0.29206
6617720,-0.08500,87.8125,105,56,0.28596
6617730,-0.09000,86.5000,105,56,0.28254
6617740,-0.08500,85.1250,105,56,0.27888
6617750,-0.08500,83.6875,105,56,0.27546
6617760,-0.09000,80.6250,105,56,0.27033
6617770,-0.09000,78.9375,105,56,0.26984
6617780,-0.09000,77.2500,105,56,0.27155
6617790,-0.09000,75.4375,105,56,0.27595
6617800,-0.08000,72.3125,105,56,0.29573
6617810,-0.06500,71.0000,105,56,0.31233
6617820,-0.04500,69.9375,105,56,0.33407
6617830,-0.04500,69.0625,105,56,0.36068
6617840,-0.03500,67.6250,105,56,0.42662
6617850,-0.01500,67.0625,105,56,0.46398
6617860,-0.00500,66.6875,105,56,0.50256
6617870,-0.01500,66.4375,105,56,0.54115
6617880,-0.04500,66.1875,105,56,0.60195
6617890,-0.08000,66.1250,105,56,0.63175
6617900,-0.13000,66.1250,105,56,0.66007
6617910,-0.17000,66.1875,105,56,0.68547
6617920,-0.19000,66.3125,105,56,0.72479
6617930,-0.19500,66.3750,105,56,0.73871
6617940,-0.19000,66.3750,105,56,0.74896
6617950,-0.18000,66.3750,105,56,0.75556
6617960,-0.18500,66.2500,105,56,0.75922
6617970,-0.25000,66.1250,105,56,0.75726
6617980,-0.25000,66.1250,105,56,0.75726
6617990,0.08000,65.7500,105,56,0.74701
6618000,0.81000,65.2500,105,57,0.73114
6618010,1.50500,64.9375,105,57,0.72137
6618020,1.30000,64.6250,105,57,0.71062
6618030,0.38000,64.3125,105,57,0.69915
6618040,-0.24000,63.6875,105,57,0.67326
6618050,-0.36500,63.3125,105,57,0.65910
6618060,-0.32000,63.0000,105,57,0.64420
6618070,-0.32000,63.0000,105,57,0.64420
6618080,-0.28500,62.0000,105,57,0.60024
6618090,-0.27000,61.6250,105,57,0.58510
6618100,-0.26000,61.3125,105,57,0.56923
6618110,-0.25500,60.9375,105,57,0.55336
6618120,-0.25000,60.2500,105,57,0.52137
6618130,-0.24000,59.9375,105,57,0.50574
6618140,-0.23500,59.5000,105,57,0.49109
6618150,-0.22000,59.1250,105,57,0.47692
6618160,-0.20000,58.3750,105,57,0.45031
6618170,-0.18500,58.0000,105,57,0.43858
6618180,-0.17000,57.8125,105,57,0.42882
6618190,-0.15500,57.8750,105,57,0.42076
6618200,-0.14000,60.3750,105,57,0.40440
6618210,-0.12500,63.6875,105,57,0.39683
6618220,-0.10000,68.6875,105,57,0.38999
6618230,-0.10000,75.0000,105,57,0.38999
6618240,-0.05500,88.2500,105,57,0.37216
6618250,-0.02500,93.9375,105,57,0.36728
6618260,-0.00500,98.7500,105,57,0.36288
6618270,0.01000,102.5625,105,57,0.35897
6618280,0.03000,107.5625,105,57,0.35360
6618290,0.06000,108.7500,105,57,0.35067
6618300,0.08000,109.0625,105,57,0.34750
6618310,0.09500,108.8125,105,57,0.34432
6618320,0.10500,107.0625,105,57,0.33797
6618330,0.10000,105.7500,105,57,0.33480
6618340,0.09000,104.2500,105,57,0.33138
6618350,0.07000,102.6875,105,57,0.32821
6618360,0.03000,99.5625,105,57,0.32186
6618370,-0.00500,98.0000,105,57,0.31893
6618380,-0.03500,96.5000,105,57,0.31673
6618390,-0.05000,95.0000,105,57,0.31502
6618400,-0.05500,92.0625,105,57,0.30965
6618410,-0.06000,90.5625,105,57,0.30647
6618420,-0.07000,89.1875,105,57,0.30330
6618430,-0.06500,87.8125,105,57,0.29988
6618440,-0.06500,87.8125,105,57,0.29988
6618450,-0.07000,83.5625,105,57,0.29011
6618460,-0.07000,83.5625,105,57,0.29011
6618470,-0.08500,80.4375,105,57,0.28596
6618480,-0.08500,77.0000,105,57,0.28840
6618490,-0.08500,75.3125,105,57,0.29304
6618500,-0.07500,73.6875,105,57,0.30085
6618510,-0.05500,72.1250,105,57,0.31306
6618520,-0.02500,69.6875,105,57,0.35238
6618530,-0.01500,68.8125,105,57,0.37973
6618540,-0.01500,68.1250,105,57,0.41099
6618550,-0.01500,68.1250,105,57,0.41099
6618560,0.03000,66.6250,105,57,0.51795
6618570,0.03500,66.4375,105,57,0.55385
6618580,0.01000,66.2500,105,57,0.58339
6618590,-0.01500,66.1875,105,57,0.60855
6618600,-0.06000,66.2500,105,57,0.65812
6618610,-0.10500,66.2500,105,57,0.67888
6618620,-0.13500,66.3125,105,57,0.69621
6618630,-0.13500,66.3125,105,57,0.71013
6618640,-0.13000,66.3125,105,57,0.72869
6618650,-0.11500,66.2500,105,57,0.73333
6618660,-0.11500,66.1250,105,57,0.73553
6618670,-0.17000,65.8750,105,57,0.73553
6618680,-0.19000,65.4375,105,57,0.72821
6618690,0.10500,65.1875,105,57,0.72210
6618700,0.80500,64.8750,105,57,0.71477
6618710,1.54500,64.6250,105,57,0.70647
6618720,1.46000,63.9375,105,57,0.68645
6618730,0.57500,63.5625,105,57,0.67546
6618740,-0.11500,63.2500,105,57,0.66374
6618750,-0.27000,62.9375,105,57,0.65128
6618760,-0.23500,62.3125,105,57,0.62442
6618770,-0.21000,61.9375,105,57,0.61026
6618780,-0.20000,61.5625,105,57,0.59707
6618790,-0.19500,61.1875,105,57,0.58413
6618800,-0.19000,60.4375,105,57,0.55580
6618810,-0.18000,60.0625,105,57,0.54139
6618820,-0.18000,59.7500,105,57,0.52723
6618830,-0.17500,59.3750,105,57,0.51306
6618840,-0.17500,58.6250,105,57,0.48645
6618850,-0.17000,58.2500,105,57,0.47448
6618860,-0.17000,57.8750,105,57,0.46300
6618870,-0.16000,57.5000,105,57,0.45250
6618880,-0.15500,57.0000,105,57,0.43590
6618890,-0.13500,57.1875,105,57,0.42808
6618900,-0.12500,58.1250,105,57,0.42051
6618910,-0.10500,60.3125,105,57,0.41343
6618920,-0.08000,69.6250,105,57,0.40073
6618930,-0.05500,76.3125,105,57,0.39512
6618940,-0.03500,83.3750,105,57,0.38974
6618950,-0.01000,89.9375,105,57,0.38510
6618960,0.01000,100.0000,105,57,0.37680
6618970,0.03500,103.5000,105,57,0.37314
6618980,0.06000,106.1250,105,57,0.37021
6618990,0.08000,107.8125,105,57,0.36777
6619000,0.10000,108.6250,105,57,0.36190
6619010,0.12500,107.9375,105,57,0.35873
6619020,0.14500,106.8125,105,57,0.35556
6619030,0.16000,105.4375,105,57,0.35189
6619040,0.14500,102.2500,105,57,0.34432
6619050,0.12000,100.5625,105,57,0.34066
6619060,0.08000,98.8125,105,57,0.33700
6619070,0.04000,97.1250,105,57,0.33358
6619080,0.00500,93.8750,105,57,0.32821
6619090,-0.02000,92.2500,105,57,0.32503
6619100,-0.02000,92.2500,105,57,0.32503
6619110,-0.05000,89.1250,105,57,0.31746
6619120,-0.05500,86.2500,105,57,0.30916
6619130,-0.06500,84.8125,105,57,0.30501
6619140,-0.07000,83.3750,105,57,0.30085
6619150,-0.07500,81.8125,105,57,0.29695
6619160,-0.07500,78.5000,105,57,0.29060
6619170,-0.08500,76.6875,105,57,0.28938
6619180,-0.09000,74.8750,105,57,0.28987
6619190,-0.09500,73.1250,105,57,0.29182
6619200,-0.09500,70.0000,105,57,0.30525
6619210,-0.08500,68.7500,105,57,0.31844
6619220,-0.06500,67.6875,105,57,0.33675
6619230,-0.04500,66.8125,105,57,0.36020
6619240,-0.04500,65.5000,105,57,0.41880
6619250,-0.03000,65.0625,105,57,0.45250
6619260,-0.00500,64.8125,105,57,0.48718
6619270,0.01000,64.6875,105,57,0.52186
6619280,0.00000,64.6875,105,57,0.57607
6619290,-0.04000,64.8125,105,57,0.60195
6619300,-0.08500,64.9375,105,57,0.62637
6619310,-0.12500,65.0625,105,57,0.64786
6619320,-0.16000,65.2500,105,57,0.68083
6619330,-0.17000,65.3125,105,57,0.69182
6619340,-0.17000,65.2500,105,57,0.69939
6619350,-0.16000,65.1875,105,57,0.70379
6619360,-0.15000,64.8750,105,57,0.70452
6619370,-0.15500,64.6875,105,57,0.70159
6619380,-0.21500,64.4375,105,57,0.69695
6619390,-0.18500,64.1875,105,57,0.69084
6619400,0.19500,63.6250,105,57,0.67497
6619410,0.91500,63.3125,105,57,0.66496
6619420,1.43500,63.0000,105,57,0.65372
6619430,1.04500,62.6875,105,57,0.64151
6619440,0.16500,62.0000,105,57,0.61490
6619450,-0.28500,61.6875,105,57,0.60049
6619460,-0.33500,61.3750,105,57,0.58559
6619470,-0.31000,61.0000,105,57,0.57045
6619480,-0.30000,60.2500,105,57,0.54383
6619490,-0.28500,59.9375,105,57,0.52967
6619500,-0.27000,59.5625,105,57,0.51502
6619510,-0.25500,59.2500,105,57,0.49988
6619520,-0.24000,58.5625,105,57,0.47057
6619530,-0.23000,58.1875,105,57,0.45714
6619540,-0.22500,57.8125,105,57,0.44420
6619550,-0.21500,57.5000,105,57,0.43199
6619560,-0.20000,56.8125,105,57,0.41001
6619570,-0.18000,56.5000,105,57,0.40171
6619580,-0.18000,56.5000,105,57,0.40171
6619590,-0.10500,55.9375,105,57,0.38755
6619600,-0.09000,56.1250,105,57,0.37460
6619610,-0.08500,57.1250,105,57,0.36874
6619620,-0.07500,59.2500,105,57,0.36337
6619630,-0.06500,62.9375,105,57,0.35873
6619640,-0.06500,62.9375,105,57,0.35873
6619650,-0.05500,81.5625,105,57,0.34774
6619660,-0.05500,81.5625,105,57,0.34774
6619670,0.00000,92.7500,105,57,0.34212
6619680,0.03000,99.8125,105,57,0.33895
6619690,0.06000,102.0625,105,57,0.33724
6619700,0.08500,103.5000,105,57,0.33504
6619710,0.11000,104.1250,105,57,0.33284
6619720,0.13500,103.3125,105,57,0.32772
6619730,0.16500,102.2500,105,57,0.32479
6619740,0.17500,100.8750,105,57,0.32112
6619750,0.17000,99.3750,105,57,0.31722
6619760,0.14000,96.2500,105,57,0.30940
6619770,0.09500,94.6250,105,57,0.30672
6619780,0.05000,92.9375,105,57,0.30476
6619790,0.01500,91.3125,105,57,0.30208
6619800,-0.01000,88.0625,105,57,0.29573
6619810,-0.02500,86.5625,105,57,0.29206
6619820,-0.03000,85.0625,105,57,0.28840
6619830,-0.03500,83.6250,105,57,0.28449
6619840,-0.03500,80.6875,105,57,0.27643
6619850,-0.03000,79.1875,105,57,0.27253
6619860,-0.03000,77.6875,105,57,0.26886
6619870,-0.03000,76.0625,105,57,0.26545
6619880,-0.03000,72.7500,105,57,0.26300
6619890,-0.03000,71.0625,105,57,0.26325
6619900,-0.03000,69.5000,105,57,0.26545
6619910,-0.02000,68.1250,105,57,0.27057
6619920,-0.00500,65.8750,105,57,0.29280
6619930,0.01500,65.0000,105,57,0.31111
6619940,0.02000,64.3125,105,57,0.33431
6619950,0.03500,63.7500,105,57,0.36190
6619960,0.07500,63.1875,105,57,0.42540
6619970,0.12500,63.0625,105,57,0.45495
6619980,0.16500,63.0625,105,57,0.48230
6619990,0.16000,63.0625,105,57,0.51209
6620000,0.12000,63.2500,105,57,0.56899
6620010,0.06000,63.4375,105,57,0.59341
6620020,-0.02500,63.5625,105,57,0.61441
6620030,-0.08000,63.6875,105,57,0.63150
6620040,-0.10500,63.5000,105,57,0.65421
6620050,-0.10000,63.4375,105,57,0.66032
6620060,-0.09500,63.3750,105,57,0.66325
6620070,-0.08500,63.3125,105,57,0.66374
6620080,-0.11500,63.0000,105,57,0.65788
6620090,-0.16500,62.8125,105,57,0.65226
6620100,-0.06500,62.5625,105,57,0.64542
6620110,0.40500,62.2500,105,57,0.63712
6620120,1.14000,61.6875,105,57,0.61758
6620130,1.47000,61.4375,105,57,0.60635
6620140,0.89500,61.1875,105,57,0.59438
6620150,0.09500,60.9375,105,57,0.58169
6620160,-0.22500,60.3125,105,57,0.55458
6620170,-0.22000,59.9375,105,57,0.54164
6620180,-0.18000,59.5625,105,57,0.52918
6620190,-0.17000,59.2500,105,57,0.51526
6620200,-0.17000,58.6250,105,57,0.48620
6620210,-0.16000,58.3125,105,57,0.47179
6620220,-0.15500,58.0000,105,57,0.45788
6620230,-0.15500,57.6875,105,57,0.44469
6620240,-0.18000,56.9375,105,57,0.42051
6620250,-0.19000,56.5625,105,57,0.40928
6620260,-0.15000,56.1875,105,57,0.39902
6620270,-0.12000,55.8125,105,57,0.38974
6620280,-0.09000,55.1875,105,57,0.37607
6620290,-0.07500,54.9375,105,57,0.36923
6620300,-0.09500,54.8125,105,57,0.36264
6620310,-0.11500,54.9375,105,57,0.35604
6620320,-0.09500,57.4375,105,57,0.34457
6620330,-0.07000,60.7500,105,57,0.33993
6620340,-0.05500,65.8125,105,57,0.33578
6620350,-0.03500,72.3125,105,57,0.33236
6620360,-0.00500,85.4375,105,57,0.32723
6620370,0.02000,90.6875,105,57,0.32601
6620380,0.04500,94.8750,105,57,0.32552
6620390,0.07000,98.1875,105,57,0.32479
6620400,0.10000,102.5625,105,57,0.32259
6620410,0.12000,103.4375,105,57,0.32112
6620420,0.14500,103.5000,105,57,0.31917
6620430,0.17000,102.8750,105,57,0.31673
6620440,0.17000,102.8750,105,57,0.31673
6620450,0.20500,99.1250,105,57,0.30867
6620460,0.19500,97.6250,105,57,0.30427
6620470,0.15500,96.1250,105,57,0.29866
6620480,0.10500,92.8750,105,57,0.29377
6620490,0.06000,91.2500,105,57,0.29158
6620500,0.03000,89.6250,105,57,0.28938
6620510,0.01000,88.0000,105,57,0.28694
6620520,0.01000,84.9375,105,57,0.28132
6620530,0.00000,83.4375,105,57,0.27814
6620540,-0.00500,82.0000,105,57,0.27448
6620550,0.00000,80.5000,105,57,0.27057
6620560,0.03000,77.3750,105,57,0.26276
6620570,0.05000,75.7500,105,57,0.26081
6620580,0.04000,74.0000,105,57,0.25983
6620590,0.02500,72.2500,105,57,0.25885
6620600,0.01500,68.8750,105,57,0.26056
6620610,0.01000,67.4375,105,57,0.26471
6620620,0.02000,66.1875,105,57,0.27253
6620630,0.04000,65.0625,105,57,0.28449
6620640,0.07000,63.3750,105,57,0.32332
6620650,0.08500,62.7500,105,57,0.34994
6620660,0.10000,62.3125,105,57,0.38071
6620670,0.11500,62.0000,105,57,0.41392
6620680,0.11500,61.7500,105,57,0.47253
6620690,0.09000,61.7500,105,57,0.50379
6620700,0.09000,61.7500,105,57,0.50379
6620710,0.01000,62.0000,105,57,0.56484
6620720,-0.04500,62.3125,105,57,0.61514
6620730,-0.09500,62.5625,105,57,0.63516
6620740,-0.11500,62.7500,105,57,0.65153
6620750,-0.11000,62.9375,105,57,0.66422
6620760,-0.10000,63.0000,105,57,0.67912
6620770,-0.09500,62.9375,105,57,0.68132
6620780,-0.10000,62.8125,105,57,0.68059
6620790,-0.16500,62.6250,105,57,0.67839
6620800,-0.15000,62.1250,105,57,0.66862
6620810,0.19000,61.8750,105,57,0.66081
6620820,0.86500,61.6250,105,57,0.65128
6620830,1.41500,61.3125,105,57,0.64029
6620840,1.41500,61.3125,105,57,0.64029
6620850,0.24500,60.6875,105,57,0.60073
6620860,-0.22000,60.5000,105,57,0.58559
6620870,-0.22000,60.5000,105,57,0.58559
6620880,-0.18000,59.7500,105,57,0.54042
6620890,-0.17000,59.5000,105,57,0.52479
6620900,-0.17000,59.1875,105,57,0.50867
6620910,-0.17500,58.8125,105,57,0.49231
6620920,-0.17000,58.0000,105,57,0.45983
6620930,-0.17500,57.5625,105,57,0.44420
6620940,-0.18000,57.1875,105,57,0.42930
6620950,-0.18000,56.8125,105,57,0.41490
6620960,-0.18000,56.1250,105,57,0.38779
6620970,-0.18500,55.8750,105,57,0.37705
6620980,-0.18500,55.5625,105,57,0.36777
6620990,-0.18000,55.3125,105,57,0.35824
6621000,-0.16000,54.9375,105,57,0.34042
6621010,-0.13500,55.2500,105,57,0.33284
6621020,-0.11500,56.2500,105,57,0.32650
6621030,-0.10500,58.4375,105,57,0.32112
6621040,-0.09000,67.5625,105,57,0.31331
6621050,-0.07500,74.1250,105,57,0.31062
6621060,-0.05500,80.8125,105,57,0.30818
6621070,-0.03500,86.8750,105,57,0.30672
6621080,-0.01500,95.9375,105,57,0.30330
6621090,0.01000,99.1250,105,57,0.30085
6621100,0.03500,101.5000,105,57,0.29866
6621110,0.06000,103.1250,105,57,0.29670
6621120,0.08000,103.7500,105,57,0.29255
6621130,0.11000,103.1250,105,57,0.29060
6621140,0.14000,102.1250,105,57,0.28864
6621150,0.15500,100.8125,105,57,0.28669
6621160,0.14000,97.7500,105,57,0.28254
6621170,0.09500,96.1250,105,57,0.28107
6621180,0.04500,94.5000,105,57,0.28034
6621190,0.00000,92.8750,105,57,0.27888
6621200,-0.03500,89.6875,105,57,0.27546
6621210,-0.06500,88.1875,105,57,0.27302
6621220,-0.08500,86.6875,105,57,0.27009
6621230,-0.09000,85.3125,105,57,0.26667
6621240,-0.09000,82.5000,105,57,0.25983
6621250,-0.08500,81.1250,105,57,0.25641
6621260,-0.09500,79.7500,105,57,0.25299
6621270,-0.10500,78.3125,105,57,0.25055
6621280,-0.11500,75.1875,105,57,0.24640
6621290,-0.11500,73.4375,105,57,0.24444
6621300,-0.11500,71.6875,105,57,0.24371
6621310,-0.12000,70.0000,105,57,0.24542
6621320,-0.11000,67.1250,105,57,0.25910
6621330,-0.08500,66.0625,105,57,0.27253
6621340,-0.07000,65.1250,105,57,0.29084
6621350,-0.06000,64.2500,105,57,0.31429
6621360,-0.03500,63.0625,105,57,0.37460
6621370,-0.01000,62.7500,105,57,0.40488
6621380,0.00500,62.5000,105,57,0.43419
6621390,-0.00500,62.4375,105,57,0.46740
6621400,-0.03500,62.5000,105,57,0.53553
6621410,-0.07500,62.5625,105,57,0.56703
6621420,-0.11500,62.6875,105,57,0.59560
6621430,-0.15500,62.8125,105,57,0.62051
6621440,-0.15500,62.8125,105,57,0.62051
6621450,-0.17000,63.1250,105,57,0.67082
6621460,-0.16000,63.1875,105,57,0.67961
6621470,-0.15500,63.1250,105,57,0.68425
6621480,-0.14500,63.0000,105,57,0.68596
6621490,-0.19000,62.9375,105,57,0.68425
6621500,-0.20000,62.8125,105,57,0.68034
6621510,0.08000,62.6250,105,57,0.67473
6621520,0.71500,62.2500,105,57,0.65885
6621530,1.34500,62.0625,105,57,0.64884
6621540,1.22000,61.8125,105,57,0.63810
6621550,0.38500,61.5625,105,57,0.62637
6621560,-0.20000,61.0625,105,57,0.60073
6621570,-0.31500,60.7500,105,57,0.58828
6621580,-0.28000,60.5000,105,57,0.57607
6621590,-0.25500,60.1875,105,57,0.56264
6621600,-0.24000,59.5625,105,57,0.53284
6621610,-0.23000,59.2500,105,57,0.51746
6621620,-0.22000,58.9375,105,57,0.50183
6621630,-0.21000,58.6250,105,57,0.48645
6621640,-0.20000,58.0000,105,57,0.45690
6621650,-0.19500,57.6875,105,57,0.44322
6621660,-0.19000,57.3750,105,57,0.43004
6621670,-0.19000,57.3750,105,57,0.43004
6621680,-0.19000,56.4375,105,57,0.39951
6621690,-0.20000,56.1875,105,57,0.38950
6621700,-0.19000,56.0000,105,57,0.38022
6621710,-0.17500,56.0000,105,57,0.37167
6621720,-0.15500,58.0000,105,57,0.35702
6621730,-0.12500,61.0000,105,57,0.35067
6621740,-0.10000,65.6250,105,57,0.34505
6621750,-0.08000,71.7500,105,57,0.34042
6621760,-0.05500,85.1250,105,57,0.33260
6621770,-0.02500,91.0000,105,57,0.33040
6621780,0.00000,95.7500,105,57,0.32869
6621790,0.02500,99.5625,105,57,0.32674
6621800,0.05000,104.6250,105,57,0.32234
6621810,0.07000,105.8750,105,57,0.31990
6621820,0.09000,106.3125,105,57,0.31770
6621830,0.10500,106.0000,105,57,0.31551
6621840,0.12000,104.0625,105,57,0.31160
6621850,0.14000,102.7500,105,57,0.30989
6621860,0.14500,101.3750,105,57,0.30842
6621870,0.13000,99.8125,105,57,0.30745
6621880,0.08500,96.5625,105,57,0.30525
6621890,0.02500,94.9375,105,57,0.30305
6621900,0.02500,94.9375,105,57,0.30305
6621910,-0.04500,91.6875,105,57,0.29817
6621920,-0.07000,88.5625,105,57,0.29328
6621930,-0.10000,87.0000,105,57,0.29084
6621940,-0.12500,85.5000,105,57,0.28840
6621950,-0.13000,83.9375,105,57,0.28571
6621960,-0.13500,81.0000,105,57,0.27985
6621970,-0.13500,79.5625,105,57,0.27814
6621980,-0.13500,78.0625,105,57,0.27717
6621990,-0.12500,76.5000,105,57,0.27595
6622000,-0.12000,73.1875,105,57,0.27643
6622010,-0.12500,71.6250,105,57,0.27985
6622020,-0.11500,70.2500,105,57,0.28718
6622030,-0.09500,69.0000,105,57,0.29890
6622040,-0.07000,66.9375,105,57,0.33724
6622050,-0.06500,66.1250,105,57,0.36435
6622060,-0.05500,65.4375,105,57,0.39634
6622070,-0.03500,64.8750,105,57,0.42662
6622080,-0.01500,64.1875,105,57,0.49035
6622090,-0.02000,64.0625,105,57,0.52601
6622100,-0.04500,64.0000,105,57,0.56117
6622110,-0.08500,64.0000,105,57,0.59414
6622120,-0.13500,64.1875,105,57,0.65079
6622130,-0.17500,64.3750,105,57,0.67350
6622140,-0.20000,64.5000,105,57,0.69206
6622150,-0.20500,64.6250,105,57,0.70696
6622160,-0.21000,64.8125,105,57,0.72601
6622170,-0.22500,64.8125,105,57,0.72967
6622180,-0.23000,64.7500,105,57,0.73016
6622190,-0.28000,64.6250,105,57,0.72967
6622200,-0.28000,64.3125,105,57,0.72357
6622210,0.03500,64.1250,105,57,0.71770
6622220,0.03500,64.1250,105,57,0.71770
6622230,0.03500,64.1250,105,57,0.71770
6622240,0.03500,64.1250,105,57,0.71770
6622250,0.37000,62.8125,105,57,0.66618
6622260,-0.27000,62.5000,105,57,0.65275
6622270,-0.38000,62.1875,105,57,0.63980
6622280,-0.34500,61.5000,105,57,0.61294
6622290,-0.32500,61.1875,105,57,0.59829
6622300,-0.32000,60.8125,105,57,0.58339
6622310,-0.31500,60.4375,105,57,0.56825
6622320,-0.30000,59.7500,105,57,0.53822
6622330,-0.29500,59.4375,105,57,0.52357
6622340,-0.28500,59.1250,105,57,0.50916
6622350,-0.27500,58.8125,105,57,0.49524
6622360,-0.26500,58.1250,105,57,0.46886
6622370,-0.26000,57.7500,105,57,0.45788
6622380,-0.24500,57.4375,105,57,0.44835
6622390,-0.23000,57.1250,105,57,0.43834
6622400,-0.22000,56.8125,105,57,0.41905
6622410,-0.20500,57.1875,105,57,0.41026
6622420,-0.19000,58.4375,105,57,0.40220
6622430,-0.17000,61.0625,105,57,0.39512
6622440,-0.17000,61.0625,105,57,0.39512
6622450,-0.15000,78.1875,105,57,0.37875
6622460,-0.14500,85.1250,105,57,0.37460
6622470,-0.13500,91.3125,105,57,0.37143
6622480,-0.13000,100.5625,105,57,0.36557
6622490,-0.13000,103.6875,105,57,0.36215
6622500,-0.10500,105.9375,105,57,0.35873
6622510,-0.07000,107.2500,105,57,0.35800
6622520,-0.03500,107.4375,105,57,0.35726
6622530,-0.00500,106.6250,105,57,0.35507
6622540,0.02500,105.5625,105,57,0.35238
6622550,0.05000,104.2500,105,57,0.34969
6622560,0.05500,101.2500,105,57,0.34432
6622570,0.03000,99.6875,105,57,0.34237
6622580,-0.00500,98.1250,105,57,0.34042
6622590,-0.04000,96.5625,105,57,0.33748
6622600,-0.07500,93.5625,105,57,0.33089
6622610,-0.10500,92.0625,105,57,0.32747
6622620,-0.13500,90.5625,105,57,0.32405
6622630,-0.16000,89.1250,105,57,0.32039
6622640,-0.17000,86.2500,105,57,0.31233
6622650,-0.17000,84.8125,105,57,0.30818
6622660,-0.16000,83.3750,105,57,0.30427
6622670,-0.15500,81.9375,105,57,0.30159
6622680,-0.15000,78.8125,105,57,0.29670
6622690,-0.15000,77.1250,105,57,0.29475
6622700,-0.14000,75.4375,105,57,0.29426
6622710,-0.13500,73.7500,105,57,0.29621
6622720,-0.12500,70.8750,105,57,0.31184
6622730,-0.11000,69.6250,105,57,0.32698
6622740,-0.07500,68.5625,105,57,0.34774
6622750,-0.06000,67.6875,105,57,0.37363
6622760,-0.05500,66.4375,105,57,0.43321
6622770,-0.03000,66.0000,105,57,0.46252
6622780,0.00000,65.7500,105,57,0.49670
6622790,0.01500,65.5625,105,57,0.53260
6622800,0.01000,65.5625,105,57,0.60171
6622810,-0.01000,65.6875,105,57,0.63199
6622820,-0.03000,65.8125,105,57,0.65885
6622830,-0.07500,65.9375,105,57,0.68156
6622840,-0.11500,66.1875,105,57,0.71526
6622850,-0.13500,66.2500,105,57,0.72650
6622860,-0.14000,66.3125,105,57,0.73455
6622870,-0.14000,66.1875,105,57,0.73846
6622880,-0.14500,65.8125,105,57,0.73895
6622890,-0.20500,65.5625,105,57,0.73700
6622900,-0.25500,65.2500,105,57,0.73309
6622910,-0.00500,64.9375,105,57,0.72723
6622920,0.64000,64.2500,105,57,0.71111
6622930,1.40000,63.8750,105,57,0.70134
6622940,1.49000,63.5000,105,57,0.69011
6622950,0.63500,63.1250,105,57,0.67790
6622960,-0.14500,62.4375,105,57,0.65275
6622970,-0.33000,62.0625,105,57,0.64029
6622980,-0.30000,61.7500,105,57,0.62662
6622990,-0.27000,61.4375,105,57,0.61245
6623000,-0.26000,60.6875,105,57,0.58266
6623010,-0.25000,60.3125,105,57,0.56703
6623020,-0.24000,60.0000,105,57,0.55189
6623030,-0.23000,59.6250,105,57,0.53675
6623040,-0.23500,58.8125,105,57,0.50769
6623050,-0.23500,58.5000,105,57,0.49353
6623060,-0.23000,58.1250,105,57,0.48010
6623070,-0.22000,57.8125,105,57,0.46886
6623080,-0.20500,57.1875,105,57,0.44884
6623090,-0.19000,56.8125,105,57,0.43858
6623100,-0.17500,56.5000,105,57,0.42882
6623110,-0.16000,56.4375,105,57,0.42002
6623120,-0.15500,58.1875,105,57,0.40537
6623130,-0.18500,61.0000,105,57,0.39927
6623140,-0.21000,65.5625,105,57,0.39390
6623150,-0.18500,71.6250,105,57,0.38926
6623160,-0.14500,85.5625,105,57,0.38144
6623170,-0.11000,91.6875,105,57,0.37900
6623180,-0.07500,96.6875,105,57,0.37631
6623190,-0.04500,100.6250,105,57,0.37338
6623200,-0.01500,105.5625,105,57,0.36703
6623210,0.02000,106.6875,105,57,0.36410
6623220,0.06000,107.0000,105,57,0.36142
6623230,0.10000,106.5625,105,57,0.35849
6623240,0.13000,104.3125,105,57,0.35263
6623250,0.15500,102.8125,105,57,0.34969
6623260,0.15500,102.8125,105,57,0.34969
6623270,0.14000,99.5000,105,57,0.34505
6623280,0.11000,96.0000,105,57,0.34066
6623290,0.07000,94.1875,105,57,0.33748
6623300,0.03000,92.3750,105,57,0.33407
6623310,0.00500,90.6875,105,57,0.33040
6623320,-0.00500,87.5000,105,57,0.32308
6623330,-0.02000,86.0000,105,57,0.31917
6623340,-0.02500,84.5625,105,57,0.31502
6623350,-0.03000,83.1875,105,57,0.31111
6623360,-0.03500,80.3125,105,57,0.30452
6623370,-0.04500,78.7500,105,57,0.30232
6623380,-0.04500,77.1250,105,57,0.29939
6623390,-0.05000,75.4375,105,57,0.29646
6623400,-0.05500,71.8125,105,57,0.29377
6623410,-0.05500,70.1875,105,57,0.29621
6623420,-0.05000,68.6875,105,57,0.30232
6623430,-0.04500,67.5000,105,57,0.31306
6623440,-0.03000,65.6250,105,57,0.35018
6623450,-0.01000,64.8750,105,57,0.37631
6623460,-0.00500,64.3750,105,57,0.40684
6623470,-0.01000,63.9375,105,57,0.43614
6623480,0.01000,63.5000,105,57,0.49890
6623490,0.04000,63.4375,105,57,0.53407
6623500,0.04000,63.4375,105,57,0.56874
6623510,0.00500,63.5625,105,57,0.60147
6623520,-0.03500,63.8750,105,57,0.65739
6623530,-0.08500,64.0000,105,57,0.67937
6623540,-0.12500,64.1250,105,57,0.69719
6623550,-0.15000,64.1875,105,57,0.71062
6623560,-0.15000,64.1250,105,57,0.72454
6623570,-0.14500,64.0625,105,57,0.72576
6623580,-0.13500,63.9375,105,57,0.72576
6623590,-0.13000,63.8125,105,57,0.72405
6623600,-0.17000,63.3125,105,57,0.71477
6623610,-0.19500,63.0625,105,57,0.70720
6623620,0.06000,62.7500,105,57,0.69841
6623630,0.70500,62.5000,105,57,0.68840
6623640,1.37000,61.8750,105,57,0.66496
6623650,1.22500,61.5625,105,57,0.65177
6623660,0.40000,61.2500,105,57,0.63785
6623670,-0.18000,61.0000,105,57,0.62466
6623680,-0.30500,60.3750,105,57,0.59707
6623690,-0.28000,60.1250,105,57,0.58120
6623700,-0.27500,59.8125,105,57,0.56484
6623710,-0.27500,59.5000,105,57,0.54847
6623720,-0.24500,58.8125,105,57,0.51624
6623730,-0.22500,58.4375,105,57,0.50037
6623740,-0.21000,58.0625,105,57,0.48474
6623750,-0.20500,57.6875,105,57,0.46935
6623760,-0.20000,57.0000,105,57,0.44298
6623770,-0.25000,56.6875,105,57,0.43248
6623780,-0.26500,56.3750,105,57,0.42173
6623790,-0.21500,56.0000,105,57,0.41148
6623800,-0.18000,55.2500,105,57,0.39365
6623810,-0.16500,55.0000,105,57,0.38584
6623820,-0.18500,54.8750,105,57,0.37875
6623830,-0.21000,55.1250,105,57,0.37241
6623840,-0.21000,55.1250,105,57,0.37241
6623850,-0.15500,62.2500,105,57,0.35849
6623860,-0.13500,67.8125,105,57,0.35507
6623870,-0.12500,74.3750,105,57,0.35263
6623880,-0.09500,87.0000,105,57,0.34823
6623890,-0.06500,91.8750,105,57,0.34554
6623900,-0.03500,95.6875,105,57,0.34286
6623910,-0.00500,98.6250,105,57,0.34042
6623920,0.02000,102.0625,105,57,0.33553
6623930,0.04500,102.5625,105,57,0.33309
6623940,0.07000,102.3125,105,57,0.33016
6623950,0.11000,101.4375,105,57,0.32698
6623960,0.13500,98.7500,105,57,0.32259
6623970,0.13000,97.1250,105,57,0.32112
6623980,0.10000,95.4375,105,57,0.31893
6623990,0.04500,93.6875,105,57,0.31624
6624000,-0.00500,90.1875,105,57,0.31038
6624010,-0.05500,88.5000,105,57,0.30745
6624020,-0.09500,86.8125,105,57,0.30476
6624030,-0.12000,85.1250,105,57,0.30159
6624040,-0.13500,82.0000,105,57,0.29451
6624050,-0.15500,80.5000,105,57,0.29109
6624060,-0.16000,79.0000,105,57,0.28791
6624070,-0.17000,77.5000,105,57,0.28571
6624080,-0.16500,74.3750,105,57,0.28132
6624090,-0.16500,72.6250,105,57,0.27839
6624100,-0.17000,70.9375,105,57,0.27521
6624110,-0.18000,69.3125,105,57,0.27253
6624120,-0.19000,66.4375,105,57,0.27277
6624130,-0.20000,65.2500,105,57,0.27741
6624140,-0.19500,64.1875,105,57,0.28645
6624150,-0.18000,63.3125,105,57,0.30037
6624160,-0.17000,62.0000,105,57,0.33993
6624170,-0.17000,61.5625,105,57,0.36239
6624180,-0.14500,61.2500,105,57,0.39072
6624190,-0.11500,61.0625,105,57,0.42295
6624200,-0.11500,61.0000,105,57,0.49182
6624210,-0.14500,61.0625,105,57,0.52576
6624220,-0.19500,61.1875,105,57,0.55775
6624230,-0.24000,61.2500,105,57,0.58706
6624240,-0.27000,61.5625,105,57,0.63516
6624250,-0.30000,61.6875,105,57,0.65372
6624260,-0.33000,61.7500,105,57,0.66813
6624270,-0.36500,61.8125,105,57,0.67741
6624280,-0.37000,61.8125,105,57,0.68571
6624290,-0.35500,61.6875,105,57,0.68645
6624300,-0.35000,61.5625,105,57,0.68498
6624310,-0.35000,61.5625,105,57,0.68498
6624320,-0.33000,60.9375,105,57,0.66838
6624330,0.08000,60.6875,105,57,0.65934
6624340,0.80500,60.4375,105,57,0.64884
6624350,1.26500,60.1875,105,57,0.63712
6624360,0.82000,59.7500,105,57,0.61221
6624370,-0.02500,59.5625,105,57,0.59976
6624380,-0.42000,59.3125,105,57,0.58584
6624390,-0.43500,59.0000,105,57,0.57118
6624400,-0.39000,58.3750,105,57,0.54066
6624410,-0.36500,58.0625,105,57,0.52503
6624420,-0.35500,57.7500,105,57,0.50916
6624430,-0.34500,57.4375,105,57,0.49353
6624440,-0.32000,56.6875,105,57,0.46398
6624450,-0.31500,56.3750,105,57,0.44982
6624460,-0.30000,56.0625,105,57,0.43639
6624470,-0.28000,55.7500,105,57,0.42515
6624480,-0.27000,55.1250,105,57,0.40464
6624490,-0.26500,54.8125,105,57,0.39414
6624500,-0.26500,54.5625,105,57,0.38413
6624510,-0.26000,54.2500,105,57,0.37460
6624520,-0.23500,53.8750,105,57,0.35824
6624530,-0.20500,54.0625,105,57,0.35140
6624540,-0.18500,54.8125,105,57,0.34554
6624550,-0.17000,56.5000,105,57,0.34042
6624560,-0.15500,64.5625,105,57,0.32259
6624570,-0.12500,70.6875,105,57,0.31722
6624580,-0.10000,77.3750,105,57,0.31282
6624590,-0.07500,83.6250,105,57,0.30940
6624600,-0.05500,93.0625,105,57,0.30379
6624610,-0.03000,96.3125,105,57,0.30110
6624620,-0.00500,98.8750,105,57,0.29841
6624630,0.02000,100.6250,105,57,0.29573
6624640,0.04000,101.6875,105,57,0.29035
6624650,0.06500,101.1250,105,57,0.28840
6624660,0.10000,100.1250,105,57,0.28742
6624670,0.12000,98.8125,105,57,0.28718
6624680,0.12000,95.8125,105,57,0.28449
6624690,0.08500,94.0625,105,57,0.28254
6624700,0.04000,92.3125,105,57,0.28010
6624710,-0.00500,90.6250,105,57,0.27766
6624720,-0.06000,87.2500,105,57,0.27253
6624730,-0.15500,85.5625,105,57,0.26960
6624740,-0.21000,83.9375,105,57,0.26642
6624750,-0.19000,82.3750,105,57,0.26325
6624760,-0.17000,79.3125,105,57,0.25788
6624770,-0.18000,77.8125,105,57,0.25568
6624780,-0.18500,76.3125,105,57,0.25250
6624790,-0.16000,74.8125,105,57,0.24908
6624800,-0.16000,74.8125,105,57,0.24908
6624810,-0.16500,69.9375,105,57,0.24078
6624820,-0.15500,68.2500,105,57,0.24005
6624830,-0.14500,66.8125,105,57,0.24127
6624840,-0.13500,64.4375,105,57,0.25250
6624850,-0.11000,63.5000,105,57,0.26422
6624860,-0.11000,63.5000,105,57,0.26422
6624870,-0.05000,62.1250,105,57,0.29548
6624880,-0.03000,61.2500,105,57,0.34799
6624890,0.00000,61.0625,105,57,0.38095
6624900,0.01000,60.9375,105,57,0.41685
6624910,-0.00500,60.9375,105,57,0.45446
6624920,-0.04500,61.1250,105,57,0.52869
6624930,-0.08500,61.2500,105,57,0.56288
6624940,-0.12500,61.4375,105,57,0.59389
6624950,-0.17000,61.6250,105,57,0.62100
6624960,-0.19000,61.9375,105,57,0.65983
6624970,-0.19500,62.0625,105,57,0.67106
6624980,-0.19000,62.1250,105,57,0.68059
6624990,-0.18000,62.1250,105,57,0.68767
6625000,-0.17000,62.0000,105,57,0.69328
6625010,-0.19000,61.9375,105,57,0.69231
6625020,-0.24500,61.7500,105,57,0.68889
6625030,-0.10500,61.5625,105,57,0.68303
6625040,0.42500,61.0625,105,57,0.66545
6625050,1.15500,60.8750,105,57,0.65421
6625060,1.32500,60.6250,105,57,0.64298
6625070,0.64000,60.3750,105,57,0.63101
6625080,-0.08500,59.7500,105,57,0.60293
6625090,-0.33000,59.4375,105,57,0.58755
6625100,-0.31500,59.1250,105,57,0.57167
6625110,-0.28000,58.8125,105,57,0.55531
6625120,-0.26000,58.1875,105,57,0.52161
6625130,-0.23500,57.8125,105,57,0.50476
6625140,-0.22000,57.5000,105,57,0.48816
6625150,-0.21000,57.1250,105,57,0.47204
6625160,-0.21000,56.4375,105,57,0.44298
6625170,-0.20000,56.1250,105,57,0.43150
6625180,-0.19000,55.7500,105,57,0.41954
6625190,-0.17000,55.4375,105,57,0.40757
6625200,-0.16000,54.7500,105,57,0.38486
6625210,-0.15500,54.5000,105,57,0.37460
6625220,-0.15000,54.1875,105,57,0.36532
6625230,-0.13500,54.1250,105,57,0.35702
6625240,-0.12000,55.0625,105,57,0.34310
6625250,-0.10500,56.9375,105,57,0.33724
6625260,-0.08500,60.3125,105,57,0.33284
6625270,-0.06000,65.4375,105,57,0.32967
6625280,-0.03000,78.6875,105,57,0.32357
6625290,-0.00500,85.0625,105,57,0.32088
6625300,0.02000,90.3125,105,57,0.31844
6625310,0.04000,94.5000,105,57,0.31624
6625320,0.06500,100.3125,105,57,0.31209
6625330,0.09000,102.0000,105,57,0.31013
6625340,0.11000,102.8125,105,57,0.30818
6625350,0.13500,102.7500,105,57,0.30623
6625360,0.13500,102.7500,105,57,0.30623
6625370,0.18500,99.8750,105,57,0.30232
6625380,0.18500,98.5000,105,57,0.30061
6625390,0.16500,96.9375,105,57,0.29817
6625400,0.12500,93.6250,105,57,0.29231
6625410,0.07500,92.0000,105,57,0.28987
6625420,0.03500,90.3125,105,57,0.28767
6625430,0.00500,88.6875,105,57,0.28571
6625440,-0.01500,85.6250,105,57,0.28132
6625450,-0.02500,84.1875,105,57,0.27888
6625460,-0.03000,82.7500,105,57,0.27741
6625470,-0.03000,81.3750,105,57,0.27595
6625480,-0.03000,78.5625,105,57,0.26960
6625490,-0.03000,77.0625,105,57,0.26569
6625500,-0.02500,75.5625,105,57,0.26178
6625510,-0.02500,73.9375,105,57,0.25836
6625520,-0.03500,70.6250,105,57,0.25397
6625530,-0.03500,69.0000,105,57,0.25495
6625540,-0.03500,67.5625,105,57,0.25910
6625550,-0.02500,66.3125,105,57,0.26716
6625560,-0.00500,64.3125,105,57,0.29426
6625570,0.01000,63.5625,105,57,0.31233
6625580,0.01500,62.9375,105,57,0.33675
6625590,0.04000,62.5000,105,57,0.36630
6625600,0.06000,61.9375,105,57,0.43639
6625610,0.07000,61.8750,105,57,0.47448
6625620,0.04500,61.8125,105,57,0.51258
6625630,0.00500,61.8125,105,57,0.54945
6625640,-0.06000,62.0625,105,57,0.61465
6625650,-0.13500,62.1875,105,57,0.64176
6625660,-0.17500,62.3125,105,57,0.66178
6625670,-0.18000,62.3750,105,57,0.67668
6625680,-0.16000,62.5625,105,57,0.70134
6625690,-0.13500,62.5625,105,57,0.70916
6625700,-0.15500,62.5000,105,57,0.71404
6625710,-0.19500,62.4375,105,57,0.71575
6625720,-0.24000,62.2500,105,57,0.71087
6625730,-0.15500,62.1250,105,57,0.70501
6625740,0.27000,62.0000,105,57,0.69719
6625750,0.98500,61.8125,105,57,0.68791
6625760,1.41500,61.3750,105,57,0.66667
6625770,0.93500,61.1875,105,57,0.65543
6625780,0.08000,60.9375,105,57,0.64298
6625790,-0.30500,60.6250,105,57,0.62955
6625800,-0.32000,60.0000,105,57,0.59951
6625810,-0.28000,59.6875,105,57,0.58315
6625820,-0.25000,59.3125,105,57,0.56630
6625830,-0.22500,59.0000,105,57,0.54921
6625840,-0.22500,59.0000,105,57,0.54921
6625850,-0.22000,58.0625,105,57,0.49988
6625860,-0.21500,57.7500,105,57,0.48596
6625870,-0.19500,57.5000,105,57,0.47326
6625880,-0.18500,56.9375,105,57,0.44591
6625890,-0.19000,56.6250,105,57,0.43223
6625900,-0.19500,56.3125,105,57,0.41929
6625910,-0.19000,56.0000,105,57,0.40684
6625920,-0.17500,55.3750,105,57,0.38437
6625930,-0.14500,55.3125,105,57,0.37485
6625940,-0.14000,55.6875,105,57,0.36630
6625950,-0.14000,56.8750,105,57,0.35873
6625960,-0.11500,63.6250,105,57,0.34701
6625970,-0.09500,69.5625,105,57,0.34310
6625980,-0.07000,76.4375,105,57,0.33871
6625990,-0.03500,83.3125,105,57,0.33455
6626000,-0.01500,94.1875,105,57,0.32821
6626010,-0.01500,98.0625,105,57,0.32576
6626020,-0.00500,101.0000,105,57,0.32357
6626030,0.02000,103.1250,105,57,0.32137
6626040,0.04500,104.8750,105,57,0.31648
6626050,0.07500,104.6250,105,57,0.31404
6626060,0.11000,103.9375,105,57,0.31233
6626070,0.14500,102.8750,105,57,0.31087
6626080,0.16500,100.3750,105,57,0.30720
6626090,0.15000,98.8750,105,57,0.30525
6626100,0.11500,97.3750,105,57,0.30330
6626110,0.07000,95.7500,105,57,0.30085
6626120,0.03000,92.5000,105,57,0.29475
6626130,-0.02500,90.9375,105,57,0.29182
6626140,-0.05500,89.3750,105,57,0.28913
6626150,-0.05000,87.8750,105,57,0.28645
6626160,-0.04500,84.8125,105,57,0.28181
6626170,-0.03500,83.3125,105,57,0.28010
6626180,-0.03000,81.8750,105,57,0.27741
6626190,-0.02000,80.4375,105,57,0.27399
6626200,-0.02000,77.5625,105,57,0.26716
6626210,-0.01500,76.0000,105,57,0.26398
6626220,-0.01500,74.3125,105,57,0.26178
6626230,-0.01500,72.6250,105,57,0.26154
6626240,-0.01500,69.5625,105,57,0.26960
6626250,0.00000,68.3125,105,57,0.27961
6626260,0.02000,67.2500,105,57,0.29231
6626270,0.04000,66.3125,105,57,0.30842
6626280,0.04000,64.9375,105,57,0.35971
6626290,0.05500,64.4375,105,57,0.39292
6626300,0.07500,64.0000,105,57,0.42955
6626310,0.08500,63.7500,105,57,0.46862
6626320,0.07000,63.5000,105,57,0.54652
6626330,0.04000,63.5625,105,57,0.58266
6626340,-0.00500,63.6250,105,57,0.61563
6626350,-0.08500,63.7500,105,57,0.64493
6626360,-0.16000,64.0000,105,57,0.68400
6626370,-0.18000,64.1875,105,57,0.70012
6626380,-0.16500,64.3125,105,57,0.71355
6626390,-0.13500,64.3750,105,57,0.72405
6626400,-0.13500,64.3750,105,57,0.72405
6626410,-0.10500,64.2500,105,57,0.73724
6626420,-0.17000,64.1250,105,57,0.73602
6626430,-0.12000,63.9375,105,57,0.73236
6626440,0.30000,63.5625,105,57,0.71868
6626450,1.04500,63.3125,105,57,0.70916
6626460,1.57000,63.0625,105,57,0.69866
6626470,1.16500,62.8125,105,57,0.68742
6626480,0.24500,62.2500,105,57,0.66129
6626490,-0.24000,61.9375,105,57,0.64689
6626500,-0.28000,61.5625,105,57,0.63175
6626510,-0.23500,61.2500,105,57,0.61587
6626520,-0.22000,60.5000,105,57,0.58266
6626530,-0.21000,60.1875,105,57,0.56557
6626540,-0.20000,59.8750,105,57,0.54847
6626550,-0.19000,59.5000,105,57,0.53162
6626560,-0.19000,58.8750,105,57,0.50354
6626570,-0.18000,58.5625,105,57,0.48938
6626580,-0.17500,58.2500,105,57,0.47497
6626590,-0.17000,57.8750,105,57,0.46081
6626600,-0.16500,57.2500,105,57,0.43736
6626610,-0.15500,56.8750,105,57,0.42906
6626620,-0.15000,56.6250,105,57,0.41954
6626630,-0.13500,56.5000,105,57,0.40977
6626640,-0.12500,57.7500,105,57,0.39243
6626650,-0.11000,60.0000,105,57,0.38535
6626660,-0.09500,63.8750,105,57,0.38022
6626670,-0.08000,69.4375,105,57,0.37607
6626680,-0.05500,83.1250,105,57,0.36703
6626690,-0.03000,89.5000,105,57,0.36313
6626700,-0.00500,94.8750,105,57,0.35946
6626710,0.01500,99.2500,105,57,0.35604
6626720,0.04000,105.1875,105,57,0.34969
6626730,0.06000,106.8750,105,57,0.34676
6626740,0.08000,107.5625,105,57,0.34383
6626750,0.10500,107.5000,105,57,0.34090
6626760,0.12500,105.6875,105,57,0.33748
6626770,0.13500,104.3125,105,57,0.33553
6626780,0.13000,102.8750,105,57,0.33333
6626790,0.13000,101.3125,105,57,0.33089
6626800,0.11000,98.1875,105,57,0.32601
6626810,0.07000,96.5625,105,57,0.32332
6626820,0.03000,95.0625,105,57,0.32015
6626830,0.00000,93.5625,105,57,0.31697
6626840,0.00000,93.5625,105,57,0.31697
6626850,-0.03500,89.3125,105,57,0.30745
6626860,-0.04500,87.8750,105,57,0.30525
6626870,-0.05000,86.5000,105,57,0.30330
6626880,-0.05500,83.6250,105,57,0.29695
6626890,-0.05500,82.1875,105,57,0.29328
6626900,-0.05500,80.6875,105,57,0.28962
6626910,-0.05500,79.1250,105,57,0.28669
6626920,-0.05500,75.8125,105,57,0.28400
6626930,-0.05500,74.1250,105,57,0.28596
6626940,-0.05500,72.5000,105,57,0.29133
6626950,-0.05500,71.0625,105,57,0.30085
6626960,-0.03500,68.5625,105,57,0.32894
6626970,-0.01000,67.6250,105,57,0.35140
6626980,-0.00500,66.8750,105,57,0.37973
6626990,-0.00500,66.3125,105,57,0.41294
6627000,0.01500,65.5625,105,57,0.48889
6627010,0.04000,65.3125,105,57,0.52894
6627020,0.04000,65.2500,105,57,0.56825
6627030,0.01000,65.1875,105,57,0.60562
6627040,-0.02500,65.3125,105,57,0.67009
6627050,-0.07000,65.3750,105,57,0.69621
6627060,-0.11500,65.4375,105,57,0.71526
6627070,-0.14000,65.5625,105,57,0.72894
6627080,-0.14500,65.6875,105,57,0.75189
6627090,-0.14500,65.6875,105,57,0.75922
6627100,-0.13500,65.6250,105,57,0.76361
6627110,-0.13500,65.5000,105,57,0.76508
6627120,-0.21000,65.1875,105,57,0.76068
6627130,-0.20500,64.9375,105,57,0.75556
6627140,0.16500,64.6875,105,57,0.74872
6627150,0.91500,64.3750,105,57,0.74017
6627160,1.57000,63.7500,105,57,0.72088
6627170,1.31500,63.4375,105,57,0.70940
6627180,0.35000,63.0625,105,57,0.69695
6627190,-0.26000,62.6875,105,57,0.68352
6627200,-0.34500,61.9375,105,57,0.65397
6627210,-0.31000,61.6250,105,57,0.63834
6627220,-0.29000,61.2500,105,57,0.62247
6627230,-0.28000,60.8750,105,57,0.60635
6627240,-0.27500,60.1875,105,57,0.57363
6627250,-0.26500,59.8125,105,57,0.55727
6627260,-0.26000,59.4375,105,57,0.54286
6627270,-0.25000,59.1250,105,57,0.52967
6627280,-0.24500,58.4375,105,57,0.50183
6627290,-0.24000,58.0625,105,57,0.48791
6627300,-0.23500,57.7500,105,57,0.47497
6627310,-0.23000,57.3750,105,57,0.46252
6627320,-0.21500,56.7500,105,57,0.44054
6627330,-0.20000,56.6250,105,57,0.43077
6627340,-0.19000,57.0000,105,57,0.42198
6627350,-0.17500,58.2500,105,57,0.41392
6627360,-0.16000,65.2500,105,57,0.40244
6627370,-0.14500,71.1875,105,57,0.39756
6627380,-0.12500,78.0625,105,57,0.39292
6627390,-0.10500,85.0000,105,57,0.38828
6627400,-0.08000,96.5000,105,57,0.37998
6627410,-0.05500,100.6250,105,57,0.37656
6627420,-0.03500,103.8125,105,57,0.37314
6627430,-0.01000,106.0000,105,57,0.36996
6627440,-0.01500,107.7500,105,57,0.36337
6627450,-0.04500,107.4375,105,57,0.36020
6627460,-0.02500,106.5625,105,57,0.35800
6627470,0.04500,105.3125,105,57,0.35604
6627480,0.08500,102.4375,105,57,0.35043
6627490,0.09000,100.8125,105,57,0.34725
6627500,0.06500,99.1875,105,57,0.34408
6627510,0.02500,97.5000,105,57,0.34090
6627520,-0.01500,94.1250,105,57,0.33407
6627530,-0.04500,92.5625,105,57,0.33040
6627540,-0.07000,91.0000,105,57,0.32650
6627550,-0.08500,89.4375,105,57,0.32234
6627560,-0.09500,86.3125,105,57,0.31697
6627570,-0.10500,84.8125,105,57,0.31355
6627580,-0.11500,83.3125,105,57,0.30965
6627590,-0.11500,81.8125,105,57,0.30549
6627600,-0.12500,78.5000,105,57,0.29817
6627610,-0.12500,76.7500,105,57,0.29548
6627620,-0.12500,74.9375,105,57,0.29377
6627630,-0.14500,73.1250,105,57,0.29377
6627640,-0.21500,69.9375,105,57,0.30183
6627650,-0.25000,68.6250,105,57,0.31209
6627660,-0.19000,67.5625,105,57,0.32479
6627670,-0.13500,66.6875,105,57,0.34090
6627680,-0.10500,65.2500,105,57,0.39243
6627690,-0.08500,64.7500,105,57,0.42564
6627700,-0.06000,64.3750,105,57,0.46203
6627710,-0.04000,64.1875,105,57,0.50037
6627720,-0.04000,64.0625,105,57,0.57656
6627730,-0.04500,64.1250,105,57,0.61172
6627740,-0.06000,64.1875,105,57,0.64396
6627750,-0.09000,64.2500,105,57,0.67253
6627760,-0.13500,64.5000,105,57,0.70940
6627770,-0.16000,64.5625,105,57,0.72381
6627780,-0.17000,64.6250,105,57,0.73553
6627790,-0.18000,64.6250,105,57,0.74432
6627800,-0.17000,64.4375,105,57,0.75189
6627810,-0.16000,64.3125,105,57,0.75140
6627820,-0.17000,64.1250,105,57,0.74823
6627830,-0.23500,63.9375,105,57,0.74310
6627840,-0.18500,63.4375,105,57,0.72723
6627850,0.21000,63.1875,105,57,0.71697
6627860,0.93500,62.9375,105,57,0.70623
6627870,1.43500,62.6250,105,57,0.69499
6627880,0.96500,62.0625,105,57,0.66862
6627890,0.09000,61.7500,105,57,0.65372
6627900,-0.30500,61.3750,105,57,0.63810
6627910,-0.32500,61.0625,105,57,0.62198
6627920,-0.32500,61.0625,105,57,0.62198
6627930,-0.26000,60.0000,105,57,0.57143
6627940,-0.24500,59.6250,105,57,0.55433
6627950,-0.23000,59.3125,105,57,0.53773
6627960,-0.22000,58.5625,105,57,0.50965
6627970,-0.21000,58.2500,105,57,0.49524
6627980,-0.20500,57.8750,105,57,0.48083
6627990,-0.19500,57.5625,105,57,0.46691
6628000,-0.19000,56.9375,104,56,0.44103
6628010,-0.18500,56.6250,104,56,0.42930
6628020,-0.18000,56.2500,104,56,0.41856
6628030,-0.17000,55.9375,104,56,0.40879
6628040,-0.15500,55.5625,104,56,0.39170
6628050,-0.12500,55.8125,104,56,0.38462
6628060,-0.11000,56.8750,104,56,0.37949
6628070,-0.09000,59.1250,104,56,0.37534
6628080,-0.08500,68.5625,104,56,0.36630
6628090,-0.07000,75.1250,104,56,0.36239
6628100,-0.04500,81.8125,104,56,0.35873
6628110,-0.02000,87.8125,104,56,0.35531
6628120,0.01000,96.5625,104,56,0.34921
6628130,0.04000,99.5625,104,56,0.34652
6628140,0.07000,101.6875,104,56,0.34383
6628150,0.10000,103.0625,104,56,0.34139
6628160,0.12500,103.2500,104,56,0.33871
6628170,0.14500,102.3125,104,56,0.33700
6628180,0.16500,100.9375,104,56,0.33504
6628190,0.17000,99.3125,104,56,0.33284
6628200,0.15500,95.8750,104,56,0.32772
6628210,0.12000,94.1250,104,56,0.32454
6628220,0.07000,92.3750,104,56,0.32088
6628230,0.03000,90.6250,104,56,0.31673
6628240,-0.00500,87.2500,104,56,0.30794
6628250,-0.02500,85.6250,104,56,0.30476
6628260,-0.03500,84.0625,104,56,0.30183
6628270,-0.04500,82.5000,104,56,0.29817
6628280,-0.05500,79.5625,104,56,0.28938
6628290,-0.06500,78.0625,104,56,0.28449
6628300,-0.07500,76.5000,104,56,0.27985
6628310,-0.07500,74.9375,104,56,0.27570
6628320,-0.08000,71.5625,104,56,0.26862
6628330,-0.07500,69.9375,104,56,0.26593
6628340,-0.08000,68.4375,104,56,0.26471
6628350,-0.07500,67.0625,104,56,0.26569
6628360,-0.07500,64.8125,104,56,0.27570
6628370,-0.05500,63.9375,104,56,0.28669
6628380,-0.03500,63.1875,104,56,0.30256
6628390,-0.02000,62.6250,104,56,0.32381
6628400,-0.01500,61.8750,104,56,0.38120
6628410,0.01000,61.7500,104,56,0.41587
6628420,0.04000,61.6875,104,56,0.45226
6628430,0.04000,61.6875,104,56,0.48913
6628440,0.04000,61.6875,104,56,0.48913
6628450,-0.02000,62.0625,104,56,0.58608
6628460,-0.06500,62.1875,104,56,0.60806
6628470,-0.10500,62.3125,104,56,0.62979
6628480,-0.13500,62.5625,104,56,0.66545
6628490,-0.14500,62.6250,104,56,0.67790
6628500,-0.14500,62.5625,104,56,0.68694
6628510,-0.15000,62.5000,104,56,0.69231
6628520,-0.15500,62.2500,104,56,0.69402
6628530,-0.17000,62.1250,104,56,0.69060
6628540,-0.22000,61.9375,104,56,0.68523
6628550,-0.22000,61.9375,104,56,0.68523
6628560,0.42000,61.2500,104,56,0.65958
6628570,1.16000,61.0000,104,56,0.64835
6628580,1.38000,60.6875,104,56,0.63614
6628590,0.70500,60.3750,104,56,0.62295
6628600,-0.06000,59.8125,104,56,0.59316
6628610,-0.31000,59.5625,104,56,0.57729
6628620,-0.28500,59.2500,104,56,0.56117
6628630,-0.24000,58.9375,104,56,0.54457
6628640,-0.22500,58.3750,104,56,0.51038
6628650,-0.21000,58.0625,104,56,0.49182
6628660,-0.20000,57.7500,104,56,0.47253
6628670,-0.19000,57.3750,104,56,0.45519
6628680,-0.18000,56.6875,104,56,0.42393
6628690,-0.18000,56.3750,104,56,0.40952
6628700,-0.17500,55.9375,104,56,0.39585
6628710,-0.16000,55.5625,104,56,0.38339
6628720,-0.15500,54.8750,104,56,0.36166
6628730,-0.14000,54.5625,104,56,0.35238
6628740,-0.12500,54.3125,104,56,0.34408
6628750,-0.11500,54.1875,104,56,0.33651
6628760,-0.10500,55.0000,104,56,0.32698
6628770,-0.08500,56.5625,104,56,0.32283
6628780,-0.06500,59.5625,104,56,0.31893
6628790,-0.06500,59.5625,104,56,0.31893
6628800,-0.02500,77.1875,104,56,0.30818
6628810,-0.00500,83.5625,104,56,0.30574
6628820,0.01000,89.0000,104,56,0.30354
6628830,0.03500,93.3125,104,56,0.30134
6628840,0.03500,93.3125,104,56,0.30134
6628850,0.08000,101.1250,104,56,0.29621
6628860,0.10000,102.0625,104,56,0.29548
6628870,0.12000,102.1250,104,56,0.29426
6628880,0.12000,102.1250,104,56,0.29426
6628890,0.18000,99.1875,104,56,0.28791
6628900,0.19500,97.6250,104,56,0.28547
6628910,0.17500,95.8750,104,56,0.28303
6628920,0.13000,92.2500,104,56,0.27790
6628930,0.08000,90.4375,104,56,0.27546
6628940,0.03000,88.6250,104,56,0.27277
6628950,0.03000,88.6250,104,56,0.27277
6628960,-0.03000,83.6250,104,56,0.26764
6628970,-0.04500,82.0625,104,56,0.26618
6628980,-0.05000,80.5625,104,56,0.26398
6628990,-0.05500,79.1250,104,56,0.26129
6629000,-0.05500,76.3125,104,56,0.25495
6629010,-0.05500,74.8125,104,56,0.25153
6629020,-0.04500,73.2500,104,56,0.24835
6629030,-0.04500,71.6250,104,56,0.24567
6629040,-0.04500,68.3125,104,56,0.24200
6629050,-0.04500,66.8125,104,56,0.24249
6629060,-0.04000,65.5000,104,56,0.24518
6629070,-0.03000,64.4375,104,56,0.24982
6629080,-0.01000,62.7500,104,56,0.27082
6629090,0.00500,62.1250,104,56,0.28864
6629100,0.01000,61.6250,104,56,0.31160
6629110,0.02000,61.3125,104,56,0.33968
6629120,0.05500,61.0625,104,56,0.40708
6629130,0.07000,61.0625,104,56,0.44371
6629140,0.07000,61.1250,104,56,0.48083
6629150,0.03000,61.1875,104,56,0.51673
6629160,-0.01500,61.4375,104,56,0.57118
6629170,-0.06500,61.6250,104,56,0.59634
6629180,-0.11000,61.8125,104,56,0.61905
6629190,-0.13000,62.0000,104,56,0.63834
6629200,-0.13500,62.1250,104,56,0.66520
6629210,-0.12500,62.1250,104,56,0.67277
6629220,-0.11500,62.0625,104,56,0.67692
6629230,-0.11500,61.9375,104,56,0.67814
6629240,-0.16000,61.6250,104,56,0.67326
6629250,-0.18500,61.3750,104,56,0.66764
6629260,0.05500,61.1250,104,56,0.66081
6629270,0.67000,60.8750,104,56,0.65250
6629280,1.34500,60.3750,104,56,0.63126
6629290,1.25000,60.1250,104,56,0.61905
6629300,0.44500,59.8750,104,56,0.60537
6629310,-0.15000,59.6250,104,56,0.59072
6629320,-0.29000,59.0625,104,56,0.55922
6629330,-0.25500,58.7500,104,56,0.54310
6629340,-0.22500,58.4375,104,56,0.52698
6629350,-0.21000,58.1250,104,56,0.51087
6629360,-0.20000,57.3750,104,56,0.48376
6629370,-0.19000,57.0000,104,56,0.46984
6629380,-0.18500,56.6250,104,56,0.45568
6629390,-0.18000,56.3125,104,56,0.44176
6629400,-0.17000,55.6250,104,56,0.41538
6629410,-0.16000,55.3750,104,56,0.40317
6629420,-0.15500,55.1250,104,56,0.39145
6629430,-0.17000,54.8125,104,56,0.38071
6629440,-0.17000,54.2500,104,56,0.36215
6629450,-0.13500,54.1250,104,56,0.35507
6629460,-0.11500,54.2500,104,56,0.34945
6629470,-0.10000,54.9375,104,56,0.34383
6629480,-0.08500,59.7500,104,56,0.33358
6629490,-0.08500,59.7500,104,56,0.33358
6629500,-0.05000,70.8125,104,56,0.32503
6629510,-0.03500,77.5625,104,56,0.32186
6629520,-0.00500,89.3750,104,56,0.31624
6629530,0.01000,93.6875,104,56,0.31355
6629540,0.02000,97.1250,104,56,0.31111
6629550,-0.02500,99.6875,104,56,0.30867
6629560,-0.16500,102.3750,104,56,0.30623
6629570,-0.26000,102.4375,104,56,0.30476
6629580,-0.26000,102.4375,104,56,0.30476
6629590,-0.04000,101.0000,104,56,0.30110
6629600,0.05000,98.3750,104,56,0.29719
6629610,0.11500,96.8750,104,56,0.29524
6629620,0.08500,95.2500,104,56,0.29280
6629630,0.08500,95.2500,104,56,0.29280
6629640,-0.00500,90.1875,104,56,0.28425
6629650,-0.02500,88.5000,104,56,0.28205
6629660,-0.04000,86.8750,104,56,0.28034
6629670,-0.03000,85.3750,104,56,0.27766
6629680,-0.03000,82.4375,104,56,0.27082
6629690,-0.03500,81.0625,104,56,0.26740
6629700,-0.03500,79.6875,104,56,0.26422
6629710,-0.03500,78.3125,104,56,0.26105
6629720,-0.03000,75.3125,104,56,0.25470
6629730,-0.05500,73.6875,104,56,0.25153
6629740,-0.08500,72.0000,104,56,0.24884
6629750,-0.08000,70.3125,104,56,0.24762
6629760,-0.10000,67.2500,104,56,0.25128
6629770,-0.12500,66.0000,104,56,0.25665
6629780,-0.10000,64.9375,104,56,0.26569
6629790,-0.09500,64.0625,104,56,0.27937
6629800,-0.09000,62.6875,104,56,0.32161
6629810,-0.05000,62.2500,104,56,0.35043
6629820,0.01500,61.9375,104,56,0.38339
6629830,0.05000,61.6875,104,56,0.41954
6629840,0.03000,61.5000,104,56,0.49548
6629850,0.00500,61.5000,104,56,0.52747
6629860,-0.01500,61.6250,104,56,0.55556
6629870,-0.05500,61.7500,104,56,0.58462
6629880,-0.13500,62.0000,104,56,0.63687
6629890,-0.17500,62.1250,104,56,0.65788
6629900,-0.14500,62.2500,104,56,0.67497
6629910,-0.12500,62.3125,104,56,0.68791
6629920,-0.11500,62.3125,104,56,0.70232
6629930,-0.11000,62.2500,104,56,0.70452
6629940,-0.13500,62.1250,104,56,0.70403
6629950,-0.19000,62.0000,104,56,0.70110
6629960,-0.05500,61.5625,104,56,0.68913
6629970,0.46500,61.3750,104,56,0.68107
6629980,1.20000,61.1250,104,56,0.67155
6629990,1.40500,60.9375,104,56,0.66081
6630000,0.73000,60.4375,104,56,0.63614
6630010,-0.02500,60.1250,104,56,0.62271
6630020,-0.28000,59.8750,104,56,0.60879
6630030,-0.26500,59.5625,104,56,0.59389
6630040,-0.23500,58.9375,104,56,0.56288
6630050,-0.30000,58.6250,104,56,0.54872
6630060,-0.35500,58.3125,104,56,0.53504
6630070,-0.30500,58.0000,104,56,0.52015
6630080,-0.24000,57.4375,104,56,0.48864
6630090,-0.20500,57.1250,104,56,0.47302
6630100,-0.18500,56.8750,104,56,0.45788
