RelativeTimeMilliseconds,ECG,ART,ART (Sys),ART (Dia),PPG
9000000,-0.12500,67.1250,101,59,0.84200
9000010,-0.16000,66.8750,101,59,0.84054
9000020,-0.19500,66.6250,101,59,0.83663
9000030,0.03000,66.3750,101,59,0.79976
9000040,0.70500,65.8125,101,59,0.71429
9000050,1.50000,65.5625,101,59,0.69328
9000060,1.51500,65.3125,101,59,0.67741
9000070,0.62000,65.0000,101,59,0.66374
9000080,-0.13000,64.4375,101,59,0.63712
9000090,-0.32000,64.1250,101,59,0.62320
9000100,-0.29000,63.8125,101,59,0.60904
9000110,-0.26000,63.5000,101,59,0.59414
9000120,-0.24000,62.9375,101,59,0.56313
9000130,-0.21500,62.6250,101,59,0.54896
9000140,-0.20500,62.3750,101,59,0.53553
9000150,-0.21000,62.0625,101,59,0.52112
9000160,-0.20500,61.5000,101,59,0.49231
9000170,-0.20000,61.2500,101,59,0.47790
9000180,-0.19000,61.0000,101,59,0.46374
9000190,-0.17500,60.7500,101,59,0.44982
9000200,-0.16500,60.2500,101,59,0.42369
9000210,-0.16000,60.0000,101,59,0.41197
9000220,-0.16000,60.0000,101,59,0.41197
9000230,-0.14500,59.8125,101,59,0.39145
9000240,-0.12500,60.1250,101,59,0.37729
9000250,-0.11000,60.8750,101,59,0.37070
9000260,-0.09500,62.4375,101,59,0.36459
9000270,-0.07500,65.2500,101,59,0.35897
9000280,-0.06000,74.2500,101,59,0.34872
9000290,-0.03500,79.7500,101,59,0.34432
9000300,-0.00500,85.0625,101,59,0.34017
9000310,0.02000,89.6875,101,59,0.33602
9000320,0.05000,96.5000,101,59,0.32845
9000330,0.07500,98.8125,101,59,0.32552
9000340,0.10500,100.4375,101,59,0.32283
9000350,0.13500,101.3750,101,59,0.31966
9000360,0.17000,101.6250,101,59,0.31233
9000370,0.20000,101.1250,101,59,0.30867
9000380,0.21500,100.3750,101,59,0.30525
9000390,0.19500,99.3750,101,59,0.30159
9000400,0.14500,97.1875,101,59,0.29499
9000410,0.07500,96.0000,101,59,0.29158
9000420,0.07500,96.0000,101,59,0.29158
9000430,-0.03500,93.5625,101,59,0.28425
9000440,-0.03500,93.5625,101,59,0.28425
9000450,-0.07500,89.8125,101,59,0.27668
9000460,-0.08500,88.5625,101,59,0.27302
9000470,-0.09000,87.3125,101,59,0.26886
9000480,-0.09500,84.6875,101,59,0.26056
9000490,-0.09500,83.3750,101,59,0.25665
9000500,-0.09500,81.8750,101,59,0.25275
9000510,-0.09500,80.3750,101,59,0.24860
9000520,-0.09000,77.0625,101,59,0.23980
9000530,-0.09000,75.4375,101,59,0.23663
9000540,-0.09000,73.9375,101,59,0.23468
9000550,-0.08500,72.6250,101,59,0.23297
9000560,-0.08000,70.4375,101,59,0.23394
9000570,-0.07500,69.5625,101,59,0.23858
9000580,-0.06500,68.8125,101,59,0.24689
9000590,-0.05000,68.2500,101,59,0.25910
9000600,-0.03000,67.4375,101,59,0.29499
9000610,-0.03000,67.1250,101,59,0.31819
9000620,-0.02500,66.9375,101,59,0.34408
9000630,-0.00500,66.8125,101,59,0.37167
9000640,-0.00500,66.6875,101,59,0.41978
9000650,-0.03000,66.6875,101,59,0.44591
9000660,-0.05000,66.6250,101,59,0.47228
9000670,-0.08500,66.6250,101,59,0.49768
9000680,-0.12500,66.5625,101,59,0.54164
9000690,-0.15500,66.5000,101,59,0.55971
9000700,-0.16000,66.4375,101,59,0.57460
9000710,-0.15000,66.3125,101,59,0.58608
9000720,-0.15000,66.3125,101,59,0.58608
9000730,-0.13000,65.8750,101,59,0.60244
9000740,-0.12500,65.6875,101,59,0.60244
9000750,-0.17500,65.5000,101,59,0.60147
9000760,-0.16500,65.0625,101,59,0.59536
9000770,0.20500,64.8750,101,59,0.58999
9000780,0.99000,64.6250,101,59,0.58315
9000790,1.55000,64.3750,101,59,0.57485
9000800,1.17000,63.9375,101,59,0.55507
9000810,0.27500,63.6875,101,59,0.54359
9000820,-0.23000,63.5000,101,59,0.53138
9000830,-0.29500,63.2500,101,59,0.51844
9000840,-0.25000,62.7500,101,59,0.49402
9000850,-0.23000,62.5000,101,59,0.48034
9000860,-0.22000,62.2500,101,59,0.46593
9000870,-0.21000,62.0000,101,59,0.45128
9000880,-0.21000,61.4375,101,59,0.42247
9000890,-0.20000,61.1875,101,59,0.40904
9000900,-0.19000,60.9375,101,59,0.39585
9000910,-0.19000,60.6250,101,59,0.38315
9000920,-0.18000,60.1250,101,59,0.35995
9000930,-0.17000,59.8750,101,59,0.35092
9000940,-0.16000,59.6250,101,59,0.34310
9000950,-0.16000,59.4375,101,59,0.33504
9000960,-0.15000,59.2500,101,59,0.31990
9000970,-0.13500,59.3125,101,59,0.31331
9000980,-0.12000,59.6250,101,59,0.30720
9000990,-0.10500,60.3750,101,59,0.30159
9001000,-0.09000,64.3750,101,59,0.29206
9001010,-0.07000,68.1875,101,59,0.28767
9001020,-0.04500,72.9375,101,59,0.28352
9001030,-0.02500,78.1250,101,59,0.27961
9001040,0.00000,87.7500,101,59,0.27497
9001050,0.02000,91.5000,101,59,0.27204
9001060,0.04500,94.5000,101,59,0.26886
9001070,0.07000,96.8125,101,59,0.26593
9001080,0.10500,99.5000,101,59,0.26105
9001090,0.14000,99.9375,101,59,0.25885
9001100,0.17000,99.8750,101,59,0.25665
9001110,0.19500,99.5000,101,59,0.25470
9001120,0.19500,97.9375,101,59,0.25055
9001130,0.15500,97.0000,101,59,0.24957
9001140,0.09500,95.8750,101,59,0.24908
9001150,0.02500,94.6875,101,59,0.24786
9001160,-0.03000,92.1875,101,59,0.24371
9001170,-0.06500,91.0000,101,59,0.24127
9001180,-0.09000,89.7500,101,59,0.23883
9001190,-0.10500,88.5000,101,59,0.23614
9001200,-0.11000,86.0000,101,59,0.23053
9001210,-0.11000,86.0000,101,59,0.23053
9001220,-0.11500,83.4375,101,59,0.22466
9001230,-0.11500,82.0625,101,59,0.22173
9001240,-0.11500,79.0625,101,59,0.21954
9001250,-0.11500,77.4375,101,59,0.21832
9001260,-0.11000,75.8125,101,59,0.21685
9001270,-0.11000,74.1250,101,59,0.21563
9001280,-0.10500,71.2500,101,59,0.21538
9001290,-0.10500,70.0625,101,59,0.21734
9001300,-0.10500,69.0625,101,59,0.22149
9001310,-0.09500,68.2500,101,59,0.22882
9001320,-0.08500,67.0000,101,59,0.25421
9001330,-0.06500,66.5625,101,59,0.26984
9001340,-0.05500,66.2500,101,59,0.28742
9001350,-0.05500,66.0000,101,59,0.30940
9001360,-0.03000,65.6875,101,59,0.36264
9001370,-0.01500,65.6875,101,59,0.39194
9001380,-0.03000,65.6875,101,59,0.42198
9001390,-0.05500,65.7500,101,59,0.45153
9001400,-0.08000,65.8750,101,59,0.50598
9001410,-0.11500,65.9375,101,59,0.52967
9001420,-0.15500,66.0000,101,59,0.55067
9001430,-0.17000,65.9375,101,59,0.56874
9001440,-0.17000,65.7500,101,59,0.59145
9001450,-0.16500,65.6250,101,59,0.60000
9001460,-0.15500,65.5000,101,59,0.60684
9001470,-0.15500,65.3125,101,59,0.61123
9001480,-0.16500,65.0625,101,59,0.61270
9001490,-0.22500,64.9375,101,59,0.61026
9001500,-0.12000,64.8125,101,59,0.60611
9001510,0.44000,64.6250,101,59,0.60049
9001520,1.29000,64.3125,101,59,0.58462
9001530,1.53000,64.1250,101,59,0.57558
9001540,0.83000,63.9375,101,59,0.56606
9001550,0.01500,63.7500,101,59,0.55482
9001560,-0.31000,63.2500,101,59,0.52845
9001570,-0.31500,63.0000,101,59,0.51404
9001580,-0.27500,62.6875,101,59,0.49939
9001590,-0.26000,62.3750,101,59,0.48449
9001600,-0.25000,61.8750,101,59,0.45470
9001610,-0.24000,61.6250,101,59,0.43980
9001620,-0.23000,61.3750,101,59,0.42564
9001630,-0.22500,61.1250,101,59,0.41172
9001640,-0.22000,60.6875,101,59,0.38974
9001650,-0.21000,60.4375,101,59,0.37851
9001660,-0.20000,60.1875,101,59,0.36728
9001670,-0.19000,59.9375,101,59,0.35629
9001680,-0.18500,59.5000,101,59,0.33724
9001690,-0.18000,59.3125,101,59,0.32918
9001700,-0.16500,59.2500,101,59,0.32186
9001710,-0.15000,59.3750,101,59,0.31526
9001720,-0.13500,60.6875,101,59,0.30403
9001730,-0.12000,62.4375,101,59,0.30012
9001740,-0.10000,65.4375,101,59,0.29695
9001750,-0.10000,65.4375,101,59,0.29695
9001760,-0.05500,80.0000,101,59,0.28547
9001770,-0.03000,85.1875,101,59,0.28205
9001780,-0.00500,89.6250,101,59,0.27937
9001790,0.02000,93.3125,101,59,0.27717
9001800,0.04500,98.4375,101,59,0.27424
9001810,0.07500,100.0000,101,59,0.27302
9001820,0.10500,101.0000,101,59,0.27155
9001830,0.14000,101.3750,101,59,0.27082
9001840,0.14000,101.3750,101,59,0.27082
9001850,0.18500,100.3125,101,59,0.26716
9001860,0.17500,99.5625,101,59,0.26520
9001870,0.13500,98.6250,101,59,0.26349
9001880,0.08000,96.6250,101,59,0.26007
9001890,0.01000,95.5625,101,59,0.25836
9001900,-0.03500,94.5000,101,59,0.25641
9001910,-0.07000,93.3750,101,59,0.25446
9001920,-0.09000,91.0625,101,59,0.25055
9001930,-0.10000,89.8750,101,59,0.24957
9001940,-0.10500,88.6875,101,59,0.24933
9001950,-0.10500,87.4375,101,59,0.24860
9001960,-0.10500,84.8750,101,59,0.24591
9001970,-0.10500,83.5000,101,59,0.24420
9001980,-0.10500,82.0000,101,59,0.24200
9001990,-0.10500,80.4375,101,59,0.23980
9002000,-0.10000,77.0625,102,60,0.23541
9002010,-0.10000,75.4375,102,60,0.23443
9002020,-0.10000,73.9375,102,60,0.23516
9002030,-0.09500,72.6875,102,60,0.23785
9002040,-0.08500,70.5625,102,60,0.24982
9002050,-0.08500,69.7500,102,60,0.26032
9002060,-0.07000,69.0625,102,60,0.27448
9002070,-0.05500,68.5625,102,60,0.29231
9002080,-0.04500,67.8750,102,60,0.36435
9002090,-0.04000,67.6875,102,60,0.40024
9002100,-0.01500,67.5625,102,60,0.43443
9002110,-0.01000,67.5000,102,60,0.46813
9002120,-0.02500,67.5000,102,60,0.53260
9002130,-0.05500,67.5000,102,60,0.55897
9002140,-0.08000,67.5625,102,60,0.58193
9002150,-0.12500,67.5625,102,60,0.60562
9002160,-0.15500,67.5625,102,60,0.64908
9002170,-0.17000,67.5625,102,60,0.66716
9002180,-0.16000,67.5000,102,60,0.68181
9002190,-0.15500,67.4375,102,60,0.69353
9002200,-0.14500,67.1875,102,60,0.70818
9002210,-0.14500,67.0000,102,60,0.71136
9002220,-0.18000,66.8125,102,60,0.71233
9002230,-0.23000,66.6250,102,60,0.71087
9002240,-0.01500,66.1875,102,60,0.70256
9002250,0.70000,65.9375,102,60,0.69646
9002260,1.52000,65.7500,102,60,0.68913
9002270,1.45500,65.5000,102,60,0.68059
9002280,0.58000,65.0625,102,60,0.65983
9002290,-0.12500,64.8125,102,60,0.64762
9002300,-0.33500,64.5625,102,60,0.63468
9002310,-0.31000,64.3125,102,60,0.62076
9002320,-0.27500,63.7500,102,60,0.59096
9002330,-0.26000,63.5000,102,60,0.57729
9002340,-0.25000,63.2500,102,60,0.56410
9002350,-0.24000,63.0000,102,60,0.54994
9002360,-0.23000,62.3750,102,60,0.52063
9002370,-0.22500,62.0625,102,60,0.50623
9002380,-0.21500,61.7500,102,60,0.49231
9002390,-0.21000,61.4375,102,60,0.47912
9002400,-0.20000,60.8125,102,60,0.45543
9002410,-0.19000,60.5625,102,60,0.44469
9002420,-0.18500,60.2500,102,60,0.43443
9002430,-0.17500,60.0625,102,60,0.42613
9002440,-0.17500,60.0625,102,60,0.42613
9002450,-0.16000,60.0000,102,60,0.41197
9002460,-0.13500,61.6250,102,60,0.39853
9002470,-0.12000,63.6875,102,60,0.39267
9002480,-0.09500,71.6250,102,60,0.38242
9002490,-0.07500,77.0625,102,60,0.37802
9002500,-0.07500,77.0625,102,60,0.37802
9002510,-0.03000,88.0625,102,60,0.37045
9002520,-0.00500,96.3750,102,60,0.36410
9002530,-0.00500,96.3750,102,60,0.36410
9002540,0.05500,101.5000,102,60,0.36044
9002550,0.08000,103.0000,102,60,0.35824
9002560,0.08000,103.0000,102,60,0.35824
9002570,0.13000,104.0000,102,60,0.35116
9002580,0.15500,103.5000,102,60,0.34896
9002590,0.17000,102.8125,102,60,0.34676
9002600,0.15000,101.1250,102,60,0.34164
9002610,0.10000,100.1250,102,60,0.33895
9002620,0.03500,99.1250,102,60,0.33602
9002630,-0.02500,98.1250,102,60,0.33382
9002640,-0.07000,96.0625,102,60,0.32967
9002650,-0.10000,95.0625,102,60,0.32674
9002660,-0.12000,93.9375,102,60,0.32381
9002670,-0.13000,92.8125,102,60,0.32088
9002680,-0.13500,90.4375,102,60,0.31502
9002690,-0.13500,89.2500,102,60,0.31209
9002700,-0.13500,88.0000,102,60,0.30891
9002710,-0.13000,86.6875,102,60,0.30574
9002720,-0.12500,83.7500,102,60,0.29963
9002730,-0.12500,82.1250,102,60,0.29817
9002740,-0.11500,80.4375,102,60,0.29744
9002750,-0.11500,78.7500,102,60,0.29670
9002760,-0.11500,75.8750,102,60,0.29988
9002770,-0.11500,74.6250,102,60,0.30525
9002780,-0.11000,73.5000,102,60,0.31404
9002790,-0.10000,72.5625,102,60,0.32698
9002800,-0.08000,71.1250,102,60,0.36581
9002810,-0.06500,70.6250,102,60,0.39096
9002820,-0.05500,70.3125,102,60,0.41954
9002830,-0.04500,70.0625,102,60,0.44640
9002840,-0.02500,69.7500,102,60,0.50305
9002850,-0.02500,69.6875,102,60,0.53480
9002860,-0.05000,69.6875,102,60,0.56679
9002870,-0.07500,69.6875,102,60,0.59780
9002880,-0.07500,69.6875,102,60,0.65397
9002890,-0.14500,69.6250,102,60,0.67814
9002900,-0.16500,69.5625,102,60,0.69915
9002910,-0.17000,69.5000,102,60,0.71673
9002920,-0.17000,69.2500,102,60,0.74212
9002930,-0.16500,69.0625,102,60,0.74872
9002940,-0.15500,68.8750,102,60,0.75214
9002950,-0.16000,68.6875,102,60,0.75458
9002960,-0.22000,68.3125,102,60,0.75531
9002970,-0.17000,68.1250,102,60,0.75287
9002980,0.28500,67.8750,102,60,0.74896
9002990,1.16500,67.6250,102,60,0.74335
9003000,1.72500,67.1250,102,60,0.72723
9003010,1.20000,66.8750,102,60,0.71722
9003020,0.23500,66.6250,102,60,0.70623
9003030,-0.27000,66.3750,102,60,0.69524
9003040,-0.33500,65.7500,102,60,0.67082
9003050,-0.30000,65.4375,102,60,0.65714
9003060,-0.28000,65.1250,102,60,0.64274
9003070,-0.27000,64.8125,102,60,0.62808
9003080,-0.26000,64.1250,102,60,0.59756
9003090,-0.25000,63.8750,102,60,0.58242
9003100,-0.24000,63.5625,102,60,0.56752
9003110,-0.23500,63.3125,102,60,0.55287
9003120,-0.22500,62.6875,102,60,0.52576
9003130,-0.22000,62.4375,102,60,0.51429
9003140,-0.21000,62.1875,102,60,0.50403
9003150,-0.20500,61.9375,102,60,0.49328
9003160,-0.20000,61.4375,102,60,0.47375
9003170,-0.19000,61.3750,102,60,0.46496
9003180,-0.17000,61.6250,102,60,0.45714
9003190,-0.16000,62.2500,102,60,0.44982
9003200,-0.14500,66.3750,102,60,0.43712
9003210,-0.12500,70.3750,102,60,0.43150
9003220,-0.10500,75.5625,102,60,0.42589
9003230,-0.08500,81.4375,102,60,0.42149
9003240,-0.05500,92.5000,102,60,0.41465
9003250,-0.03000,96.9375,102,60,0.41123
9003260,0.00000,100.5625,102,60,0.40830
9003270,0.03000,103.3125,102,60,0.40537
9003280,0.06000,106.5625,102,60,0.40122
9003290,0.06000,106.5625,102,60,0.40122
9003300,0.11500,107.2500,102,60,0.39805
9003310,0.14000,106.8750,102,60,0.39609
9003320,0.16500,105.5625,102,60,0.39219
9003330,0.16000,104.6875,102,60,0.39048
9003340,0.13000,103.7500,102,60,0.38877
9003350,0.07500,102.7500,102,60,0.38632
9003360,0.02000,100.5625,102,60,0.38120
9003370,-0.03000,99.4375,102,60,0.37851
9003380,-0.06500,98.2500,102,60,0.37582
9003390,-0.09000,97.1250,102,60,0.37314
9003400,-0.10500,94.8125,102,60,0.36752
9003410,-0.11000,93.6250,102,60,0.36435
9003420,-0.11500,92.4375,102,60,0.36117
9003430,-0.11500,91.1875,102,60,0.35897
9003440,-0.11500,88.4375,102,60,0.35458
9003450,-0.11500,86.9375,102,60,0.35189
9003460,-0.11500,85.3125,102,60,0.34945
9003470,-0.11000,83.6250,102,60,0.34725
9003480,-0.11000,80.1875,102,60,0.34554
9003490,-0.11000,79.0729,102,60,0.34546
9003500,-0.11000,78.6250,102,60,0.34750
9003510,-0.10500,77.1875,102,60,0.35214
9003520,-0.10500,74.8750,102,60,0.37216
9003530,-0.09500,74.0000,102,60,0.38852
9003540,-0.07500,73.2500,102,60,0.40562
9003550,-0.05500,72.5625,102,60,0.42442
9003560,-0.05500,71.6250,102,60,0.47619
9003570,-0.04500,71.3125,102,60,0.50672
9003580,-0.02500,71.0000,102,60,0.53871
9003590,-0.02500,70.8125,102,60,0.57167
9003600,-0.04500,70.5000,102,60,0.63516
9003610,-0.07000,70.4375,102,60,0.66422
9003620,-0.10500,70.3125,102,60,0.69084
9003630,-0.14500,70.1875,102,60,0.71477
9003640,-0.16000,70.0000,102,60,0.74628
9003650,-0.16500,69.8125,102,60,0.75995
9003660,-0.16000,69.6875,102,60,0.77241
9003670,-0.15000,69.4375,102,60,0.78291
9003680,-0.14500,69.0000,102,60,0.79536
9003690,-0.15000,68.6875,102,60,0.79780
9003700,-0.20500,68.4375,102,60,0.79805
9003710,-0.10500,68.1250,102,60,0.79609
9003720,0.44000,67.5625,102,60,0.78681
9003730,1.29000,67.2500,102,60,0.77973
9003740,1.63500,67.0000,102,60,0.77143
9003750,1.00000,66.6875,102,60,0.76190
9003760,0.10000,66.1875,102,60,0.74042
9003770,-0.30000,65.8750,102,60,0.72845
9003780,-0.31000,65.6250,102,60,0.71575
9003790,-0.27000,65.3750,102,60,0.70208
9003800,-0.25500,64.7500,102,60,0.67277
9003810,-0.24500,64.4375,102,60,0.65739
9003820,-0.23500,64.1875,102,60,0.64200
9003830,-0.22500,63.9375,102,60,0.62686
9003840,-0.22500,63.9375,102,60,0.62686
9003850,-0.22000,63.4375,102,60,0.60073
9003860,-0.20000,62.8125,102,60,0.57485
9003870,-0.19000,62.5000,102,60,0.56215
9003880,-0.19000,61.9375,102,60,0.53773
9003890,-0.17500,61.6875,102,60,0.52650
9003900,-0.16500,61.5000,102,60,0.51575
9003910,-0.15000,61.2500,102,60,0.50574
9003920,-0.13500,61.2500,102,60,0.48840
9003930,-0.12500,61.7500,102,60,0.48156
9003940,-0.10500,62.8750,102,60,0.47570
9003950,-0.08500,64.9375,102,60,0.47009
9003960,-0.06500,72.6875,102,60,0.45934
9003970,-0.04500,78.0625,102,60,0.45421
9003980,-0.02500,83.7500,102,60,0.44957
9003990,0.00500,89.1250,102,60,0.44518
9004000,0.04000,97.6250,102,60,0.43614
9004010,0.07000,100.6250,102,60,0.43175
9004020,0.09500,102.8750,102,60,0.42735
9004030,0.12000,104.3125,102,60,0.42295
9004040,0.14500,105.3125,102,60,0.41563
9004050,0.17500,105.0000,102,60,0.41148
9004060,0.19500,104.3750,102,60,0.40684
9004070,0.18500,103.5000,102,60,0.40195
9004080,0.14500,101.5000,102,60,0.39243
9004090,0.09500,100.4375,102,60,0.38755
9004100,0.03500,99.3125,102,60,0.38291
9004110,-0.01500,98.1250,102,60,0.37851
9004120,-0.05000,95.8750,102,60,0.36996
9004130,-0.06500,94.7500,102,60,0.35507
9004140,-0.08500,93.5625,102,60,0.33480
9004150,-0.08500,92.3125,102,60,0.32259
9004160,-0.09500,89.8750,102,60,0.30867
9004170,-0.09500,88.5625,102,60,0.30354
9004180,-0.09500,87.1250,102,60,0.29866
9004190,-0.09000,85.6875,102,60,0.29402
9004200,-0.09000,82.5000,102,60,0.28620
9004210,-0.09000,80.8125,102,60,0.28303
9004220,-0.09000,79.1250,102,60,0.28059
9004230,-0.09000,77.4375,102,60,0.27937
9004240,-0.09000,74.5625,102,60,0.28205
9004250,-0.08500,73.4375,102,60,0.28645
9004260,-0.08000,72.5000,102,60,0.29353
9004270,-0.06500,71.6250,102,60,0.30403
9004280,-0.04000,70.3125,102,60,0.33724
9004290,-0.03000,69.8125,102,60,0.35971
9004300,-0.03000,69.4375,102,60,0.38559
9004310,-0.01500,69.1875,102,60,0.41392
9004320,-0.00500,69.0000,102,60,0.47424
9004330,-0.01500,68.9375,102,60,0.50037
9004340,-0.04000,68.8750,102,60,0.52381
9004350,-0.06500,68.8125,102,60,0.54896
9004360,-0.10500,68.8125,102,60,0.59731
9004370,-0.14000,68.7500,102,60,0.61807
9004380,-0.15500,68.6875,102,60,0.63639
9004390,-0.15500,68.6250,102,60,0.65201
9004400,-0.14500,68.3750,102,60,0.67424
9004410,-0.14000,68.1875,102,60,0.68083
9004420,-0.13500,68.0000,102,60,0.68474
9004430,-0.15500,67.7500,102,60,0.68620
9004440,-0.15500,67.7500,102,60,0.68620
9004450,-0.02500,67.0625,102,60,0.67668
9004460,0.61000,66.8125,102,60,0.67082
9004470,1.42000,66.5000,102,60,0.66349
9004480,1.48000,66.0000,102,60,0.64542
9004490,0.68000,65.6875,102,60,0.63468
9004500,-0.07500,65.4375,102,60,0.62295
9004510,-0.30500,65.1250,102,60,0.61050
9004520,-0.28500,64.5000,102,60,0.58413
9004530,-0.25000,64.0625,102,60,0.57143
9004540,-0.25000,64.0625,102,60,0.57143
9004550,-0.22500,63.3125,102,60,0.54554
9004560,-0.22500,63.3125,102,60,0.54554
9004570,-0.20500,62.2500,102,60,0.50159
9004580,-0.20000,61.8750,102,60,0.48694
9004590,-0.19500,61.5625,102,60,0.47253
9004600,-0.19500,60.9375,102,60,0.44567
9004610,-0.18500,60.6875,102,60,0.43297
9004620,-0.18000,60.4375,102,60,0.42100
9004630,-0.17000,60.1875,102,60,0.40977
9004640,-0.16000,59.7500,102,60,0.39243
9004650,-0.15000,59.6250,102,60,0.38413
9004660,-0.13500,59.6250,102,60,0.37631
9004670,-0.12000,59.8125,102,60,0.36923
9004680,-0.10000,61.5000,102,60,0.35702
9004690,-0.08500,63.6250,102,60,0.35165
9004700,-0.06500,67.0000,102,60,0.34652
9004710,-0.04000,71.5000,102,60,0.34212
9004720,-0.01500,82.0625,102,60,0.33407
9004730,0.01000,86.9375,102,60,0.33114
9004740,0.03000,91.0625,102,60,0.32845
9004750,0.06000,94.4375,102,60,0.32552
9004760,0.09000,98.9375,102,60,0.31917
9004770,0.12500,100.1875,102,60,0.31600
9004780,0.15500,100.8125,102,60,0.31258
9004790,0.18500,100.9375,102,60,0.30916
9004800,0.19500,99.9375,102,60,0.30208
9004810,0.17500,99.0625,102,60,0.29841
9004820,0.13000,98.0000,102,60,0.29451
9004830,0.06500,96.9375,102,60,0.29035
9004840,0.00000,94.5625,102,60,0.28400
9004850,-0.04500,93.3125,102,60,0.27985
9004860,-0.07500,92.0625,102,60,0.27521
9004870,-0.09500,90.8750,102,60,0.27057
9004880,-0.10500,88.4375,102,60,0.26129
9004890,-0.11000,87.1875,102,60,0.25690
9004900,-0.11500,86.0000,102,60,0.25250
9004910,-0.11500,84.7500,102,60,0.24835
9004920,-0.11500,82.0625,102,60,0.24029
9004930,-0.11000,80.5625,102,60,0.23761
9004940,-0.10500,78.9375,102,60,0.23565
9004950,-0.10500,77.2500,102,60,0.23272
9004960,-0.10500,73.9375,102,60,0.22686
9004970,-0.10500,72.5625,102,60,0.22491
9004980,-0.10000,71.3125,102,60,0.22442
9004990,-0.08500,70.2500,102,60,0.22589
9005000,-0.08500,68.6250,102,60,0.23761
9005010,-0.06500,68.0000,102,60,0.24884
9005020,-0.04500,67.5625,102,60,0.26398
9005030,-0.04000,67.1875,102,60,0.28278
9005040,-0.04000,66.7500,102,60,0.32210
9005050,-0.02000,66.6250,102,60,0.34676
9005060,-0.01000,66.5625,102,60,0.37411
9005070,-0.02500,66.5000,102,60,0.40269
9005080,-0.05000,66.5625,102,60,0.45983
9005090,-0.07500,66.5625,102,60,0.48669
9005100,-0.11500,66.5625,102,60,0.51160
9005110,-0.15000,66.5625,102,60,0.53382
9005120,-0.16500,66.5000,102,60,0.56972
9005130,-0.16000,66.5000,102,60,0.58144
9005140,-0.15500,66.4375,102,60,0.58950
9005150,-0.14500,66.3125,102,60,0.59634
9005160,-0.14000,65.9375,102,60,0.60366
9005170,-0.16500,65.6875,102,60,0.60366
9005180,-0.21000,65.5000,102,60,0.60171
9005190,-0.04000,65.2500,102,60,0.59829
9005200,0.59500,64.6875,102,60,0.58584
9005210,1.40500,64.4375,102,60,0.57753
9005220,1.43000,64.1250,102,60,0.56801
9005230,0.61500,63.8125,102,60,0.55727
9005240,-0.09500,63.2500,102,60,0.53602
9005250,-0.31500,63.0000,102,60,0.52357
9005260,-0.29000,62.7500,102,60,0.50989
9005270,-0.25000,62.4375,102,60,0.49573
9005280,-0.24000,61.9375,102,60,0.46618
9005290,-0.23000,61.6250,102,60,0.45128
9005300,-0.22500,61.3125,102,60,0.43639
9005310,-0.22000,61.0625,102,60,0.42173
9005320,-0.21500,60.5000,102,60,0.39365
9005330,-0.20500,60.1875,102,60,0.38217
9005340,-0.20000,59.9375,102,60,0.37192
9005350,-0.19000,59.6875,102,60,0.36117
9005360,-0.18000,59.2500,102,60,0.34090
9005370,-0.17000,59.0000,102,60,0.33162
9005380,-0.17000,59.0000,102,60,0.33162
9005390,-0.15500,58.6875,102,60,0.31477
9005400,-0.14000,58.8125,102,60,0.30037
9005410,-0.12500,59.1875,102,60,0.29426
9005420,-0.11000,60.0000,102,60,0.28938
9005430,-0.09000,61.6875,102,60,0.28523
9005440,-0.07000,68.4375,102,60,0.28034
9005450,-0.04500,73.3125,102,60,0.27766
9005460,-0.02000,78.6250,102,60,0.27497
9005470,0.00500,83.7500,102,60,0.27228
9005480,0.03500,91.9375,102,60,0.26691
9005490,0.06500,94.8750,102,60,0.26422
9005500,0.09000,97.1250,102,60,0.26154
9005510,0.12000,98.6875,102,60,0.25910
9005520,0.15000,100.0625,102,60,0.25372
9005530,0.18500,99.9375,102,60,0.25226
9005540,0.19500,99.5000,102,60,0.25104
9005550,0.17500,98.7500,102,60,0.24884
9005560,0.12000,96.8750,102,60,0.24347
9005570,0.06000,95.8125,102,60,0.24054
9005580,0.00000,94.6875,102,60,0.23736
9005590,-0.04500,93.5000,102,60,0.23394
9005600,-0.07500,91.0625,102,60,0.22662
9005610,-0.09500,89.8750,102,60,0.22295
9005620,-0.10500,88.6875,102,60,0.21929
9005630,-0.11000,87.5000,102,60,0.21661
9005640,-0.11000,85.0000,102,60,0.21148
9005650,-0.11000,83.6875,102,60,0.20830
9005660,-0.10500,82.3125,102,60,0.20488
9005670,-0.10500,80.8750,102,60,0.20147
9005680,-0.10500,77.6250,102,60,0.19487
9005690,-0.09500,76.0000,102,60,0.19194
9005700,-0.09500,74.3125,102,60,0.18974
9005710,-0.10000,72.8125,102,60,0.18852
9005720,-0.10000,70.3125,102,60,0.19072
9005730,-0.09000,69.3125,102,60,0.19487
9005740,-0.08500,68.3750,102,60,0.20147
9005750,-0.07000,67.6875,102,60,0.21099
9005760,-0.05000,66.6250,102,60,0.24029
9005770,-0.04500,66.3125,102,60,0.26081
9005780,-0.03500,66.1250,102,60,0.28449
9005790,-0.01500,66.0000,102,60,0.31062
9005800,-0.01500,65.8750,102,60,0.38413
9005810,-0.03000,65.8750,102,60,0.41416
9005820,-0.05500,65.9375,102,60,0.44200
9005830,-0.08000,65.9375,102,60,0.47741
9005840,-0.08000,65.9375,102,60,0.47741
9005850,-0.15000,65.9375,102,60,0.54212
9005860,-0.16000,65.9375,102,60,0.55922
9005870,-0.16000,65.8750,102,60,0.57338
9005880,-0.15500,65.6875,102,60,0.59219
9005890,-0.14500,65.5625,102,60,0.59756
9005900,-0.13500,65.3750,102,60,0.60049
9005910,-0.17000,65.1875,102,60,0.60073
9005920,-0.21000,64.8125,102,60,0.59316
9005930,-0.01000,64.6250,102,60,0.58755
9005940,0.67000,64.4375,102,60,0.58046
9005950,1.46500,64.2500,102,60,0.56313
9005960,1.41000,63.8125,102,60,0.54115
9005970,0.57000,63.5625,102,60,0.51575
9005980,-0.10500,63.3125,102,60,0.50159
9005990,-0.30500,63.0625,102,60,0.48694
9006000,-0.27500,62.5625,102,60,0.45397
9006010,-0.24000,62.3125,102,60,0.44005
9006020,-0.23000,62.0625,102,60,0.42564
9006030,-0.22000,61.7500,102,60,0.41123
9006040,-0.22000,61.1875,102,60,0.38388
9006050,-0.21000,60.8750,102,60,0.37118
9006060,-0.20000,60.6250,102,60,0.35946
9006070,-0.19000,60.3125,102,60,0.34872
9006080,-0.19000,59.8125,102,60,0.32991
9006090,-0.18000,59.5625,102,60,0.32186
9006100,-0.17000,59.3750,102,60,0.31526
9006110,-0.16000,59.1250,102,60,0.31013
9006120,-0.15500,58.7500,102,60,0.29915
9006130,-0.14500,58.6875,102,60,0.29402
9006140,-0.13500,58.7500,102,60,0.28938
9006150,-0.11500,59.1250,102,60,0.30037
9006160,-0.10500,61.5625,102,60,0.32747
9006170,-0.08500,64.3125,102,60,0.32943
9006180,-0.06500,68.3750,102,60,0.32894
9006190,-0.04000,73.4375,102,60,0.32698
9006200,-0.01500,84.0000,102,60,0.32381
9006210,0.01000,88.5625,102,60,0.32186
9006220,0.03500,92.3750,102,60,0.31966
9006230,0.06000,95.5000,102,60,0.31746
9006240,0.09000,99.5000,102,60,0.31404
9006250,0.11500,100.5625,102,60,0.31233
9006260,0.14000,101.1250,102,60,0.31038
9006270,0.17000,101.1250,102,60,0.30842
9006280,0.18000,100.1875,102,60,0.30403
9006290,0.16500,99.3750,102,60,0.30183
9006300,0.11000,98.5000,102,60,0.30061
9006310,0.05000,97.5625,102,60,0.29963
9006320,-0.01000,95.4375,102,60,0.29573
9006330,-0.05500,94.3125,102,60,0.29328
9006340,-0.08500,93.1875,102,60,0.29060
9006350,-0.10000,92.0625,102,60,0.28742
9006360,-0.11500,89.7500,102,60,0.28107
9006370,-0.11500,88.6250,102,60,0.27766
9006380,-0.11500,87.4375,102,60,0.27448
9006390,-0.11000,86.2500,102,60,0.27155
9006400,-0.11000,86.2500,102,60,0.27155
9006410,-0.11000,82.3750,102,60,0.26886
9006420,-0.11000,80.8750,102,60,0.26935
9006430,-0.10500,79.2500,102,60,0.27131
9006440,-0.10500,75.9375,102,60,0.28620
9006450,-0.10500,74.4375,102,60,0.29841
9006460,-0.10500,73.0625,102,60,0.30940
9006470,-0.09500,71.9375,102,60,0.32552
9006480,-0.09500,70.0625,102,60,0.36972
9006490,-0.07500,69.3750,102,60,0.39658
9006500,-0.06000,68.8125,102,60,0.42173
9006510,-0.06000,68.3750,102,60,0.44640
9006520,-0.05000,67.8125,102,60,0.50403
9006530,-0.03000,67.6875,102,60,0.53358
9006540,-0.02500,67.5625,102,60,0.56190
9006550,-0.04500,67.5625,102,60,0.58828
9006560,-0.07000,67.6250,102,60,0.63346
9006570,-0.09500,67.6250,102,60,0.65177
9006580,-0.13500,67.6250,102,60,0.66691
9006590,-0.16000,67.6250,102,60,0.67937
9006600,-0.17500,67.5000,102,60,0.69182
9006610,-0.17500,67.3750,102,60,0.69548
9006620,-0.17000,67.1875,102,60,0.69744
9006630,-0.16000,67.0000,102,60,0.69744
9006640,-0.15500,66.6250,102,60,0.69231
9006650,-0.19500,66.3750,102,60,0.68694
9006660,-0.22000,66.0625,102,60,0.67961
9006670,0.04000,65.8125,102,60,0.67082
9006680,0.80000,65.3125,102,60,0.64982
9006690,1.57000,65.0625,102,60,0.63810
9006700,1.37000,64.8125,102,60,0.62686
9006710,0.46500,64.5625,102,60,0.61538
9006720,-0.16500,64.1250,102,60,0.58852
9006730,-0.32000,63.8750,102,60,0.57436
9006740,-0.29000,63.6250,102,60,0.56020
9006750,-0.27000,63.3125,102,60,0.54628
9006760,-0.25500,62.7500,102,60,0.51893
9006770,-0.24500,62.5000,102,60,0.50549
9006780,-0.24000,62.2500,102,60,0.49231
9006790,-0.22500,62.0000,102,60,0.47961
9006800,-0.22000,61.5625,102,60,0.45958
9006810,-0.21500,61.3125,102,60,0.44982
9006820,-0.21000,61.0625,102,60,0.43980
9006830,-0.20000,60.7500,102,60,0.43028
9006840,-0.19500,60.3125,102,60,0.41343
9006850,-0.18500,60.1250,102,60,0.40659
9006860,-0.17500,59.9375,102,60,0.40049
9006870,-0.16000,59.8125,102,60,0.39512
9006880,-0.15000,60.2500,102,60,0.38608
9006890,-0.13500,61.1875,102,60,0.38242
9006900,-0.11500,63.0000,102,60,0.37998
9006910,-0.10000,66.0000,102,60,0.37802
9006920,-0.08000,75.7500,102,60,0.37241
9006930,-0.05500,81.5625,102,60,0.36899
9006940,-0.02500,87.1250,102,60,0.36581
9006950,0.00000,91.9375,102,60,0.36337
9006960,0.02500,99.1250,102,60,0.35726
9006970,0.05000,101.6250,102,60,0.35385
9006980,0.08000,103.3750,102,60,0.35067
9006990,0.11000,104.4375,102,60,0.34799
9007000,0.14000,104.8750,102,60,0.34457
9007010,0.16500,104.5000,102,60,0.34261
9007020,0.16500,103.8750,102,60,0.34017
9007030,0.14000,103.1250,102,60,0.33773
9007040,0.09000,101.3125,102,60,0.33333
9007050,0.03000,100.3125,102,60,0.33114
9007060,-0.03000,99.2500,102,60,0.32869
9007070,-0.07000,98.1250,102,60,0.32625
9007080,-0.09500,96.0000,102,60,0.32088
9007090,-0.10500,94.8750,102,60,0.31795
9007100,-0.11500,93.7500,102,60,0.31600
9007110,-0.12000,92.6250,102,60,0.31429
9007120,-0.12500,90.1875,102,60,0.30916
9007130,-0.12500,88.9375,102,60,0.30647
9007140,-0.12500,87.6250,102,60,0.30452
9007150,-0.12500,86.2500,102,60,0.30330
9007160,-0.12500,83.1250,102,60,0.30525
9007170,-0.12500,81.4375,102,60,0.30965
9007180,-0.12500,79.7500,102,60,0.31746
9007190,-0.12500,78.1250,102,60,0.32894
9007200,-0.11500,75.3125,102,60,0.35751
9007210,-0.10500,74.1875,102,60,0.37827
9007220,-0.09500,73.1875,102,60,0.40342
9007230,-0.07500,72.3125,102,60,0.43175
9007240,-0.05500,71.0000,102,60,0.49548
9007250,-0.05500,70.5000,102,60,0.52869
9007260,-0.04500,70.1875,102,60,0.56190
9007270,-0.02500,69.9375,102,60,0.59389
9007280,-0.03000,69.6250,102,60,0.65128
9007290,-0.05000,69.5000,102,60,0.67253
9007300,-0.07500,69.5000,102,60,0.68962
9007310,-0.10500,69.5000,102,60,0.70672
9007320,-0.14500,69.5000,102,60,0.73504
9007330,-0.17000,69.4375,102,60,0.74554
9007340,-0.17500,69.4375,102,60,0.75336
9007350,-0.17000,69.4375,102,60,0.75873
9007360,-0.16500,69.2500,102,60,0.76288
9007370,-0.15500,69.1250,102,60,0.76166
9007380,-0.16000,68.9375,102,60,0.75873
9007390,-0.22000,68.6875,102,60,0.75433
9007400,-0.16000,68.2500,102,60,0.74017
9007410,0.29000,68.0625,102,60,0.73114
9007420,1.15000,67.8125,102,60,0.72137
9007430,1.69500,67.6250,102,60,0.71062
9007440,1.69500,67.6250,102,60,0.71062
9007450,0.20500,66.8125,102,60,0.67424
9007460,-0.27000,66.5625,102,60,0.66105
9007470,-0.32500,66.2500,102,60,0.64371
9007480,-0.29000,65.6875,102,60,0.61587
9007490,-0.27500,65.4375,102,60,0.60415
9007500,-0.27500,65.4375,102,60,0.60415
9007510,-0.25500,64.8750,102,60,0.57998
9007520,-0.25000,64.3750,102,60,0.55360
9007530,-0.24000,64.0625,102,60,0.54042
9007540,-0.23000,63.8125,102,60,0.52796
9007550,-0.22500,63.5000,102,60,0.51600
9007560,-0.22000,63.0625,102,60,0.49451
9007570,-0.21000,62.8125,102,60,0.48498
9007580,-0.20000,62.5000,102,60,0.47619
9007590,-0.19500,62.2500,102,60,0.46838
9007600,-0.19000,61.8750,102,60,0.45641
9007610,-0.17500,61.8750,102,60,0.45079
9007620,-0.15500,62.3125,102,60,0.44542
9007630,-0.14000,63.3125,102,60,0.44029
9007640,-0.12500,68.6875,102,60,0.43175
9007650,-0.10500,73.3750,102,60,0.42833
9007660,-0.08000,78.9375,102,60,0.42540
9007670,-0.05000,84.8125,102,60,0.42247
9007680,-0.02500,95.0625,102,60,0.41734
9007690,0.00500,98.9375,102,60,0.41587
9007700,0.03000,102.0000,102,60,0.41490
9007710,0.06000,104.3125,102,60,0.41343
9007720,0.08000,106.8750,102,60,0.40977
9007730,0.11000,107.1875,102,60,0.40781
9007740,0.14000,107.0625,102,60,0.40562
9007750,0.15500,106.5625,102,60,0.40317
9007760,0.15500,105.0625,102,60,0.39829
9007770,0.12000,104.1875,102,60,0.39585
9007780,0.06500,103.1875,102,60,0.39341
9007790,0.00500,102.1875,102,60,0.39072
9007800,-0.04500,100.0000,102,60,0.38559
9007810,-0.07500,98.8125,102,60,0.38388
9007820,-0.10000,97.6875,102,60,0.38193
9007830,-0.11000,96.4375,102,60,0.37949
9007840,-0.11500,93.9375,102,60,0.37558
9007850,-0.11500,92.6250,102,60,0.37363
9007860,-0.11500,91.3125,102,60,0.37118
9007870,-0.11500,91.3125,102,60,0.37118
9007880,-0.11500,87.1250,102,60,0.36777
9007890,-0.12000,85.5625,102,60,0.36874
9007900,-0.12000,83.9375,102,60,0.37118
9007910,-0.12000,82.2500,102,60,0.37558
9007920,-0.11500,78.9375,102,60,0.39902
9007930,-0.11500,77.5000,102,60,0.41636
9007940,-0.10500,76.1875,102,60,0.43126
9007950,-0.10500,76.1875,102,60,0.43126
9007960,-0.10000,75.1250,102,60,0.45201
9007970,-0.06500,72.6250,102,60,0.54261
9007980,-0.04500,72.0000,102,60,0.57167
9007990,-0.05000,71.5000,102,60,0.60537
9008000,-0.04000,70.8750,102,60,0.65470
9008010,-0.02500,70.6250,102,60,0.67888
9008020,-0.02500,70.5000,102,60,0.70305
9008030,-0.05000,70.4375,102,60,0.72576
9008040,-0.06500,70.3125,102,60,0.76361
9008050,-0.10000,70.2500,102,60,0.77827
9008060,-0.13500,70.2500,102,60,0.78974
9008070,-0.16000,70.1875,102,60,0.79829
9008080,-0.16000,70.0000,102,60,0.80586
9008090,-0.16000,69.8125,102,60,0.80513
9008100,-0.14500,69.6250,102,60,0.80415
9008110,-0.14000,69.4375,102,60,0.80171
9008120,-0.14500,68.8125,102,60,0.78950
9008130,-0.19500,68.5625,102,60,0.78413
9008140,-0.10500,68.2500,102,60,0.77680
9008150,0.41500,68.0000,102,60,0.76777
9008160,1.25500,67.4375,102,60,0.74505
9008170,1.64500,67.1875,102,60,0.73211
9008180,1.04000,66.8750,102,60,0.71819
9008190,0.12500,66.6250,102,60,0.70403
9008200,-0.29000,66.0625,102,60,0.64396
9008210,-0.30500,65.6875,102,60,0.61661
9008220,-0.27000,65.3750,102,60,0.59951
9008230,-0.25000,65.0000,102,60,0.58730
9008240,-0.24000,64.4375,102,60,0.55800
9008250,-0.23000,64.1250,102,60,0.54359
9008260,-0.22000,63.8125,102,60,0.53333
9008270,-0.21000,63.5000,102,60,0.52234
9008280,-0.20500,62.9375,102,60,0.49670
9008290,-0.20000,62.5625,102,60,0.48913
9008300,-0.19500,62.3125,102,60,0.48156
9008310,-0.19000,62.0000,102,60,0.47350
9008320,-0.17500,61.4375,102,60,0.45763
9008330,-0.17000,61.2500,102,60,0.45055
9008340,-0.15500,61.0625,102,60,0.44322
9008350,-0.14500,61.0625,102,60,0.43712
9008360,-0.12500,61.8125,102,60,0.42857
9008370,-0.11000,63.1875,102,60,0.42320
9008380,-0.09000,65.5625,102,60,0.41856
9008390,-0.07000,69.1875,102,60,0.41514
9008400,-0.04500,79.3750,102,60,0.40952
9008410,-0.02500,84.9375,102,60,0.40635
9008420,0.00500,90.0000,102,60,0.40195
9008430,0.00500,90.0000,102,60,0.40195
9008440,0.03000,94.3750,102,60,0.39805
9008450,0.08000,102.6250,102,60,0.38632
9008460,0.11000,103.8750,102,60,0.38266
9008470,0.14000,104.5000,102,60,0.37900
9008480,0.17000,104.1875,102,60,0.37241
9008490,0.18500,103.5625,102,60,0.36850
9008500,0.18500,102.6875,102,60,0.36459
9008510,0.14500,101.6250,102,60,0.36044
9008520,0.09000,99.3125,102,60,0.35311
9008530,0.03000,98.0625,102,60,0.34945
9008540,-0.02000,96.8125,102,60,0.34481
9008550,-0.05500,95.5625,102,60,0.34164
9008560,-0.07500,93.1250,102,60,0.33284
9008570,-0.09500,91.9375,102,60,0.32869
9008580,-0.09500,90.7500,102,60,0.32479
9008590,-0.10500,89.5000,102,60,0.32210
9008600,-0.10500,86.9375,102,60,0.31770
9008610,-0.10500,85.5625,102,60,0.31526
9008620,-0.10500,84.0625,102,60,0.31355
9008630,-0.10500,82.5000,102,60,0.31306
9008640,-0.10500,79.1250,102,60,0.31819
9008650,-0.10500,77.3750,102,60,0.32503
9008660,-0.10500,75.8125,102,60,0.33529
9008670,-0.10500,74.4375,102,60,0.34921
9008680,-0.09500,72.1250,102,60,0.38437
9008690,-0.08500,71.1875,102,60,0.40293
9008700,-0.07500,70.4375,102,60,0.42540
9008710,-0.05500,69.7500,102,60,0.45079
9008720,-0.03500,68.8750,102,60,0.50501
9008730,-0.03500,68.6250,102,60,0.53187
9008740,-0.02500,68.5000,102,60,0.55751
9008750,-0.01000,68.3750,102,60,0.57631
9008760,-0.01500,68.3125,102,60,0.61832
9008770,-0.03500,68.3125,102,60,0.63639
9008780,-0.06000,68.3125,102,60,0.65031
9008790,-0.09500,68.3125,102,60,0.65958
9008800,-0.13000,68.2500,102,60,0.67009
9008810,-0.15000,68.1875,102,60,0.67326
9008820,-0.15500,68.0625,102,60,0.67448
9008830,-0.15500,67.9375,102,60,0.67399
9008840,-0.14500,67.5625,102,60,0.66740
9008850,-0.13500,67.3750,102,60,0.66178
9008860,-0.14000,67.1250,102,60,0.65495
9008870,-0.18500,66.8750,102,60,0.64664
9008880,-0.11500,66.3750,102,60,0.62784
9008890,0.36500,66.0625,102,60,0.61783
9008900,1.19500,65.8125,102,60,0.60684
9008910,1.59000,65.5625,102,60,0.59487
9008920,0.99000,65.0000,102,60,0.56923
9008930,0.11000,64.7500,102,60,0.55580
9008940,-0.28000,64.5000,102,60,0.54212
9008950,-0.29500,64.1875,102,60,0.52821
9008960,-0.25000,63.6250,102,60,0.50085
9008970,-0.23500,63.3125,102,60,0.48742
9008980,-0.23500,63.3125,102,60,0.48742
9008990,-0.21500,62.6875,102,60,0.46300
9009000,-0.20500,62.0000,102,60,0.44200
9009010,-0.20000,61.6875,102,60,0.43150
9009020,-0.19500,61.4375,102,60,0.42173
9009030,-0.19000,61.1250,102,60,0.41270
9009040,-0.18000,60.5625,102,60,0.39683
9009050,-0.17500,60.3125,102,60,0.39023
9009060,-0.16500,60.0625,102,60,0.38388
9009070,-0.16000,59.8125,102,60,0.37827
9009080,-0.14500,59.5625,102,60,0.36923
9009090,-0.13500,59.5625,102,60,0.36606
9009100,-0.12000,59.8125,102,60,0.36264
9009110,-0.10500,60.3750,102,60,0.35922
9009120,-0.08500,63.6875,102,60,0.35214
9009130,-0.06500,67.0000,102,60,0.34847
9009140,-0.04500,71.5000,102,60,0.34505
9009150,-0.02000,76.6875,102,60,0.34188
9009160,0.00500,86.7500,102,60,0.33578
9009170,0.03000,90.8125,102,60,0.33284
9009180,0.06000,94.1250,102,60,0.33089
9009190,0.09000,96.6250,102,60,0.32918
9009200,0.12000,99.6875,102,60,0.32405
9009210,0.15500,100.2500,102,60,0.32112
9009220,0.18500,100.3125,102,60,0.31795
9009230,0.20500,99.8750,102,60,0.31453
9009240,0.20000,98.2500,102,60,0.30769
9009250,0.15500,97.2500,102,60,0.30427
9009260,0.09000,96.1250,102,60,0.30110
9009270,0.02500,95.0000,102,60,0.29792
9009280,-0.03000,92.6250,102,60,0.29206
9009290,-0.06500,91.3750,102,60,0.28987
9009300,-0.08500,90.1875,102,60,0.28694
9009310,-0.10000,88.9375,102,60,0.28352
9009320,-0.10500,86.4375,102,60,0.27668
9009330,-0.11000,85.1875,102,60,0.27350
9009340,-0.11000,83.9375,102,60,0.27033
9009350,-0.10500,82.6250,102,60,0.26740
9009360,-0.10500,79.7500,102,60,0.26325
9009370,-0.10500,78.1250,102,60,0.26300
9009380,-0.10000,76.5000,102,60,0.26471
9009390,-0.10000,74.8750,102,60,0.26813
9009400,-0.09500,72.0000,102,60,0.28181
9009410,-0.09500,70.8125,102,60,0.29353
9009420,-0.09000,69.7500,102,60,0.30891
9009430,-0.08500,68.8750,102,60,0.32747
9009440,-0.08000,67.6250,102,60,0.37241
9009450,-0.06000,67.1250,102,60,0.39756
9009460,-0.04500,66.7500,102,60,0.42369
9009470,-0.04500,66.7500,102,60,0.42369
9009480,-0.02500,66.2500,102,60,0.49719
9009490,-0.00500,66.2500,102,60,0.51551
9009500,-0.01500,66.2500,102,60,0.53455
9009510,-0.04500,66.2500,102,60,0.55238
9009520,-0.07000,66.3125,102,60,0.58169
9009530,-0.10000,66.2500,102,60,0.59267
9009540,-0.13500,66.2500,102,60,0.60098
9009550,-0.16000,66.1875,102,60,0.60635
9009560,-0.16000,66.0000,102,60,0.61026
9009570,-0.15500,65.8750,102,60,0.60928
9009580,-0.14500,65.7500,102,60,0.60659
9009590,-0.13500,65.5625,102,60,0.60220
9009600,-0.14500,65.1250,102,60,0.58926
9009610,-0.20000,64.9375,102,60,0.58095
9009620,-0.14000,64.6875,102,60,0.57143
9009630,0.33000,64.5000,102,60,0.56117
9009640,1.15000,64.0625,102,60,0.53822
9009650,1.55000,63.8125,102,60,0.52601
9009660,0.97000,63.6250,102,60,0.51331
9009670,0.11000,63.3750,102,60,0.50012
9009680,-0.27500,62.8125,102,60,0.47497
9009690,-0.30000,62.5625,102,60,0.46398
9009700,-0.25500,62.2500,102,60,0.45201
9009710,-0.24000,62.0000,102,60,0.43956
9009720,-0.23000,61.5000,102,60,0.41538
9009730,-0.22000,61.1875,102,60,0.40391
9009740,-0.21000,60.8750,102,60,0.39267
9009750,-0.20500,60.6250,102,60,0.38242
9009760,-0.20000,60.1250,102,60,0.36386
9009770,-0.20000,59.8750,102,60,0.35580
9009780,-0.18500,59.6250,102,60,0.34945
9009790,-0.18000,59.3750,102,60,0.34432
9009800,-0.17000,58.9375,102,60,0.33407
9009810,-0.17000,58.7500,102,60,0.32943
9009820,-0.16000,58.6250,102,60,0.32527
9009830,-0.14500,58.6250,102,60,0.32137
9009840,-0.12500,59.1250,102,60,0.31477
9009850,-0.11500,59.9375,102,60,0.31209
9009860,-0.09500,61.6250,102,60,0.30965
9009870,-0.07500,64.4375,102,60,0.30745
9009880,-0.05500,73.4375,102,60,0.30427
9009890,-0.02500,78.8125,102,60,0.30330
9009900,-0.00500,83.9375,102,60,0.30183
9009910,0.02000,88.4375,102,60,0.29988
9009920,0.04500,94.8125,102,60,0.29597
9009930,0.07500,96.9375,102,60,0.29402
9009940,0.11000,98.3750,102,60,0.29206
9009950,0.14000,99.3125,102,60,0.28962
9009960,0.17500,99.6250,102,60,0.28425
9009970,0.19500,99.1250,102,60,0.28181
9009980,0.19000,98.3750,102,60,0.28034
9009990,0.15000,97.4375,102,60,0.27912
9010000,0.09000,95.3750,102,60,0.27424
9010010,0.02000,94.2500,102,60,0.27131
9010020,-0.03500,93.1250,102,60,0.26838
9010030,-0.07000,91.9375,102,60,0.26569
9010040,-0.09000,89.6250,102,60,0.26032
9010050,-0.10500,88.3750,102,60,0.25763
9010060,-0.10500,87.1250,102,60,0.25495
9010070,-0.11000,85.9375,102,60,0.25250
9010080,-0.11500,83.3750,102,60,0.24835
9010090,-0.11500,82.0000,102,60,0.24737
9010100,-0.11000,80.5625,102,60,0.24615
9010110,-0.11000,79.0625,102,60,0.24542
9010120,-0.11000,75.7500,102,60,0.24860
9010130,-0.10500,74.1250,102,60,0.25372
9010140,-0.10500,72.6250,102,60,0.26178
9010150,-0.10500,71.3125,102,60,0.27326
9010160,-0.10000,69.1875,102,60,0.30598
9010170,-0.09500,68.3125,102,60,0.32747
9010180,-0.08500,67.5625,102,60,0.34823
9010190,-0.06500,66.9375,102,60,0.36947
9010200,-0.05500,66.1250,102,60,0.42125
9010210,-0.05500,65.8750,102,60,0.44908
9010220,-0.04000,65.7500,102,60,0.47643
9010230,-0.02500,65.6875,102,60,0.50256
9010240,-0.03000,65.6875,102,60,0.58339
9010250,-0.05500,65.7500,102,60,0.61416
9010260,-0.07500,65.7500,102,60,0.63712
9010270,-0.11000,65.8125,102,60,0.65446
9010280,-0.14500,65.8125,102,60,0.67448
9010290,-0.17000,65.8125,102,60,0.67863
9010300,-0.17500,65.7500,102,60,0.68156
9010310,-0.17000,65.6875,102,60,0.68278
9010320,-0.16000,65.5000,102,60,0.67912
9010330,-0.15500,65.3125,102,60,0.67448
9010340,-0.15500,65.1875,102,60,0.66813
9010350,-0.21000,65.0000,102,60,0.66032
9010360,-0.19000,64.5625,102,60,0.64029
9010370,0.20500,64.3750,102,60,0.62857
9010380,1.02000,64.1250,102,60,0.61709
9010390,1.55000,63.9375,102,60,0.60537
9010400,1.10000,63.4375,102,60,0.57705
9010410,0.20500,63.1250,102,60,0.56142
9010420,-0.26000,62.8750,102,60,0.54530
9010430,-0.31500,62.6250,102,60,0.52943
9010440,-0.31500,62.6250,102,60,0.52943
9010450,-0.26000,61.8125,102,60,0.48376
9010460,-0.25000,61.5625,102,60,0.46984
9010470,-0.24500,61.2500,102,60,0.45641
9010480,-0.23500,60.6875,102,60,0.43321
9010490,-0.22500,60.4375,102,60,0.42393
9010500,-0.22000,60.1250,102,60,0.41392
9010510,-0.22000,59.8750,102,60,0.40415
9010520,-0.20500,59.3125,102,60,0.38559
9010530,-0.20000,59.0625,102,60,0.37753
9010540,-0.19000,58.8125,102,60,0.37021
9010550,-0.18000,58.6250,102,60,0.36361
9010560,-0.17000,58.3125,102,60,0.35263
9010570,-0.15500,58.3125,102,60,0.34823
9010580,-0.14500,58.5000,102,60,0.34530
9010590,-0.12500,59.1250,102,60,0.34335
9010600,-0.10500,62.6875,102,60,0.33871
9010610,-0.09000,66.2500,102,60,0.33651
9010620,-0.07000,71.0000,102,60,0.33431
9010630,-0.04500,76.3750,102,60,0.33187
9010640,-0.02500,86.6250,102,60,0.32796
9010650,0.00000,90.6875,102,60,0.32625
9010660,0.03000,94.0000,102,60,0.32454
9010670,0.05000,96.6250,102,60,0.32283
9010680,0.08000,99.9375,102,60,0.31941
9010690,0.11500,100.7500,102,60,0.31819
9010700,0.14500,101.0000,102,60,0.31624
9010710,0.17000,100.8750,102,60,0.31380
9010720,0.16500,99.7500,102,60,0.30818
9010730,0.13000,98.9375,102,60,0.30501
9010740,0.07500,97.9375,102,60,0.30183
9010750,0.01000,96.9375,102,60,0.29841
9010760,-0.04500,94.7500,102,60,0.29231
9010770,-0.08500,93.6250,102,60,0.28938
9010780,-0.11000,92.5000,102,60,0.28767
9010790,-0.12500,91.4375,102,60,0.28645
9010800,-0.12500,89.1250,102,60,0.28107
9010810,-0.12500,88.0000,102,60,0.27814
9010820,-0.13000,86.7500,102,60,0.27521
9010830,-0.12500,85.5625,102,60,0.27253
9010840,-0.12500,82.8750,102,60,0.26886
9010850,-0.12000,81.3750,102,60,0.26886
9010860,-0.12000,79.7500,102,60,0.27106
9010870,-0.12000,78.1250,102,60,0.27595
9010880,-0.11500,74.9375,102,60,0.29304
9010890,-0.11500,73.5625,102,60,0.30720
9010900,-0.11500,72.3750,102,60,0.32527
9010910,-0.10500,71.3750,102,60,0.34725
9010920,-0.10000,69.6875,102,60,0.40220
9010930,-0.08000,69.0000,102,60,0.43370
9010940,-0.06500,68.5000,102,60,0.46691
9010950,-0.06500,68.1250,102,60,0.50037
9010960,-0.05000,67.6250,102,60,0.56581
9010970,-0.03500,67.5000,102,60,0.59609
9010980,-0.03500,67.4375,102,60,0.62027
9010990,-0.06000,67.4375,102,60,0.64029
9011000,-0.08500,67.4375,103,60,0.67912
9011010,-0.11500,67.4375,103,60,0.69524
9011020,-0.15000,67.5000,103,60,0.70842
9011030,-0.17000,67.5000,103,60,0.71868
9011040,-0.18000,67.4375,103,60,0.73040
9011050,-0.17000,67.3750,103,60,0.73187
9011060,-0.16000,67.2500,103,60,0.73089
9011070,-0.15500,66.8750,103,60,0.72283
9011080,-0.16000,66.6250,103,60,0.71673
9011090,-0.22000,66.4375,103,60,0.70916
9011100,-0.19500,66.1875,103,60,0.70061
9011110,0.22500,65.9375,103,60,0.69084
9011120,1.06500,65.5000,103,60,0.66813
9011130,1.63000,65.2500,103,60,0.65495
9011140,1.18000,65.0000,103,60,0.64103
9011150,0.24000,64.7500,103,60,0.62686
9011160,-0.26000,64.1875,103,60,0.59658
9011170,-0.32500,63.9375,103,60,0.58120
9011180,-0.29000,63.6875,103,60,0.56728
9011190,-0.27000,63.3750,103,60,0.55433
9011200,-0.26000,62.8750,103,60,0.52601
9011210,-0.25000,62.6250,103,60,0.51160
9011220,-0.24000,62.3125,103,60,0.49792
9011230,-0.23500,62.0625,103,60,0.48523
9011240,-0.23000,61.5625,103,60,0.46178
9011250,-0.22000,61.3125,103,60,0.45128
9011260,-0.21000,61.0625,103,60,0.44176
9011270,-0.20500,60.8125,103,60,0.43321
9011280,-0.19500,60.3125,103,60,0.42051
9011290,-0.19000,60.1250,103,60,0.41465
9011300,-0.17500,59.9375,103,60,0.40928
9011310,-0.16500,59.8750,103,60,0.40440
9011320,-0.15000,60.6875,103,60,0.39585
9011330,-0.13500,62.0000,103,60,0.39194
9011340,-0.11500,64.4375,103,60,0.38828
9011350,-0.09500,68.1250,103,60,0.38510
9011360,-0.07500,78.6250,103,60,0.37924
9011370,-0.05500,84.2500,103,60,0.37680
9011380,-0.02500,89.3750,103,60,0.37509
9011390,0.00000,93.7500,103,60,0.37387
9011400,0.03000,100.0625,103,60,0.36923
9011410,0.06000,102.0625,103,60,0.36630
9011420,0.09000,103.4375,103,60,0.36361
9011430,0.12000,104.1250,103,60,0.36068
9011440,0.14500,104.1250,103,60,0.35507
9011450,0.16500,103.6250,103,60,0.35189
9011460,0.16500,102.9375,103,60,0.34847
9011470,0.13000,102.1250,103,60,0.34505
9011480,0.08000,100.2500,103,60,0.34066
9011490,0.01000,99.2500,103,60,0.33797
9011500,-0.04000,98.1875,103,60,0.33504
9011510,-0.08000,97.0625,103,60,0.33187
9011520,-0.10500,94.8750,103,60,0.32601
9011530,-0.12000,93.7500,103,60,0.32332
9011540,-0.12500,92.6250,103,60,0.32039
9011550,-0.12500,91.4375,103,60,0.31770
9011560,-0.12500,91.4375,103,60,0.31770
9011570,-0.13000,87.7500,103,60,0.31160
9011580,-0.12500,86.4375,103,60,0.31184
9011590,-0.12500,85.0000,103,60,0.31331
9011600,-0.12000,81.8125,103,60,0.32161
9011610,-0.11500,80.0625,103,60,0.32991
9011620,-0.11500,78.4375,103,60,0.34212
9011630,-0.11500,76.8750,103,60,0.35849
9011640,-0.11000,74.3750,103,60,0.40440
9011650,-0.10500,73.3125,103,60,0.43346
9011660,-0.09500,72.4375,103,60,0.46545
9011670,-0.07500,71.6250,103,60,0.49963
9011680,-0.05500,70.5625,103,60,0.55897
9011690,-0.05500,70.2500,103,60,0.59072
9011700,-0.04500,70.0000,103,60,0.62295
9011710,-0.03000,69.8125,103,60,0.65421
9011720,-0.03500,69.6875,103,60,0.70965
9011730,-0.05500,69.7500,103,60,0.73260
9011740,-0.08000,69.7500,103,60,0.75238
9011750,-0.11500,69.8125,103,60,0.76899
9011760,-0.15000,69.8750,103,60,0.79219
9011770,-0.16500,69.8125,103,60,0.79951
9011780,-0.17000,69.7500,103,60,0.80269
9011790,-0.17000,69.7500,103,60,0.80269
9011800,-0.15500,69.3750,103,60,0.79927
9011810,-0.15000,69.1875,103,60,0.79560
9011820,-0.16500,68.9375,103,60,0.78999
9011830,-0.22000,68.6875,103,60,0.78291
9011840,-0.09500,68.1875,103,60,0.76435
9011850,0.49500,67.9375,103,60,0.75311
9011860,1.37500,67.6875,103,60,0.74090
9011870,1.66000,67.4375,103,60,0.72821
9011880,0.94500,66.8750,103,60,0.70354
9011890,0.04000,66.5625,103,60,0.68987
9011900,-0.32500,66.2500,103,60,0.67546
9011910,-0.32500,65.9375,103,60,0.66032
9011920,-0.28500,65.3125,103,60,0.62930
9011930,-0.27000,65.0000,103,60,0.61343
9011940,-0.26000,64.7500,103,60,0.59756
9011950,-0.25000,64.4375,103,60,0.58193
9011960,-0.24000,63.8750,103,60,0.55311
9011970,-0.23000,63.6250,103,60,0.53968
9011980,-0.22500,63.3750,103,60,0.52821
9011990,-0.22000,63.1250,103,60,0.51844
9012000,-0.21000,62.5625,103,60,0.49939
9012010,-0.20500,62.3125,103,60,0.49109
9012020,-0.19500,62.0625,103,60,0.48352
9012030,-0.19000,61.8125,103,60,0.47692
9012040,-0.17500,61.6250,103,60,0.46569
9012050,-0.16000,61.8125,103,60,0.46105
9012060,-0.14500,62.5000,103,60,0.45665
9012070,-0.13000,64.0000,103,60,0.45275
9012080,-0.11000,70.5000,103,60,0.44786
9012090,-0.09000,75.5000,103,60,0.44518
9012100,-0.06000,81.1875,103,60,0.44225
9012110,-0.03500,86.8750,103,60,0.43907
9012120,-0.01000,96.4375,103,60,0.43297
9012130,0.02000,99.8750,103,60,0.43004
9012140,0.05000,102.6250,103,60,0.42711
9012150,0.07500,104.5625,103,60,0.42418
9012160,0.10000,106.4375,103,60,0.41758
9012170,0.13000,106.5000,103,60,0.41416
9012180,0.15500,106.1875,103,60,0.41148
9012190,0.17500,105.5625,103,60,0.40928
9012200,0.16000,103.7500,103,60,0.40293
9012210,0.12000,102.6875,103,60,0.39976
9012220,0.06000,101.5625,103,60,0.39658
9012230,0.00000,100.3750,103,60,0.39341
9012240,-0.04500,98.0000,103,60,0.38706
9012250,-0.07500,96.8125,103,60,0.38364
9012260,-0.09000,95.5625,103,60,0.38022
9012270,-0.10500,94.3750,103,60,0.37705
9012280,-0.10500,91.8750,103,60,0.36703
9012290,-0.11500,90.6250,103,60,0.35580
9012300,-0.11500,89.3750,103,60,0.34921
9012310,-0.11500,88.0000,103,60,0.34579
9012320,-0.11500,85.1250,103,60,0.34505
9012330,-0.11500,83.5000,103,60,0.34799
9012340,-0.11000,81.8125,103,60,0.35360
9012350,-0.10500,80.0625,103,60,0.36239
9012360,-0.10500,76.8125,103,60,0.39170
9012370,-0.10500,75.3750,103,60,0.41221
9012380,-0.10500,74.1875,103,60,0.43272
9012390,-0.09500,73.1250,103,60,0.45421
9012400,-0.07500,71.4375,103,60,0.51013
9012410,-0.04500,70.8125,103,60,0.54115
9012420,-0.03000,70.3750,103,60,0.57265
9012430,-0.03500,70.0000,103,60,0.60342
9012440,-0.02500,69.5625,103,60,0.65958
9012450,-0.01000,69.3750,103,60,0.68425
9012460,-0.01500,69.2500,103,60,0.70623
9012470,-0.04000,69.1875,103,60,0.72527
9012480,-0.06500,69.1875,103,60,0.74872
9012490,-0.09500,69.1250,103,60,0.75751
9012500,-0.13000,69.1250,103,60,0.76459
9012510,-0.15500,69.0625,103,60,0.76948
9012520,-0.15500,68.8750,103,60,0.77216
9012530,-0.15000,68.6875,103,60,0.77070
9012540,-0.14000,68.4375,103,60,0.76752
9012550,-0.12500,68.2500,103,60,0.76264
9012560,-0.14000,67.7500,103,60,0.74847
9012570,-0.19000,67.5000,103,60,0.73944
9012580,-0.19000,67.5000,103,60,0.73944
9012590,0.46500,66.9375,103,60,0.71917
9012600,1.30500,66.3750,103,60,0.69524
9012610,1.64500,66.1250,103,60,0.68205
9012620,0.94000,65.8750,103,60,0.66813
9012630,0.05000,65.6250,103,60,0.65397
9012640,0.05000,65.6250,103,60,0.65397
9012650,-0.30000,64.6875,103,60,0.61001
9012660,-0.26000,64.3125,103,60,0.59487
9012670,-0.24000,64.0000,103,60,0.57973
9012680,-0.23500,63.3750,103,60,0.55360
9012690,-0.22500,63.0625,103,60,0.53993
9012700,-0.21500,62.7500,103,60,0.52625
9012710,-0.20500,62.5000,103,60,0.51331
9012720,-0.20000,61.8750,103,60,0.48913
9012730,-0.19500,61.5625,103,60,0.47839
9012740,-0.19000,61.2500,103,60,0.46838
9012750,-0.18000,61.0000,103,60,0.45934
9012760,-0.17500,60.5000,103,60,0.44347
9012770,-0.16500,60.3125,103,60,0.43712
9012780,-0.15500,60.1250,103,60,0.43150
9012790,-0.14000,60.1250,103,60,0.42564
9012800,-0.12500,60.9375,103,60,0.41465
9012810,-0.10500,62.3750,103,60,0.40928
9012820,-0.08500,64.8125,103,60,0.40415
9012830,-0.06500,68.5625,103,60,0.39927
9012840,-0.04500,78.8125,103,60,0.39048
9012850,-0.02000,84.2500,103,60,0.38681
9012860,0.00500,89.1875,103,60,0.38315
9012870,0.03500,93.2500,103,60,0.37949
9012880,0.07000,99.0625,103,60,0.37387
9012890,0.10000,100.8750,103,60,0.37045
9012900,0.12500,102.1250,103,60,0.36654
9012910,0.15500,102.7500,103,60,0.36215
9012920,0.18500,102.3750,103,60,0.35336
9012930,0.20500,101.6250,103,60,0.34896
9012940,0.19000,100.6875,103,60,0.34457
9012950,0.15500,99.6875,103,60,0.34017
9012960,0.09000,97.4375,103,60,0.33089
9012970,0.02500,96.1875,103,60,0.32747
9012980,-0.02500,94.9375,103,60,0.32454
9012990,-0.05500,93.6250,103,60,0.32088
9013000,-0.07500,91.0625,102,60,0.31331
9013010,-0.09500,89.8125,102,60,0.30940
9013020,-0.10000,88.5625,102,60,0.30525
9013030,-0.10000,87.3125,102,60,0.30085
9013040,-0.10500,84.6875,102,60,0.29255
9013050,-0.10500,83.2500,102,60,0.28938
9013060,-0.10000,81.7500,102,60,0.28718
9013070,-0.10000,80.1250,102,60,0.28645
9013080,-0.10000,76.8125,102,60,0.29109
9013090,-0.10000,75.1875,102,60,0.29719
9013100,-0.10500,73.7500,102,60,0.30623
9013110,-0.10000,72.5000,102,60,0.31917
9013120,-0.09500,70.5000,102,60,0.35629
9013130,-0.08500,69.6875,102,60,0.37998
9013140,-0.07500,69.0000,102,60,0.40610
9013150,-0.05000,68.4375,102,60,0.43394
9013160,-0.03500,67.6875,102,60,0.49182
9013170,-0.03500,67.4375,102,60,0.51673
9013180,-0.02500,67.2500,102,60,0.53895
9013190,-0.00500,67.1250,102,60,0.56239
9013200,-0.01000,67.0000,102,60,0.60611
9013210,-0.03500,66.9375,102,60,0.62466
9013220,-0.06500,66.9375,102,60,0.64029
9013230,-0.09500,66.9375,102,60,0.65250
9013240,-0.13500,66.8125,102,60,0.66789
9013250,-0.15500,66.6875,102,60,0.67106
9013260,-0.15500,66.5625,102,60,0.67179
9013270,-0.15000,66.4375,102,60,0.67033
9013280,-0.14500,66.1250,102,60,0.66203
9013290,-0.13500,65.9375,102,60,0.65617
9013300,-0.14000,65.7500,102,60,0.64933
9013310,-0.19000,65.5625,102,60,0.64127
9013320,-0.10000,65.1250,102,60,0.62222
9013330,0.38000,64.8750,102,60,0.61123
9013340,1.21000,64.6250,102,60,0.59902
9013350,1.59500,64.3750,102,60,0.58584
9013360,0.93500,63.8750,102,60,0.55751
9013370,0.06500,63.6250,102,60,0.54481
9013380,-0.28000,63.4375,102,60,0.53260
9013390,-0.30000,63.1250,102,60,0.51917
9013400,-0.25500,62.5625,102,60,0.49011
9013410,-0.24000,62.3125,102,60,0.47497
9013420,-0.23000,62.0000,102,60,0.46032
9013430,-0.22000,61.6875,102,60,0.44664
9013440,-0.22000,61.1250,102,60,0.42149
9013450,-0.21000,60.8125,102,60,0.41026
9013460,-0.20000,60.5000,102,60,0.39976
9013470,-0.19000,60.1875,102,60,0.38999
9013480,-0.18500,59.6875,102,60,0.37558
9013490,-0.17500,59.4375,102,60,0.36850
9013500,-0.17000,59.1875,102,60,0.36190
9013510,-0.16000,58.9375,102,60,0.35604
9013520,-0.15000,58.7500,102,60,0.34530
9013530,-0.13500,58.7500,102,60,0.34090
9013540,-0.12000,59.0000,102,60,0.33675
9013550,-0.10500,59.6250,102,60,0.33284
9013560,-0.08500,63.2500,102,60,0.32576
9013570,-0.06000,66.7500,102,60,0.32332
9013580,-0.04000,71.3125,102,60,0.32137
9013590,-0.01500,76.5625,102,60,0.31893
9013600,0.00500,86.4375,102,60,0.31331
9013610,0.03500,90.3750,102,60,0.31038
9013620,0.06500,93.5000,102,60,0.30745
9013630,0.06500,93.5000,102,60,0.30745
9013640,0.12500,98.8125,102,60,0.29817
9013650,0.15500,99.3125,102,60,0.29499
9013660,0.19000,99.2500,102,60,0.29206
9013670,0.21500,98.8750,102,60,0.28913
9013680,0.20500,97.2500,102,60,0.28547
9013690,0.15500,96.1875,102,60,0.28278
9013700,0.08500,95.0625,102,60,0.27937
9013710,0.02000,93.9375,102,60,0.27595
9013720,-0.03000,91.4375,102,60,0.26838
9013730,-0.06500,90.1875,102,60,0.26471
9013740,-0.08500,88.9375,102,60,0.26105
9013750,-0.09500,87.6875,102,60,0.25763
9013760,-0.10500,85.1875,102,60,0.25055
9013770,-0.10500,83.9375,102,60,0.24786
9013780,-0.10500,82.6250,102,60,0.24591
9013790,-0.10000,81.2500,102,60,0.24322
9013800,-0.10000,78.1875,102,60,0.23834
9013810,-0.10000,76.5625,102,60,0.23736
9013820,-0.10000,74.9375,102,60,0.23810
9013830,-0.10000,73.3750,102,60,0.24151
9013840,-0.10000,73.3750,102,60,0.24151
9013850,-0.10000,69.4375,102,60,0.27131
9013860,-0.09500,68.5000,102,60,0.28816
9013870,-0.08500,67.6875,102,60,0.30842
9013880,-0.07500,66.5000,102,60,0.34945
9013890,-0.05000,66.0625,102,60,0.37485
9013900,-0.04000,65.7500,102,60,0.40244
9013910,-0.04500,65.5000,102,60,0.43077
9013920,-0.02500,65.3125,102,60,0.48645
9013930,-0.00500,65.3125,102,60,0.51233
9013940,-0.01000,65.3125,102,60,0.53602
9013950,-0.03500,65.3125,102,60,0.55702
9013960,-0.06000,65.3125,102,60,0.59023
9013970,-0.09500,65.3125,102,60,0.60073
9013980,-0.13500,65.3125,102,60,0.60781
9013990,-0.15500,65.3125,102,60,0.61368
9014000,-0.15500,65.1250,102,60,0.61978
9014010,-0.15500,65.0625,102,60,0.61954
9014020,-0.14500,64.8750,102,60,0.61709
9014030,-0.13500,64.6875,102,60,0.61294
9014040,-0.14500,64.3125,102,60,0.59976
9014050,-0.19500,64.1250,102,60,0.59121
9014060,-0.14500,63.8750,102,60,0.58169
9014070,0.28500,63.6875,102,60,0.57070
9014080,1.11000,63.3125,102,60,0.54921
9014090,1.58000,63.1250,102,60,0.53675
9014100,1.00000,62.8750,102,60,0.52357
9014110,0.13000,62.6250,102,60,0.50965
9014120,-0.26000,62.1250,102,60,0.48132
9014130,-0.30500,61.8750,102,60,0.46716
9014140,-0.26500,61.6250,102,60,0.45324
9014150,-0.25000,61.3125,102,60,0.43932
9014160,-0.24000,60.7500,102,60,0.41221
9014170,-0.23000,60.5000,102,60,0.40073
9014180,-0.22000,60.2500,102,60,0.39096
9014190,-0.21000,59.6875,102,60,0.37045
9014200,-0.20500,59.4375,102,60,0.36117
9014210,-0.19500,59.1250,102,60,0.35287
9014220,-0.19000,58.8750,102,60,0.34505
9014230,-0.18000,58.6875,102,60,0.33822
9014240,-0.17000,58.2500,102,60,0.32601
9014250,-0.16000,58.0625,102,60,0.32088
9014260,-0.15000,57.9375,102,60,0.31624
9014270,-0.13500,57.9375,102,60,0.31209
9014280,-0.12500,58.5000,102,60,0.30720
9014290,-0.11000,59.4375,102,60,0.30501
9014300,-0.09000,61.2500,102,60,0.30256
9014310,-0.07500,64.2500,102,60,0.30012
9014320,-0.05000,73.4375,102,60,0.29499
9014330,-0.02500,78.6875,102,60,0.29524
9014340,0.00000,83.6875,102,60,0.29695
9014350,0.03000,88.0625,102,60,0.29695
9014360,0.05500,94.4375,102,60,0.29475
9014370,0.08000,96.5625,102,60,0.29402
9014380,0.11000,98.0625,102,60,0.29377
9014390,0.14000,98.8750,102,60,0.29255
9014400,0.17500,99.0625,102,60,0.28913
9014410,0.19500,98.6250,102,60,0.28694
9014420,0.19000,97.8750,102,60,0.28449
9014430,0.15000,97.0000,102,60,0.28181
9014440,0.15000,97.0000,102,60,0.28181
9014450,0.02500,93.9375,102,60,0.27253
9014460,-0.02500,92.8125,102,60,0.26960
9014470,-0.06500,91.6250,102,60,0.26691
9014480,-0.08500,89.2500,102,60,0.26447
9014490,-0.09500,88.0000,102,60,0.26300
9014500,-0.10500,86.7500,102,60,0.26105
9014510,-0.10500,85.5000,102,60,0.25910
9014520,-0.10500,83.0000,102,60,0.25519
9014530,-0.10500,81.6250,102,60,0.25372
9014540,-0.10500,80.2500,102,60,0.25226
9014550,-0.10000,78.6875,102,60,0.25153
9014560,-0.10000,75.5000,102,60,0.25495
9014570,-0.10000,73.8750,102,60,0.25934
9014580,-0.10000,72.4375,102,60,0.26618
9014590,-0.09500,71.1250,102,60,0.27595
9014600,-0.09000,69.0000,102,60,0.30598
9014610,-0.08000,68.1250,102,60,0.32601
9014620,-0.07500,67.4375,102,60,0.34896
9014630,-0.05500,66.8750,102,60,0.37436
9014640,-0.05500,66.8750,102,60,0.37436
9014650,-0.04000,65.8750,102,60,0.45690
9014660,-0.02000,65.7500,102,60,0.48425
9014670,-0.00500,65.6875,102,60,0.50720
9014680,-0.02000,65.6250,102,60,0.54750
9014690,-0.04500,65.6250,102,60,0.56703
9014700,-0.07000,65.5625,102,60,0.58437
9014710,-0.10500,65.6250,102,60,0.59902
9014720,-0.14000,65.5625,102,60,0.62002
9014730,-0.16000,65.5625,102,60,0.62662
9014740,-0.16500,65.4375,102,60,0.63077
9014750,-0.15500,65.3750,102,60,0.63248
9014760,-0.15000,65.1250,102,60,0.62979
9014770,-0.13500,64.9375,102,60,0.62613
9014780,-0.15000,64.7500,102,60,0.62100
9014790,-0.21000,64.5625,102,60,0.61490
9014800,-0.14000,64.1875,102,60,0.59927
9014810,0.33000,64.0000,102,60,0.58999
9014820,1.17000,63.7500,102,60,0.57998
9014830,1.58500,63.5000,102,60,0.56899
9014840,0.95000,63.0625,102,60,0.54408
9014850,0.09000,62.8125,102,60,0.53065
9014860,-0.27000,62.5000,102,60,0.51673
9014870,-0.30000,62.2500,102,60,0.50427
9014880,-0.27000,61.6875,102,60,0.48059
9014890,-0.25000,61.4375,102,60,0.46789
9014900,-0.24000,61.1875,102,60,0.45519
9014910,-0.23000,60.9375,102,60,0.44322
9014920,-0.22000,60.3750,102,60,0.42076
9014930,-0.21000,60.1250,102,60,0.41050
9014940,-0.21000,59.8125,102,60,0.40098
9014950,-0.20000,59.5625,102,60,0.39194
9014960,-0.19500,59.0625,102,60,0.37607
9014970,-0.18500,58.8750,102,60,0.37045
9014980,-0.18000,58.6875,102,60,0.36557
9014990,-0.17000,58.5000,102,60,0.36044
9015000,-0.16000,58.4375,102,60,0.35092
9015010,-0.14500,58.5625,102,60,0.34676
9015020,-0.13500,59.0000,102,60,0.34310
9015030,-0.12000,59.9375,102,60,0.33968
9015040,-0.10000,64.8750,102,60,0.33407
9015050,-0.08000,69.1875,102,60,0.33162
9015060,-0.06000,74.3125,102,60,0.32943
9015070,-0.03500,79.8125,102,60,0.32821
9015080,-0.00500,89.5000,102,60,0.32576
9015090,0.02000,93.1875,102,60,0.32405
9015100,0.04500,96.1875,102,60,0.32186
9015110,0.07500,98.4375,102,60,0.31966
9015120,0.10000,101.0625,102,60,0.31477
9015130,0.13000,101.5000,102,60,0.31233
9015140,0.16000,101.4375,102,60,0.30989
9015150,0.18000,101.0625,102,60,0.30745
9015160,0.16500,99.6875,102,60,0.30208
9015170,0.13000,98.8125,102,60,0.30037
9015180,0.07000,97.8125,102,60,0.29890
9015190,0.00500,96.7500,102,60,0.29695
9015200,-0.04500,94.5000,102,60,0.29182
9015210,-0.08500,93.3750,102,60,0.28889
9015220,-0.10500,92.1875,102,60,0.28620
9015230,-0.11500,91.0625,102,60,0.28352
9015240,-0.12000,88.7500,102,60,0.27814
9015250,-0.12000,87.5625,102,60,0.27546
9015260,-0.12000,86.3750,102,60,0.27277
9015270,-0.12000,85.1250,102,60,0.27131
9015280,-0.11500,82.3750,102,60,0.27033
9015290,-0.11500,80.8125,102,60,0.27057
9015300,-0.11500,79.1875,102,60,0.27253
9015310,-0.11500,77.5625,102,60,0.27692
9015320,-0.11500,74.5625,102,60,0.29548
9015330,-0.11500,73.2500,102,60,0.31038
9015340,-0.11500,72.1875,102,60,0.32894
9015350,-0.10500,71.1875,102,60,0.35092
9015360,-0.09500,69.6250,102,60,0.40269
9015370,-0.07500,69.0625,102,60,0.42735
9015380,-0.06500,68.6250,102,60,0.45104
9015390,-0.06000,68.3125,102,60,0.47766
9015400,-0.04500,67.8750,102,60,0.53260
9015410,-0.03000,67.8125,102,60,0.55873
9015420,-0.04000,67.7500,102,60,0.58291
9015430,-0.06000,67.6875,102,60,0.60464
9015440,-0.08500,67.7500,102,60,0.63980
9015450,-0.11500,67.7500,102,60,0.65299
9015460,-0.15500,67.7500,102,60,0.66300
9015470,-0.17000,67.6875,102,60,0.66911
9015480,-0.18000,67.5625,102,60,0.67424
9015490,-0.17500,67.4375,102,60,0.67473
9015500,-0.17000,67.3125,102,60,0.67375
9015510,-0.15500,67.1875,102,60,0.67131
9015520,-0.17000,66.7500,102,60,0.66227
9015530,-0.23000,66.5625,102,60,0.65568
9015540,-0.15000,66.3125,102,60,0.64786
9015550,0.36000,66.0625,102,60,0.63907
9015560,1.23500,65.6250,102,60,0.61807
9015570,1.65500,65.3750,102,60,0.60733
9015580,0.99500,65.1250,102,60,0.59658
9015590,0.09000,64.8750,102,60,0.58462
9015600,-0.29000,64.3750,102,60,0.55849
9015610,-0.32000,64.1250,102,60,0.54505
9015620,-0.29000,63.8750,102,60,0.53162
9015630,-0.27000,63.5625,102,60,0.51819
9015640,-0.26500,63.0625,102,60,0.49206
9015650,-0.25000,62.7500,102,60,0.47961
9015660,-0.24000,62.5000,102,60,0.46789
9015670,-0.23000,62.2500,102,60,0.45788
9015680,-0.22500,61.7500,102,60,0.43956
9015690,-0.22000,61.5000,102,60,0.43077
9015700,-0.21000,61.2500,102,60,0.42271
9015710,-0.20500,61.0000,102,60,0.41514
9015720,-0.20500,61.0000,102,60,0.41514
9015730,-0.19000,60.3125,102,60,0.39707
9015740,-0.18000,60.1875,102,60,0.39219
9015750,-0.16500,60.2500,102,60,0.38803
9015760,-0.15000,61.6250,102,60,0.38071
9015770,-0.13500,63.6250,102,60,0.37827
9015780,-0.11500,66.8125,102,60,0.37631
9015790,-0.09500,71.3125,102,60,0.37411
9015800,-0.07000,82.5000,102,60,0.37045
9015810,-0.04500,87.9375,102,60,0.36874
9015820,-0.01500,92.6875,102,60,0.36703
9015830,0.01000,96.6250,102,60,0.36508
9015840,0.04000,102.0625,102,60,0.36093
9015850,0.06000,103.7500,102,60,0.35897
9015860,0.09000,104.7500,102,60,0.35702
9015870,0.12000,105.1250,102,60,0.35580
9015880,0.14500,104.5625,102,60,0.35311
9015890,0.16500,103.8750,102,60,0.35092
9015900,0.15500,103.0625,102,60,0.34847
9015910,0.12000,102.1250,102,60,0.34603
9015920,0.05500,100.0625,102,60,0.34139
9015930,-0.00500,98.9375,102,60,0.33895
9015940,-0.05500,97.8125,102,60,0.33651
9015950,-0.09000,96.6250,102,60,0.33407
9015960,-0.11000,94.3750,102,60,0.32991
9015970,-0.11500,93.2500,102,60,0.32869
9015980,-0.12500,92.1250,102,60,0.32772
9015990,-0.12500,90.9375,102,60,0.32601
9016000,-0.12500,88.5625,103,60,0.32259
9016010,-0.12500,87.2500,103,60,0.32137
9016020,-0.12500,85.8750,103,60,0.32088
9016030,-0.12000,84.3750,103,60,0.32210
9016040,-0.12000,84.3750,103,60,0.32210
9016050,-0.12000,79.3750,103,60,0.34066
9016060,-0.12000,77.7500,103,60,0.35311
9016070,-0.12000,76.3125,103,60,0.36679
9016080,-0.11500,73.8750,103,60,0.40293
9016090,-0.11000,72.9375,103,60,0.42711
9016100,-0.09500,72.1250,103,60,0.45421
9016110,-0.07500,71.4375,103,60,0.48327
9016120,-0.05500,70.5000,103,60,0.54310
9016130,-0.05500,70.1250,103,60,0.57265
9016140,-0.04500,69.9375,103,60,0.60098
9016150,-0.02500,69.7500,103,60,0.62759
9016160,-0.03500,69.5625,103,60,0.67277
9016170,-0.06000,69.5000,103,60,0.68864
9016180,-0.08500,69.5000,103,60,0.70037
9016190,-0.11500,69.5000,103,60,0.71184
9016200,-0.15500,69.4375,103,60,0.72894
9016210,-0.17000,69.3750,103,60,0.73382
9016220,-0.17000,69.3125,103,60,0.73675
9016230,-0.16500,69.1875,103,60,0.73773
9016240,-0.16000,68.8750,103,60,0.73480
9016250,-0.14500,68.6875,103,60,0.73089
9016260,-0.16000,68.5000,103,60,0.72576
9016270,-0.21000,68.0000,103,60,0.71917
9016280,-0.04500,67.7500,103,60,0.70305
9016290,0.57500,67.5000,103,60,0.69353
9016300,1.43000,67.2500,103,60,0.68303
9016310,1.67000,67.0000,103,60,0.67204
9016320,0.87500,66.5625,103,60,0.64737
9016330,-0.00500,66.3125,103,60,0.63443
9016340,-0.00500,66.3125,103,60,0.63443
9016350,-0.32000,65.7500,103,60,0.60781
9016360,-0.28500,65.1250,103,60,0.58242
9016370,-0.27000,64.8750,103,60,0.57094
9016380,-0.26000,64.5625,103,60,0.56020
9016390,-0.25500,64.3125,103,60,0.54994
9016400,-0.24500,63.6875,103,60,0.52698
9016410,-0.23000,63.4375,103,60,0.51575
9016420,-0.22500,63.1250,103,60,0.50476
9016430,-0.21500,62.8125,103,60,0.49451
9016440,-0.21000,62.1875,103,60,0.47570
9016450,-0.20000,61.8750,103,60,0.46740
9016460,-0.19500,61.5625,103,60,0.46007
9016470,-0.18000,61.2500,103,60,0.45421
9016480,-0.17000,60.9375,103,60,0.44420
9016490,-0.16000,61.1250,103,60,0.43980
9016500,-0.14500,61.8125,103,60,0.43565
9016510,-0.13000,63.3750,103,60,0.43150
9016520,-0.11000,70.1875,103,60,0.42442
9016530,-0.08500,75.3750,103,60,0.42125
9016540,-0.06000,81.1250,103,60,0.41807
9016550,-0.03500,86.7500,103,60,0.41490
9016560,-0.00500,96.0000,103,60,0.40928
9016570,0.02000,99.3750,103,60,0.40708
9016580,0.05000,102.0000,103,60,0.40440
9016590,0.08000,103.7500,103,60,0.40171
9016600,0.10500,105.4375,103,60,0.39609
9016610,0.13000,105.3750,103,60,0.39365
9016620,0.15500,104.9375,103,60,0.39145
9016630,0.17500,104.1875,103,60,0.38926
9016640,0.16000,102.4375,103,60,0.38462
9016650,0.12000,101.4375,103,60,0.38193
9016660,0.06000,100.3750,103,60,0.37924
9016670,0.00000,99.2500,103,60,0.37729
9016680,-0.04000,96.8750,103,60,0.37387
9016690,-0.07000,95.6875,103,60,0.37143
9016700,-0.09000,94.4375,103,60,0.36874
9016710,-0.10000,93.2500,103,60,0.36606
9016720,-0.10500,90.8125,103,60,0.36093
9016730,-0.10500,89.5000,103,60,0.35849
9016740,-0.10500,88.1875,103,60,0.35629
9016750,-0.10500,86.8125,103,60,0.35433
9016760,-0.10500,86.8125,103,60,0.35433
9016770,-0.11000,82.1250,103,60,0.35507
9016780,-0.11000,80.4375,103,60,0.35824
9016790,-0.11000,78.7500,103,60,0.36435
9016800,-0.11000,75.5625,103,60,0.38730
9016810,-0.10500,74.2500,103,60,0.40464
9016820,-0.10000,73.1250,103,60,0.42589
9016830,-0.09500,72.1875,103,60,0.45031
9016840,-0.07500,70.6875,103,60,0.50623
9016850,-0.04500,70.1250,103,60,0.53578
9016860,-0.03500,69.6875,103,60,0.56532
9016870,-0.04000,69.3750,103,60,0.59023
9016880,-0.02500,68.9375,103,60,0.63541
9016890,-0.01000,68.8125,103,60,0.65812
9016900,-0.02500,68.6875,103,60,0.67912
9016910,-0.04500,68.6250,103,60,0.69792
9016920,-0.07000,68.5000,103,60,0.72747
9016930,-0.11000,68.4375,103,60,0.73797
9016940,-0.14500,68.4375,103,60,0.74554
9016950,-0.15500,68.3750,103,60,0.75043
9016960,-0.15500,68.2500,103,60,0.75287
9016970,-0.15500,68.0625,103,60,0.75043
9016980,-0.14500,67.8750,103,60,0.74701
9016990,-0.13500,67.6875,103,60,0.74237
9017000,-0.15500,67.1875,102,60,0.72967
9017010,-0.19000,66.9375,102,60,0.72112
9017020,-0.01500,66.6250,102,60,0.71111
9017030,0.64000,66.3750,102,60,0.70012
9017040,1.46500,65.8125,102,60,0.67546
9017050,1.53000,65.5000,102,60,0.66203
9017060,0.70000,65.2500,102,60,0.64811
9017070,-0.07500,64.9375,102,60,0.63516
9017080,-0.31500,64.3750,102,60,0.60928
9017090,-0.28500,64.0625,102,60,0.59536
9017100,-0.25000,63.7500,102,60,0.58095
9017110,-0.24000,63.4375,102,60,0.56630
9017120,-0.24000,63.4375,102,60,0.56630
9017130,-0.22500,62.5000,102,60,0.52430
9017140,-0.21500,62.1875,102,60,0.51111
9017150,-0.21000,61.8750,102,60,0.49841
9017160,-0.20000,61.2500,102,60,0.47570
9017170,-0.19500,60.9375,102,60,0.46667
9017180,-0.19000,60.6250,102,60,0.45739
9017190,-0.18000,60.3750,102,60,0.44860
9017200,-0.17000,59.8750,102,60,0.43272
9017210,-0.16000,59.6875,102,60,0.42589
9017220,-0.16000,59.6875,102,60,0.42589
9017230,-0.13500,59.6875,102,60,0.41392
9017240,-0.12000,60.9375,102,60,0.40464
9017250,-0.10500,62.7500,102,60,0.40073
9017260,-0.08500,65.6250,102,60,0.39683
9017270,-0.06500,69.7500,102,60,0.39365
9017280,-0.04500,80.1250,102,60,0.38755
9017290,-0.02000,85.3125,102,60,0.38388
9017300,0.01000,89.8125,102,60,0.37973
9017310,0.04000,93.5625,102,60,0.37558
9017320,0.07000,98.8750,102,60,0.36728
9017330,0.10000,100.4375,102,60,0.36337
9017340,0.13500,101.3750,102,60,0.35946
9017350,0.16500,101.6875,102,60,0.35556
9017360,0.19500,101.0000,102,60,0.34896
9017370,0.20000,100.2500,102,60,0.34676
9017380,0.18000,99.3125,102,60,0.34359
9017390,0.13000,98.3125,102,60,0.33993
9017400,0.07000,95.9375,102,60,0.33138
9017410,0.01000,94.6875,102,60,0.32674
9017420,-0.03500,93.4375,102,60,0.32210
9017430,-0.07000,92.2500,102,60,0.31795
9017440,-0.08500,89.8125,102,60,0.30965
9017450,-0.10000,88.6250,102,60,0.30574
9017460,-0.10500,87.3750,102,60,0.30183
9017470,-0.10500,86.0625,102,60,0.29890
9017480,-0.10500,83.3125,102,60,0.29353
9017490,-0.10500,81.8750,102,60,0.29035
9017500,-0.10000,80.3125,102,60,0.28767
9017510,-0.10000,78.6875,102,60,0.28620
9017520,-0.10000,75.3125,102,60,0.28913
9017530,-0.10000,73.7500,102,60,0.29499
9017540,-0.10000,72.3750,102,60,0.30452
9017550,-0.09500,71.1875,102,60,0.31746
9017560,-0.08500,69.2500,102,60,0.35116
9017570,-0.08000,68.5000,102,60,0.36947
9017580,-0.06500,67.8750,102,60,0.39194
9017590,-0.04000,67.3750,102,60,0.41709
9017600,-0.04000,67.3750,102,60,0.41709
9017610,-0.03500,66.4375,102,60,0.49890
9017620,-0.01500,66.3750,102,60,0.52527
9017630,-0.00500,66.3125,102,60,0.54969
9017640,-0.02500,66.1875,102,60,0.59194
9017650,-0.04500,66.1250,102,60,0.60879
9017660,-0.07000,66.1250,102,60,0.62271
9017670,-0.11000,66.1250,102,60,0.63223
9017680,-0.14500,66.1250,102,60,0.64396
9017690,-0.15500,66.0000,102,60,0.64762
9017700,-0.15500,65.8750,102,60,0.64908
9017710,-0.14500,65.7500,102,60,0.64884
9017720,-0.13500,65.4375,102,60,0.64274
9017730,-0.13000,65.2500,102,60,0.63736
9017740,-0.16000,65.0625,102,60,0.63077
9017750,-0.19500,64.8750,102,60,0.62271
9017760,0.02000,64.4375,102,60,0.60440
9017770,0.71000,64.2500,102,60,0.59463
9017780,1.48500,64.0000,102,60,0.58339
9017790,1.39500,63.8125,102,60,0.57094
9017800,1.39500,63.8125,102,60,0.57094
9017810,-0.14500,63.1875,102,60,0.53089
9017820,-0.31500,62.9375,102,60,0.51697
9017830,-0.28000,62.6875,102,60,0.50305
9017840,-0.24500,62.1875,102,60,0.47521
9017850,-0.23500,61.9375,102,60,0.46154
9017860,-0.22500,61.6875,102,60,0.44835
9017870,-0.22000,61.3750,102,60,0.43712
9017880,-0.20500,60.8750,102,60,0.41636
9017890,-0.20000,60.5625,102,60,0.40562
9017900,-0.19500,60.3125,102,60,0.39560
9017910,-0.19000,60.0625,102,60,0.38608
9017920,-0.18000,59.5000,102,60,0.36972
9017930,-0.17000,59.3125,102,60,0.36239
9017940,-0.16000,59.0625,102,60,0.35580
9017950,-0.15500,58.9375,102,60,0.34994
9017960,-0.14500,58.8125,102,60,0.33993
9017970,-0.13000,59.0625,102,60,0.33651
9017980,-0.11500,59.6250,102,60,0.33284
9017990,-0.09500,60.8750,102,60,0.32918
9018000,-0.07500,66.5000,102,60,0.32308
9018010,-0.05500,71.0000,102,60,0.32039
9018020,-0.03000,76.1250,102,60,0.31795
9018030,-0.00500,81.3750,102,60,0.31575
9018040,0.02000,90.1875,102,60,0.31111
9018050,0.05000,93.4375,102,60,0.30842
9018060,0.08000,95.9375,102,60,0.30549
9018070,0.11000,97.7500,102,60,0.30354
9018080,0.14500,99.5625,102,60,0.29963
9018090,0.17500,99.6875,102,60,0.29695
9018100,0.20500,99.3750,102,60,0.29426
9018110,0.20500,99.3750,102,60,0.29426
9018120,0.18500,97.0000,102,60,0.28571
9018130,0.12500,95.9375,102,60,0.28303
9018140,0.05500,94.8125,102,60,0.28059
9018150,-0.00500,93.6250,102,60,0.27790
9018160,-0.04500,91.1250,102,60,0.27350
9018170,-0.07500,89.8750,102,60,0.27228
9018180,-0.08500,88.6250,102,60,0.27033
9018190,-0.10000,87.3750,102,60,0.26789
9018200,-0.10500,84.8750,102,60,0.26252
9018210,-0.10500,83.5625,102,60,0.25983
9018220,-0.10500,82.2500,102,60,0.25739
9018230,-0.10500,80.8125,102,60,0.25519
9018240,-0.10000,77.6875,102,60,0.25250
9018250,-0.09500,76.0625,102,60,0.25299
9018260,-0.10000,74.4375,102,60,0.25519
9018270,-0.10500,72.8750,102,60,0.25958
9018280,-0.10500,70.3750,102,60,0.27668
9018290,-0.10000,69.3750,102,60,0.29035
9018300,-0.09500,68.4375,102,60,0.30794
9018310,-0.08500,67.6875,102,60,0.32869
9018320,-0.07000,66.6250,102,60,0.37851
9018330,-0.05000,66.2500,102,60,0.40610
9018340,-0.04500,66.0000,102,60,0.43419
9018350,-0.04500,65.8125,102,60,0.46227
9018360,-0.02000,65.6250,102,60,0.51209
9018370,-0.01500,65.6250,102,60,0.53162
9018380,-0.03000,65.6250,102,60,0.55165
9018390,-0.05500,65.6250,102,60,0.57070
9018400,-0.08000,65.6250,102,60,0.60122
9018410,-0.12000,65.6250,102,60,0.61245
9018420,-0.15500,65.5625,102,60,0.62100
9018430,-0.16000,65.4375,102,60,0.62564
9018440,-0.16000,65.2500,102,60,0.62759
9018450,-0.15500,65.1250,102,60,0.62613
9018460,-0.15000,65.0000,102,60,0.62295
9018470,-0.14500,64.8125,102,60,0.61856
9018480,-0.17000,64.5000,102,60,0.60562
9018490,-0.21000,64.3125,102,60,0.59731
9018500,-0.03500,64.0625,102,60,0.58803
9018510,0.61000,63.8125,102,60,0.57778
9018520,1.42500,63.3125,102,60,0.55507
9018530,1.42500,63.0625,102,60,0.54286
9018540,0.60500,62.8125,102,60,0.52967
9018550,-0.09500,62.6250,102,60,0.51600
9018560,-0.31500,62.1250,102,60,0.48987
9018570,-0.29000,61.8750,102,60,0.47863
9018580,-0.25000,61.6250,102,60,0.46667
9018590,-0.24000,61.3125,102,60,0.45421
9018600,-0.23500,60.7500,102,60,0.42955
9018610,-0.23000,60.5000,102,60,0.41783
9018620,-0.22000,60.1875,102,60,0.40635
9018630,-0.21000,59.9375,102,60,0.39536
9018640,-0.20000,59.3750,102,60,0.37656
9018650,-0.20000,59.1250,102,60,0.36850
9018660,-0.19000,58.8750,102,60,0.36239
9018670,-0.18500,58.6875,102,60,0.35751
9018680,-0.17500,58.2500,102,60,0.34725
9018690,-0.17000,58.1250,102,60,0.34261
9018700,-0.15500,58.0625,102,60,0.33822
9018710,-0.14000,58.1875,102,60,0.33431
9018720,-0.12500,59.5625,102,60,0.32772
9018730,-0.10500,61.3750,102,60,0.32479
9018740,-0.08500,64.3750,102,60,0.32210
9018750,-0.06500,68.5000,102,60,0.31941
9018760,-0.04500,78.9375,102,60,0.31551
9018770,-0.02000,84.0000,102,60,0.31453
9018780,0.01000,88.4375,102,60,0.31306
9018790,0.03500,92.0625,102,60,0.31136
9018800,0.06500,97.0625,102,60,0.30769
9018810,0.06500,97.0625,102,60,0.30769
9018820,0.12000,99.5625,102,60,0.30403
9018830,0.15500,99.8750,102,60,0.30208
9018840,0.18500,99.3750,102,60,0.29817
9018850,0.19500,98.7500,102,60,0.29597
9018860,0.17500,97.9375,102,60,0.29426
9018870,0.12000,97.0000,102,60,0.29304
9018880,0.05500,94.9375,102,60,0.28840
9018890,-0.00500,93.8125,102,60,0.28547
9018900,-0.05500,92.6875,102,60,0.28230
9018910,-0.08500,91.4375,102,60,0.27912
9018920,-0.10000,89.0625,102,60,0.27253
9018930,-0.10500,87.8125,102,60,0.26960
9018940,-0.11000,86.6250,102,60,0.26667
9018950,-0.10500,85.4375,102,60,0.26398
9018960,-0.10500,82.8750,102,60,0.26007
9018970,-0.10500,81.5000,102,60,0.25958
9018980,-0.10500,80.0625,102,60,0.25885
9018990,-0.10500,78.5000,102,60,0.25885
9019000,-0.10500,75.1875,102,60,0.26447
9019010,-0.10500,73.6250,102,60,0.27131
9019020,-0.10500,72.1875,102,60,0.28132
9019030,-0.10500,72.1875,102,60,0.28132
9019040,-0.09500,68.9375,102,60,0.33187
9019050,-0.08500,68.1875,102,60,0.35482
9019060,-0.07000,67.5000,102,60,0.37680
9019070,-0.05500,67.0000,102,60,0.39853
9019080,-0.04500,66.2500,102,60,0.45177
9019090,-0.04500,66.0625,102,60,0.47985
9019100,-0.02000,65.9375,102,60,0.50745
9019110,-0.01500,65.8750,102,60,0.53382
9019120,-0.02500,65.8125,102,60,0.58022
9019130,-0.05500,65.8125,102,60,0.59976
9019140,-0.08000,65.8125,102,60,0.61636
9019150,-0.12000,65.8750,102,60,0.63004
9019160,-0.15500,65.8125,102,60,0.64737
9019170,-0.16500,65.7500,102,60,0.65079
9019180,-0.16000,65.6875,102,60,0.65324
9019190,-0.16000,65.5625,102,60,0.65397
9019200,-0.15000,65.2500,102,60,0.64957
9019210,-0.14500,65.0625,102,60,0.64469
9019220,-0.17000,64.8125,102,60,0.63858
9019230,-0.22500,64.6250,102,60,0.63101
9019240,-0.07500,64.2500,102,60,0.61294
9019250,0.54500,64.0625,102,60,0.60244
9019260,1.38500,63.8125,102,60,0.59194
9019270,1.49000,63.6250,102,60,0.58144
9019280,0.70500,63.2500,102,60,0.55678
9019290,-0.05000,63.0625,102,60,0.54359
9019300,-0.31500,62.8125,102,60,0.52991
9019310,-0.30000,62.5625,102,60,0.51600
9019320,-0.26500,62.0625,102,60,0.48791
9019330,-0.25000,61.8125,102,60,0.47424
9019340,-0.24000,61.5625,102,60,0.46105
9019350,-0.24000,61.2500,102,60,0.44835
9019360,-0.23000,60.6875,102,60,0.42637
9019370,-0.22000,60.4375,102,60,0.41758
9019380,-0.21000,60.1250,102,60,0.40830
9019390,-0.21000,59.8750,102,60,0.39878
9019400,-0.20000,59.4375,102,60,0.38120
9019410,-0.19500,59.2500,102,60,0.37387
9019420,-0.19000,59.0625,102,60,0.36728
9019430,-0.18000,58.9375,102,60,0.36142
9019440,-0.17000,58.9375,102,60,0.35189
9019450,-0.15500,59.1875,102,60,0.34774
9019460,-0.14000,60.0000,102,60,0.34481
9019470,-0.12000,61.6875,102,60,0.34261
9019480,-0.10000,68.8125,102,60,0.33748
9019490,-0.08000,74.0000,102,60,0.33504
9019500,-0.05500,79.5625,102,60,0.33260
9019510,-0.03000,84.9375,102,60,0.33040
9019520,-0.00500,93.6250,102,60,0.32601
9019530,0.02000,96.8125,102,60,0.32357
9019540,0.05000,99.2500,102,60,0.32112
9019550,0.08000,101.0000,102,60,0.31868
9019560,0.11000,102.6250,102,60,0.31526
9019570,0.13500,102.6250,102,60,0.31429
9019580,0.16500,102.2500,102,60,0.31258
9019590,0.16500,102.2500,102,60,0.31258
9019600,0.15000,100.0625,102,60,0.30623
9019610,0.10000,99.1250,102,60,0.30379
9019620,0.04000,98.1250,102,60,0.30110
9019630,-0.01500,97.0625,102,60,0.29817
9019640,-0.06500,94.8125,102,60,0.29255
9019650,-0.10000,93.6875,102,60,0.28962
9019660,-0.11500,92.5625,102,60,0.28742
9019670,-0.12500,91.4375,102,60,0.28571
9019680,-0.12500,89.1250,102,60,0.28083
9019690,-0.13000,88.0000,102,60,0.27814
9019700,-0.12500,86.7500,102,60,0.27546
9019710,-0.12500,85.5000,102,60,0.27326
9019720,-0.12500,82.6875,102,60,0.27204
9019730,-0.12000,81.1250,102,60,0.27424
9019740,-0.12000,79.4375,102,60,0.27888
9019750,-0.12000,77.8125,102,60,0.28620
9019760,-0.12000,74.7500,102,60,0.30891
9019770,-0.11500,73.5000,102,60,0.32332
9019780,-0.11000,72.4375,102,60,0.34237
9019790,-0.11000,72.4375,102,60,0.34237
9019800,-0.09500,70.0000,102,60,0.41954
9019810,-0.07000,69.4375,102,60,0.44908
9019820,-0.06000,69.0000,102,60,0.47912
9019830,-0.05500,68.6875,102,60,0.50916
9019840,-0.03500,68.3750,102,60,0.56630
9019850,-0.02500,68.3125,102,60,0.59219
9019860,-0.04000,68.2500,102,60,0.61245
9019870,-0.06500,68.2500,102,60,0.62906
9019880,-0.08500,68.2500,102,60,0.66032
9019890,-0.12000,68.2500,102,60,0.67277
9019900,-0.15500,68.2500,102,60,0.68254
9019910,-0.17500,68.1875,102,60,0.68962
9019920,-0.17500,68.0000,102,60,0.69646
9019930,-0.17000,67.8750,102,60,0.69646
9019940,-0.16000,67.6875,102,60,0.69451
9019950,-0.15500,67.5000,102,60,0.69084
9019960,-0.18000,67.0625,102,60,0.67937
9019970,-0.23500,66.8750,102,60,0.67228
9019980,-0.07500,66.6250,102,60,0.66422
9019990,0.59000,66.3750,102,60,0.65543
9020000,1.48000,65.9375,102,60,0.63516
9020010,1.61500,65.7500,102,60,0.62369
9020020,0.80000,65.5000,102,60,0.61148
9020030,-0.03500,65.2500,102,60,0.59878
9020040,-0.33500,64.6875,102,60,0.57216
9020050,-0.32500,64.4375,102,60,0.55849
9020060,-0.29500,64.1875,102,60,0.54603
9020070,-0.28000,63.8750,102,60,0.53407
9020080,-0.27000,63.3125,102,60,0.50842
9020090,-0.26000,63.0625,102,60,0.49573
9020100,-0.25000,62.7500,102,60,0.48352
9020110,-0.24000,62.4375,102,60,0.47179
9020120,-0.23000,61.9375,102,60,0.45055
9020130,-0.22500,61.6875,102,60,0.44103
9020140,-0.21500,61.4375,102,60,0.43248
9020150,-0.20500,61.2500,102,60,0.42442
9020160,-0.19500,60.7500,102,60,0.41294
9020170,-0.19000,60.6250,102,60,0.40806
9020180,-0.17500,60.6250,102,60,0.40342
9020190,-0.16500,60.8750,102,60,0.39902
9020200,-0.15000,63.3750,102,60,0.39145
9020210,-0.13000,66.2500,102,60,0.38803
9020220,-0.11000,70.5000,102,60,0.38486
9020230,-0.09000,75.8125,102,60,0.38169
9020240,-0.06500,87.2500,102,60,0.37607
9020250,-0.04000,92.3125,102,60,0.37338
9020260,-0.01000,96.5625,102,60,0.37143
9020270,-0.01000,96.5625,102,60,0.37143
9020280,0.04500,104.5000,102,60,0.36703
9020290,0.07000,105.6875,102,60,0.36508
9020300,0.10000,106.3125,102,60,0.36288
9020310,0.13000,106.3750,102,60,0.36068
9020320,0.15500,105.3750,102,60,0.35629
9020330,0.16500,104.5625,102,60,0.35360
9020340,0.15000,103.6250,102,60,0.35092
9020350,0.10000,102.6875,102,60,0.34823
9020360,0.04000,100.5625,102,60,0.34481
9020370,-0.01500,99.5000,102,60,0.34286
9020380,-0.06000,98.3750,102,60,0.34066
9020390,-0.06000,98.3750,102,60,0.34066
9020400,-0.06000,98.3750,102,60,0.34066
9020410,-0.06000,98.3750,102,60,0.34066
9020420,-0.11500,92.7500,102,60,0.32991
9020430,-0.12000,91.5625,102,60,0.32796
9020440,-0.12000,89.1250,102,60,0.32527
9020450,-0.12000,89.1250,102,60,0.32527
9020460,-0.12500,86.3125,102,60,0.32601
9020470,-0.12500,84.7500,102,60,0.32845
9020480,-0.12000,81.3125,102,60,0.34090
9020490,-0.12500,79.6250,102,60,0.35214
9020500,-0.12500,79.6250,102,60,0.35214
9020510,-0.12500,76.5625,102,60,0.38681
9020520,-0.11500,74.3125,102,60,0.43810
9020530,-0.11500,73.4375,102,60,0.46911
9020540,-0.10000,72.6875,102,60,0.50281
9020550,-0.07500,72.0625,102,60,0.53773
9020560,-0.05500,71.2500,102,60,0.59609
9020570,-0.05500,70.9375,102,60,0.62686
9020580,-0.04500,70.8125,102,60,0.65788
9020590,-0.03000,70.6875,102,60,0.68767
9020600,-0.04000,70.5625,102,60,0.73944
9020610,-0.06000,70.5625,102,60,0.76020
9020620,-0.08000,70.5625,102,60,0.77778
9020630,-0.11500,70.5625,102,60,0.79194
9020640,-0.15000,70.5000,102,60,0.81001
9020650,-0.17000,70.4375,102,60,0.81490
9020660,-0.17000,70.3125,102,60,0.81587
9020670,-0.16500,70.1875,102,60,0.81416
9020680,-0.15500,69.7500,102,60,0.80781
9020690,-0.14500,69.5000,102,60,0.80269
9020700,-0.17000,69.2500,102,60,0.79634
9020710,-0.21000,68.9375,102,60,0.78852
9020720,-0.03500,68.3750,102,60,0.76996
9020730,0.61500,68.0000,102,60,0.75922
9020740,1.47000,67.6875,102,60,0.74725
9020750,1.61500,67.3750,102,60,0.73431
9020760,0.82000,66.6875,102,60,0.70867
9020770,-0.02500,66.3750,102,60,0.69402
9020780,-0.33500,66.0000,102,60,0.67863
9020790,-0.32500,65.6250,102,60,0.66276
9020800,-0.28500,64.9375,102,60,0.63028
9020810,-0.27000,64.5625,102,60,0.61441
9020820,-0.26000,64.2500,102,60,0.59902
9020830,-0.25000,63.9375,102,60,0.58413
9020840,-0.23500,63.2500,102,60,0.55678
9020850,-0.23000,62.9375,102,60,0.54383
9020860,-0.22000,62.6250,102,60,0.53284
9020870,-0.22000,62.3125,102,60,0.52308
9020880,-0.20500,61.7500,102,60,0.50427
9020890,-0.19500,61.4375,102,60,0.49573
9020900,-0.19000,61.1250,102,60,0.48791
9020910,-0.18000,60.8750,102,60,0.48083
9020920,-0.17000,60.7500,102,60,0.46960
9020930,-0.15500,61.1250,102,60,0.46471
9020940,-0.14000,62.1250,102,60,0.46007
9020950,-0.12500,64.1250,102,60,0.45568
9020960,-0.10500,71.8750,102,60,0.44933
9020970,-0.08000,77.3125,102,60,0.44591
9020980,-0.05500,83.1250,102,60,0.44225
9020990,-0.03000,88.6875,102,60,0.43858
9021000,0.00000,97.3750,102,60,0.43150
9021010,0.02500,100.4375,102,60,0.42808
9021020,0.05500,102.7500,102,60,0.42466
9021030,0.09000,104.3750,102,60,0.42125
9021040,0.12000,105.6250,102,60,0.41416
9021050,0.14500,105.4375,102,60,0.41050
9021060,0.17000,104.8750,102,60,0.40733
9021070,0.18500,104.1250,102,60,0.40464
9021080,0.16500,102.2500,102,60,0.39829
9021090,0.12000,101.2500,102,60,0.39487
9021100,0.06000,100.1875,102,60,0.39145
9021110,0.00000,99.0625,102,60,0.38779
9021120,-0.04500,96.6875,102,60,0.38095
9021130,-0.07000,95.4375,102,60,0.37753
9021140,-0.08500,94.2500,102,60,0.37387
9021150,-0.10000,93.0625,102,60,0.37021
9021160,-0.10500,90.6250,102,60,0.36532
9021170,-0.10500,89.3750,102,60,0.36239
9021180,-0.10500,88.1250,102,60,0.35922
9021190,-0.10500,86.7500,102,60,0.35604
9021200,-0.10500,83.7500,102,60,0.35311
9021210,-0.10500,82.0625,102,60,0.35458
9021220,-0.10500,80.3750,102,60,0.35897
9021230,-0.10500,78.6250,102,60,0.36679
9021240,-0.10500,75.5000,102,60,0.39414
9021250,-0.09500,74.1875,102,60,0.41416
9021260,-0.09000,73.0625,102,60,0.43443
9021270,-0.08500,72.1250,102,60,0.45617
9021280,-0.06500,70.6250,102,60,0.51380
9021290,-0.04500,70.0625,102,60,0.54652
9021300,-0.03500,69.6250,102,60,0.57998
9021310,-0.03500,69.3125,102,60,0.61294
9021320,-0.01500,68.9375,102,60,0.67399
9021330,-0.00500,68.8125,102,60,0.70085
9021340,-0.01500,68.6875,102,60,0.72454
9021350,-0.03500,68.6250,102,60,0.74481
9021360,-0.05500,68.4375,102,60,0.76899
9021370,-0.09000,68.3750,102,60,0.77827
9021380,-0.12500,68.3125,102,60,0.78608
9021390,-0.15000,68.2500,102,60,0.79170
9021400,-0.15000,67.8750,102,60,0.79560
9021410,-0.14500,67.6875,102,60,0.79414
9021420,-0.13500,67.4437,102,60,0.78923
9021430,-0.13500,67.2125,102,60,0.78342
9021440,-0.13500,67.0625,102,60,0.77924
9021450,-0.13500,67.0625,102,60,0.77924
9021460,-0.12500,66.6250,102,60,0.76117
9021470,0.32000,66.3750,102,60,0.75092
9021480,1.16000,65.8750,102,60,0.72723
9021490,1.63500,65.6250,102,60,0.71355
9021500,1.06000,65.3750,102,60,0.69890
9021510,0.15500,65.0625,102,60,0.68327
9021520,-0.26000,64.5000,102,60,0.65031
9021530,-0.29500,64.1875,102,60,0.63321
9021540,-0.25000,63.8750,102,60,0.61636
9021550,-0.23500,63.5625,102,60,0.59976
9021560,-0.23000,62.9375,102,60,0.56899
9021570,-0.22000,62.6250,102,60,0.55556
9021580,-0.21000,62.3750,102,60,0.54115
9021590,-0.20000,62.0625,102,60,0.52650
9021600,-0.19500,61.5000,102,60,0.49841
9021610,-0.19000,61.1875,102,60,0.48547
9021620,-0.18500,60.9375,102,60,0.47326
9021630,-0.17500,60.6875,102,60,0.46203
9021640,-0.17000,60.1250,102,60,0.44200
9021650,-0.16000,59.9375,102,60,0.43297
9021660,-0.15000,59.7500,102,60,0.42442
9021670,-0.13500,59.6875,102,60,0.41783
9021680,-0.12000,60.0625,102,60,0.40562
9021690,-0.10500,60.8750,102,60,0.39951
9021700,-0.08500,62.4375,102,60,0.39365
9021710,-0.06500,65.1250,102,60,0.38828
9021720,-0.04500,73.8125,102,60,0.37778
9021730,-0.01500,79.1250,102,60,0.37289
9021740,0.00500,84.3750,102,60,0.36801
9021750,0.03500,89.0000,102,60,0.36337
9021760,0.06500,95.9375,102,60,0.35507
9021770,0.09000,98.3125,102,60,0.35165
9021780,0.12000,100.0000,102,60,0.34774
9021790,0.15000,101.0000,102,60,0.34359
9021800,0.18500,101.3750,102,60,0.33431
9021810,0.20500,101.0000,102,60,0.32991
9021820,0.20000,100.3125,102,60,0.32552
9021830,0.16000,99.4375,102,60,0.32088
9021840,0.10000,97.3750,102,60,0.31136
9021850,0.03000,96.1875,102,60,0.30647
9021860,-0.02500,94.9375,102,60,0.30281
9021870,-0.06000,93.6875,102,60,0.29988
9021880,-0.06000,93.6875,102,60,0.29988
9021890,-0.09500,90.0000,102,60,0.28767
9021900,-0.10000,88.8125,102,60,0.28327
9021910,-0.10500,87.5625,102,60,0.27888
9021920,-0.10500,85.0000,102,60,0.27033
9021930,-0.10500,85.0000,102,60,0.27033
9021940,-0.10000,82.2500,102,60,0.26300
9021950,-0.10000,80.6875,102,60,0.26056
9021960,-0.10000,77.3750,102,60,0.26081
9021970,-0.09500,75.6875,102,60,0.26374
9021980,-0.09500,74.0625,102,60,0.26911
9021990,-0.09000,72.6250,102,60,0.27741
9022000,-0.08500,70.2500,102,60,0.30501
9022010,-0.08000,69.2500,102,60,0.32454
9022020,-0.07000,68.4375,102,60,0.34799
9022030,-0.05000,67.7500,102,60,0.37460
9022040,-0.03500,66.8125,102,60,0.43468
9022050,-0.03500,66.5000,102,60,0.46569
9022060,-0.02500,66.3125,102,60,0.49255
9022070,-0.00500,66.1875,102,60,0.51697
9022080,-0.00500,66.0000,102,60,0.56874
9022090,-0.02500,66.0000,102,60,0.59219
9022100,-0.05500,65.9375,102,60,0.61319
9022110,-0.08000,65.9375,102,60,0.63126
9022120,-0.12000,65.9375,102,60,0.65763
9022130,-0.14500,65.8750,102,60,0.66593
9022140,-0.15500,65.7500,102,60,0.67131
9022150,-0.15500,65.6875,102,60,0.67399
9022160,-0.14500,65.3750,102,60,0.67204
9022170,-0.14500,65.3750,102,60,0.67204
9022180,0.14000,98.3750,102,60,0.27863
9022190,0.14000,98.3750,102,60,0.27863
9022200,0.14000,98.3750,102,60,0.27863
9022210,0.14000,98.3750,102,60,0.27863
9022220,0.14000,98.3750,102,60,0.27863
9022230,0.14000,98.3750,102,60,0.27863
9022240,0.14000,98.3750,102,60,0.27863
9022250,0.14000,98.3750,102,60,0.27863
9022260,0.14000,98.3750,102,60,0.27863
9022270,0.14000,98.3750,102,60,0.27863
9022280,0.14000,98.3750,102,60,0.27863
9022290,0.14000,98.3750,102,60,0.27863
9022300,0.14000,98.3750,102,60,0.27863
9022310,0.14000,98.3750,102,60,0.27863
9022320,-0.02000,93.0000,102,60,0.24933
9022330,-0.02000,93.0000,102,60,0.24933
9022340,-0.02000,93.0000,102,60,0.24933
9022350,-0.02000,93.0000,102,60,0.24933
9022360,-0.02000,93.0000,102,60,0.24933
9022370,-0.02000,93.0000,102,60,0.24933
9022380,-0.02000,93.0000,102,60,0.24933
9022390,-0.02000,93.0000,102,60,0.24933
9022400,-0.02000,93.0000,102,60,0.24933
9022410,-0.02000,93.0000,102,60,0.24933
9022420,-0.02000,93.0000,102,60,0.24933
9022430,-0.02000,93.0000,102,60,0.24933
9022440,-0.02000,93.0000,102,60,0.24933
9022450,-0.02000,93.0000,102,60,0.24933
9022460,-0.02000,93.0000,102,60,0.24933
9022470,-0.02000,93.0000,102,60,0.24933
9022480,-0.02000,93.0000,102,60,0.24933
9022490,-0.02000,93.0000,102,60,0.24933
9022500,-0.02000,93.0000,102,60,0.24933
9022510,-0.02000,93.0000,102,60,0.24933
9022520,-0.02000,93.0000,102,60,0.24933
9022530,-0.02000,93.0000,102,60,0.24933
9022540,-0.02000,93.0000,102,60,0.24933
9022550,-0.02000,93.0000,102,60,0.24933
9022560,-0.02000,93.0000,102,60,0.24933
9022570,-0.02000,93.0000,102,60,0.24933
9022580,-0.02000,93.0000,102,60,0.24933
9022590,-0.02000,93.0000,102,60,0.24933
9022600,-0.02000,93.0000,102,60,0.24933
9022610,-0.06500,91.8125,102,60,0.24591
9022620,-0.09000,90.5625,102,60,0.24249
9022630,-0.10500,89.3750,102,60,0.23907
9022640,-0.10500,86.9375,102,60,0.23223
9022650,-0.11000,85.6875,102,60,0.22882
9022660,-0.11500,84.5000,102,60,0.22686
9022670,-0.11500,83.1875,102,60,0.22540
9022680,-0.11500,80.5000,102,60,0.22051
9022690,-0.11500,79.0000,102,60,0.21856
9022700,-0.11000,77.4375,102,60,0.21758
9022710,-0.10500,75.8125,102,60,0.21783
9022720,-0.10500,72.6875,102,60,0.22393
9022730,-0.10500,71.3125,102,60,0.23126
9022740,-0.10500,70.1250,102,60,0.24176
9022750,-0.09500,69.1250,102,60,0.25592
9022760,-0.08500,67.4375,102,60,0.29231
9022770,-0.07500,66.7500,102,60,0.31184
9022780,-0.06000,66.2500,102,60,0.33553
9022790,-0.05500,65.8125,102,60,0.36190
9022800,-0.04500,65.3125,102,60,0.41807
9022810,-0.02000,65.1875,102,60,0.44591
9022820,-0.01500,65.0625,102,60,0.47253
9022830,-0.03500,65.0625,102,60,0.49719
9022840,-0.05500,64.9375,102,60,0.53968
9022850,-0.08500,64.9375,102,60,0.55727
9022860,-0.12500,64.8750,102,60,0.57021
9022870,-0.15500,64.8750,102,60,0.57949
9022880,-0.17000,64.7500,102,60,0.59463
9022890,-0.17000,64.7500,102,60,0.59463
9022900,-0.16000,64.5625,102,60,0.60098
9022910,-0.14500,64.4375,102,60,0.60073
9022920,-0.14000,64.0625,102,60,0.59487
9022930,-0.17000,63.8750,102,60,0.58950
9022940,-0.22000,63.6875,102,60,0.58291
9022950,-0.03500,63.5000,102,60,0.57485
9022960,0.62000,63.0625,102,60,0.55678
9022970,1.45500,62.8750,102,60,0.54725
9022980,1.48500,62.6250,102,60,0.53651
9022990,0.65000,62.4375,102,60,0.52454
9023000,-0.09500,62.0000,102,60,0.49915
9023010,-0.33000,61.7500,102,60,0.48571
9023020,-0.30000,61.5000,102,60,0.47204
9023030,-0.26500,61.2500,102,60,0.45836
9023040,-0.25000,60.6875,102,60,0.43101
9023050,-0.24000,60.3750,102,60,0.41783
9023060,-0.23000,60.1250,102,60,0.40659
9023070,-0.22000,59.8750,102,60,0.39658
9023080,-0.21500,59.3750,102,60,0.37509
9023090,-0.20500,59.1250,102,60,0.36484
9023100,-0.20000,58.8750,102,60,0.35531
9023110,-0.19000,58.6250,102,60,0.34652
9023120,-0.18000,58.1250,102,60,0.33162
9023130,-0.17000,57.8750,102,60,0.32503
9023140,-0.16000,57.6875,102,60,0.31868
9023150,-0.15500,57.5000,102,60,0.31306
9023160,-0.14000,57.6250,102,60,0.30379
9023170,-0.12000,58.0000,102,60,0.30110
9023180,-0.10500,58.9375,102,60,0.29792
9023190,-0.08500,60.8125,102,60,0.29499
9023200,-0.06500,68.2500,102,60,0.28938
9023210,-0.04000,73.5000,102,60,0.28694
9023220,-0.01500,78.9375,102,60,0.28449
9023230,0.01000,84.1250,102,60,0.28230
9023240,0.03500,92.1250,102,60,0.27790
9023250,0.06500,95.0000,102,60,0.27546
9023260,0.09000,97.2500,102,60,0.27399
9023270,0.12000,98.8125,102,60,0.27302
9023280,0.15000,100.0625,102,60,0.26911
9023290,0.17500,100.0000,102,60,0.26691
9023300,0.18500,99.5625,102,60,0.26447
9023310,0.17000,98.8750,102,60,0.26203
9023320,0.12000,97.1250,102,60,0.25739
9023330,0.05500,96.1875,102,60,0.25519
9023340,-0.00500,95.1250,102,60,0.25275
9023350,-0.05000,94.0625,102,60,0.25006
9023360,-0.08500,91.8750,102,60,0.24567
9023370,-0.09500,90.6875,102,60,0.24444
9023380,-0.10500,89.5000,102,60,0.24249
9023390,-0.10500,88.3750,102,60,0.24029
9023400,-0.11500,86.0000,102,60,0.23590
9023410,-0.11500,84.7500,102,60,0.23346
9023420,-0.11500,83.5000,102,60,0.23101
9023430,-0.11500,82.1250,102,60,0.22882
9023440,-0.11000,79.1250,102,60,0.22662
9023450,-0.10500,77.5000,102,60,0.22784
9023460,-0.10000,75.8750,102,60,0.23126
9023470,-0.10500,74.3125,102,60,0.23712
9023480,-0.10500,71.5625,102,60,0.25812
9023490,-0.10500,71.5625,102,60,0.25812
9023500,-0.09000,69.5000,102,60,0.29353
9023510,-0.08000,68.6250,102,60,0.31624
9023520,-0.08000,68.6250,102,60,0.31624
9023530,-0.05500,66.8125,102,60,0.39902
9023540,-0.05000,66.5000,102,60,0.42857
9023550,-0.03000,66.2500,102,60,0.45812
9023560,-0.01500,65.9375,102,60,0.50501
9023570,-0.01500,65.8750,102,60,0.52821
9023580,-0.04500,65.8750,102,60,0.55092
9023590,-0.06500,65.8125,102,60,0.57167
9023600,-0.10000,65.8125,102,60,0.60537
9023610,-0.14000,65.8125,102,60,0.61807
9023620,-0.16000,65.8125,102,60,0.62784
9023630,-0.16500,65.7500,102,60,0.63516
9023640,-0.16000,65.5000,102,60,0.64225
9023650,-0.15500,65.4375,102,60,0.64249
9023660,-0.14500,65.3125,102,60,0.64054
9023670,-0.15000,65.1250,102,60,0.63687
9023680,-0.21000,64.6875,102,60,0.62564
9023690,-0.18500,64.5000,102,60,0.61807
9023700,0.25000,64.2500,102,60,0.60928
9023710,1.10000,64.0625,102,60,0.59951
9023720,1.64500,63.6250,102,60,0.57753
9023730,1.16500,63.3750,102,60,0.56532
9023740,0.22000,63.1875,102,60,0.55263
9023750,-0.27500,62.9375,102,60,0.53919
9023760,-0.33000,62.4375,102,60,0.51502
9023770,-0.29000,62.1875,102,60,0.50183
9023780,-0.27000,61.8750,102,60,0.48816
9023790,-0.25500,61.6250,102,60,0.47424
9023800,-0.25000,61.1250,102,60,0.44737
9023810,-0.24000,60.8750,102,60,0.43468
9023820,-0.23000,60.5625,102,60,0.42271
9023830,-0.22000,60.3125,102,60,0.41123
9023840,-0.21500,59.7500,102,60,0.38999
9023850,-0.21000,59.5000,102,60,0.38046
9023860,-0.20000,59.3125,102,60,0.37289
9023870,-0.19000,59.0625,102,60,0.36654
9023880,-0.18000,58.6875,102,60,0.35360
9023890,-0.17000,58.5000,102,60,0.34799
9023900,-0.15500,58.5000,102,60,0.34286
9023910,-0.14500,58.6250,102,60,0.33822
9023920,-0.12500,60.5000,102,60,0.33040
9023930,-0.10500,62.9375,102,60,0.32698
9023940,-0.08500,66.6250,102,60,0.32381
9023950,-0.06500,71.5625,102,60,0.32063
9023960,-0.04500,82.7500,102,60,0.31673
9023970,-0.01500,87.8750,102,60,0.31453
9023980,0.01000,92.1875,102,60,0.31184
9023990,0.04000,95.6875,102,60,0.30916
9024000,0.07500,100.6250,102,60,0.30403
9024010,0.07500,100.6250,102,60,0.30403
9024020,0.14500,102.8750,102,60,0.29963
9024030,0.18000,103.1250,102,60,0.29768
9024040,0.20000,102.3750,102,60,0.29353
9024050,0.19500,101.7500,102,60,0.29133
9024060,0.14500,100.9375,102,60,0.28987
9024070,0.08500,100.1250,102,60,0.28864
9024080,0.02000,98.2500,102,60,0.28400
9024090,-0.03500,97.3125,102,60,0.28132
9024100,-0.07500,96.3750,102,60,0.27839
9024110,-0.09500,95.4375,102,60,0.27546
9024120,-0.11500,93.4375,102,60,0.26984
9024130,-0.11500,92.3750,102,60,0.26716
9024140,-0.12000,91.2500,102,60,0.26471
9024150,-0.12000,90.1250,102,60,0.26227
9024160,-0.11500,87.7500,102,60,0.25983
9024170,-0.11500,86.4375,102,60,0.25861
9024180,-0.11500,85.0625,102,60,0.25763
9024190,-0.11500,83.5000,102,60,0.25763
9024200,-0.11000,80.2500,102,60,0.26349
9024210,-0.10500,78.5625,102,60,0.27082
9024220,-0.11000,77.0000,102,60,0.28156
9024230,-0.10500,75.5625,102,60,0.29597
9024240,-0.10000,73.3125,102,60,0.33626
9024250,-0.09500,72.3750,102,60,0.36166
9024260,-0.07500,71.5000,102,60,0.38608
9024270,-0.05500,70.8125,102,60,0.41026
9024280,-0.05000,69.9375,102,60,0.46764
9024290,-0.04500,69.6875,102,60,0.49768
9024300,-0.02500,69.5000,102,60,0.52698
9024310,-0.02000,69.4375,102,60,0.55507
9024320,-0.04500,69.2500,102,60,0.60464
9024330,-0.06500,69.1875,102,60,0.62564
9024340,-0.09500,69.1875,102,60,0.64396
9024350,-0.13500,69.1250,102,60,0.65934
9024360,-0.16000,69.0000,102,60,0.67692
9024370,-0.17000,68.8750,102,60,0.68352
9024380,-0.17000,68.7500,102,60,0.68840
9024390,-0.16000,68.6250,102,60,0.69158
9024400,-0.15500,68.3125,102,60,0.69328
9024410,-0.15000,68.0625,102,60,0.69158
9024420,-0.20000,67.8750,102,60,0.68816
9024430,-0.21500,67.6250,102,60,0.68327
9024440,-0.21500,67.6250,102,60,0.68327
9024450,0.87500,66.8750,102,60,0.66105
9024460,1.61000,66.6250,102,60,0.65177
9024470,1.43500,66.3750,102,60,0.64200
9024480,0.48500,65.8750,102,60,0.61954
9024490,0.48500,65.8750,102,60,0.61954
9024500,-0.32500,65.3125,102,60,0.59365
9024510,-0.30000,65.0625,102,60,0.58022
9024520,-0.27000,64.4375,102,60,0.55311
9024530,-0.26500,64.1875,102,60,0.53993
9024540,-0.26000,63.9375,102,60,0.52747
9024550,-0.25000,63.6250,102,60,0.51526
9024560,-0.24000,63.0625,102,60,0.49524
9024570,-0.23000,62.8125,102,60,0.48523
9024580,-0.23000,62.5625,102,60,0.48645
9024590,-0.22000,62.3125,102,60,0.49304
9024600,-0.21500,61.8750,102,60,0.48645
9024610,-0.20500,61.6250,102,60,0.48010
9024620,-0.19000,61.3750,102,60,0.47326
9024630,-0.18000,61.1875,102,60,0.46667
9024640,-0.16500,61.1250,102,60,0.45495
9024650,-0.15500,61.5000,102,60,0.45006
9024660,-0.14000,62.5000,102,60,0.44615
9024670,-0.12000,64.4375,102,60,0.44274
9024680,-0.10000,72.1875,102,60,0.43541
9024690,-0.07500,77.6875,102,60,0.43199
9024700,-0.05000,83.5000,102,60,0.42857
9024710,-0.02500,89.1250,102,60,0.42564
9024720,0.00000,98.0625,102,60,0.42002
9024730,0.03000,101.2500,102,60,0.41734
9024740,0.05500,103.7500,102,60,0.41465
9024750,0.08500,105.4375,102,60,0.41221
9024760,0.11000,106.8750,102,60,0.40806
9024770,0.14000,106.8125,102,60,0.40562
9024780,0.16000,106.3750,102,60,0.40293
9024790,0.16500,105.6875,102,60,0.40024
9024800,0.13500,104.0625,102,60,0.39512
9024810,0.08000,103.1250,102,60,0.39267
9024820,0.02000,102.1250,102,60,0.38999
9024830,-0.03500,101.1250,102,60,0.38755
9024840,-0.07500,98.8750,102,60,0.38266
9024850,-0.09500,97.7500,102,60,0.38022
9024860,-0.11000,96.6250,102,60,0.37851
9024870,-0.11500,95.5625,102,60,0.37680
9024880,-0.11500,93.3125,102,60,0.37167
9024890,-0.11500,92.1250,102,60,0.36923
9024900,-0.11500,90.8750,102,60,0.36703
9024910,-0.11500,89.5625,102,60,0.36508
9024920,-0.11500,86.8125,102,60,0.36459
9024930,-0.11500,85.2500,102,60,0.36679
9024940,-0.11500,83.5625,102,60,0.37143
9024950,-0.12000,81.8125,102,60,0.37924
9024960,-0.12000,78.6250,102,60,0.40049
9024970,-0.11500,77.1875,102,60,0.41734
9024980,-0.11000,76.0000,102,60,0.43858
9024990,-0.10500,74.9375,102,60,0.46349
9025000,-0.08500,73.3125,102,60,0.52259
9025010,-0.06000,72.6875,102,60,0.55458
9025020,-0.05500,72.1875,102,60,0.58730
9025030,-0.05500,71.7500,102,60,0.61954
9025040,-0.03500,71.0625,102,60,0.68010
9025050,-0.02500,70.8750,102,60,0.70720
9025060,-0.03500,70.6875,102,60,0.72796
9025070,-0.05500,70.5000,102,60,0.74457
9025080,-0.08000,70.1875,102,60,0.77582
9025090,-0.11500,70.0625,102,60,0.78828
9025100,-0.15500,69.9375,102,60,0.79805
9025110,-0.16500,69.8125,102,60,0.80537
9025120,-0.16000,69.4375,102,60,0.81319
9025130,-0.15500,69.1875,102,60,0.81416
9025140,-0.14500,68.9375,102,60,0.81319
9025150,-0.13500,68.6875,102,60,0.81050
9025160,-0.17000,68.1250,102,60,0.79927
9025170,-0.19500,67.8750,102,60,0.79194
9025180,0.09500,67.6250,102,60,0.78364
9025190,0.83000,67.3125,102,60,0.77460
9025200,1.58000,66.7500,102,60,0.75360
9025210,1.47000,66.4375,102,60,0.74188
9025220,0.54500,66.1250,102,60,0.72967
9025230,-0.16000,65.8125,102,60,0.71673
9025240,-0.32500,65.2500,102,60,0.68938
9025250,-0.29500,64.9375,102,60,0.67497
9025260,-0.27000,64.6250,102,60,0.66154
9025270,-0.25000,64.3125,102,60,0.64884
9025280,-0.24000,63.7500,102,60,0.62198
9025290,-0.23000,63.4375,102,60,0.60879
9025300,-0.22000,63.1250,102,60,0.59560
9025310,-0.21500,62.8125,102,60,0.58291
9025320,-0.21000,62.1875,102,60,0.55873
9025330,-0.20000,61.9375,102,60,0.54750
9025340,-0.20000,61.6250,102,60,0.53700
9025350,-0.19000,61.3750,102,60,0.52723
9025360,-0.18500,60.8125,102,60,0.51184
9025370,-0.17000,60.5625,102,60,0.50476
9025380,-0.16000,60.4375,102,60,0.49792
9025390,-0.14500,60.4375,102,60,0.49158
9025400,-0.13000,61.7500,102,60,0.48034
9025410,-0.11500,63.6250,102,60,0.47497
9025420,-0.09500,66.6875,102,60,0.47009
9025430,-0.06500,71.0625,102,60,0.46545
9025440,-0.06500,71.0625,102,60,0.46545
9025450,-0.01000,87.5625,102,60,0.45226
9025460,0.01500,92.3125,102,60,0.44860
9025470,0.01500,92.3125,102,60,0.44860
9025480,0.07500,101.6875,102,60,0.43712
9025490,0.10000,103.3125,102,60,0.43346
9025500,0.13500,104.3125,102,60,0.42979
9025510,0.16500,104.6875,102,60,0.42613
9025520,0.19000,104.0000,102,60,0.41783
9025530,0.19500,103.1875,102,60,0.41368
9025540,0.16000,102.3125,102,60,0.40952
9025550,0.11000,101.3125,102,60,0.40537
9025560,0.05000,99.1250,102,60,0.39927
9025570,-0.00500,98.0000,102,60,0.39585
9025580,-0.04500,96.8125,102,60,0.39219
9025590,-0.07000,95.6250,102,60,0.38828
9025600,-0.07000,95.6250,102,60,0.38828
9025610,-0.09500,92.2500,102,60,0.37680
9025620,-0.10000,91.1250,102,60,0.37314
9025630,-0.10000,89.9375,102,60,0.36996
9025640,-0.10000,87.4375,102,60,0.36386
9025650,-0.10000,86.0625,102,60,0.36190
9025660,-0.09500,84.5625,102,60,0.36068
9025670,-0.09500,82.9375,102,60,0.35971
9025680,-0.10000,79.5000,102,60,0.36166
9025690,-0.10000,77.8125,102,60,0.36606
9025700,-0.10000,76.1875,102,60,0.37363
9025710,-0.09500,74.8125,102,60,0.38510
9025720,-0.09000,72.4375,102,60,0.42051
9025730,-0.08000,71.5000,102,60,0.44347
9025740,-0.07000,70.6875,102,60,0.46960
9025750,-0.05000,70.0625,102,60,0.49817
9025760,-0.03500,69.0625,102,60,0.54847
9025770,-0.03500,68.7500,102,60,0.57631
9025780,-0.02500,68.5000,102,60,0.60488
9025790,-0.00500,68.3125,102,60,0.63272
9025800,0.00000,68.1250,102,60,0.68156
9025810,-0.02500,68.0625,102,60,0.70208
9025820,-0.04500,68.0000,102,60,0.71941
9025830,-0.07500,67.9375,102,60,0.73382
9025840,-0.11500,67.7500,102,60,0.75336
9025850,-0.14500,67.6250,102,60,0.75751
9025860,-0.15000,67.5625,102,60,0.75897
9025870,-0.14500,67.3750,102,60,0.75971
9025880,-0.14000,67.0000,102,60,0.75702
9025890,-0.13500,66.8125,102,60,0.75311
9025900,-0.12500,66.6250,102,60,0.74799
9025910,-0.17500,66.3750,102,60,0.74139
9025920,-0.17000,65.8750,102,60,0.72454
9025930,0.19500,65.6250,102,60,0.71453
9025940,0.97000,65.3750,102,60,0.70330
9025950,1.57500,65.1250,102,60,0.69084
9025960,1.25000,64.5625,102,60,0.66642
9025970,0.33000,64.3125,102,60,0.65324
9025980,-0.22000,64.0000,102,60,0.63883
9025990,-0.30500,63.7500,102,60,0.62393
9026000,-0.26000,63.1250,102,60,0.59341
9026010,-0.24000,62.8750,102,60,0.57802
9026020,-0.22500,62.5625,102,60,0.56264
9026030,-0.22000,62.2500,102,60,0.54750
9026040,-0.21000,61.6250,102,60,0.51893
9026050,-0.20500,61.3125,102,60,0.50696
9026060,-0.20500,61.3125,102,60,0.50696
9026070,-0.19000,60.7500,102,60,0.48523
9026080,-0.18000,60.1250,102,60,0.46496
9026090,-0.18000,60.1250,102,60,0.46496
9026100,-0.17000,59.5625,102,60,0.44713
9026110,-0.16000,59.3125,102,60,0.43883
9026120,-0.14500,59.0000,102,60,0.42418
9026130,-0.13500,58.9375,102,60,0.41758
9026140,-0.12000,59.0625,102,60,0.41123
9026150,-0.10500,59.5000,102,60,0.40537
9026160,-0.08500,62.5000,102,60,0.39756
9026170,-0.06500,65.6875,102,60,0.39341
9026180,-0.04500,70.0625,102,60,0.38926
9026190,-0.02000,75.3125,102,60,0.38486
9026200,0.01000,85.8125,102,60,0.37656
9026210,0.03000,90.1250,102,60,0.37265
9026220,0.06000,93.6250,102,60,0.36874
9026230,0.09000,96.3125,102,60,0.36484
9026240,0.12000,99.8125,102,60,0.35751
9026250,0.15000,100.5625,102,60,0.35458
9026260,0.18500,100.7500,102,60,0.35214
9026270,0.21000,100.5000,102,60,0.34872
9026280,0.21500,99.0625,102,60,0.34139
9026290,0.17500,98.1250,102,60,0.33748
9026300,0.12000,97.0625,102,60,0.33333
9026310,0.05000,96.0000,102,60,0.32894
9026320,-0.00500,93.6250,102,60,0.32039
9026330,-0.04500,92.4375,102,60,0.31624
9026340,-0.07000,91.2500,102,60,0.31209
9026350,-0.08500,90.1250,102,60,0.30818
9026360,-0.09000,87.8125,102,60,0.30354
9026370,-0.09500,86.5625,102,60,0.30085
9026380,-0.10000,85.3125,102,60,0.29744
9026390,-0.10000,84.0000,102,60,0.29377
9026400,-0.09500,81.1250,102,60,0.28742
9026410,-0.09500,79.5625,102,60,0.28474
9026420,-0.09500,77.9375,102,60,0.28327
9026430,-0.09500,76.3125,102,60,0.28352
9026440,-0.09000,73.2500,102,60,0.29158
9026450,-0.09000,71.9375,102,60,0.29915
9026460,-0.09000,70.7500,102,60,0.30916
9026470,-0.08500,69.8125,102,60,0.32332
9026480,-0.07500,68.1875,102,60,0.36288
9026490,-0.06500,67.6250,102,60,0.38755
9026500,-0.04000,67.1875,102,60,0.41441
9026510,-0.03500,66.8125,102,60,0.44249
9026520,-0.03500,66.3750,102,60,0.49988
9026530,-0.01500,66.2500,102,60,0.52747
9026540,0.00000,66.1250,102,60,0.55336
9026550,-0.01500,66.0625,102,60,0.57705
9026560,-0.03500,65.9375,102,60,0.61123
9026570,-0.06000,65.8750,102,60,0.62637
9026580,-0.09500,65.8125,102,60,0.63980
9026590,-0.13000,65.7500,102,60,0.65055
9026600,-0.15000,65.5625,102,60,0.66422
9026610,-0.15000,65.4375,102,60,0.66691
9026620,-0.13500,65.3125,102,60,0.66740
9026630,-0.13000,65.1250,102,60,0.65201
9026640,-0.12500,64.7500,102,60,0.61319
9026650,-0.12500,64.7500,102,60,0.61319
9026660,-0.20000,64.3125,102,60,0.59389
9026670,-0.07000,64.1250,102,60,0.58510
9026680,0.47500,63.6875,102,60,0.56630
9026690,1.29500,63.4375,102,60,0.55580
9026700,1.54000,63.1875,102,60,0.54432
9026710,0.80500,63.0000,102,60,0.53236
9026720,-0.00500,62.5000,102,60,0.50696
9026730,-0.29000,62.2500,102,60,0.49353
9026740,-0.29000,61.9375,102,60,0.48010
9026750,-0.25000,61.6875,102,60,0.46667
9026760,-0.23500,61.1250,102,60,0.44469
9026770,-0.22500,60.8125,102,60,0.43346
9026780,-0.21500,60.5625,102,60,0.42198
9026790,-0.21000,60.2500,102,60,0.41026
9026800,-0.20000,59.6875,102,60,0.38852
9026810,-0.20000,59.4375,102,60,0.37851
9026820,-0.19500,59.1875,102,60,0.36899
9026830,-0.19000,58.8750,102,60,0.36044
9026840,-0.17500,58.3750,102,60,0.34530
9026850,-0.16500,58.1875,102,60,0.33993
9026860,-0.15500,58.0000,102,60,0.33553
9026870,-0.14500,57.8125,102,60,0.33089
9026880,-0.13500,57.8750,102,60,0.32186
9026890,-0.12000,58.1875,102,60,0.31770
9026900,-0.10500,59.0625,102,60,0.31404
9026910,-0.08500,60.7500,102,60,0.31038
9026920,-0.06000,67.5625,102,60,0.30354
9026930,-0.04000,72.5625,102,60,0.30037
9026940,-0.01500,77.9375,102,60,0.29744
9026950,0.01000,83.0625,102,60,0.29475
9026960,0.03500,91.2500,102,60,0.29158
9026970,0.06500,94.1875,102,60,0.28962
9026980,0.09500,96.3750,102,60,0.28742
9026990,0.13000,97.9375,102,60,0.28523
9027000,0.16000,99.2500,102,60,0.28010
9027010,0.19000,99.1250,102,60,0.27741
9027020,0.20500,98.6250,102,60,0.27473
9027030,0.18500,97.9375,102,60,0.27228
9027040,0.14000,96.0625,102,60,0.26667
9027050,0.08000,95.0625,102,60,0.26447
9027060,0.01000,94.0000,102,60,0.26276
9027070,-0.04000,92.8750,102,60,0.26056
9027080,-0.07500,90.6875,102,60,0.25519
9027090,-0.09500,89.5625,102,60,0.25226
9027100,-0.10000,88.3750,102,60,0.24933
9027110,-0.10500,87.2500,102,60,0.24640
9027120,-0.11000,84.8750,102,60,0.24054
9027130,-0.11000,84.8750,102,60,0.24054
9027140,-0.11000,83.6875,102,60,0.23761
9027150,-0.10500,81.0625,102,60,0.23248
9027160,-0.10500,78.0000,102,60,0.23126
9027170,-0.10500,76.3125,102,60,0.23150
9027180,-0.10000,74.6875,102,60,0.23297
9027190,-0.10000,73.1875,102,60,0.23663
9027200,-0.10000,70.5625,102,60,0.25372
9027210,-0.09500,69.5625,102,60,0.26764
9027220,-0.08500,68.6875,102,60,0.28523
9027230,-0.07500,67.8750,102,60,0.30598
9027240,-0.06500,66.7500,102,60,0.35482
9027250,-0.04500,66.3125,102,60,0.37827
9027260,-0.04000,66.0000,102,60,0.40049
9027270,-0.03000,65.7500,102,60,0.42540
9027280,-0.01000,65.5000,102,60,0.47692
9027290,-0.01000,65.3750,102,60,0.50110
9027300,-0.02500,65.3750,102,60,0.52357
9027310,-0.05500,65.3750,102,60,0.54359
9027320,-0.07500,65.3750,102,60,0.57607
9027330,-0.11500,65.3125,102,60,0.58828
9027340,-0.14500,65.3125,102,60,0.59756
9027350,-0.15500,65.1875,102,60,0.60342
9027360,-0.15000,64.9375,102,60,0.60879
9027370,-0.14500,64.8125,102,60,0.60952
9027380,-0.13500,64.5625,102,60,0.60879
9027390,-0.12500,64.3750,102,60,0.60611
9027400,-0.16000,63.9375,102,60,0.59658
9027410,-0.20000,63.7500,102,60,0.58974
9027420,0.01000,63.5625,102,60,0.58169
9027430,0.70000,63.3125,102,60,0.57241
9027440,1.49000,62.8750,102,60,0.55116
9027450,1.40500,62.6875,102,60,0.54066
9027460,0.54500,62.4375,102,60,0.52991
9027470,-0.12000,62.2500,102,60,0.51795
9027480,-0.30500,61.7500,102,60,0.49231
9027490,-0.28000,61.4375,102,60,0.47888
9027500,-0.25000,61.1875,102,60,0.46569
9027510,-0.24000,60.8750,102,60,0.45275
9027520,-0.23000,60.3125,102,60,0.42784
9027530,-0.22000,60.0000,102,60,0.41587
9027540,-0.21000,59.7500,102,60,0.40440
9027550,-0.20000,59.5000,102,60,0.39512
9027560,-0.19500,58.9375,102,60,0.37851
9027570,-0.19000,58.6250,102,60,0.37021
9027580,-0.18500,58.3750,102,60,0.36215
9027590,-0.18000,58.1250,102,60,0.35482
9027600,-0.17000,57.6875,102,60,0.34188
9027610,-0.16000,57.5000,102,60,0.33651
9027620,-0.14500,57.4375,102,60,0.33162
9027630,-0.13500,57.5000,102,60,0.32723
9027640,-0.11500,58.6250,102,60,0.32015
9027650,-0.10000,60.2500,102,60,0.31770
9027660,-0.08000,63.0000,102,60,0.31575
9027670,-0.06000,67.0000,102,60,0.31331
9027680,-0.03500,77.5625,102,60,0.30794
9027690,-0.01000,82.8750,102,60,0.30525
9027700,0.01500,87.5000,102,60,0.30281
9027710,0.04000,91.3125,102,60,0.30037
9027720,0.07000,96.6875,102,60,0.29548
9027730,0.09500,98.4375,102,60,0.29304
9027740,0.12500,99.6250,102,60,0.29060
9027750,0.15500,100.1875,102,60,0.28889
9027760,0.18500,100.0000,102,60,0.28547
9027770,0.18500,100.0000,102,60,0.28547
9027780,0.16500,98.6875,102,60,0.28083
9027790,0.11000,97.8125,102,60,0.27839
9027800,0.05000,95.9375,102,60,0.27326
9027810,-0.00500,94.8750,102,60,0.27082
9027820,-0.05500,93.7500,102,60,0.26838
9027830,-0.08500,92.6250,102,60,0.26569
9027840,-0.10500,90.3750,102,60,0.25983
9027850,-0.11500,89.2500,102,60,0.25788
9027860,-0.11500,88.1875,102,60,0.25665
9027870,-0.11500,87.0625,102,60,0.25446
9027880,-0.12000,84.7500,102,60,0.24908
9027890,-0.12000,83.5000,102,60,0.24640
9027900,-0.11500,82.1250,102,60,0.24444
9027910,-0.11500,80.6875,102,60,0.24347
9027920,-0.11500,77.4375,102,60,0.24591
9027930,-0.11500,75.7500,102,60,0.25055
9027940,-0.11500,74.1875,102,60,0.25788
9027950,-0.11500,72.8125,102,60,0.26716
9027960,-0.11000,70.5625,102,60,0.29451
9027970,-0.10500,69.6875,102,60,0.31380
9027980,-0.09500,68.8750,102,60,0.33651
9027990,-0.08000,68.2500,102,60,0.36215
9028000,-0.05500,67.3750,102,60,0.41832
9028010,-0.05500,67.1250,102,60,0.44762
9028020,-0.04500,66.8750,102,60,0.47643
9028030,-0.02500,66.7500,102,60,0.50403
9028040,-0.02500,66.5625,102,60,0.55336
9028050,-0.04500,66.5625,102,60,0.57167
9028060,-0.06500,66.5625,102,60,0.58657
9028070,-0.09500,66.5625,102,60,0.60147
9028080,-0.13000,66.5000,102,60,0.62564
9028090,-0.16000,66.4375,102,60,0.63419
9028100,-0.17000,66.3750,102,60,0.64029
9028110,-0.17000,66.2500,102,60,0.64420
9028120,-0.16000,65.9375,102,60,0.64591
9028130,-0.15500,65.7500,102,60,0.64396
9028140,-0.15000,65.5625,102,60,0.64054
9028150,-0.20000,65.3750,102,60,0.63565
9028160,-0.22500,64.9375,102,60,0.62271
9028170,0.07000,64.6875,102,60,0.61441
9028180,0.07000,64.6875,102,60,0.61441
9028190,1.54500,64.2500,102,60,0.59512
9028200,1.38500,63.8125,102,60,0.57265
9028210,0.47500,63.5625,102,60,0.56020
9028220,-0.17000,63.3125,102,60,0.54725
9028230,-0.32000,63.1250,102,60,0.53407
9028240,-0.29000,62.5625,102,60,0.50720
9028250,-0.27000,62.3125,102,60,0.49499
9028260,-0.25500,62.0000,102,60,0.48352
9028270,-0.24500,61.7500,102,60,0.47131
9028280,-0.23500,61.2500,102,60,0.44713
9028290,-0.23000,61.0000,102,60,0.43565
9028300,-0.22000,60.6875,102,60,0.42442
9028310,-0.21500,60.5000,102,60,0.41368
9028320,-0.21000,60.0000,102,60,0.39487
9028330,-0.20500,59.7500,102,60,0.38657
9028340,-0.19500,59.5000,102,60,0.37900
9028350,-0.18500,59.2500,102,60,0.37314
9028360,-0.17000,58.9375,102,60,0.36386
9028370,-0.16000,58.9375,102,60,0.35946
9028380,-0.15000,59.2500,102,60,0.35507
9028390,-0.13500,60.0000,102,60,0.35092
9028400,-0.11500,64.3125,102,60,0.34408
9028410,-0.10000,68.3125,102,60,0.34115
9028420,-0.07500,73.4375,102,60,0.33822
9028430,-0.05000,79.0625,102,60,0.33553
9028440,-0.05000,79.0625,102,60,0.33553
9028450,0.00000,93.8125,102,60,0.32869
9028460,0.03000,97.1875,102,60,0.32723
9028470,0.06000,99.8125,102,60,0.32527
9028480,0.09000,102.9375,102,60,0.32088
9028490,0.11500,103.6250,102,60,0.31868
9028500,0.14500,103.7500,102,60,0.31673
9028510,0.17000,103.5000,102,60,0.31453
9028520,0.17500,102.1875,102,60,0.30965
9028530,0.14500,101.2500,102,60,0.30696
9028540,0.10000,100.2500,102,60,0.30427
9028550,0.03500,99.2500,102,60,0.30256
9028560,-0.02500,97.1250,102,60,0.29939
9028570,-0.07000,96.0000,102,60,0.29695
9028580,-0.09500,94.9375,102,60,0.29426
9028590,-0.11000,93.8125,102,60,0.29182
9028600,-0.12000,91.5000,102,60,0.28694
9028610,-0.12500,90.3750,102,60,0.28474
9028620,-0.12500,89.1875,102,60,0.28254
9028630,-0.12500,88.0000,102,60,0.28034
9028640,-0.12500,85.4375,102,60,0.27692
9028650,-0.12000,84.0000,102,60,0.27668
9028660,-0.11500,82.4375,102,60,0.27790
9028670,-0.12000,80.8125,102,60,0.28034
9028680,-0.12000,77.5000,102,60,0.31355
9028690,-0.12000,76.0000,102,60,0.33187
9028700,-0.11500,74.6875,102,60,0.35165
9028710,-0.11500,73.5000,102,60,0.37436
9028720,-0.11000,71.5625,102,60,0.43028
9028730,-0.09500,70.8125,102,60,0.46300
9028740,-0.07500,70.1875,102,60,0.49768
9028750,-0.05500,69.6875,102,60,0.52894
9028760,-0.05500,69.0625,102,60,0.59048
9028770,-0.04500,68.8125,102,60,0.62369
9028780,-0.02500,68.6250,102,60,0.65592
9028790,-0.03500,68.4375,102,60,0.71404
9028800,-0.05500,68.3750,102,60,0.73871
9028810,-0.08000,68.3125,102,60,0.76020
9028820,-0.11000,68.2500,102,60,0.77827
9028830,-0.15000,68.1875,102,60,0.79267
9028840,-0.17000,67.9375,102,60,0.81123
9028850,-0.17500,67.8125,102,60,0.81465
9028860,-0.17000,67.6250,102,60,0.81465
9028870,-0.16000,67.5000,102,60,0.81368
9028880,-0.15500,67.1250,102,60,0.80781
9028890,-0.16500,66.8750,102,60,0.80269
9028900,-0.23000,66.6875,102,60,0.79585
9028910,-0.13500,66.4375,102,60,0.78755
9028920,0.38000,65.9375,102,60,0.76777
9028930,1.26000,65.6875,102,60,0.75629
9028940,1.74000,65.4375,102,60,0.74383
9028950,1.11500,65.1875,102,60,0.73138
9028960,0.14500,64.6875,102,60,0.70427
9028970,-0.29500,64.3750,102,60,0.68938
9028980,-0.33500,64.1250,102,60,0.67399
9028990,-0.30000,63.8750,102,60,0.65812
9029000,-0.28000,63.3125,102,60,0.62662
9029010,-0.27500,63.0000,102,60,0.61123
9029020,-0.26500,62.6875,102,60,0.59585
9029030,-0.25000,62.4375,102,60,0.58120
9029040,-0.24000,61.8750,102,60,0.55311
9029050,-0.23500,61.5625,102,60,0.54115
9029060,-0.23000,61.2500,102,60,0.53040
9029070,-0.22500,61.0000,102,60,0.51917
9029080,-0.22000,60.5000,102,60,0.49841
9029090,-0.21000,60.2500,102,60,0.48938
9029100,-0.19500,60.0000,102,60,0.48132
9029110,-0.18500,59.8125,102,60,0.47399
9029120,-0.17000,59.8750,102,60,0.46129
9029130,-0.15500,60.5625,102,60,0.45543
9029140,-0.14000,62.0000,102,60,0.44982
9029150,-0.12000,64.5625,102,60,0.44542
9029160,-0.09500,73.6250,102,60,0.43834
9029170,-0.07000,79.4375,102,60,0.43443
9029180,-0.04500,85.1875,102,60,0.43053
9029190,-0.01500,90.5000,102,60,0.42686
9029200,0.01000,98.5000,102,60,0.41978
9029210,0.01000,98.5000,102,60,0.41978
9029220,0.06000,103.2500,102,60,0.41270
9029230,0.08500,104.5625,102,60,0.40904
9029240,0.12000,105.3125,102,60,0.40269
9029250,0.14500,105.0000,102,60,0.40024
9029260,0.16500,104.3750,102,60,0.39707
9029270,0.15500,103.6250,102,60,0.39365
9029280,0.12000,101.7500,102,60,0.38681
9029290,0.06000,100.7500,102,60,0.38339
9029300,0.00500,99.6250,102,60,0.38022
9029310,-0.04500,98.5000,102,60,0.37729
9029320,-0.08000,96.1250,102,60,0.37143
9029330,-0.10000,94.9375,102,60,0.36850
9029340,-0.11500,93.6875,102,60,0.36557
9029350,-0.12000,92.5000,102,60,0.36361
9029360,-0.11500,90.0000,102,60,0.35946
9029370,-0.11500,88.6875,102,60,0.35653
9029380,-0.12000,87.3750,102,60,0.35385
9029390,-0.12000,85.9375,102,60,0.35165
9029400,-0.11500,82.8125,102,60,0.35092
9029410,-0.11500,81.1250,102,60,0.35336
9029420,-0.11500,79.4375,102,60,0.35897
9029430,-0.11500,77.6875,102,60,0.36801
9029440,-0.11500,74.6250,102,60,0.39560
9029450,-0.11500,73.4375,102,60,0.41245
9029460,-0.11000,72.3750,102,60,0.43492
9029470,-0.10000,71.4375,102,60,0.46203
9029480,-0.08500,70.0000,102,60,0.52698
9029490,-0.06000,69.5000,102,60,0.56264
9029500,-0.04500,69.0625,102,60,0.59902
9029510,-0.04500,68.6875,102,60,0.63468
9029520,-0.02000,68.2500,102,60,0.70134
9029530,-0.01000,68.1250,102,60,0.73089
9029540,-0.02500,68.0625,102,60,0.75726
9029550,-0.05500,68.0000,102,60,0.77705
9029560,-0.07500,67.8750,102,60,0.80684
9029570,-0.11500,67.8125,102,60,0.81978
9029580,-0.15000,67.6875,102,60,0.83028
9029590,-0.16000,67.5625,102,60,0.83810
9029600,-0.15500,67.2500,102,60,0.84567
9029610,-0.15000,67.0625,102,60,0.84591
9029620,-0.14000,66.8125,102,60,0.84371
9029630,-0.13500,66.5625,102,60,0.83956
9029640,-0.17000,66.0625,102,60,0.82589
9029650,-0.18000,65.7500,102,60,0.81685
9029660,0.10500,65.4375,102,60,0.80684
9029670,0.86500,65.1875,102,60,0.79560
9029680,1.63500,64.6250,102,60,0.76996
9029690,1.46500,64.3125,102,60,0.75580
9029700,0.52500,64.0000,102,60,0.74090
9029710,-0.16000,63.7500,102,60,0.72552
9029720,-0.33000,63.1250,102,60,0.69402
9029730,-0.30000,62.8125,102,60,0.67741
9029740,-0.30000,62.8125,102,60,0.67741
9029750,-0.25000,62.2500,102,60,0.64518
9029760,-0.24000,61.6875,102,60,0.61441
9029770,-0.23000,61.3750,102,60,0.59878
9029780,-0.22000,61.1250,102,60,0.58339
9029790,-0.21000,60.8125,102,60,0.56850
9029800,-0.20500,60.1875,102,60,0.54090
9029810,-0.20000,59.9375,102,60,0.52821
9029820,-0.19000,59.6875,102,60,0.51624
9029830,-0.18000,59.4375,102,60,0.50501
9029840,-0.18000,59.4375,102,60,0.50501
9029850,-0.16000,58.6250,102,60,0.47961
9029860,-0.14500,58.5000,102,60,0.47253
9029870,-0.13500,58.5000,102,60,0.46545
9029880,-0.12000,59.6250,102,60,0.45201
9029890,-0.10500,61.3125,102,60,0.44615
9029900,-0.08000,64.1875,102,60,0.44054
9029910,-0.06000,68.3125,102,60,0.43541
9029920,-0.03000,79.1875,102,60,0.42564
9029930,-0.00500,84.5625,102,60,0.42100
9029940,0.02000,89.3125,102,60,0.41612
9029950,0.05000,93.1875,102,60,0.41197
9029960,0.08000,98.5625,102,60,0.40391
9029970,0.11000,100.1875,102,60,0.39927
9029980,0.14000,101.1875,102,60,0.39438
9029990,0.17000,101.5625,102,60,0.38974
9030000,0.20000,100.8750,102,60,0.38071
9030010,0.20500,100.0625,102,60,0.37607
9030020,0.18000,99.0625,102,60,0.37118
9030030,0.13000,98.0625,102,60,0.36606
9030040,0.06500,95.8750,102,60,0.35751
9030050,0.00000,94.7500,102,60,0.35458
9030060,-0.03500,93.5625,102,60,0.35092
9030070,-0.06500,92.3125,102,60,0.34676
9030080,-0.08000,90.0000,102,60,0.33724
