RelativeTimeMilliseconds,ECG,ART,ART (Sys),ART (Dia),PPG
9629980,0.12000,97.8125,97,55,0.31722
9629990,0.05500,97.0625,97,55,0.31429
9630000,-0.00500,95.2500,97,55,0.31062
9630010,-0.05500,94.1875,97,55,0.30867
9630020,-0.08500,93.1250,97,55,0.30647
9630030,-0.10500,92.0000,97,55,0.30452
9630040,-0.11500,89.7500,97,55,0.30037
9630050,-0.11500,88.5625,97,55,0.29817
9630060,-0.12000,87.3125,97,55,0.29573
9630070,-0.12000,86.0000,97,55,0.29328
9630080,-0.12000,83.2500,97,55,0.28913
9630090,-0.12000,81.7500,97,55,0.28840
9630100,-0.12000,80.1875,97,55,0.28889
9630110,-0.11500,78.6250,97,55,0.29011
9630120,-0.12000,75.6250,97,55,0.29841
9630130,-0.12500,74.2500,97,55,0.30696
9630140,-0.12500,72.9375,97,55,0.31917
9630150,-0.12000,71.7500,97,55,0.33504
9630160,-0.12500,69.6250,97,55,0.37753
9630170,-0.12000,68.7500,97,55,0.40366
9630180,-0.11500,68.0000,97,55,0.43199
9630190,-0.10500,67.3125,97,55,0.46178
9630200,-0.08500,66.2500,97,55,0.51258
9630210,-0.07000,65.8125,97,55,0.53993
9630220,-0.06500,65.4375,97,55,0.56752
9630230,-0.04000,65.1250,97,55,0.59414
9630240,-0.02500,64.6250,97,55,0.64127
9630250,-0.03500,64.4375,97,55,0.66129
9630260,-0.05500,64.2500,97,55,0.67839
9630270,-0.08000,64.1250,97,55,0.69304
9630280,-0.11500,63.8750,97,55,0.71502
9630290,-0.15000,63.7500,97,55,0.72088
9630300,-0.17000,63.6250,97,55,0.72430
9630310,-0.17000,63.4375,97,55,0.72723
9630320,-0.16000,63.1250,97,55,0.72943
9630330,-0.15500,62.9375,97,55,0.72845
9630340,-0.14500,62.6875,97,55,0.72601
9630350,-0.14000,62.5000,97,55,0.72210
9630360,-0.19500,62.0625,97,55,0.71062
9630370,-0.18500,61.8125,97,55,0.70305
9630380,0.20500,61.6250,97,55,0.69451
9630390,1.01500,61.3750,97,55,0.68498
9630400,1.67500,60.9375,97,55,0.66496
9630410,1.39500,60.7500,97,55,0.65348
9630420,1.39500,60.7500,97,55,0.65348
9630430,-0.21000,60.2500,97,55,0.62808
9630440,-0.21000,60.2500,97,55,0.62808
9630450,-0.30000,59.4375,97,55,0.58730
9630460,-0.30000,59.4375,97,55,0.58730
9630470,-0.26500,59.0000,97,55,0.56068
9630480,-0.25000,58.5625,97,55,0.53529
9630490,-0.24000,58.3125,97,55,0.52454
9630500,-0.23000,58.1250,97,55,0.51453
9630510,-0.22000,57.8750,97,55,0.50403
9630520,-0.22000,57.4375,97,55,0.48376
9630530,-0.21000,57.2500,97,55,0.47424
9630540,-0.20500,57.0000,97,55,0.46520
9630550,-0.19500,56.7500,97,55,0.45690
9630560,-0.19000,56.3125,97,55,0.44151
9630570,-0.18000,56.1875,97,55,0.43468
9630580,-0.16500,56.1250,97,55,0.42833
9630590,-0.15500,56.4375,97,55,0.42222
9630600,-0.13500,58.9375,97,55,0.41343
9630610,-0.12000,61.6875,97,55,0.40928
9630620,-0.10500,65.4375,97,55,0.40513
9630630,-0.08500,70.0000,97,55,0.40098
9630640,-0.06500,80.0000,97,55,0.39316
9630650,-0.06500,80.0000,97,55,0.39316
9630660,-0.00500,88.8750,97,55,0.38559
9630670,0.02000,92.4375,97,55,0.38217
9630680,0.05000,97.6250,97,55,0.37534
9630690,0.08000,99.2500,97,55,0.37289
9630700,0.10500,100.4375,97,55,0.37094
9630710,0.13500,101.1875,97,55,0.36850
9630720,0.16500,101.8125,97,55,0.36288
9630730,0.19000,101.7500,97,55,0.35995
9630740,0.20000,101.5625,97,55,0.35726
9630750,0.18000,101.1250,97,55,0.35458
9630760,0.13000,99.8125,97,55,0.34017
9630770,0.07500,99.0000,97,55,0.33480
9630780,0.01000,98.1250,97,55,0.33065
9630790,-0.03500,97.0625,97,55,0.32723
9630800,-0.06500,94.8750,97,55,0.32381
9630810,-0.08500,93.6875,97,55,0.32186
9630820,-0.10000,92.5000,97,55,0.31941
9630830,-0.10500,91.1875,97,55,0.31648
9630840,-0.11000,88.5625,97,55,0.31087
9630850,-0.11500,87.1875,97,55,0.30867
9630860,-0.11500,85.7500,97,55,0.30696
9630870,-0.11500,84.2500,97,55,0.30574
9630880,-0.11500,81.0000,97,55,0.30647
9630890,-0.12000,79.3125,97,55,0.30940
9630900,-0.12000,77.6875,97,55,0.31453
9630910,-0.11500,76.1875,97,55,0.32283
9630920,-0.11500,73.4375,97,55,0.35043
9630930,-0.11500,72.2500,97,55,0.37021
9630940,-0.11500,71.1250,97,55,0.39414
9630950,-0.12000,70.1250,97,55,0.42173
9630960,-0.12000,68.5000,97,55,0.48425
9630970,-0.11500,67.8125,97,55,0.51746
9630980,-0.10500,67.2500,97,55,0.55067
9630990,-0.07500,66.7500,97,55,0.58315
9631000,-0.05500,66.0000,98,55,0.63346
9631010,-0.05000,65.6875,98,55,0.65836
9631020,-0.03500,65.4375,98,55,0.68278
9631030,-0.01500,65.1875,98,55,0.70549
9631040,-0.01500,65.1875,98,55,0.70549
9631050,-0.04000,64.5625,98,55,0.75702
9631060,-0.06500,64.3750,98,55,0.76825
9631070,-0.09500,64.1875,98,55,0.77656
9631080,-0.13500,63.8125,98,55,0.78584
9631090,-0.15500,63.6250,98,55,0.78632
9631100,-0.16000,63.3750,98,55,0.78462
9631110,-0.15500,63.1875,98,55,0.78242
9631120,-0.14500,62.7500,98,55,0.77509
9631130,-0.13500,62.5000,98,55,0.76972
9631140,-0.13500,62.2500,98,55,0.76288
9631150,-0.17500,62.0000,98,55,0.75458
9631160,-0.17000,61.4375,98,55,0.73455
9631170,0.14000,61.1250,98,55,0.72283
9631180,0.89500,60.8750,98,55,0.71013
9631190,1.63500,60.5625,98,55,0.69646
9631200,1.44500,60.0625,98,55,0.67033
9631210,0.52000,59.8125,98,55,0.65617
9631220,-0.15500,59.5000,98,55,0.64127
9631230,-0.32500,59.1875,98,55,0.62564
9631240,-0.29000,58.6250,98,55,0.59389
9631250,-0.26000,58.3750,98,55,0.57802
9631260,-0.25000,58.1250,98,55,0.56264
9631270,-0.23500,57.8125,98,55,0.54750
9631280,-0.22500,57.2500,98,55,0.51893
9631290,-0.21500,57.0000,98,55,0.50720
9631300,-0.21000,56.7500,98,55,0.49670
9631310,-0.20000,56.5000,98,55,0.48571
9631320,-0.19500,56.0625,98,55,0.46471
9631330,-0.18500,55.8125,98,55,0.45519
9631340,-0.18000,55.6250,98,55,0.44640
9631350,-0.17000,55.3750,98,55,0.43785
9631360,-0.16000,54.9375,98,55,0.42222
9631370,-0.15000,54.8750,98,55,0.41490
9631380,-0.14000,55.0625,98,55,0.40781
9631390,-0.14000,55.0625,98,55,0.40781
9631400,-0.10500,59.1875,98,55,0.39048
9631410,-0.08500,62.5625,98,55,0.38510
9631420,-0.06500,66.8125,98,55,0.37949
9631430,-0.04500,71.6875,98,55,0.37411
9631440,-0.02000,81.3750,98,55,0.36386
9631450,0.00500,85.6250,98,55,0.35922
9631460,0.03500,89.2500,98,55,0.35482
9631470,0.03500,89.2500,98,55,0.35482
9631480,0.09000,96.2500,98,55,0.34237
9631490,0.12000,97.4375,98,55,0.33944
9631500,0.14500,98.1250,98,55,0.33700
9631510,0.18000,98.5000,98,55,0.33407
9631520,0.21000,98.4375,98,55,0.32674
9631530,0.23000,98.1875,98,55,0.32259
9631540,0.21500,97.6875,98,55,0.31795
9631550,0.17500,97.0625,98,55,0.31331
9631560,0.11000,95.4375,98,55,0.30452
9631570,0.04500,94.4375,98,55,0.30037
9631580,-0.00500,93.4375,98,55,0.29621
9631590,-0.04000,92.3750,98,55,0.29231
9631600,-0.06500,90.1250,98,55,0.28742
9631610,-0.08000,88.8750,98,55,0.28400
9631620,-0.09500,87.6250,98,55,0.28034
9631630,-0.09500,86.3125,98,55,0.27668
9631640,-0.10500,83.5625,98,55,0.26935
9631650,-0.10500,82.0625,98,55,0.26593
9631660,-0.10500,80.5000,98,55,0.26300
9631670,-0.11000,78.9375,98,55,0.26081
9631680,-0.11000,75.7500,98,55,0.26056
9631690,-0.11000,74.1875,98,55,0.26349
9631700,-0.11500,72.8125,98,55,0.26911
9631710,-0.11000,71.5000,98,55,0.27790
9631720,-0.11000,69.1250,98,55,0.30818
9631730,-0.11000,68.1250,98,55,0.32967
9631740,-0.11000,67.2500,98,55,0.35482
9631750,-0.11000,66.5000,98,55,0.38315
9631760,-0.10500,65.2500,98,55,0.44615
9631770,-0.09500,64.6875,98,55,0.47912
9631780,-0.08000,64.2500,98,55,0.51160
9631790,-0.08000,64.2500,98,55,0.51160
9631800,-0.04500,63.2500,98,55,0.58828
9631810,-0.03500,63.0000,98,55,0.61270
9631820,-0.01000,62.7500,98,55,0.63516
9631830,-0.00500,62.5625,98,55,0.65543
9631840,-0.02500,62.1875,98,55,0.68718
9631850,-0.05000,62.0625,98,55,0.69890
9631860,-0.08000,61.9375,98,55,0.70794
9631870,-0.12500,61.8125,98,55,0.71429
9631880,-0.15000,61.5000,98,55,0.72039
9631890,-0.15500,61.3750,98,55,0.71966
9631900,-0.15000,61.2500,98,55,0.71697
9631910,-0.14500,61.1250,98,55,0.71355
9631920,-0.13500,60.7500,98,55,0.70379
9631930,-0.12500,60.5000,98,55,0.69695
9631940,-0.13500,60.3750,98,55,0.68864
9631950,-0.19500,60.1875,98,55,0.67912
9631960,-0.11500,59.7500,98,55,0.65690
9631970,0.40500,59.5000,98,55,0.64420
9631980,1.25000,59.2500,98,55,0.63028
9631990,1.61000,59.0000,98,55,0.61709
9632000,0.99500,58.5000,97,55,0.59023
9632010,0.11500,58.2500,97,55,0.57534
9632020,-0.30000,58.0000,97,55,0.56020
9632030,-0.30500,57.7500,97,55,0.54505
9632040,-0.26000,57.2500,97,55,0.51477
9632050,-0.24000,57.0625,97,55,0.49963
9632060,-0.22500,56.8125,97,55,0.48474
9632070,-0.22000,56.5625,97,55,0.47009
9632080,-0.20500,56.0000,97,55,0.44225
9632090,-0.20000,55.7500,97,55,0.43077
9632100,-0.19000,55.5625,97,55,0.42051
9632110,-0.19000,55.3125,97,55,0.40928
9632120,-0.18000,54.8750,97,55,0.38706
9632130,-0.18000,54.8750,97,55,0.38706
9632140,-0.16000,54.4375,97,55,0.36654
9632150,-0.15500,54.1875,97,55,0.35726
9632160,-0.14500,53.8750,97,55,0.34090
9632170,-0.13500,53.8750,97,55,0.33382
9632180,-0.12000,54.1250,97,55,0.32723
9632190,-0.10500,54.8750,97,55,0.32259
9632200,-0.09000,58.9375,97,55,0.31453
9632210,-0.07000,62.3750,97,55,0.31062
9632220,-0.04500,66.5625,97,55,0.30672
9632230,-0.02500,71.1250,97,55,0.30305
9632240,0.00000,79.8125,97,55,0.29597
9632250,0.02000,83.5625,97,55,0.29255
9632260,0.05000,86.8125,97,55,0.28938
9632270,0.08000,89.4375,97,55,0.28620
9632280,0.11000,93.0000,97,55,0.27985
9632290,0.14000,94.0000,97,55,0.27790
9632300,0.17500,94.6250,97,55,0.27643
9632310,0.20500,94.8750,97,55,0.27448
9632320,0.23500,94.6875,97,55,0.26984
9632330,0.23500,94.3125,97,55,0.26740
9632340,0.20500,93.7500,97,55,0.26520
9632350,0.14000,93.1250,97,55,0.26300
9632360,0.07000,91.3750,97,55,0.25861
9632370,0.01000,90.3750,97,55,0.25665
9632380,-0.03500,89.2500,97,55,0.25470
9632390,-0.07000,88.1250,97,55,0.25397
9632400,-0.08500,85.8125,97,55,0.25299
9632410,-0.10000,84.5625,97,55,0.25177
9632420,-0.10500,83.3125,97,55,0.25031
9632430,-0.11000,82.0000,97,55,0.24860
9632440,-0.11000,82.0000,97,55,0.24860
9632450,-0.11500,77.7500,97,55,0.24249
9632460,-0.11500,76.1875,97,55,0.24103
9632470,-0.11500,74.6250,97,55,0.24029
9632480,-0.11500,71.6875,97,55,0.24347
9632490,-0.11500,70.3750,97,55,0.24811
9632500,-0.11500,69.1875,97,55,0.25495
9632510,-0.12000,68.0625,97,55,0.26496
9632520,-0.12000,66.0625,97,55,0.29621
9632530,-0.11500,65.2500,97,55,0.31746
9632540,-0.11000,64.5625,97,55,0.34237
9632550,-0.10500,63.9375,97,55,0.36996
9632560,-0.09500,63.0000,97,55,0.43028
9632570,-0.07500,62.6250,97,55,0.46129
9632580,-0.06000,62.3125,97,55,0.49206
9632590,-0.05500,62.0625,97,55,0.51795
9632600,-0.02500,61.5625,97,55,0.56435
9632610,-0.01000,61.3750,97,55,0.58681
9632620,-0.02500,61.1875,97,55,0.60708
9632630,-0.05000,61.0625,97,55,0.62491
9632640,-0.07500,60.8125,97,55,0.65226
9632650,-0.11500,60.6875,97,55,0.66203
9632660,-0.15000,60.5625,97,55,0.66935
9632670,-0.16000,60.4375,97,55,0.67424
9632680,-0.16000,60.1875,97,55,0.67790
9632690,-0.15500,60.0625,97,55,0.67643
9632700,-0.14500,59.8750,97,55,0.67326
9632710,-0.14000,59.6875,97,55,0.66935
9632720,-0.13500,59.2500,97,55,0.65788
9632730,-0.19000,59.0000,97,55,0.65031
9632740,-0.19000,59.0000,97,55,0.65031
9632750,0.14500,58.5625,97,55,0.63126
9632760,0.14500,58.5625,97,55,0.63126
9632770,1.59000,58.0000,97,55,0.59487
9632780,1.30000,57.8125,97,55,0.58120
9632790,0.38000,57.5625,97,55,0.56850
9632800,-0.20500,57.1250,97,55,0.53944
9632810,-0.31500,56.8750,97,55,0.52063
9632820,-0.28000,56.6875,97,55,0.50476
9632830,-0.25000,56.4375,97,55,0.49035
9632840,-0.25000,56.4375,97,55,0.49035
9632850,-0.23000,55.7500,97,55,0.45226
9632860,-0.21500,55.5000,97,55,0.44054
9632870,-0.21000,55.2500,97,55,0.42955
9632880,-0.20000,54.7500,97,55,0.40904
9632890,-0.19500,54.5000,97,55,0.40073
9632900,-0.18500,54.3125,97,55,0.39365
9632910,-0.18000,54.0625,97,55,0.38632
9632920,-0.17000,53.6875,97,55,0.37216
9632930,-0.16000,53.4375,97,55,0.36581
9632940,-0.15500,53.2500,97,55,0.35995
9632950,-0.14500,53.1250,97,55,0.35458
9632960,-0.13500,53.4375,97,55,0.34481
9632970,-0.12000,54.2500,97,55,0.34042
9632980,-0.10000,55.8750,97,55,0.33602
9632990,-0.08000,58.4375,97,55,0.33260
9633000,-0.06000,66.1875,97,55,0.32625
9633010,-0.04000,70.8125,97,55,0.32283
9633020,-0.01500,75.3125,97,55,0.31917
9633030,0.00500,79.5000,97,55,0.31575
9633040,0.03500,86.4375,97,55,0.30891
9633050,0.06500,89.0625,97,55,0.30549
9633060,0.09500,91.1250,97,55,0.30208
9633070,0.12500,92.6875,97,55,0.29915
9633080,0.15500,94.4375,97,55,0.29280
9633090,0.18500,94.7500,97,55,0.29084
9633100,0.21500,94.8125,97,55,0.28938
9633110,0.23000,94.6875,97,55,0.28718
9633120,0.20500,93.8750,97,55,0.28254
9633130,0.15000,93.2500,97,55,0.28010
9633140,0.08000,92.5000,97,55,0.27766
9633150,0.01000,91.6250,97,55,0.27521
9633160,-0.03500,89.6875,97,55,0.27009
9633170,-0.07500,88.6250,97,55,0.26789
9633180,-0.09500,87.5000,97,55,0.26569
9633190,-0.10500,86.2500,97,55,0.26471
9633200,-0.11000,83.8125,97,55,0.26300
9633210,-0.11000,82.5625,97,55,0.26129
9633220,-0.11000,81.2500,97,55,0.25958
9633230,-0.11000,79.8750,97,55,0.25763
9633240,-0.11000,76.9375,97,55,0.25446
9633250,-0.11000,75.4375,97,55,0.25324
9633260,-0.11500,73.9375,97,55,0.25275
9633270,-0.11500,72.5000,97,55,0.25372
9633280,-0.11500,69.8750,97,55,0.26300
9633290,-0.11500,68.7500,97,55,0.27106
9633300,-0.11500,67.6875,97,55,0.28132
9633310,-0.12000,66.6875,97,55,0.29573
9633320,-0.11500,65.1250,97,55,0.33553
9633330,-0.11000,64.5000,97,55,0.36044
9633340,-0.10500,64.0000,97,55,0.38755
9633350,-0.09000,63.5000,97,55,0.41612
9633360,-0.07000,62.7500,97,55,0.47399
9633370,-0.06000,62.4375,97,55,0.50183
9633380,-0.04500,62.1250,97,55,0.52821
9633390,-0.02000,61.9375,97,55,0.54945
9633400,-0.01500,61.5000,97,55,0.58535
9633410,-0.03500,61.3125,97,55,0.60244
9633420,-0.06500,61.1875,97,55,0.61734
9633430,-0.09000,61.0625,97,55,0.63004
9633440,-0.12500,60.7500,97,55,0.64786
9633450,-0.15500,60.6250,97,55,0.65324
9633460,-0.17000,60.4375,97,55,0.65641
9633470,-0.16500,60.2500,97,55,0.65763
9633480,-0.15500,59.8750,97,55,0.65495
9633490,-0.15000,59.7500,97,55,0.65128
9633500,-0.14500,59.5625,97,55,0.64664
9633510,-0.15500,59.3750,97,55,0.63810
9633520,-0.21500,59.0000,97,55,0.62344
9633530,-0.13500,58.7500,97,55,0.61001
9633540,0.34000,58.5625,97,55,0.59976
9633550,1.18000,58.3125,97,55,0.58852
9633560,1.63000,57.8750,97,55,0.56435
9633570,1.04000,57.6250,97,55,0.55165
9633580,0.15000,57.3750,97,55,0.53993
9633590,-0.27000,57.1250,97,55,0.52869
9633600,-0.31500,56.6250,97,55,0.50379
9633610,-0.28000,56.4375,97,55,0.49109
9633620,-0.26000,56.1875,97,55,0.47863
9633630,-0.25000,55.9375,97,55,0.46642
9633640,-0.24000,55.5000,97,55,0.44298
9633650,-0.24000,55.5000,97,55,0.44298
9633660,-0.22000,55.0625,97,55,0.42198
9633670,-0.21000,54.8750,97,55,0.41245
9633680,-0.20500,54.5000,97,55,0.39780
9633690,-0.20000,54.2500,97,55,0.39096
9633700,-0.19000,54.0625,97,55,0.38413
9633710,-0.18000,53.8125,97,55,0.37729
9633720,-0.17000,53.4375,97,55,0.36484
9633730,-0.16500,53.3750,97,55,0.35922
9633740,-0.15500,53.4375,97,55,0.35385
9633750,-0.14500,53.7500,97,55,0.34896
9633760,-0.12500,56.3125,97,55,0.33797
9633770,-0.11000,59.0000,97,55,0.33455
9633780,-0.09000,62.6250,97,55,0.32967
9633790,-0.07500,67.0000,97,55,0.32698
9633800,-0.07500,67.0000,97,55,0.32698
9633810,-0.02500,80.8125,97,55,0.31746
9633820,0.00500,84.7500,97,55,0.31477
9633830,0.03500,88.1250,97,55,0.31184
9633840,0.06000,93.0625,97,55,0.30525
9633850,0.09000,94.6250,97,55,0.30232
9633860,0.12000,95.7500,97,55,0.30037
9633870,0.15000,96.5000,97,55,0.29768
9633880,0.17500,97.0625,97,55,0.29280
9633890,0.20000,97.0625,97,55,0.28864
9633900,0.20500,96.8125,97,55,0.28596
9633910,0.17500,96.4375,97,55,0.28327
9633920,0.11500,95.2500,97,55,0.27839
9633930,0.04500,94.5000,97,55,0.27595
9633940,-0.01500,93.6250,97,55,0.27350
9633950,-0.06500,92.6250,97,55,0.27131
9633960,-0.09500,90.5000,97,55,0.26935
9633970,-0.11000,89.3125,97,55,0.26789
9633980,-0.12500,88.1875,97,55,0.26569
9633990,-0.12500,86.9375,97,55,0.26349
9634000,-0.12500,86.9375,98,55,0.26349
9634010,-0.13000,83.0000,98,55,0.25910
9634020,-0.13000,81.6250,98,55,0.26007
9634030,-0.13500,80.1250,98,55,0.26349
9634040,-0.13000,77.0000,98,55,0.27985
9634050,-0.13000,75.5000,98,55,0.29182
9634060,-0.13000,74.0000,98,55,0.30623
9634070,-0.13500,72.6875,98,55,0.32527
9634080,-0.13500,70.2500,98,55,0.37436
9634090,-0.13500,69.1250,98,55,0.40293
9634100,-0.13500,68.1250,98,55,0.43272
9634110,-0.13500,67.2500,98,55,0.46325
9634120,-0.12500,65.8750,98,55,0.52259
9634130,-0.11500,65.3125,98,55,0.55043
9634140,-0.09000,64.8750,98,55,0.57631
9634150,-0.08000,64.4375,98,55,0.59976
9634160,-0.07000,63.8125,98,55,0.63223
9634170,-0.04500,63.5625,98,55,0.64664
9634180,-0.03500,63.3125,98,55,0.65983
9634190,-0.05000,63.1875,98,55,0.67082
9634200,-0.07000,62.8750,98,55,0.68669
9634210,-0.09500,62.7500,98,55,0.69133
9634220,-0.13000,62.6250,98,55,0.69402
9634230,-0.16500,62.5000,98,55,0.69499
9634240,-0.17500,62.2500,98,55,0.69231
9634250,-0.17500,62.0625,98,55,0.68864
9634260,-0.17000,61.9375,98,55,0.68352
9634270,-0.16000,61.7500,98,55,0.67766
9634280,-0.15000,61.4375,98,55,0.66325
9634290,-0.16000,61.2500,98,55,0.65495
9634300,-0.21500,61.0625,98,55,0.64542
9634310,-0.17000,60.8125,98,55,0.63516
9634320,0.25500,60.3125,98,55,0.61197
9634330,1.09500,60.1250,98,55,0.59927
9634340,1.69500,59.9375,98,55,0.58608
9634350,1.24500,59.7500,98,55,0.57289
9634360,0.29000,59.2500,98,55,0.54896
9634370,-0.24500,59.0625,98,55,0.53651
9634380,-0.34000,58.8750,98,55,0.52405
9634390,-0.30000,58.6250,98,55,0.51160
9634400,-0.28000,58.1250,98,55,0.48816
9634410,-0.27000,57.9375,98,55,0.47741
9634420,-0.25500,57.6250,98,55,0.46691
9634430,-0.24500,57.3750,98,55,0.45665
9634440,-0.23000,56.8750,98,55,0.43785
9634450,-0.22500,56.6875,98,55,0.43028
9634460,-0.21500,56.4375,98,55,0.42344
9634470,-0.21000,56.2500,98,55,0.41636
9634480,-0.20500,55.8125,98,55,0.40342
9634490,-0.20000,55.5625,98,55,0.39756
9634500,-0.19000,55.3750,98,55,0.39219
9634510,-0.18000,55.2500,98,55,0.38755
9634520,-0.17000,55.3125,98,55,0.37949
9634530,-0.16000,56.0000,98,55,0.37582
9634540,-0.14500,57.3750,98,55,0.37216
9634550,-0.12500,59.8750,98,55,0.36874
9634560,-0.10500,67.7500,98,55,0.36386
9634570,-0.08500,72.5625,98,55,0.36117
9634580,-0.06000,77.5000,98,55,0.35824
9634590,-0.03500,82.1250,98,55,0.35531
9634600,-0.03500,82.1250,98,55,0.35531
9634610,0.02000,93.0625,98,55,0.34676
9634620,0.05000,95.5000,98,55,0.34408
9634630,0.08000,97.3750,98,55,0.34115
9634640,0.11000,99.6250,98,55,0.33480
9634650,0.14000,100.1875,98,55,0.33260
9634660,0.17000,100.4375,98,55,0.33089
9634670,0.19500,100.5000,98,55,0.32869
9634680,0.20000,100.0625,98,55,0.32430
9634690,0.17500,99.5000,98,55,0.32234
9634700,0.12000,98.8125,98,55,0.32015
9634710,0.05500,97.9375,98,55,0.31770
9634720,-0.00500,95.9375,98,55,0.31282
9634730,-0.05500,94.8125,98,55,0.31038
9634740,-0.08500,93.6875,98,55,0.30794
9634750,-0.10500,92.5625,98,55,0.30549
9634760,-0.12000,90.1875,98,55,0.30256
9634770,-0.13000,89.0000,98,55,0.30110
9634780,-0.13000,87.7500,98,55,0.29988
9634790,-0.13000,86.4375,98,55,0.29939
9634800,-0.12500,83.6250,98,55,0.30330
9634810,-0.12500,82.0625,98,55,0.30940
9634820,-0.12500,80.5625,98,55,0.32088
9634830,-0.12500,79.0000,98,55,0.33748
9634840,-0.12500,76.0000,98,55,0.38095
9634850,-0.12500,74.6250,98,55,0.40391
9634860,-0.12000,73.3750,98,55,0.42759
9634870,-0.12500,72.2500,98,55,0.45641
9634880,-0.12500,70.2500,98,55,0.52186
9634890,-0.12000,69.3750,98,55,0.55531
9634900,-0.11500,68.6250,98,55,0.58828
9634910,-0.11000,68.0000,98,55,0.62002
9634920,-0.08500,66.9375,98,55,0.67717
9634930,-0.07500,66.5625,98,55,0.70159
9634940,-0.06500,66.1875,98,55,0.72332
9634950,-0.05000,65.9375,98,55,0.74188
9634960,-0.02500,65.4375,98,55,0.76435
9634970,-0.03000,65.2500,98,55,0.77338
9634980,-0.05500,65.0625,98,55,0.78095
9634990,-0.07500,64.9375,98,55,0.78657
9635000,-0.10500,64.6250,98,55,0.79194
9635010,-0.14500,64.4375,98,55,0.79170
9635020,-0.16000,64.3125,98,55,0.78999
9635030,-0.17000,64.1250,98,55,0.78681
9635040,-0.16500,63.6875,98,55,0.77582
9635050,-0.15500,63.5000,98,55,0.76825
9635060,-0.14500,63.3125,98,55,0.75995
9635070,-0.14500,63.1250,98,55,0.75043
9635080,-0.19000,62.6875,98,55,0.72845
9635090,-0.17000,62.5000,98,55,0.71624
9635100,0.21500,62.2500,98,55,0.70330
9635110,1.02500,62.0000,98,55,0.68962
9635120,1.71500,61.5625,98,55,0.66081
9635130,1.39500,61.2500,98,55,0.64591
9635140,0.43000,60.9375,98,55,0.63077
9635150,-0.19500,60.6250,98,55,0.61563
9635160,-0.33000,60.0000,98,55,0.58926
9635170,-0.30000,59.6875,98,55,0.57607
9635180,-0.27500,59.3750,98,55,0.56239
9635190,-0.26500,59.0625,98,55,0.54896
9635200,-0.25000,58.5000,98,55,0.52405
9635210,-0.24500,58.2500,98,55,0.51233
9635220,-0.23000,57.9375,98,55,0.50159
9635230,-0.22500,57.6875,98,55,0.49158
9635240,-0.21500,57.0625,98,55,0.47350
9635250,-0.21000,56.7500,98,55,0.46642
9635260,-0.20000,56.5000,98,55,0.46032
9635270,-0.19500,56.1875,98,55,0.45372
9635280,-0.18500,55.6875,98,55,0.44103
9635290,-0.17500,55.5000,98,55,0.43492
9635300,-0.16000,55.4375,98,55,0.42906
9635310,-0.15500,55.6250,98,55,0.42320
9635320,-0.14000,57.8125,98,55,0.41270
9635330,-0.12500,60.4375,98,55,0.40781
9635340,-0.10500,64.0625,98,55,0.40317
9635350,-0.08500,68.5625,98,55,0.39951
9635360,-0.06000,78.3750,98,55,0.39267
9635370,-0.03500,82.9375,98,55,0.38877
9635380,-0.00500,87.0625,98,55,0.38462
9635390,0.02000,90.6250,98,55,0.38046
9635400,0.05000,95.8750,98,55,0.37241
9635410,0.08000,97.5625,98,55,0.36874
9635420,0.10500,98.6875,98,55,0.36484
9635430,0.13500,99.4375,98,55,0.36117
9635440,0.13500,99.4375,98,55,0.36117
9635450,0.19500,99.8750,98,55,0.35140
9635460,0.20500,99.5625,98,55,0.34896
9635470,0.18500,99.0625,98,55,0.34603
9635480,0.14000,97.5625,98,55,0.33993
9635490,0.08000,96.6250,98,55,0.33700
9635500,0.08000,96.6250,98,55,0.33700
9635510,-0.02500,94.5625,98,55,0.33114
9635520,-0.06000,92.2500,98,55,0.32479
9635530,-0.08500,91.0000,98,55,0.32161
9635540,-0.09500,89.7500,98,55,0.31868
9635550,-0.10500,88.4375,98,55,0.31673
9635560,-0.11000,85.6875,98,55,0.31429
9635570,-0.11500,84.2500,98,55,0.31355
9635580,-0.11500,82.7500,98,55,0.31453
9635590,-0.11500,81.1875,98,55,0.31795
9635600,-0.11500,77.8750,98,55,0.33504
9635610,-0.12000,76.2500,98,55,0.34994
9635620,-0.12000,74.6875,98,55,0.36899
9635630,-0.11500,73.3125,98,55,0.39243
9635640,-0.12000,70.7500,98,55,0.44884
9635650,-0.12000,70.7500,98,55,0.44884
9635660,-0.12000,68.6250,98,55,0.50134
9635670,-0.11500,67.7500,98,55,0.53065
9635680,-0.10500,66.3125,98,55,0.59170
9635690,-0.09500,65.7500,98,55,0.62100
9635700,-0.07000,65.2500,98,55,0.64860
9635710,-0.06000,64.8750,98,55,0.67375
9635720,-0.05500,64.1875,98,55,0.71575
9635730,-0.03500,63.8750,98,55,0.73236
9635740,-0.01500,63.6875,98,55,0.74652
9635750,-0.03500,63.5000,98,55,0.75604
9635760,-0.05500,63.1875,98,55,0.76728
9635770,-0.08000,63.0000,98,55,0.77094
9635780,-0.11500,62.8125,98,55,0.77265
9635790,-0.14500,62.6250,98,55,0.77241
9635800,-0.16000,62.2500,98,55,0.76679
9635810,-0.16000,62.0625,98,55,0.76142
9635820,-0.15500,61.8750,98,55,0.75482
9635830,-0.15000,61.6875,98,55,0.74701
9635840,-0.15000,61.6875,98,55,0.74701
9635850,-0.14000,61.0625,98,55,0.71673
9635860,-0.19500,60.8125,98,55,0.70549
9635870,-0.15500,60.5625,98,55,0.69280
9635880,0.27500,60.0625,98,55,0.66325
9635890,1.11500,59.8750,98,55,0.64713
9635900,1.66500,59.6250,98,55,0.63053
9635910,1.15500,59.4375,98,55,0.61368
9635920,0.21500,58.9375,98,55,0.58022
9635930,-0.26000,58.6875,98,55,0.56337
9635940,-0.32500,58.4375,98,55,0.54676
9635950,-0.28000,58.1875,98,55,0.53236
9635960,-0.25500,57.6875,98,55,0.50574
9635970,-0.24500,57.3750,98,55,0.49206
9635980,-0.23000,57.1250,98,55,0.47863
9635990,-0.22000,56.8750,98,55,0.46545
9636000,-0.21000,56.3750,97,55,0.44151
9636010,-0.20500,56.0625,97,55,0.43077
9636020,-0.20000,55.8125,97,55,0.42076
9636030,-0.19000,55.5625,97,55,0.41148
9636040,-0.18000,55.0625,97,55,0.39560
9636050,-0.17500,54.8125,97,55,0.38999
9636060,-0.16500,54.5625,97,55,0.38510
9636070,-0.15500,54.3750,97,55,0.37973
9636080,-0.14500,54.3125,97,55,0.36874
9636090,-0.13500,54.6250,97,55,0.36337
9636100,-0.12000,55.4375,97,55,0.35800
9636110,-0.10500,57.0625,97,55,0.35287
9636120,-0.08500,63.2500,97,55,0.34310
9636130,-0.06500,67.5625,97,55,0.33846
9636140,-0.04500,72.2500,97,55,0.33407
9636150,-0.02000,76.8125,97,55,0.33089
9636160,0.00500,84.8125,97,55,0.32503
9636170,0.03000,88.0000,97,55,0.32210
9636180,0.06000,90.5625,97,55,0.31917
9636190,0.09500,92.5625,97,55,0.31600
9636200,0.12500,94.8750,97,55,0.30916
9636210,0.15500,95.4375,97,55,0.30549
9636220,0.19500,95.6250,97,55,0.30208
9636230,0.22500,95.5625,97,55,0.29866
9636240,0.23500,94.8750,97,55,0.29158
9636250,0.21500,94.3125,97,55,0.28913
9636260,0.16000,93.6250,97,55,0.28742
9636270,0.09000,92.8125,97,55,0.28474
9636280,0.02500,90.8125,97,55,0.27814
9636290,-0.02500,89.6875,97,55,0.27448
9636300,-0.06000,88.5625,97,55,0.27106
9636310,-0.08500,87.3125,97,55,0.26789
9636320,-0.09500,84.8750,97,55,0.26129
9636330,-0.10000,83.5000,97,55,0.25836
9636340,-0.10500,82.1875,97,55,0.25592
9636350,-0.11000,80.7500,97,55,0.25519
9636360,-0.11000,77.7500,97,55,0.25739
9636370,-0.11000,76.1875,97,55,0.26105
9636380,-0.11000,74.6250,97,55,0.26764
9636390,-0.11000,73.1250,97,55,0.27741
9636400,-0.11500,70.3750,97,55,0.30818
9636410,-0.11500,69.1250,97,55,0.32894
9636420,-0.11500,68.0000,97,55,0.35311
9636430,-0.11500,66.9375,97,55,0.37998
9636440,-0.11500,66.9375,97,55,0.37998
9636450,-0.11000,64.5625,97,55,0.46642
9636460,-0.10500,63.9375,97,55,0.49158
9636470,-0.09500,63.4375,97,55,0.51917
9636480,-0.07500,62.5625,97,55,0.57265
9636490,-0.05500,62.2500,97,55,0.59683
9636500,-0.05000,62.0000,97,55,0.61832
9636510,-0.02500,61.7500,97,55,0.63687
9636520,-0.01000,61.3750,97,55,0.66496
9636530,-0.01500,61.1875,97,55,0.67473
9636540,-0.04500,61.0625,97,55,0.68181
9636550,-0.06500,60.9375,97,55,0.68547
9636560,-0.10500,60.7500,97,55,0.68767
9636570,-0.14000,60.6250,97,55,0.68694
9636580,-0.15500,60.4375,97,55,0.68474
9636590,-0.16000,60.2500,97,55,0.68059
9636600,-0.15500,60.0000,97,55,0.66862
9636610,-0.14500,59.8750,97,55,0.66056
9636620,-0.13500,59.6875,97,55,0.65153
9636630,-0.13000,59.5000,97,55,0.64127
9636640,-0.17000,59.0625,97,55,0.61758
9636650,-0.20000,58.8750,97,55,0.60562
9636660,0.07000,58.6875,97,55,0.59341
9636670,0.78500,58.5000,97,55,0.57998
9636680,1.53000,58.0625,97,55,0.55067
9636690,1.40500,57.8125,97,55,0.53578
9636700,0.49500,57.6250,97,55,0.52112
9636710,-0.17000,57.3750,97,55,0.50672
9636720,-0.31500,56.8750,97,55,0.47912
9636730,-0.28000,56.6250,97,55,0.46593
9636740,-0.25000,56.3750,97,55,0.45348
9636750,-0.24000,56.1250,97,55,0.44274
9636760,-0.23000,55.6250,97,55,0.42344
9636770,-0.22000,55.3750,97,55,0.41343
9636780,-0.21000,55.1875,97,55,0.40391
9636790,-0.20000,54.9375,97,55,0.39487
9636800,-0.19000,54.4375,97,55,0.37949
9636810,-0.18500,54.1875,97,55,0.37265
9636820,-0.18000,53.9375,97,55,0.36654
9636830,-0.17000,53.6875,97,55,0.36093
9636840,-0.17000,53.6875,97,55,0.36093
9636850,-0.15500,53.1250,97,55,0.34676
9636860,-0.14500,53.0625,97,55,0.34359
9636870,-0.13000,53.1250,97,55,0.33748
9636880,-0.11500,54.5625,97,55,0.32552
9636890,-0.10000,56.3750,97,55,0.32137
9636900,-0.07500,59.1875,97,55,0.31795
9636910,-0.05500,62.9375,97,55,0.31477
9636920,-0.04000,71.8750,97,55,0.30940
9636930,-0.01500,76.3125,97,55,0.30672
9636940,0.01000,80.3750,97,55,0.30427
9636950,0.04000,83.9375,97,55,0.30256
9636960,0.07000,89.4375,97,55,0.29915
9636970,0.10000,91.3750,97,55,0.29670
9636980,0.13000,92.6875,97,55,0.29426
9636990,0.16000,93.5625,97,55,0.29158
9637000,0.19500,94.1250,97,55,0.28645
9637010,0.22500,94.0625,97,55,0.28376
9637020,0.24000,93.8125,97,55,0.28132
9637030,0.22500,93.3750,97,55,0.27863
9637040,0.16500,92.1250,97,55,0.27302
9637050,0.10000,91.3125,97,55,0.27106
9637060,0.03000,90.3750,97,55,0.26935
9637070,-0.02500,89.3750,97,55,0.26691
9637080,-0.06500,87.1250,97,55,0.26129
9637090,-0.08500,85.9375,97,55,0.25836
9637100,-0.10000,84.7500,97,55,0.25543
9637110,-0.10500,83.5000,97,55,0.25275
9637120,-0.11000,80.8750,97,55,0.24860
9637130,-0.11000,79.5000,97,55,0.24713
9637140,-0.11000,78.0625,97,55,0.24713
9637150,-0.11000,76.5625,97,55,0.24908
9637160,-0.11000,73.4375,97,55,0.25885
9637170,-0.11000,71.9375,97,55,0.26813
9637180,-0.11500,70.5625,97,55,0.28083
9637190,-0.11500,69.3125,97,55,0.29744
9637200,-0.11500,67.0000,97,55,0.34066
9637210,-0.11500,66.0000,97,55,0.36630
9637220,-0.11500,65.1250,97,55,0.39390
9637230,-0.11500,65.1250,97,55,0.39390
9637240,-0.11000,63.1875,97,55,0.47692
9637250,-0.10000,62.7500,97,55,0.49939
9637260,-0.07500,62.3125,97,55,0.52332
9637270,-0.06500,62.0000,97,55,0.54701
9637280,-0.05500,61.5000,97,55,0.58926
9637290,-0.02500,61.3125,97,55,0.60659
9637300,-0.01500,61.1250,97,55,0.62125
9637310,-0.01500,61.1250,97,55,0.62125
9637320,-0.05500,60.6875,97,55,0.65079
9637330,-0.08500,60.5625,97,55,0.65568
9637340,-0.12500,60.4375,97,55,0.65836
9637350,-0.15500,60.3125,97,55,0.65836
9637360,-0.15500,60.3125,97,55,0.65836
9637370,-0.17000,59.8750,97,55,0.65006
9637380,-0.16500,59.7500,97,55,0.64518
9637390,-0.16500,59.7500,97,55,0.64518
9637400,-0.14500,59.3125,97,55,0.62442
9637410,-0.15000,59.1250,97,55,0.61538
9637420,-0.21000,58.8750,97,55,0.60513
9637430,-0.19000,58.6875,97,55,0.59389
9637440,0.20000,58.2500,97,55,0.57021
9637450,1.01000,58.0000,97,55,0.55897
9637460,1.60500,57.8125,97,55,0.54676
9637470,1.22500,57.6250,97,55,0.53407
9637480,0.29000,57.1875,97,55,0.50794
9637490,-0.24000,57.0000,97,55,0.49499
9637500,-0.32500,56.7500,97,55,0.48230
9637510,-0.28500,56.5625,97,55,0.46984
9637520,-0.26000,56.0625,97,55,0.44664
9637530,-0.24500,55.8125,97,55,0.43590
9637540,-0.23500,55.5625,97,55,0.42564
9637550,-0.22500,55.3125,97,55,0.41734
9637560,-0.22000,54.8125,97,55,0.40244
9637570,-0.21000,54.5625,97,55,0.39487
9637580,-0.20000,54.3125,97,55,0.38803
9637590,-0.19000,54.1250,97,55,0.38169
9637600,-0.18000,53.6875,97,55,0.36996
9637610,-0.17500,53.4375,97,55,0.36459
9637620,-0.17000,53.2500,97,55,0.35946
9637630,-0.16000,53.1250,97,55,0.35482
9637640,-0.15000,53.0625,97,55,0.34701
9637650,-0.13500,53.5000,97,55,0.34432
9637660,-0.12000,54.5000,97,55,0.34139
9637670,-0.10500,56.3125,97,55,0.33822
9637680,-0.08500,62.9375,97,55,0.33236
9637690,-0.06500,67.3125,97,55,0.32943
9637700,-0.04500,71.8750,97,55,0.32650
9637710,-0.01500,76.3750,97,55,0.32357
9637720,0.00500,84.1250,97,55,0.31746
9637730,0.03500,87.1875,97,55,0.31453
9637740,0.06500,89.6250,97,55,0.31184
9637750,0.09500,91.5625,97,55,0.31013
9637760,0.12000,93.9375,97,55,0.30672
9637770,0.15000,94.5625,97,55,0.30427
9637780,0.18500,94.8750,97,55,0.30159
9637790,0.21000,95.0000,97,55,0.29841
9637800,0.21000,95.0000,97,55,0.29841
9637810,0.19500,94.1875,97,55,0.29011
9637820,0.13500,93.5625,97,55,0.28742
9637830,0.13500,93.5625,97,55,0.28742
9637840,0.00000,90.9375,97,55,0.28083
9637850,-0.04500,89.9375,97,55,0.27985
9637860,-0.07500,88.8125,97,55,0.27790
9637870,-0.09500,87.6875,97,55,0.27570
9637880,-0.10500,85.3125,97,55,0.27106
9637890,-0.11500,84.1250,97,55,0.26862
9637900,-0.12000,82.8750,97,55,0.26667
9637910,-0.12000,81.5625,97,55,0.26545
9637920,-0.11500,78.6875,97,55,0.26642
9637930,-0.11500,77.1875,97,55,0.27009
9637940,-0.12500,75.6250,97,55,0.27668
9637950,-0.12500,74.0625,97,55,0.28523
9637960,-0.12000,71.1875,97,55,0.31087
9637970,-0.12000,69.9375,97,55,0.32991
9637980,-0.12500,68.7500,97,55,0.35214
9637990,-0.12500,67.6875,97,55,0.37753
9638000,-0.12500,65.8750,97,55,0.43346
9638010,-0.12500,65.8750,97,55,0.43346
9638020,-0.11500,64.5000,97,55,0.49133
9638030,-0.10000,64.0000,97,55,0.51941
9638040,-0.10000,64.0000,97,55,0.51941
9638050,-0.07500,62.8125,97,55,0.58681
9638060,-0.05500,62.5625,97,55,0.60562
9638070,-0.02500,62.3125,97,55,0.62344
9638080,-0.02500,61.9375,97,55,0.65201
9638090,-0.02500,61.9375,97,55,0.65201
9638100,-0.07500,61.6875,97,55,0.67082
9638110,-0.10500,61.5625,97,55,0.67668
9638120,-0.14500,61.3750,97,55,0.68205
9638130,-0.17000,61.2500,97,55,0.68205
9638140,-0.17000,61.2500,97,55,0.68205
9638150,-0.17000,61.0000,97,55,0.67692
9638160,-0.16500,60.6875,97,55,0.66716
9638170,-0.15500,60.5000,97,55,0.66081
9638180,-0.14500,60.3750,97,55,0.65348
9638190,-0.17000,60.1875,97,55,0.64493
9638200,-0.23500,59.7500,97,55,0.62466
9638210,-0.09500,59.5625,97,55,0.61319
9638220,0.50500,59.3750,97,55,0.60098
9638230,1.36500,59.1875,97,55,0.58852
9638240,1.60000,58.8125,97,55,0.56361
9638250,0.87500,58.6250,97,55,0.55189
9638260,0.02500,58.3750,97,55,0.53895
9638270,-0.32000,58.1250,97,55,0.52576
9638280,-0.32500,57.6875,97,55,0.49866
9638290,-0.29000,57.5000,97,55,0.48571
9638300,-0.27000,57.3125,97,55,0.47326
9638310,-0.26000,57.0625,97,55,0.46129
9638320,-0.25000,56.6250,97,55,0.43956
9638330,-0.23500,56.3750,97,55,0.42979
9638340,-0.23000,56.1250,97,55,0.42076
9638350,-0.22000,55.9375,97,55,0.41343
9638360,-0.21000,55.5000,97,55,0.40049
9638370,-0.20500,55.2500,97,55,0.39390
9638380,-0.20000,55.0000,97,55,0.38779
9638390,-0.19000,54.8125,97,55,0.38193
9638400,-0.18000,54.4375,97,55,0.37192
9638410,-0.16500,54.4375,97,55,0.36728
9638420,-0.15500,54.6250,97,55,0.36288
9638430,-0.14500,55.2500,97,55,0.35873
9638440,-0.14500,55.2500,97,55,0.35873
9638450,-0.11000,62.3125,97,55,0.34872
9638460,-0.09500,66.5625,97,55,0.34554
9638470,-0.07000,71.2500,97,55,0.34261
9638480,-0.05000,80.6250,97,55,0.33651
9638490,-0.02500,84.8125,97,55,0.33333
9638500,0.00500,88.4375,97,55,0.33016
9638510,0.03500,91.5000,97,55,0.32698
9638520,0.06500,95.6875,97,55,0.32112
9638530,0.09000,96.9375,97,55,0.31795
9638540,0.12000,97.7500,97,55,0.31477
9638550,0.15000,98.1875,97,55,0.31258
9638560,0.18500,98.3750,97,55,0.30842
9638570,0.20500,98.1875,97,55,0.30574
9638580,0.19000,97.8125,97,55,0.30330
9638590,0.15500,97.2500,97,55,0.30085
9638600,0.09500,95.7500,97,55,0.29621
9638610,0.03000,94.8750,97,55,0.29402
9638620,-0.02500,93.9375,97,55,0.29158
9638630,-0.07000,92.8750,97,55,0.28889
9638640,-0.10000,90.6875,97,55,0.28425
9638650,-0.11500,89.5000,97,55,0.28303
9638660,-0.12500,88.3125,97,55,0.28156
9638670,-0.12500,87.0625,97,55,0.27985
9638680,-0.12500,84.4375,97,55,0.27692
9638690,-0.12500,83.1250,97,55,0.27717
9638700,-0.12500,81.6250,97,55,0.27937
9638710,-0.12500,80.1250,97,55,0.28400
9638720,-0.12500,76.9375,97,55,0.30379
9638730,-0.12500,75.4375,97,55,0.31941
9638740,-0.12500,74.0000,97,55,0.33871
9638750,-0.12500,72.6875,97,55,0.35849
9638760,-0.12500,70.3125,97,55,0.40488
9638770,-0.13000,69.2500,97,55,0.43321
9638780,-0.12500,68.3125,97,55,0.46325
9638790,-0.11500,67.5000,97,55,0.49402
9638800,-0.10500,66.1250,97,55,0.55360
9638810,-0.08000,65.6250,97,55,0.58095
9638820,-0.07000,65.1875,97,55,0.60611
9638830,-0.06500,64.8125,97,55,0.62857
9638840,-0.06500,64.8125,97,55,0.62857
9638850,-0.02500,63.9375,97,55,0.67448
9638860,-0.04500,63.7500,97,55,0.68547
9638870,-0.07000,63.6250,97,55,0.69548
9638880,-0.09500,63.3750,97,55,0.71038
9638890,-0.13000,63.3125,97,55,0.71477
9638900,-0.16000,63.1875,97,55,0.71722
9638910,-0.17500,63.0625,97,55,0.71770
9638920,-0.17500,62.8125,97,55,0.73236
9638930,-0.17000,62.6875,97,55,0.73382
9638940,-0.16000,62.5625,97,55,0.73114
9638950,-0.15000,62.3750,97,55,0.72601
9638960,-0.16000,61.9375,97,55,0.71087
9638970,-0.22000,61.7500,97,55,0.70134
9638980,-0.13000,61.5625,97,55,0.69060
9638990,0.38000,61.3750,97,55,0.67888
9639000,1.26000,60.9375,98,55,0.65299
9639010,1.74500,60.7500,98,55,0.63907
9639020,1.13000,60.5625,98,55,0.62491
9639030,0.17000,60.3125,98,55,0.61050
9639040,-0.28000,59.8750,98,55,0.58291
9639050,-0.33000,59.6875,98,55,0.57070
9639060,-0.30000,59.4375,98,55,0.55775
9639070,-0.28000,59.1250,98,55,0.54457
9639080,-0.27000,58.6250,98,55,0.51941
9639090,-0.25000,58.4375,98,55,0.50720
9639100,-0.24500,58.1875,98,55,0.49573
9639110,-0.23500,57.9375,98,55,0.48498
9639120,-0.23000,57.4375,98,55,0.46545
9639130,-0.22500,57.1875,98,55,0.45665
9639140,-0.22000,57.0000,98,55,0.44957
9639150,-0.21000,56.7500,98,55,0.44347
9639160,-0.20000,56.3125,98,55,0.43101
9639170,-0.19000,56.1250,98,55,0.42491
9639180,-0.18000,56.0000,98,55,0.41929
9639190,-0.17000,56.1250,98,55,0.41368
9639200,-0.15500,57.7500,98,55,0.40391
9639210,-0.13500,59.8750,98,55,0.39951
9639220,-0.12000,63.1250,98,55,0.39512
9639230,-0.10000,67.2500,98,55,0.39096
9639240,-0.08000,77.0625,98,55,0.38413
9639250,-0.05500,81.9375,98,55,0.38144
9639260,-0.03500,86.3750,98,55,0.37802
9639270,-0.00500,90.2500,98,55,0.37411
9639280,0.03000,96.0000,98,55,0.36703
9639290,0.06000,97.9375,98,55,0.36386
9639300,0.08000,99.3125,98,55,0.36044
9639310,0.11000,100.1875,98,55,0.35702
9639320,0.14000,101.0625,98,55,0.35018
9639330,0.16500,101.0625,98,55,0.34676
9639340,0.19000,100.9375,98,55,0.34432
9639350,0.19500,100.5625,98,55,0.34212
9639360,0.16000,99.3125,98,55,0.33626
9639370,0.11000,98.5625,98,55,0.33309
9639380,0.04500,97.6250,98,55,0.33016
9639390,-0.00500,96.5625,98,55,0.32723
9639400,-0.04500,94.3125,98,55,0.32210
9639410,-0.07500,93.1875,98,55,0.31966
9639420,-0.09500,91.9375,98,55,0.31722
9639430,-0.11000,90.6250,98,55,0.31502
9639440,-0.11500,87.9375,98,55,0.31184
9639450,-0.11500,86.5625,98,55,0.31184
9639460,-0.12000,85.0625,98,55,0.31233
9639470,-0.12000,83.5000,98,55,0.31429
9639480,-0.12000,80.2500,98,55,0.32650
9639490,-0.12000,78.6250,98,55,0.33797
9639500,-0.12000,77.0000,98,55,0.35336
9639510,-0.12000,75.4375,98,55,0.37314
9639520,-0.12000,72.6875,98,55,0.42344
9639530,-0.12000,71.4375,98,55,0.45299
9639540,-0.12000,70.3750,98,55,0.48010
9639550,-0.12000,69.4375,98,55,0.50598
9639560,-0.11500,67.7500,98,55,0.56581
9639570,-0.11500,67.1250,98,55,0.59609
9639580,-0.10000,66.5625,98,55,0.62515
9639590,-0.07500,66.0625,98,55,0.65226
9639600,-0.05500,65.3750,98,55,0.69915
9639610,-0.05500,65.0625,98,55,0.71868
9639620,-0.04000,64.8125,98,55,0.73578
9639630,-0.01500,64.5625,98,55,0.74994
9639640,-0.02500,64.1875,98,55,0.76850
9639650,-0.05000,64.0000,98,55,0.77241
9639660,-0.07500,63.8125,98,55,0.77558
9639670,-0.10500,63.6875,98,55,0.77778
9639680,-0.14000,63.3125,98,55,0.77802
9639690,-0.16000,63.1250,98,55,0.77582
9639700,-0.16000,62.9375,98,55,0.77216
9639710,-0.15500,62.6875,98,55,0.76703
9639720,-0.15000,62.2500,98,55,0.75287
9639730,-0.13500,62.0000,98,55,0.74359
9639740,-0.13500,61.8125,98,55,0.73358
9639750,-0.18500,61.5625,98,55,0.72283
9639760,-0.16000,61.0000,98,55,0.69841
9639770,0.21000,60.7500,98,55,0.68498
9639780,0.21000,60.7500,98,55,0.68498
9639790,1.68500,60.2500,98,55,0.65641
9639800,1.33500,59.6875,98,55,0.62662
9639810,0.38000,59.3750,98,55,0.61148
9639820,-0.21000,59.1875,98,55,0.59609
9639830,-0.32500,58.9375,98,55,0.58095
9639840,-0.29000,58.3750,98,55,0.55311
9639850,-0.27000,58.0625,98,55,0.54139
9639860,-0.25500,57.8125,98,55,0.52918
9639870,-0.24000,57.5000,98,55,0.51722
9639880,-0.23000,56.9375,98,55,0.49475
9639890,-0.22000,56.6250,98,55,0.48425
9639900,-0.22000,56.3750,98,55,0.47473
9639910,-0.21000,56.0625,98,55,0.46569
9639920,-0.20000,55.5625,98,55,0.44884
9639930,-0.19000,55.3750,98,55,0.44127
9639940,-0.18500,55.1250,98,55,0.43516
9639950,-0.17500,54.8750,98,55,0.43004
9639960,-0.17000,54.5625,98,55,0.41856
9639970,-0.15500,54.6250,98,55,0.41270
9639980,-0.14500,54.9375,98,55,0.40708
9639990,-0.12500,55.8750,98,55,0.40171
9640000,-0.11000,60.5625,97,55,0.39096
9640010,-0.09500,64.4375,97,55,0.38584
9640020,-0.07500,69.0625,97,55,0.38071
9640030,-0.07500,69.0625,97,55,0.38071
9640040,-0.02500,83.1875,97,55,0.36825
9640050,0.00000,87.0625,97,55,0.36557
9640060,0.03000,90.3125,97,55,0.36239
9640070,0.06000,92.8750,97,55,0.35873
9640080,0.08500,96.1875,97,55,0.35092
9640090,0.11500,97.0625,97,55,0.34701
9640100,0.14500,97.6250,97,55,0.34286
9640110,0.17500,97.8125,97,55,0.33846
9640120,0.20500,97.4375,97,55,0.33040
9640130,0.22000,96.9375,97,55,0.32650
9640140,0.22000,96.9375,97,55,0.32650
9640150,0.15500,95.5625,97,55,0.32112
9640160,0.09000,93.6875,97,55,0.31453
9640170,0.03000,92.6250,97,55,0.31111
9640180,-0.02000,91.4375,97,55,0.30769
9640190,-0.05500,90.1875,97,55,0.30427
9640200,-0.08500,87.7500,97,55,0.29695
9640210,-0.10000,86.5000,97,55,0.29280
9640220,-0.11000,85.1875,97,55,0.28889
9640230,-0.11500,83.8750,97,55,0.28547
9640240,-0.11500,81.1250,97,55,0.28230
9640250,-0.11500,79.6250,97,55,0.28327
9640260,-0.11500,78.0625,97,55,0.28547
9640270,-0.11500,76.4375,97,55,0.29035
9640280,-0.11500,73.3125,97,55,0.31013
9640290,-0.11500,71.9375,97,55,0.32576
9640300,-0.11500,70.6250,97,55,0.34554
9640310,-0.12000,69.5000,97,55,0.36899
9640320,-0.12000,67.4375,97,55,0.42418
9640330,-0.12500,66.6250,97,55,0.45446
9640340,-0.12000,65.8750,97,55,0.48132
9640350,-0.11000,65.1875,97,55,0.50623
9640360,-0.09500,64.1875,97,55,0.56117
9640370,-0.07500,63.7500,97,55,0.58730
9640380,-0.06000,63.3750,97,55,0.61148
9640390,-0.05500,63.0625,97,55,0.63321
9640400,-0.03500,62.5000,97,55,0.66813
9640410,-0.01500,62.3125,97,55,0.68156
9640420,-0.03000,62.1250,97,55,0.69206
9640430,-0.05500,62.0000,97,55,0.69988
9640440,-0.07500,61.6875,97,55,0.70794
9640450,-0.11000,61.5625,97,55,0.70842
9640460,-0.15000,61.3750,97,55,0.70818
9640470,-0.16000,61.2500,97,55,0.70672
9640480,-0.16500,60.8750,97,55,0.69915
9640490,-0.16000,60.6875,97,55,0.69304
9640500,-0.15500,60.5000,97,55,0.68571
9640510,-0.14000,60.3125,97,55,0.67717
9640520,-0.14000,59.8750,97,55,0.65714
9640530,-0.19000,59.6250,97,55,0.64591
9640540,-0.17500,59.4375,97,55,0.63492
9640550,0.16500,59.2500,97,55,0.62369
9640560,0.96500,58.8125,97,55,0.59805
9640570,1.62500,58.6250,97,55,0.58413
9640580,1.26000,58.4375,97,55,0.56972
9640590,0.32500,58.1875,97,55,0.55507
9640600,-0.22000,57.7500,97,55,0.52650
9640610,-0.32000,57.5000,97,55,0.51306
9640620,-0.27500,57.1875,97,55,0.50012
9640630,-0.24000,56.9375,97,55,0.48742
9640640,-0.23500,56.4375,97,55,0.46496
9640650,-0.22000,56.1875,97,55,0.45592
9640660,-0.21000,56.0000,97,55,0.44664
9640670,-0.20000,55.6875,97,55,0.43712
9640680,-0.19500,55.1875,97,55,0.41880
9640690,-0.19000,54.9375,97,55,0.41026
9640700,-0.18500,54.6875,97,55,0.40244
9640710,-0.18000,54.4375,97,55,0.39512
9640720,-0.17000,53.8750,97,55,0.38242
9640730,-0.16500,53.6875,97,55,0.37656
9640740,-0.15000,53.5000,97,55,0.37216
9640750,-0.14000,53.3750,97,55,0.36825
9640760,-0.12500,53.8125,97,55,0.35946
9640770,-0.11500,54.7500,97,55,0.35507
9640780,-0.10000,56.5000,97,55,0.35067
9640790,-0.08500,59.2500,97,55,0.34628
9640800,-0.06500,67.3125,97,55,0.33748
9640810,-0.04500,71.8750,97,55,0.33309
9640820,-0.02000,76.3750,97,55,0.32821
9640830,0.00500,80.5625,97,55,0.32332
9640840,0.03500,87.3125,97,55,0.31648
9640850,0.06500,89.7500,97,55,0.31258
9640860,0.09500,91.5625,97,55,0.30818
9640870,0.12500,92.8750,97,55,0.30379
9640880,0.15500,94.3125,97,55,0.29524
9640890,0.19000,94.5000,97,55,0.29109
9640900,0.22500,94.3750,97,55,0.28718
9640910,0.24000,94.0625,97,55,0.28327
9640920,0.22500,92.8750,97,55,0.27595
9640930,0.17000,92.0000,97,55,0.27228
9640940,0.10000,91.0625,97,55,0.27009
9640950,0.03000,90.0625,97,55,0.26862
9640960,-0.01500,87.8125,97,55,0.26056
9640970,-0.05500,86.6250,97,55,0.25299
9640980,-0.07500,85.3750,97,55,0.24762
9640990,-0.08500,84.1250,97,55,0.24347
9641000,-0.09500,81.5000,97,55,0.23687
9641010,-0.10500,80.1250,97,55,0.23419
9641020,-0.10500,78.6875,97,55,0.23199
9641030,-0.10500,77.2500,97,55,0.23053
9641040,-0.10500,74.1875,97,55,0.23346
9641050,-0.10500,72.6250,97,55,0.23785
9641060,-0.10500,71.1250,97,55,0.24493
9641070,-0.10500,69.7500,97,55,0.25519
9641080,-0.10500,67.3125,97,55,0.28742
9641090,-0.10500,66.2500,97,55,0.30891
9641100,-0.10500,65.3125,97,55,0.33358
9641110,-0.10500,64.5000,97,55,0.36068
9641120,-0.10500,63.1875,97,55,0.41856
9641130,-0.10000,62.6250,97,55,0.44786
9641140,-0.08500,62.1875,97,55,0.47277
9641150,-0.07000,61.8750,97,55,0.49475
9641160,-0.05500,61.3125,97,55,0.53993
9641170,-0.04500,61.0625,97,55,0.56044
9641180,-0.02500,60.8750,97,55,0.57851
9641190,-0.00500,60.6875,97,55,0.59414
9641200,-0.01000,60.5000,97,55,0.61709
9641210,-0.03500,60.3750,97,55,0.62491
9641220,-0.03500,60.3750,97,55,0.62491
9641230,-0.08500,60.2500,97,55,0.63394
9641240,-0.12500,60.1875,97,55,0.63394
9641250,-0.15000,60.1250,97,55,0.63248
9641260,-0.16000,59.9375,97,55,0.62930
9641270,-0.15500,59.7500,97,55,0.62466
9641280,-0.14500,59.3750,97,55,0.61074
9641290,-0.13500,59.1875,97,55,0.60195
9641300,-0.12500,59.0000,97,55,0.59219
9641310,-0.15500,58.7500,97,55,0.58120
9641320,-0.20500,58.3750,97,55,0.55653
9641330,-0.02000,58.1250,97,55,0.54335
9641340,0.60500,57.9375,97,55,0.53138
9641350,1.42500,57.6875,97,55,0.52015
9641360,1.54000,57.2500,97,55,0.49451
9641370,1.54000,57.2500,97,55,0.49451
9641380,-0.06500,56.7500,97,55,0.46740
9641390,-0.30500,56.5000,97,55,0.45397
9641400,-0.29500,55.9375,97,55,0.42833
9641410,-0.26000,55.6875,97,55,0.41661
9641420,-0.24000,55.4375,97,55,0.40537
9641430,-0.23000,55.1250,97,55,0.39438
9641440,-0.22000,54.6250,97,55,0.37802
9641450,-0.21500,54.3750,97,55,0.36996
9641460,-0.20500,54.1250,97,55,0.36190
9641470,-0.20000,53.9375,97,55,0.35385
9641480,-0.19000,53.5000,97,55,0.33919
9641490,-0.19000,53.3125,97,55,0.33236
9641500,-0.18000,53.0625,97,55,0.32576
9641510,-0.16500,52.8750,97,55,0.31941
9641520,-0.15500,52.5000,97,55,0.30745
9641530,-0.14500,52.4375,97,55,0.30183
9641540,-0.13500,52.6250,97,55,0.29792
9641550,-0.12500,53.3125,97,55,0.29475
9641560,-0.11000,56.9375,97,55,0.28767
9641570,-0.09500,60.1875,97,55,0.28425
9641580,-0.07500,64.3125,97,55,0.28107
9641590,-0.05000,68.8125,97,55,0.27790
9641600,-0.02500,77.8125,97,55,0.27228
9641610,0.00000,81.6875,97,55,0.26960
9641620,0.02500,85.0625,97,55,0.26716
9641630,0.05000,87.8750,97,55,0.26447
9641640,0.08500,91.6250,97,55,0.26178
9641650,0.11000,92.6875,97,55,0.25958
9641660,0.14500,93.3750,97,55,0.25714
9641670,0.17500,93.6875,97,55,0.25421
9641680,0.20500,93.6875,97,55,0.24786
9641690,0.22500,93.4375,97,55,0.24420
9641700,0.22000,93.0000,97,55,0.24054
9641710,0.17000,92.5000,97,55,0.23663
9641720,0.10500,91.0000,97,55,0.22955
9641730,0.03500,90.1250,97,55,0.22613
9641740,-0.02500,89.1875,97,55,0.22418
9641750,-0.06500,88.1250,97,55,0.22295
9641760,-0.08500,85.8750,97,55,0.21856
9641770,-0.10500,84.6875,97,55,0.21612
9641780,-0.11000,83.4375,97,55,0.21368
9641790,-0.11500,82.1875,97,55,0.21172
9641800,-0.11500,79.5000,97,55,0.20977
9641810,-0.11500,78.0625,97,55,0.21050
9641820,-0.11500,76.5625,97,55,0.21294
9641830,-0.12000,75.0000,97,55,0.21783
9641840,-0.12000,71.9375,97,55,0.23394
9641850,-0.12000,70.5625,97,55,0.24664
9641860,-0.12000,70.5625,97,55,0.24664
9641870,-0.12000,68.1250,97,55,0.28230
9641880,-0.12500,66.0625,97,55,0.33065
9641890,-0.12500,65.1875,97,55,0.35824
9641900,-0.11500,64.3750,97,55,0.38730
9641910,-0.11500,63.7500,97,55,0.41709
9641920,-0.10000,62.6875,97,55,0.47595
9641930,-0.08000,62.2500,97,55,0.50379
9641940,-0.06500,61.8750,97,55,0.52650
9641950,-0.06000,61.5625,97,55,0.54554
9641960,-0.03500,61.1250,97,55,0.58242
9641970,-0.01500,60.8750,97,55,0.59853
9641980,-0.03000,60.6875,97,55,0.61245
9641990,-0.05500,60.5625,97,55,0.62393
9642000,-0.08500,60.3750,97,55,0.63932
9642010,-0.12000,60.3125,97,55,0.64371
9642020,-0.15500,60.2500,97,55,0.64591
9642030,-0.17000,60.1250,97,55,0.64640
9642040,-0.17000,59.8125,97,55,0.64176
9642050,-0.16500,59.6875,97,55,0.63785
9642060,-0.15500,59.5625,97,55,0.63297
9642070,-0.15000,59.3750,97,55,0.62686
9642080,-0.14500,59.0625,97,55,0.61050
9642090,-0.19500,58.9375,97,55,0.60049
9642100,-0.21500,58.7500,97,55,0.58926
9642110,0.08500,58.5625,97,55,0.57705
9642120,0.82500,58.1875,97,55,0.55092
9642130,1.55000,57.9375,97,55,0.53724
9642140,1.38500,57.7500,97,55,0.52503
9642150,0.47500,57.5000,97,55,0.51331
9642160,-0.18000,57.0000,97,55,0.48669
9642170,-0.32500,56.7500,97,55,0.47277
9642180,-0.30000,56.5000,97,55,0.45910
9642190,-0.27000,56.2500,97,55,0.44591
9642200,-0.25500,55.6875,97,55,0.42076
9642210,-0.25000,55.3750,97,55,0.40904
9642220,-0.24000,55.1250,97,55,0.39780
9642230,-0.23000,54.8750,97,55,0.38730
9642240,-0.22000,54.3750,97,55,0.37192
9642250,-0.21000,54.1875,97,55,0.36435
9642260,-0.20500,54.0000,97,55,0.35702
9642270,-0.20000,53.8125,97,55,0.35043
9642280,-0.19500,53.3750,97,55,0.33846
9642290,-0.18500,53.1875,97,55,0.33333
9642300,-0.17500,53.0625,97,55,0.32821
9642310,-0.16500,53.0625,97,55,0.32357
9642320,-0.15500,53.8750,97,55,0.31502
9642330,-0.13500,55.2500,97,55,0.31136
9642340,-0.12000,57.5625,97,55,0.30891
9642350,-0.10500,60.8750,97,55,0.30720
9642360,-0.08500,69.6875,97,55,0.30379
9642370,-0.06500,74.3750,97,55,0.30232
9642380,-0.04000,78.8125,97,55,0.30085
9642390,-0.01500,82.8750,97,55,0.29915
9642400,0.01500,89.2500,97,55,0.29621
9642410,0.04500,91.5625,97,55,0.29524
9642420,0.07500,93.3125,97,55,0.29426
9642430,0.10500,94.5000,97,55,0.29353
9642440,0.13500,95.7500,97,55,0.29353
9642450,0.16500,95.9375,97,55,0.29304
9642460,0.19500,95.9375,97,55,0.29231
9642470,0.20500,95.6875,97,55,0.29109
9642480,0.18500,94.7500,97,55,0.28889
9642490,0.13500,94.1250,97,55,0.28791
9642500,0.07000,93.3125,97,55,0.28669
9642510,0.00000,92.3750,97,55,0.28596
9642520,-0.04500,90.4375,97,55,0.28474
9642530,-0.08500,89.4375,97,55,0.28498
9642540,-0.10500,88.3750,97,55,0.28523
9642550,-0.12500,87.1875,97,55,0.28498
9642560,-0.13000,84.8750,97,55,0.28400
9642570,-0.13000,83.6875,97,55,0.28376
9642580,-0.13000,82.3750,97,55,0.28400
9642590,-0.12500,81.0625,97,55,0.28547
9642600,-0.12500,78.2500,97,55,0.29377
9642610,-0.13000,76.8125,97,55,0.30232
9642620,-0.13000,75.3125,97,55,0.31404
9642630,-0.13500,73.8750,97,55,0.32918
9642640,-0.13500,71.3750,97,55,0.36337
9642650,-0.13500,70.1875,97,55,0.38608
9642660,-0.13500,69.1250,97,55,0.41221
9642670,-0.13500,68.1875,97,55,0.44078
9642680,-0.12500,66.5625,97,55,0.50110
9642690,-0.11500,65.9375,97,55,0.53114
9642700,-0.10000,65.3750,97,55,0.56020
9642710,-0.07500,64.9375,97,55,0.58755
9642720,-0.06500,64.1875,97,55,0.63516
9642730,-0.05500,63.9375,97,55,0.65226
9642740,-0.03500,63.6875,97,55,0.66520
9642750,-0.03000,63.5625,97,55,0.67790
9642760,-0.04500,63.3125,97,55,0.69792
9642770,-0.07500,63.1875,97,55,0.70476
9642780,-0.10000,63.1250,97,55,0.70916
9642790,-0.14000,63.0000,97,55,0.71160
9642800,-0.17000,62.7500,97,55,0.71013
9642810,-0.17000,62.7500,97,55,0.71013
9642820,-0.17000,62.4375,97,55,0.70183
9642830,-0.16500,62.2500,97,55,0.69573
9642840,-0.15500,61.8125,97,55,0.68034
9642850,-0.15000,61.6250,97,55,0.67106
9642860,-0.16000,61.4375,97,55,0.66081
9642870,-0.22000,61.1875,97,55,0.64982
9642880,-0.14500,60.6875,97,55,0.62637
9642890,0.38500,60.4375,97,55,0.61392
9642900,1.25500,60.1250,97,55,0.60098
9642910,1.67500,59.5625,97,55,0.58779
9642920,1.09500,59.3125,97,55,0.55946
9642930,0.16000,59.0625,97,55,0.54603
9642940,-0.29500,58.8125,97,55,0.53333
9642950,-0.33000,58.5625,97,55,0.51966
9642960,-0.29500,58.1250,97,55,0.49255
9642970,-0.27500,57.8125,97,55,0.48010
9642980,-0.26000,57.5625,97,55,0.46838
9642990,-0.25000,57.3125,97,55,0.45739
9643000,-0.24000,56.7500,97,55,0.43858
9643010,-0.23000,56.5000,97,55,0.44005
9643020,-0.22000,56.2500,97,55,0.44689
9643030,-0.22000,56.0000,97,55,0.44664
9643040,-0.21000,55.5625,97,55,0.44054
9643050,-0.20500,55.3125,97,55,0.43565
9643060,-0.19500,55.1875,97,55,0.43053
9643070,-0.19000,55.0000,97,55,0.42540
9643080,-0.17500,55.0000,97,55,0.41587
9643090,-0.16000,55.3750,97,55,0.41172
9643100,-0.15000,56.3750,97,55,0.40806
9643110,-0.13000,58.2500,97,55,0.40488
9643120,-0.11500,65.0000,97,55,0.39927
9643130,-0.09500,69.6250,97,55,0.39731
9643140,-0.07000,74.5000,97,55,0.39609
9643150,-0.04500,79.3750,97,55,0.39487
9643160,-0.02000,87.8750,97,55,0.39219
9643170,0.00500,91.2500,97,55,0.39096
9643180,0.03000,93.9375,97,55,0.38926
9643190,0.06000,96.0000,97,55,0.38706
9643200,0.09000,98.5625,97,55,0.38169
9643210,0.12000,99.1875,97,55,0.37851
9643220,0.14500,99.5625,97,55,0.37509
9643230,0.17000,99.6250,97,55,0.37167
9643240,0.19500,99.3125,97,55,0.36703
9643250,0.19500,98.8125,97,55,0.36435
9643260,0.16500,98.2500,97,55,0.36190
9643270,0.11000,97.5000,97,55,0.35971
9643280,0.04000,95.6875,97,55,0.35458
9643290,-0.01500,94.6250,97,55,0.35214
9643300,-0.05500,93.6250,97,55,0.34945
9643310,-0.08500,92.5625,97,55,0.34676
9643320,-0.10500,90.2500,97,55,0.34212
9643330,-0.11500,89.0000,97,55,0.34090
9643340,-0.11500,87.6875,97,55,0.34017
9643350,-0.12000,86.4375,97,55,0.33944
9643360,-0.12000,83.6875,97,55,0.34090
9643370,-0.12500,82.1875,97,55,0.34432
9643380,-0.12000,80.6875,97,55,0.35043
9643390,-0.12000,79.1875,97,55,0.35995
9643400,-0.12500,76.1875,97,55,0.39023
9643410,-0.12500,74.8125,97,55,0.41123
9643420,-0.12000,73.5625,97,55,0.43565
9643430,-0.12500,72.4375,97,55,0.46300
9643440,-0.12500,72.4375,97,55,0.46300
9643450,-0.12000,69.5625,97,55,0.54188
9643460,-0.11500,68.7500,97,55,0.57192
9643470,-0.11500,68.0625,97,55,0.60195
9643480,-0.09500,67.0625,97,55,0.65861
9643490,-0.07000,66.6250,97,55,0.68400
9643500,-0.06500,66.2500,97,55,0.70647
9643510,-0.05500,65.9375,97,55,0.72625
9643520,-0.03000,65.3750,97,55,0.75775
9643530,-0.02500,65.1875,97,55,0.76752
9643540,-0.04500,65.0625,97,55,0.77387
9643550,-0.06500,64.8750,97,55,0.77998
9643560,-0.09000,64.6250,97,55,0.78779
9643570,-0.13000,64.5000,97,55,0.78926
9643580,-0.16000,64.3750,97,55,0.78901
9643590,-0.17000,64.1875,97,55,0.78730
9643600,-0.16500,63.8125,97,55,0.77924
9643610,-0.16000,63.6250,97,55,0.77338
9643620,-0.15000,63.4375,97,55,0.76630
9643630,-0.14000,63.2500,97,55,0.75824
9643640,-0.16500,62.7500,97,55,0.73968
9643650,-0.20000,62.5625,97,55,0.72918
9643660,-0.00500,62.3125,97,55,0.71770
9643670,0.67000,62.0625,97,55,0.70549
9643680,1.52500,61.5625,97,55,0.67937
9643690,1.64000,61.3125,97,55,0.66569
9643700,0.82000,61.0625,97,55,0.65153
9643710,-0.02500,60.7500,97,55,0.63761
9643720,-0.02500,60.7500,97,55,0.63761
9643730,-0.31500,59.9375,97,55,0.59731
9643740,-0.28000,59.6250,97,55,0.58584
9643750,-0.27000,59.3125,97,55,0.57387
9643760,-0.26000,58.8125,97,55,0.55043
9643770,-0.25000,58.5000,97,55,0.53944
9643780,-0.23500,58.1875,97,55,0.52894
9643790,-0.23000,57.8750,97,55,0.51917
9643800,-0.22000,57.3125,97,55,0.50110
9643810,-0.21000,57.0625,97,55,0.49280
9643820,-0.20000,56.8125,97,55,0.48523
9643830,-0.20000,56.5000,97,55,0.47814
9643840,-0.19000,56.0000,97,55,0.46691
9643850,-0.18000,55.8125,97,55,0.46154
9643860,-0.16500,55.7500,97,55,0.45641
9643870,-0.15500,55.9375,97,55,0.45128
9643880,-0.13500,58.2500,97,55,0.44151
9643890,-0.13500,58.2500,97,55,0.44151
9643900,-0.10500,64.5625,97,55,0.43223
9643910,-0.08500,69.1250,97,55,0.42784
9643920,-0.06500,79.0625,97,55,0.42051
9643930,-0.04500,83.7500,97,55,0.41783
9643940,-0.01500,87.8750,97,55,0.41538
9643950,-0.01500,87.8750,97,55,0.41538
9643960,0.04000,96.3125,97,55,0.40537
9643970,0.07000,97.8750,97,55,0.40195
9643980,0.10000,99.0000,97,55,0.39853
9643990,0.13000,99.6250,97,55,0.39512
9644000,0.15500,100.0000,97,55,0.38877
9644010,0.18000,99.8125,97,55,0.38559
9644020,0.20000,99.4375,97,55,0.38242
9644030,0.19500,98.8750,97,55,0.37924
9644040,0.16000,97.4375,97,55,0.37582
9644050,0.10500,96.5625,97,55,0.37387
9644060,0.04500,95.5625,97,55,0.37143
9644070,-0.00500,94.5000,97,55,0.36899
9644080,-0.04500,92.1875,97,55,0.36337
9644090,-0.07000,90.9375,97,55,0.36044
9644100,-0.08500,89.6875,97,55,0.35726
9644110,-0.09500,88.4375,97,55,0.35409
9644120,-0.10500,85.7500,97,55,0.34872
9644130,-0.10500,84.3125,97,55,0.34750
9644140,-0.10500,82.8750,97,55,0.34774
9644150,-0.11000,81.3125,97,55,0.34945
9644160,-0.11500,78.1250,97,55,0.36093
9644170,-0.11500,76.5625,97,55,0.37192
9644180,-0.11500,75.0625,97,55,0.38657
9644190,-0.11500,73.6875,97,55,0.40537
9644200,-0.11500,71.1875,97,55,0.45348
9644210,-0.11500,70.1250,97,55,0.48156
9644220,-0.11500,69.1250,97,55,0.51111
9644230,-0.11500,68.2500,97,55,0.54139
9644240,-0.11500,66.7500,97,55,0.59096
9644250,-0.10500,66.1875,97,55,0.61612
9644260,-0.09500,65.6875,97,55,0.64127
9644270,-0.07500,65.2500,97,55,0.66520
9644280,-0.05500,64.5000,97,55,0.70720
9644290,-0.05000,64.1875,97,55,0.72430
9644300,-0.03000,63.9375,97,55,0.73871
9644310,-0.00500,63.6875,97,55,0.75067
9644320,-0.00500,63.3125,97,55,0.76728
9644330,-0.03500,63.1250,97,55,0.77070
9644340,-0.05500,62.9375,97,55,0.77143
9644350,-0.08500,62.8125,97,55,0.77143
9644360,-0.12500,62.4375,97,55,0.76777
9644370,-0.15500,62.2500,97,55,0.76386
9644380,-0.16000,62.0000,97,55,0.75849
9644390,-0.15500,61.7500,97,55,0.75189
9644400,-0.14000,61.3125,97,55,0.73529
9644410,-0.13500,61.1250,97,55,0.72527
9644420,-0.12000,60.8750,97,55,0.71429
9644430,-0.16000,60.6250,97,55,0.70330
9644440,-0.20000,60.1875,97,55,0.67937
9644450,0.04500,59.9375,97,55,0.66593
9644460,0.74000,59.6875,97,55,0.65177
9644470,1.52500,59.3750,97,55,0.63736
9644480,1.51500,58.9375,97,55,0.60806
9644490,0.63000,58.6875,97,55,0.59341
9644500,-0.11500,58.4375,97,55,0.57924
9644510,-0.32000,58.1875,97,55,0.56508
9644520,-0.29000,57.7500,97,55,0.53724
9644530,-0.25500,57.5000,97,55,0.52527
9644540,-0.24000,57.2500,97,55,0.51477
9644550,-0.23000,57.0625,97,55,0.50354
9644560,-0.21500,56.6250,97,55,0.48156
9644570,-0.21000,56.3750,97,55,0.47155
9644580,-0.20500,56.1250,97,55,0.46203
9644590,-0.20000,55.8750,97,55,0.45299
9644600,-0.19000,55.3125,97,55,0.43687
9644610,-0.18500,55.0625,97,55,0.42979
9644620,-0.17500,54.8125,97,55,0.42320
9644630,-0.16500,54.6250,97,55,0.41807
9644640,-0.15500,54.2500,97,55,0.40855
9644650,-0.14500,54.2500,97,55,0.40317
9644660,-0.13500,54.5000,97,55,0.39780
9644670,-0.11500,55.2500,97,55,0.39267
9644680,-0.10500,59.1875,97,55,0.38315
9644690,-0.08500,62.6875,97,55,0.37875
9644700,-0.06500,67.0000,97,55,0.37460
9644710,-0.04500,71.7500,97,55,0.37045
9644720,-0.02500,80.8750,97,55,0.36239
9644730,0.00000,84.8125,97,55,0.35946
9644740,0.03000,88.1875,97,55,0.35678
9644750,0.06500,90.9375,97,55,0.35360
9644760,0.09500,94.5000,97,55,0.34652
9644770,0.12500,95.4375,97,55,0.34310
9644780,0.15500,96.0000,97,55,0.33944
9644790,0.18500,96.2500,97,55,0.33602
9644800,0.22000,96.0000,97,55,0.32869
9644810,0.24000,95.6875,97,55,0.32503
9644820,0.23000,95.1250,97,55,0.32137
9644830,0.18500,94.4375,97,55,0.31893
9644840,0.12000,92.6250,97,55,0.31502
9644850,0.05000,91.5625,97,55,0.31258
9644860,-0.00500,90.5000,97,55,0.30989
9644870,-0.04500,89.3125,97,55,0.30672
9644880,-0.07000,86.9375,97,55,0.30037
9644890,-0.08500,85.6250,97,55,0.29744
9644900,-0.09500,84.3125,97,55,0.29426
9644910,-0.10500,82.9375,97,55,0.29133
9644920,-0.11000,80.1250,97,55,0.28718
9644930,-0.11500,78.6250,97,55,0.28718
9644940,-0.11500,77.0625,97,55,0.28913
9644950,-0.11000,75.5000,97,55,0.29280
9644960,-0.11500,72.5000,97,55,0.30916
9644970,-0.11500,71.1250,97,55,0.32283
9644980,-0.11500,69.8750,97,55,0.34042
9644990,-0.11500,68.6875,97,55,0.36166
9645000,-0.11500,66.6250,97,55,0.41245
9645010,-0.11500,65.8125,97,55,0.44078
9645020,-0.11500,65.0625,97,55,0.47033
9645030,-0.11000,64.4375,97,55,0.49621
9645040,-0.10500,63.3750,97,55,0.54505
9645050,-0.09500,63.0000,97,55,0.57021
9645060,-0.07000,62.8438,97,55,0.57827
9645070,-0.05500,62.6250,97,55,0.58413
9645080,-0.05000,62.0625,97,55,0.60269
9645090,-0.03000,61.8750,97,55,0.61563
9645100,-0.00500,61.6875,97,55,0.62784
9645110,-0.00500,61.5625,97,55,0.63834
9645120,-0.03500,61.3125,97,55,0.65324
9645130,-0.05500,61.1875,97,55,0.65739
9645140,-0.09000,61.0000,97,55,0.65885
9645150,-0.12500,60.8750,97,55,0.65836
9645160,-0.15500,60.6250,97,55,0.65421
9645170,-0.15500,60.4375,97,55,0.65006
9645180,-0.15500,60.2500,97,55,0.64469
9645190,-0.14500,60.0625,97,55,0.63785
9645200,-0.13500,59.6875,97,55,0.62125
9645210,-0.13000,59.4375,97,55,0.61148
9645220,-0.15500,59.2500,97,55,0.60098
9645230,-0.21000,59.0000,97,55,0.58974
9645240,-0.05000,58.5625,97,55,0.56825
9645250,0.54000,58.3750,97,55,0.55629
9645260,1.36500,58.1250,97,55,0.54359
9645270,1.56000,57.9375,97,55,0.53040
9645280,0.77000,57.5000,97,55,0.50281
9645290,-0.04000,57.2500,97,55,0.48864
9645300,-0.31500,57.0625,97,55,0.47497
9645310,-0.30500,56.8750,97,55,0.46178
9645320,-0.26500,56.3750,97,55,0.43687
9645330,-0.24500,56.1875,97,55,0.42540
9645340,-0.23500,55.9375,97,55,0.41563
9645350,-0.22500,55.7500,97,55,0.40733
9645360,-0.22000,55.2500,97,55,0.38974
9645370,-0.21000,55.0000,97,55,0.38144
9645380,-0.20000,54.7500,97,55,0.37387
9645390,-0.19000,54.5625,97,55,0.36679
9645400,-0.19000,54.5625,97,55,0.36679
9645410,-0.18000,53.8750,97,55,0.34847
9645420,-0.17000,53.6875,97,55,0.34335
9645430,-0.16000,53.5000,97,55,0.33846
9645440,-0.15000,53.1875,97,55,0.33187
9645450,-0.13500,53.2500,97,55,0.32821
9645460,-0.12000,53.5000,97,55,0.32430
9645470,-0.10500,54.3125,97,55,0.32039
9645480,-0.09000,58.3125,97,55,0.31258
9645490,-0.07500,61.7500,97,55,0.30916
9645500,-0.05000,65.8750,97,55,0.30598
9645510,-0.02500,70.3750,97,55,0.30305
9645520,-0.00500,79.1250,97,55,0.29670
9645530,0.02000,82.9375,97,55,0.29402
9645540,0.05000,86.1250,97,55,0.29206
9645550,0.08000,88.6875,97,55,0.29060
9645560,0.11000,92.1875,97,55,0.28571
9645570,0.14000,93.1250,97,55,0.28303
9645580,0.17000,93.6875,97,55,0.28010
9645590,0.20500,93.9375,97,55,0.27741
9645600,0.22500,93.8125,97,55,0.27179
9645610,0.22500,93.5000,97,55,0.26886
9645620,0.17500,93.0000,97,55,0.26642
9645630,0.11000,92.4375,97,55,0.26422
9645640,0.04000,90.8125,97,55,0.26227
9645650,-0.01500,89.8750,97,55,0.26056
9645660,-0.06000,88.8125,97,55,0.25836
9645670,-0.08500,87.7500,97,55,0.25592
9645680,-0.10500,85.4375,97,55,0.25104
9645690,-0.11000,84.2500,97,55,0.24884
9645700,-0.11500,83.0000,97,55,0.24689
9645710,-0.11500,81.7500,97,55,0.24518
9645720,-0.12000,79.0000,97,55,0.24274
9645730,-0.12000,77.5000,97,55,0.24298
9645740,-0.11500,75.9375,97,55,0.24518
9645750,-0.11500,74.4375,97,55,0.24933
9645760,-0.12000,71.5000,97,55,0.26545
9645770,-0.12500,70.1875,97,55,0.27863
9645780,-0.12500,69.0000,97,55,0.29573
9645790,-0.12500,67.8125,97,55,0.31624
9645800,-0.12500,65.8750,97,55,0.36557
9645810,-0.12000,65.0625,97,55,0.39316
9645820,-0.11500,64.3750,97,55,0.42173
9645830,-0.10500,63.7500,97,55,0.45079
9645840,-0.09500,62.7500,97,55,0.49817
9645850,-0.07500,62.3125,97,55,0.52234
9645860,-0.06500,62.0000,97,55,0.54579
9645870,-0.05000,61.7500,97,55,0.56777
9645880,-0.02500,61.3750,97,55,0.60464
9645890,-0.01500,61.1875,97,55,0.61905
9645900,-0.03500,61.0625,97,55,0.63077
9645910,-0.06000,60.9375,97,55,0.64005
9645920,-0.09500,60.6875,97,55,0.65201
9645930,-0.13000,60.6250,97,55,0.65519
9645940,-0.16000,60.5000,97,55,0.65592
9645950,-0.16500,60.3750,97,55,0.65470
9645960,-0.16000,60.0000,97,55,0.64908
9645970,-0.15500,59.8750,97,55,0.64444
9645980,-0.14500,59.6875,97,55,0.63834
9645990,-0.14000,59.5000,97,55,0.63101
9646000,-0.15500,59.1250,97,54,0.61319
9646010,-0.21500,58.9375,97,54,0.60293
9646020,-0.13000,58.6875,97,54,0.59170
9646030,0.36000,58.4375,97,54,0.57973
9646040,0.36000,58.4375,97,54,0.57973
9646050,1.62500,57.8750,97,54,0.54554
9646060,1.01000,57.6875,97,54,0.53260
9646070,0.12000,57.4375,97,54,0.51917
9646080,-0.28000,57.0000,97,54,0.49206
9646090,-0.31500,56.8125,97,54,0.47912
9646100,-0.28000,56.5625,97,54,0.46642
9646110,-0.25000,56.3750,97,54,0.45446
9646120,-0.24000,55.8750,97,54,0.43248
9646130,-0.23000,55.6250,97,54,0.42222
9646140,-0.22000,55.3750,97,54,0.41368
9646150,-0.21500,55.1250,97,54,0.40635
9646160,-0.21000,54.6875,97,54,0.39048
9646170,-0.21000,54.6875,97,54,0.39048
9646180,-0.19000,54.2500,97,54,0.37582
9646190,-0.18000,54.0000,97,54,0.36923
9646200,-0.17500,53.5625,97,54,0.35800
9646210,-0.16500,53.3750,97,54,0.35263
9646220,-0.15500,53.2500,97,54,0.34750
9646230,-0.14000,53.1875,97,54,0.34286
9646240,-0.13000,53.7500,97,54,0.33700
9646250,-0.11500,54.8125,97,54,0.33382
9646260,-0.09500,56.6875,97,54,0.33065
9646270,-0.07500,59.6250,97,54,0.32747
9646280,-0.05500,67.8125,97,54,0.32161
9646290,-0.03500,72.3750,97,54,0.31893
9646300,-0.00500,76.8750,97,54,0.31624
9646310,0.02000,81.0000,97,54,0.31355
9646320,0.04000,87.6250,97,54,0.30794
9646330,0.07000,90.0625,97,54,0.30623
9646340,0.10000,91.9375,97,54,0.30452
9646350,0.13000,93.3125,97,54,0.30208
9646360,0.16500,94.8125,97,54,0.29621
9646370,0.19500,95.0625,97,54,0.29377
9646380,0.21500,95.1875,97,54,0.29133
9646390,0.21500,95.0625,97,54,0.28889
9646400,0.18000,94.3125,97,54,0.28352
9646410,0.12000,93.6875,97,54,0.28083
9646420,0.05000,92.8750,97,54,0.27814
9646430,-0.01000,92.0000,97,54,0.27546
9646440,-0.01000,92.0000,97,54,0.27546
9646450,-0.06500,90.0625,97,54,0.27277
9646460,-0.10500,87.9375,97,54,0.26862
9646470,-0.11500,86.8125,97,54,0.26642
9646480,-0.11500,84.3750,97,54,0.26178
9646490,-0.12000,83.1250,97,54,0.25958
9646500,-0.12000,81.8750,97,54,0.25763
9646510,-0.11500,80.5000,97,54,0.25665
9646520,-0.11500,77.5625,97,54,0.25958
9646530,-0.11500,76.0625,97,54,0.26398
9646540,-0.12000,74.5625,97,54,0.27082
9646550,-0.12500,73.0625,97,54,0.28083
9646560,-0.12500,70.4375,97,54,0.31233
9646570,-0.12500,69.3125,97,54,0.33358
9646580,-0.12500,68.2500,97,54,0.35800
9646590,-0.13000,67.2500,97,54,0.38486
9646600,-0.12500,65.6875,97,54,0.44249
9646610,-0.11500,65.0625,97,54,0.47228
9646620,-0.10500,64.5000,97,54,0.50134
9646630,-0.08000,64.0000,97,54,0.52918
9646640,-0.07000,63.2500,97,54,0.57143
9646650,-0.06500,62.9375,97,54,0.59170
9646660,-0.04000,62.6250,97,54,0.61099
9646670,-0.02500,62.4375,97,54,0.62808
9646680,-0.04500,62.1250,97,54,0.65495
9646690,-0.06500,62.0000,97,54,0.66447
9646700,-0.09000,61.8750,97,54,0.67155
9646710,-0.12500,61.8125,97,54,0.67643
9646720,-0.15500,61.5625,97,54,0.68010
9646730,-0.17000,61.4375,97,54,0.67912
9646740,-0.17000,61.2500,97,54,0.67643
9646750,-0.17000,61.1250,97,54,0.67302
9646760,-0.16000,60.8125,97,54,0.66300
9646770,-0.14500,60.6250,97,54,0.65617
9646780,-0.15000,60.4375,97,54,0.64811
9646790,-0.20500,60.2500,97,54,0.63907
9646800,-0.20500,59.8125,97,54,0.61807
9646810,0.11000,59.5625,97,54,0.60635
9646820,0.88000,59.3750,97,54,0.59389
9646830,1.61500,59.1875,97,54,0.58095
9646840,1.37500,58.8125,97,54,0.55775
9646850,0.44500,58.6250,97,54,0.54530
9646860,-0.19000,58.3750,97,54,0.53236
9646870,-0.34000,58.1875,97,54,0.51917
9646880,-0.30500,57.6875,97,54,0.49377
9646890,-0.27500,57.4375,97,54,0.48156
9646900,-0.26000,57.1875,97,54,0.46960
9646910,-0.25000,57.0000,97,54,0.45812
9646920,-0.24000,56.6250,97,54,0.43736
9646930,-0.23000,56.3750,97,54,0.42882
9646940,-0.22000,56.1875,97,54,0.42125
9646950,-0.21500,56.0000,97,54,0.41343
9646960,-0.20500,55.6250,97,54,0.39829
9646970,-0.19500,55.3750,97,54,0.39121
9646980,-0.19000,55.1875,97,54,0.38486
9646990,-0.18500,54.9375,97,54,0.37900
9647000,-0.17500,54.6250,97,54,0.36874
9647010,-0.16500,54.5625,97,54,0.36386
9647020,-0.15500,54.8125,97,54,0.35946
9647030,-0.13500,55.5625,97,54,0.35531
9647040,-0.11500,59.5625,97,54,0.34921
9647050,-0.10000,63.0625,97,54,0.34579
9647060,-0.08000,67.4375,97,54,0.34237
9647070,-0.05500,72.1875,97,54,0.33944
9647080,-0.03000,81.6250,97,54,0.33333
9647090,-0.00500,85.7500,97,54,0.33065
9647100,0.02000,89.2500,97,54,0.32796
9647110,0.05000,92.1875,97,54,0.32552
9647120,0.08000,96.2500,97,54,0.33162
9647130,0.11000,97.5000,97,54,0.33309
9647140,0.13500,98.3125,97,54,0.33309
9647150,0.16500,98.8125,97,54,0.33138
9647160,0.19000,99.0625,97,54,0.32601
9647170,0.20500,98.8750,97,54,0.32259
9647180,0.18500,98.5000,97,54,0.31917
9647190,0.14000,98.0000,97,54,0.31600
9647200,0.07000,96.4375,97,54,0.31038
9647210,0.00500,95.5625,97,54,0.30794
9647220,-0.04500,94.5625,97,54,0.30549
9647230,-0.08000,93.5000,97,54,0.30256
9647240,-0.10500,91.1875,97,54,0.29939
9647250,-0.11500,90.0000,97,54,0.29744
9647260,-0.12500,88.8125,97,54,0.29499
9647270,-0.12500,87.6250,97,54,0.29255
9647280,-0.12500,85.0625,97,54,0.29011
9647290,-0.12500,83.6875,97,54,0.29084
9647300,-0.12500,82.3125,97,54,0.29328
9647310,-0.12500,80.7500,97,54,0.29841
9647320,-0.12500,77.6250,97,54,0.31966
9647330,-0.12000,76.1250,97,54,0.33358
9647340,-0.12000,74.6875,97,54,0.34994
9647350,-0.12500,73.3750,97,54,0.37167
9647360,-0.12500,71.0625,97,54,0.42833
9647370,-0.12500,70.0625,97,54,0.46129
9647380,-0.12500,69.1250,97,54,0.49573
9647390,-0.11500,68.3125,97,54,0.53089
9647400,-0.11000,66.9375,97,54,0.59951
9647410,-0.09000,66.4375,97,54,0.63150
9647420,-0.07500,66.0000,97,54,0.66129
9647430,-0.07500,66.0000,97,54,0.66129
9647440,-0.07000,65.6250,97,54,0.68864
9647450,-0.03000,64.7500,97,54,0.74335
9647460,-0.03500,64.5000,97,54,0.75849
9647470,-0.05500,64.3750,97,54,0.77118
9647480,-0.05500,64.3750,97,54,0.77118
9647490,-0.10500,63.9375,97,54,0.79487
9647500,-0.14500,63.8125,97,54,0.79829
9647510,-0.16500,63.6875,97,54,0.79951
9647520,-0.17000,63.4375,97,54,0.79658
9647530,-0.17000,63.3125,97,54,0.79219
9647540,-0.16000,63.1250,97,54,0.78632
9647550,-0.15500,62.9375,97,54,0.77973
9647560,-0.15000,62.5625,97,54,0.76337
9647570,-0.19000,62.3125,97,54,0.75336
9647580,-0.21000,62.1250,97,54,0.74261
9647590,0.05500,61.8750,97,54,0.73089
9647600,0.78500,61.4375,97,54,0.70427
9647610,1.60000,61.2500,97,54,0.68987
9647620,1.56000,61.0000,97,54,0.67497
9647630,0.66500,60.8125,97,54,0.65983
9647640,-0.10500,60.3125,97,54,0.63223
9647650,-0.33500,60.1250,97,54,0.61758
9647660,-0.31000,59.8750,97,54,0.60269
9647670,-0.28500,59.6250,97,54,0.58803
9647680,-0.27000,59.1250,97,54,0.55995
9647690,-0.25500,58.8750,97,54,0.54652
9647700,-0.24500,58.6875,97,54,0.53382
9647710,-0.23000,58.4375,97,54,0.52186
9647720,-0.23000,58.0000,97,54,0.49939
9647730,-0.22000,57.8125,97,54,0.49011
9647740,-0.21500,57.5625,97,54,0.48181
9647750,-0.21000,57.3125,97,54,0.47326
9647760,-0.20000,56.9375,97,54,0.45714
9647770,-0.19000,56.7500,97,54,0.44982
9647780,-0.18000,56.5625,97,54,0.44298
9647790,-0.17000,56.4375,97,54,0.43687
9647800,-0.15500,57.0000,97,54,0.42540
9647810,-0.14000,58.1250,97,54,0.42002
9647820,-0.12500,60.2500,97,54,0.41514
9647830,-0.10500,63.4375,97,54,0.41026
9647840,-0.08500,72.4375,97,54,0.40317
9647850,-0.06500,77.5000,97,54,0.39951
9647860,-0.04500,82.3750,97,54,0.39585
9647870,-0.01500,86.8750,97,54,0.39219
9647880,0.01500,94.0000,97,54,0.38510
9647890,0.04500,96.6250,97,54,0.38144
9647900,0.07500,98.6250,97,54,0.37802
9647910,0.10000,100.0625,97,54,0.37460
9647920,0.13000,101.6250,97,54,0.36801
9647930,0.15500,101.9375,97,54,0.36581
9647940,0.18000,102.0000,97,54,0.36410
9647950,0.19500,101.8750,97,54,0.36190
9647960,0.18500,101.0000,97,54,0.35726
9647970,0.14500,100.3750,97,54,0.35458
9647980,0.08500,99.5000,97,54,0.35189
9647990,0.02000,98.5625,97,54,0.34921
9648000,-0.03000,96.3125,97,55,0.34408
9648010,-0.06500,95.1875,97,55,0.34164
9648020,-0.08500,94.0000,97,55,0.33944
9648030,-0.10000,92.7500,97,55,0.33797
9648040,-0.11000,90.1875,97,55,0.33529
9648050,-0.11500,88.8750,97,55,0.33358
9648060,-0.11500,87.5625,97,55,0.33211
9648070,-0.11500,86.1250,97,55,0.33162
9648080,-0.11500,83.0625,97,55,0.33626
9648090,-0.11500,81.4375,97,55,0.34310
9648100,-0.11500,79.8125,97,55,0.35360
9648110,-0.11500,78.2500,97,55,0.36850
9648120,-0.11500,75.2500,97,55,0.41099
9648130,-0.11500,73.8750,97,55,0.43419
9648140,-0.12500,72.6250,97,55,0.45836
9648150,-0.12500,71.5000,97,55,0.48791
9648160,-0.12500,71.5000,97,55,0.48791
9648170,-0.11500,68.7500,97,55,0.58926
9648180,-0.11000,68.0625,97,55,0.62344
9648190,-0.11000,68.0625,97,55,0.62344
9648200,-0.07500,66.5000,97,55,0.71429
9648210,-0.05500,66.1250,97,55,0.73919
9648220,-0.05500,65.7500,97,55,0.76117
9648230,-0.03500,65.5000,97,55,0.77705
9648240,-0.01500,65.0625,97,55,0.80073
9648250,-0.02500,64.8125,97,55,0.81074
9648260,-0.05000,64.6250,97,55,0.81880
9648270,-0.07500,64.5000,97,55,0.82491
9648280,-0.11500,64.1250,97,55,0.83053
9648290,-0.15000,63.9375,97,55,0.83004
9648300,-0.16500,63.7500,97,55,0.82759
9648310,-0.16500,63.5625,97,55,0.82369
9648320,-0.16000,63.1250,97,55,0.81197
9648330,-0.15500,62.9375,97,55,0.80391
9648340,-0.14500,62.6875,97,55,0.79487
9648350,-0.14500,62.4375,97,55,0.78486
9648360,-0.19500,61.9375,97,55,0.76142
9648370,-0.16500,61.6875,97,55,0.74823
9648380,0.23500,61.4375,97,55,0.73407
9648390,1.04000,61.2500,97,55,0.71893
9648400,1.66500,60.6875,97,55,0.68742
9648410,1.32500,60.3750,97,55,0.67106
9648420,0.36000,60.1250,97,55,0.65446
9648430,-0.23500,59.8750,97,55,0.63956
9648440,-0.32500,59.3125,97,55,0.61050
9648450,-0.29000,59.0625,97,55,0.59536
9648460,-0.26500,58.8125,97,55,0.57998
9648470,-0.25000,58.5000,97,55,0.56532
9648480,-0.24000,58.0000,97,55,0.53797
9648490,-0.23000,57.7500,97,55,0.52527
9648500,-0.22000,57.5000,97,55,0.51331
9648510,-0.21000,57.2500,97,55,0.50183
9648520,-0.20500,56.7500,97,55,0.48132
9648530,-0.20000,56.5000,97,55,0.47326
9648540,-0.19000,56.2500,97,55,0.46618
9648550,-0.18000,55.9375,97,55,0.45836
9648560,-0.17000,55.5000,97,55,0.44322
9648570,-0.16000,55.3125,97,55,0.43590
9648580,-0.15500,55.2500,97,55,0.42906
9648590,-0.14000,55.3750,97,55,0.42247
9648600,-0.12500,57.1250,97,55,0.41026
9648610,-0.11000,59.3125,97,55,0.40464
9648620,-0.09000,62.5625,97,55,0.39927
9648630,-0.07000,66.7500,97,55,0.39512
9648640,-0.04500,76.4375,97,55,0.38706
9648650,-0.02000,81.1250,97,55,0.38242
9648660,0.01000,85.3750,97,55,0.37778
9648670,0.04000,89.0625,97,55,0.37314
9648680,0.06500,94.3750,97,55,0.36435
9648690,0.09500,96.1875,97,55,0.35995
9648700,0.12000,97.4375,97,55,0.35507
9648710,0.15000,98.2500,97,55,0.35018
9648720,0.18500,98.8750,97,55,0.34164
9648730,0.21500,98.8125,97,55,0.33846
9648740,0.22500,98.5000,97,55,0.33578
9648750,0.20500,98.0625,97,55,0.33211
9648760,0.15500,96.6875,97,55,0.32430
9648770,0.09500,95.8125,97,55,0.32039
9648780,0.03500,94.8750,97,55,0.31648
9648790,-0.01500,93.8125,97,55,0.31258
9648800,-0.04500,91.5000,97,55,0.30501
9648810,-0.06500,90.2500,97,55,0.30159
9648820,-0.08500,89.0000,97,55,0.29841
9648830,-0.09500,87.7500,97,55,0.29621
9648840,-0.10000,85.1250,97,55,0.29280
9648850,-0.10500,83.7500,97,55,0.29109
9648860,-0.10500,82.3125,97,55,0.29011
9648870,-0.10500,80.7500,97,55,0.29035
9648880,-0.10500,77.6250,97,55,0.29841
9648890,-0.11000,76.1250,97,55,0.30769
9648900,-0.10500,74.6250,97,55,0.32137
9648910,-0.10500,73.1875,97,55,0.33944
9648920,-0.10500,70.7500,97,55,0.38803
9648930,-0.10500,69.6250,97,55,0.41368
9648940,-0.11000,68.6875,97,55,0.43932
9648950,-0.10500,67.8125,97,55,0.46960
9648960,-0.09500,66.3750,97,55,0.53480
9648970,-0.08500,65.8125,97,55,0.56703
9648980,-0.07500,65.2500,97,55,0.59780
9648990,-0.07500,65.2500,97,55,0.59780
9649000,-0.04500,64.0625,97,55,0.67546
9649010,-0.03500,63.7500,97,55,0.69597
9649020,-0.01500,63.5000,97,55,0.71355
9649030,0.00000,63.2500,97,55,0.72601
9649040,-0.01500,62.8750,97,55,0.74261
9649050,-0.03500,62.6875,97,55,0.74896
9649060,-0.06500,62.5625,97,55,0.75336
9649070,-0.10000,62.3750,97,55,0.75580
9649080,-0.13500,62.1250,97,55,0.75433
9649090,-0.15000,61.9375,97,55,0.75092
9649100,-0.15000,61.7500,97,55,0.74603
9649110,-0.14500,61.5625,97,55,0.73993
9649120,-0.13000,61.1875,97,55,0.72332
9649130,-0.12000,61.0000,97,55,0.71380
9649140,-0.12500,60.8125,97,55,0.70330
9649150,-0.18500,60.5625,97,55,0.69158
9649160,-0.14000,60.1250,97,55,0.64786
9649170,0.28000,59.8750,97,55,0.60781
9649180,1.11000,59.6250,97,55,0.58022
9649190,1.65500,59.4375,97,55,0.55873
9649200,1.14000,58.9375,97,55,0.52357
9649210,0.21500,58.7500,97,55,0.50769
9649220,-0.25000,58.5000,97,55,0.49255
9649230,-0.31000,58.2500,97,55,0.47961
9649240,-0.26500,57.8125,97,55,0.45543
9649250,-0.24000,57.5625,97,55,0.44274
9649260,-0.23000,57.3125,97,55,0.43053
9649270,-0.22000,57.0625,97,55,0.41880
9649280,-0.21000,56.5625,97,55,0.39683
9649290,-0.20000,56.2500,97,55,0.38657
9649300,-0.19500,56.0625,97,55,0.37729
9649310,-0.19000,55.8125,97,55,0.36850
9649320,-0.18000,55.3125,97,55,0.35287
9649330,-0.17000,55.0625,97,55,0.34676
9649340,-0.16500,54.8125,97,55,0.34164
9649350,-0.15500,54.5625,97,55,0.33578
9649360,-0.14500,54.2500,97,55,0.32430
9649370,-0.13500,54.1875,97,55,0.31868
9649380,-0.12500,54.3125,97,55,0.31306
9649390,-0.10500,54.8125,97,55,0.30769
9649400,-0.09000,58.1875,97,55,0.29719
9649410,-0.07500,61.3125,97,55,0.29206
9649420,-0.05500,65.3125,97,55,0.28718
9649430,-0.03500,69.8125,97,55,0.28376
9649440,-0.00500,78.8750,97,55,0.27741
9649450,0.02000,82.9375,97,55,0.27375
9649460,0.05000,86.3750,97,55,0.26984
9649470,0.07500,89.3125,97,55,0.26593
9649480,0.10500,93.3125,97,55,0.25788
9649490,0.10500,93.3125,97,55,0.25788
9649500,0.16500,95.2500,97,55,0.25104
9649510,0.19500,95.6250,97,55,0.24835
9649520,0.22500,95.6250,97,55,0.24298
9649530,0.23500,95.3125,97,55,0.24127
9649540,0.21500,94.8125,97,55,0.24029
9649550,0.16500,94.1875,97,55,0.23834
9649560,0.10000,92.6250,97,55,0.23419
9649570,0.03000,91.6875,97,55,0.23223
9649580,-0.02000,90.6875,97,55,0.22955
9649590,-0.05500,89.6250,97,55,0.22735
9649600,-0.07500,87.2500,97,55,0.22320
9649610,-0.09500,86.0000,97,55,0.22100
9649620,-0.10000,84.7500,97,55,0.21856
9649630,-0.10500,83.5000,97,55,0.21734
9649640,-0.10500,80.7500,97,55,0.21636
9649650,-0.10000,79.2500,97,55,0.21587
9649660,-0.10500,77.7500,97,55,0.21685
9649670,-0.10500,76.2500,97,55,0.21954
9649680,-0.10500,73.3125,97,55,0.23321
9649690,-0.10500,71.9375,97,55,0.24542
9649700,-0.10500,70.6875,97,55,0.26154
9649710,-0.10500,69.5000,97,55,0.28132
9649720,-0.11000,67.3750,97,55,0.32991
9649730,-0.11000,66.5000,97,55,0.35433
9649740,-0.10500,65.6875,97,55,0.37802
9649750,-0.10000,65.0000,97,55,0.40513
9649760,-0.09000,63.8750,97,55,0.46203
9649770,-0.07000,63.4375,97,55,0.48962
9649780,-0.05500,63.0625,97,55,0.51551
9649790,-0.04500,62.7500,97,55,0.53919
9649800,-0.02500,62.2500,97,55,0.57900
9649810,0.00000,62.0625,97,55,0.59487
9649820,-0.00500,61.9375,97,55,0.60806
9649830,-0.03500,61.7500,97,55,0.61709
9649840,-0.06000,61.5000,97,55,0.62906
9649850,-0.09500,61.3750,97,55,0.63346
9649860,-0.13500,61.3125,97,55,0.63590
9649870,-0.15500,61.1875,97,55,0.63663
9649880,-0.16000,60.9375,97,55,0.63321
9649890,-0.16000,60.7500,97,55,0.62906
9649900,-0.14500,60.6250,97,55,0.62320
9649910,-0.13500,60.4375,97,55,0.61612
9649920,-0.12500,60.0625,97,55,0.59951
9649930,-0.16000,59.8125,97,55,0.59048
9649940,-0.21000,59.6250,97,55,0.57998
9649950,-0.02500,59.4375,97,55,0.56874
9649960,0.61500,58.9375,97,55,0.54432
9649970,1.43500,58.7500,97,55,0.53114
9649980,1.53000,58.5000,97,55,0.51770
9649990,0.70000,58.2500,97,55,0.50379
9650000,-0.06500,57.8125,97,55,0.47595
9650010,-0.31000,57.5625,97,55,0.46252
9650020,-0.30000,57.3125,97,55,0.44957
9650030,-0.26500,57.1250,97,55,0.43858
9650040,-0.25000,56.6250,97,55,0.41807
9650050,-0.23500,56.3750,97,55,0.40733
9650060,-0.22500,56.1250,97,55,0.39683
9650070,-0.22000,55.9375,97,55,0.38632
9650080,-0.21000,55.5000,97,55,0.36752
9650090,-0.20000,55.2500,97,55,0.35922
9650100,-0.20000,55.2500,97,55,0.35922
9650110,-0.19000,54.8750,97,55,0.34432
9650120,-0.18000,54.4375,97,55,0.33358
9650130,-0.17000,54.2500,97,55,0.32967
9650140,-0.16000,54.0000,97,55,0.32503
9650150,-0.15000,53.8750,97,55,0.32039
9650160,-0.13500,54.1250,97,55,0.31233
9650170,-0.12500,54.8125,97,55,0.30842
9650180,-0.10500,56.1875,97,55,0.30501
9650190,-0.09000,58.5000,97,55,0.30208
9650200,-0.07000,65.7500,97,55,0.29719
9650210,-0.05500,70.1875,97,55,0.29451
9650220,-0.02500,74.7500,97,55,0.29158
9650230,0.00000,79.0625,97,55,0.28962
9650240,0.03000,86.3750,97,55,0.28547
9650250,0.05500,89.1250,97,55,0.28230
9650260,0.08000,91.3750,97,55,0.27912
9650270,0.11000,93.0625,97,55,0.27595
9650280,0.14000,95.1250,97,55,0.26984
9650290,0.17000,95.6250,97,55,0.26716
9650300,0.20000,95.8750,97,55,0.26447
9650310,0.21500,95.9375,97,55,0.26178
9650320,0.20500,95.4375,97,55,0.25714
9650330,0.16000,94.9375,97,55,0.25592
9650340,0.10000,94.2500,97,55,0.25397
9650350,0.03000,93.5000,97,55,0.25177
9650360,-0.02500,91.6875,97,55,0.24689
9650370,-0.06500,90.6250,97,55,0.24444
9650380,-0.09500,89.5000,97,55,0.24176
9650390,-0.10500,88.3750,97,55,0.23932
9650400,-0.11000,85.9375,97,55,0.23516
9650410,-0.11500,84.7500,97,55,0.23346
9650420,-0.11500,83.5000,97,55,0.23223
9650430,-0.11500,82.1875,97,55,0.23223
9650440,-0.11500,79.2500,97,55,0.23565
9650450,-0.11500,77.6875,97,55,0.23956
9650460,-0.11500,76.1250,97,55,0.24567
9650470,-0.11500,74.6250,97,55,0.25470
9650480,-0.11500,71.9375,97,55,0.28303
9650490,-0.11500,70.7500,97,55,0.30256
9650500,-0.11500,69.6250,97,55,0.32552
9650510,-0.11500,68.5625,97,55,0.35189
9650520,-0.11500,66.8125,97,55,0.40659
9650530,-0.10500,66.1875,97,55,0.43150
9650540,-0.09500,65.5625,97,55,0.45934
9650550,-0.08000,65.0625,97,55,0.48791
9650560,-0.06500,64.1875,97,55,0.54286
9650570,-0.06000,63.8750,97,55,0.56777
9650580,-0.03500,63.5625,97,55,0.59048
9650590,-0.01500,63.3125,97,55,0.61050
9650600,-0.02500,62.8750,97,55,0.64322
9650610,-0.05000,62.7500,97,55,0.65592
9650620,-0.05000,62.7500,97,55,0.65592
9650630,-0.11000,62.5000,97,55,0.67253
9650640,-0.14500,62.3125,97,55,0.67937
9650650,-0.16500,62.1875,97,55,0.68132
9650660,-0.17000,62.0625,97,55,0.68181
9650670,-0.16500,61.8125,97,55,0.68083
9650680,-0.15500,61.2500,97,55,0.67521
9650690,-0.14500,61.1250,97,55,0.67082
9650700,-0.13500,60.9375,97,55,0.66520
9650710,-0.18500,60.7500,97,55,0.65836
9650720,-0.21500,60.3125,97,55,0.64225
9650730,0.05500,60.1250,97,55,0.63346
9650740,0.77500,59.8750,97,55,0.62344
9650750,1.53500,59.6250,97,55,0.61270
9650760,1.43500,59.1875,97,55,0.58999
9650770,0.53000,58.9375,97,55,0.57851
9650780,-0.15500,58.6875,97,55,0.56654
9650790,-0.32000,58.5000,97,55,0.55458
9650800,-0.30000,58.0625,97,55,0.53162
9650810,-0.26500,57.8125,97,55,0.52063
9650820,-0.25000,57.5625,97,55,0.51038
9650830,-0.24000,57.3125,97,55,0.50134
9650840,-0.23000,56.8750,97,55,0.48523
9650850,-0.23000,56.6250,97,55,0.47717
9650860,-0.22000,56.3750,97,55,0.46960
9650870,-0.21000,56.1875,97,55,0.46300
9650880,-0.20000,55.6875,97,55,0.45128
9650890,-0.19500,55.4375,97,55,0.44615
9650900,-0.19000,55.2500,97,55,0.44127
9650910,-0.18000,55.0000,97,55,0.43639
9650920,-0.17000,54.7500,97,55,0.42759
9650930,-0.16500,54.6875,97,55,0.42418
9650940,-0.15000,54.8750,97,55,0.42027
9650950,-0.13500,55.4375,97,55,0.41685
9650960,-0.12000,58.8125,97,55,0.41148
9650970,-0.10500,61.9375,97,55,0.40952
9650980,-0.08500,65.8750,97,55,0.40781
9650990,-0.06000,70.2500,97,55,0.40586
9651000,-0.03500,79.1875,96,54,0.40122
9651010,-0.00500,83.2500,96,54,0.39878
9651020,0.02000,86.7500,96,54,0.39634
9651030,0.05000,89.7500,96,54,0.39414
9651040,0.08000,94.0625,96,54,0.38926
9651050,0.10500,95.4375,96,54,0.38632
9651060,0.13000,96.4375,96,54,0.38339
9651070,0.16500,97.0625,96,54,0.38071
9651080,0.19500,97.6875,96,54,0.37558
9651090,0.20500,97.6875,96,54,0.37338
9651100,0.18500,97.5000,96,54,0.37094
9651110,0.14000,97.1250,96,54,0.36850
9651120,0.07000,96.0000,96,54,0.36435
9651130,0.01000,95.3125,96,54,0.36264
9651140,-0.04500,94.5000,96,54,0.36020
9651150,-0.08500,93.6250,96,54,0.35751
9651160,-0.10500,91.5625,96,54,0.35165
9651170,-0.11500,90.4375,96,54,0.34896
9651180,-0.12000,89.3125,96,54,0.34579
9651190,-0.12500,88.1875,96,54,0.34237
9651200,-0.12000,85.6875,96,54,0.33651
9651210,-0.12000,84.3750,96,54,0.34505
9651220,-0.12000,82.9375,96,54,0.36020
9651230,-0.12500,81.4375,96,54,0.36874
9651240,-0.12500,78.3750,96,54,0.38266
9651250,-0.12500,76.8750,96,54,0.39267
9651260,-0.12500,75.5000,96,54,0.40635
9651270,-0.12500,74.1250,96,54,0.42344
9651280,-0.12500,71.6250,96,54,0.46813
9651290,-0.12500,70.5625,96,54,0.49451
9651300,-0.12000,69.5625,96,54,0.52259
9651310,-0.11500,68.7500,96,54,0.55140
9651320,-0.09500,67.3125,96,54,0.60488
9651330,-0.07500,66.7500,96,54,0.62662
9651340,-0.07000,66.2500,96,54,0.65006
9651350,-0.05500,65.8125,96,54,0.67326
9651360,-0.03000,65.0625,96,54,0.71453
9651370,-0.03000,64.7500,96,54,0.73138
9651380,-0.04500,64.5000,96,54,0.74530
9651390,-0.07500,64.3125,96,54,0.75653
9651400,-0.10500,63.8750,96,54,0.77167
9651410,-0.14500,63.6875,96,54,0.77558
9651420,-0.17000,63.5000,96,54,0.77753
9651430,-0.17500,63.3125,96,54,0.77680
9651440,-0.17500,63.3125,96,54,0.77680
9651450,-0.16500,62.7500,96,54,0.76679
9651460,-0.15500,62.5000,96,54,0.76166
9651470,-0.14500,62.2500,96,54,0.75531
9651480,-0.17000,61.7500,96,54,0.73944
9651490,-0.23000,61.5000,96,54,0.73016
9651500,-0.07500,61.2500,96,54,0.71990
9651510,0.54500,61.0625,96,54,0.70842
9651520,1.41500,60.6250,96,54,0.68425
9651530,1.64500,60.3750,96,54,0.67204
9651540,0.90000,60.2500,96,54,0.65861
9651550,0.02500,60.0625,96,54,0.64444
9651560,-0.32500,59.6250,96,54,0.61538
9651570,-0.33000,59.4375,96,54,0.60073
9651580,-0.29000,59.2500,96,54,0.58608
9651590,-0.27500,59.0625,96,54,0.57143
9651600,-0.26000,58.6875,96,54,0.54237
9651610,-0.25500,58.5000,96,54,0.52869
9651620,-0.24000,58.3125,96,54,0.51551
9651630,-0.23500,58.0625,96,54,0.50134
9651640,-0.23000,57.6875,96,54,0.48156
9651650,-0.22000,57.4375,96,54,0.47302
9651660,-0.21000,57.2500,96,54,0.46471
9651670,-0.20500,57.0000,96,54,0.45641
9651680,-0.20000,56.5625,96,54,0.44151
9651690,-0.19000,56.4375,96,54,0.43468
9651700,-0.17500,56.3125,96,54,0.42808
9651710,-0.16500,56.3750,96,54,0.42173
9651720,-0.15500,57.9375,96,54,0.40977
9651730,-0.13500,60.0000,96,54,0.40488
9651740,-0.11500,63.0625,96,54,0.40122
9651750,-0.10000,67.0625,96,54,0.39731
9651760,-0.07500,76.4375,96,54,0.38852
9651770,-0.04500,81.1250,96,54,0.38388
9651780,-0.02000,85.4375,96,54,0.37924
9651790,0.00500,89.2500,96,54,0.37460
9651800,0.03500,95.0625,96,54,0.36557
9651810,0.06500,97.0625,96,54,0.36117
9651820,0.09000,98.5625,96,54,0.35800
9651830,0.11500,99.6250,96,54,0.35531
9651840,0.14500,100.7500,96,54,0.34652
9651850,0.17000,100.9375,96,54,0.34188
9651860,0.19000,101.0000,96,54,0.33846
9651870,0.18500,100.8125,96,54,0.33455
9651880,0.14500,99.8125,96,54,0.32479
9651890,0.09000,99.1250,96,54,0.32137
9651900,0.02000,98.2500,96,54,0.31770
9651910,-0.03500,97.3125,96,54,0.31282
9651920,-0.07500,95.2500,96,54,0.30672
9651930,-0.09500,94.1875,96,54,0.30549
9651940,-0.11000,93.0000,96,54,0.30330
9651950,-0.12000,91.8750,96,54,0.30061
9651960,-0.12500,89.3750,96,54,0.29621
9651970,-0.12500,88.1250,96,54,0.29499
9651980,-0.12500,86.7500,96,54,0.29475
9651990,-0.12500,85.3125,96,54,0.29695
9652000,-0.12500,82.1875,97,55,0.30794
9652010,-0.12500,80.5625,97,55,0.31697
9652020,-0.12500,79.0000,97,55,0.33309
9652030,-0.12500,77.5000,97,55,0.34652
9652040,-0.12500,74.7500,97,55,0.39683
9652050,-0.12500,73.5625,97,55,0.42759
9652060,-0.12500,72.4375,97,55,0.45104
9652070,-0.12000,71.5000,97,55,0.47937
9652080,-0.11500,69.7500,97,55,0.55263
9652090,-0.09500,69.0625,97,55,0.58437
9652100,-0.07500,68.5000,97,55,0.61319
9652110,-0.06500,68.0000,97,55,0.63907
9652120,-0.05500,67.2500,97,55,0.67521
9652130,-0.03500,66.9375,97,55,0.69109
9652140,-0.02500,66.6875,97,55,0.70525
9652150,-0.05000,66.4375,97,55,0.71722
9652160,-0.07000,66.0625,97,55,0.73407
9652170,-0.09500,65.8750,97,55,0.73895
9652180,-0.13000,65.7500,97,55,0.74188
9652190,-0.16000,65.6250,97,55,0.74261
9652200,-0.17000,65.3125,97,55,0.73871
9652210,-0.16500,65.1250,97,55,0.73455
9652220,-0.15500,65.0000,97,55,0.72894
9652230,-0.15500,64.8125,97,55,0.72259
9652240,-0.14500,64.3125,97,55,0.70623
9652250,-0.17000,64.0625,97,55,0.69670
9652260,-0.21000,63.8125,97,55,0.68620
9652270,0.01000,63.5625,97,55,0.67473
9652280,0.68000,63.0625,97,55,0.64933
9652290,1.52000,62.8125,97,55,0.63565
9652300,1.66500,62.5000,97,55,0.62149
9652310,0.82000,62.2500,97,55,0.60684
9652320,-0.03500,61.7500,97,55,0.58022
9652330,-0.31500,61.4375,97,55,0.56606
9652340,-0.30500,61.1875,97,55,0.55116
9652350,-0.28000,60.8750,97,55,0.53626
9652360,-0.26500,60.2500,97,55,0.50720
9652370,-0.26000,59.9375,97,55,0.49377
9652380,-0.25000,59.6875,97,55,0.48083
9652390,-0.24000,59.3750,97,55,0.46838
9652400,-0.23000,58.8125,97,55,0.44542
9652410,-0.22500,58.5625,97,55,0.43639
9652420,-0.21500,58.2500,97,55,0.42857
9652430,-0.21000,58.0000,97,55,0.42002
9652440,-0.20000,57.5000,97,55,0.40342
9652450,-0.19500,57.2500,97,55,0.39585
9652460,-0.18500,57.0000,97,55,0.38877
9652470,-0.17500,56.8125,97,55,0.38242
9652480,-0.16000,57.1875,97,55,0.37167
9652490,-0.15000,58.1875,97,55,0.36703
9652500,-0.13500,60.0625,97,55,0.36264
9652510,-0.11500,63.0625,97,55,0.35849
9652520,-0.09500,71.6875,97,55,0.35263
9652530,-0.07500,76.6250,97,55,0.34896
9652540,-0.05000,81.5000,97,55,0.34505
9652550,-0.02500,86.0000,97,55,0.34115
9652560,0.00500,93.1875,97,55,0.33382
9652570,0.03500,95.8125,97,55,0.32991
9652580,0.06500,97.8125,97,55,0.32625
9652590,0.09000,99.2500,97,55,0.32259
9652600,0.12000,100.7500,97,55,0.31526
9652610,0.14500,101.0000,97,55,0.31258
9652620,0.17500,101.0000,97,55,0.31038
9652630,0.19000,100.8750,97,55,0.30769
9652640,0.18500,99.9375,97,55,0.30159
9652650,0.14500,99.2500,97,55,0.29817
9652660,0.09000,98.4375,97,55,0.29499
9652670,0.03000,97.5625,97,55,0.29182
9652680,-0.01500,95.5625,97,55,0.28596
9652690,-0.05500,94.5000,97,55,0.28352
9652700,-0.07500,93.3125,97,55,0.28107
9652710,-0.09500,92.1875,97,55,0.27839
9652720,-0.10000,89.6250,97,55,0.27595
9652730,-0.10500,88.3125,97,55,0.27448
9652740,-0.11000,86.9375,97,55,0.27326
9652750,-0.11500,85.5625,97,55,0.27302
9652760,-0.11500,82.5625,97,55,0.27912
9652770,-0.11500,80.9375,97,55,0.28694
9652780,-0.12000,79.2500,97,55,0.29890
9652790,-0.12000,77.6250,97,55,0.31502
9652800,-0.12000,74.6250,97,55,0.36020
9652810,-0.12000,73.3125,97,55,0.38462
9652820,-0.12000,72.0625,97,55,0.40952
9652830,-0.12000,71.0000,97,55,0.43907
9652840,-0.12000,69.1250,97,55,0.50330
9652850,-0.11500,68.3125,97,55,0.53578
9652860,-0.10000,67.6250,97,55,0.56728
9652870,-0.08000,67.0625,97,55,0.59683
9652880,-0.06000,66.1250,97,55,0.64933
9652890,-0.05500,65.7500,97,55,0.67131
9652900,-0.03500,65.3750,97,55,0.69035
9652910,-0.01500,65.0625,97,55,0.70672
9652920,-0.01500,64.5625,97,55,0.72552
9652930,-0.04000,64.3750,97,55,0.73236
9652940,-0.06500,64.1875,97,55,0.73773
9652950,-0.10000,64.0625,97,55,0.74115
9652960,-0.14000,63.6250,97,55,0.74212
9652970,-0.16000,63.4375,97,55,0.73993
9652980,-0.16000,63.3125,97,55,0.73602
9652990,-0.15500,63.1250,97,55,0.73065
9653000,-0.14500,62.7500,97,55,0.71600
9653010,-0.13500,62.5000,97,55,0.70696
9653020,-0.13000,62.3125,97,55,0.69719
9653030,-0.17000,62.0625,97,55,0.68620
9653040,-0.20000,61.5625,97,55,0.66081
9653050,0.08000,61.3125,97,55,0.64689
9653060,0.79500,61.1250,97,55,0.63223
9653070,1.55000,60.8750,97,55,0.61734
9653080,1.47000,60.4375,97,55,0.58584
9653090,0.55500,60.1875,97,55,0.56972
9653100,-0.16000,59.9375,97,55,0.55336
9653110,-0.32500,59.6875,97,55,0.53724
9653120,-0.29000,59.0625,97,55,0.51013
9653130,-0.26000,58.8125,97,55,0.49621
9653140,-0.24500,58.5625,97,55,0.48230
9653150,-0.24000,58.3125,97,55,0.46862
9653160,-0.23000,57.8125,97,55,0.44322
9653170,-0.22000,57.5000,97,55,0.43101
9653180,-0.20500,57.2500,97,55,0.41954
9653190,-0.20000,56.9375,97,55,0.40879
9653200,-0.19000,56.3750,97,55,0.38901
9653210,-0.19000,56.1250,97,55,0.38169
9653220,-0.18000,55.8750,97,55,0.37558
9653230,-0.17500,55.6875,97,55,0.36874
9653240,-0.16000,55.3125,97,55,0.35458
9653250,-0.15000,55.2500,97,55,0.34188
9653260,-0.14000,55.4375,97,55,0.32674
9653270,-0.12500,56.0000,97,55,0.31624
9653280,-0.11000,59.5000,97,55,0.30208
9653290,-0.09000,62.7500,97,55,0.29646
9653300,-0.06500,66.8125,97,55,0.29133
9653310,-0.05000,71.4375,97,55,0.28645
9653320,-0.02500,80.6250,97,55,0.28034
9653330,0.00000,84.6875,97,55,0.27692
9653340,0.03000,88.2500,97,55,0.27302
9653350,0.05500,91.1250,97,55,0.26911
9653360,0.08500,95.1250,97,55,0.26129
9653370,0.11500,96.3125,97,55,0.25739
9653380,0.14500,97.0625,97,55,0.25372
9653390,0.17500,97.4375,97,55,0.25031
9653400,0.20500,97.3750,97,55,0.24347
9653410,0.21500,97.1250,97,55,0.24127
9653420,0.20500,96.6250,97,55,0.23980
9653430,0.15500,96.0000,97,55,0.23761
9653440,0.09000,94.3750,97,55,0.23272
9653450,0.03000,93.3750,97,55,0.23028
9653460,-0.02000,92.3125,97,55,0.22759
9653470,-0.05500,91.1875,97,55,0.22491
9653480,-0.08000,88.8125,97,55,0.21954
9653490,-0.09500,87.5625,97,55,0.21661
9653500,-0.10500,86.3125,97,55,0.21392
9653510,-0.11000,85.0625,97,55,0.21270
9653520,-0.11000,82.3125,97,55,0.21123
9653530,-0.11000,80.8125,97,55,0.21123
9653540,-0.11000,79.3125,97,55,0.21319
9653550,-0.11000,77.7500,97,55,0.21807
9653560,-0.11500,74.6875,97,55,0.23907
9653570,-0.11500,73.2500,97,55,0.25568
9653580,-0.11500,71.9375,97,55,0.27643
9653590,-0.11500,70.7500,97,55,0.30061
9653600,-0.11500,68.6250,97,55,0.35800
9653610,-0.11000,67.7500,97,55,0.38535
9653620,-0.10500,66.9375,97,55,0.41148
9653630,-0.09500,66.2500,97,55,0.44078
9653640,-0.09500,66.2500,97,55,0.44078
9653650,-0.05500,64.6250,97,55,0.52943
9653660,-0.05000,64.1875,97,55,0.55604
9653670,-0.03000,63.8750,97,55,0.57973
9653680,-0.01000,63.2500,97,55,0.61856
9653690,-0.01500,63.0000,97,55,0.63346
9653700,-0.04000,62.8125,97,55,0.64542
9653710,-0.07000,62.5625,97,55,0.65324
9653720,-0.10500,62.2500,97,55,0.66203
9653730,-0.14500,62.1250,97,55,0.66471
9653740,-0.16000,61.9375,97,55,0.66569
9653750,-0.16500,61.8125,97,55,0.66520
9653760,-0.16000,61.4375,97,55,0.65885
9653770,-0.15500,61.2500,97,55,0.65372
9653780,-0.14500,61.0625,97,55,0.64713
9653790,-0.14000,60.8750,97,55,0.63956
9653800,-0.18000,60.5000,97,55,0.62100
9653810,-0.20500,60.3125,97,55,0.61123
9653820,0.05500,60.1250,97,55,0.60122
9653830,0.78500,59.8750,97,55,0.58974
9653840,1.55000,59.4375,97,55,0.56361
9653850,1.55000,59.4375,97,55,0.56361
9653860,1.37500,59.2500,97,55,0.54945
9653870,-0.16500,58.8125,97,55,0.52039
9653880,-0.33000,58.3750,97,55,0.49133
9653890,-0.29500,58.1875,97,55,0.47717
9653900,-0.26000,57.9375,97,55,0.46349
9653910,-0.25000,57.6875,97,55,0.45177
9653920,-0.23500,57.1875,97,55,0.43004
9653930,-0.22500,56.9375,97,55,0.41905
9653940,-0.21500,56.6875,97,55,0.40879
9653950,-0.21000,56.4375,97,55,0.39902
9653960,-0.20000,55.9375,97,55,0.38144
9653970,-0.19500,55.6875,97,55,0.37314
9653980,-0.18500,55.4375,97,55,0.36557
9653990,-0.18000,55.1875,97,55,0.35824
9654000,-0.16500,54.7500,97,55,0.34505
9654010,-0.15500,54.5625,97,55,0.34017
9654020,-0.14500,54.5000,97,55,0.33626
9654030,-0.13500,54.5625,97,55,0.33211
9654040,-0.13500,54.5625,97,55,0.33211
9654050,-0.10500,57.5000,97,55,0.31990
9654060,-0.09000,60.1875,97,55,0.31575
9654070,-0.07000,63.7500,97,55,0.31160
9654080,-0.05500,72.4375,97,55,0.30305
9654090,-0.02500,76.9375,97,55,0.29915
9654100,-0.00500,81.0625,97,55,0.29524
9654110,0.02500,84.8125,97,55,0.29231
9654120,0.05500,90.5000,97,55,0.28718
9654130,0.08000,92.3750,97,55,0.28400
9654140,0.11000,93.7500,97,55,0.28059
9654150,0.14000,94.6875,97,55,0.27692
9654160,0.17000,95.6250,97,55,0.26960
9654170,0.20000,95.6250,97,55,0.26618
9654180,0.21500,95.4375,97,55,0.26300
9654190,0.20500,95.1250,97,55,0.26007
9654200,0.15500,94.0625,97,55,0.25397
9654210,0.09000,93.3125,97,55,0.25226
9654220,0.02500,92.4375,97,55,0.25104
9654230,-0.02500,91.4375,97,55,0.24908
9654240,-0.02500,91.4375,97,55,0.24908
9654250,-0.08500,88.0625,97,55,0.24054
9654260,-0.10500,86.8750,97,55,0.23736
9654270,-0.10500,85.6875,97,55,0.23468
9654280,-0.11500,83.1250,97,55,0.23028
9654290,-0.11500,83.1250,97,55,0.23028
9654300,-0.11500,80.3125,97,55,0.22882
9654310,-0.11500,78.8125,97,55,0.23053
9654320,-0.11500,75.6875,97,55,0.24029
9654330,-0.11500,74.1250,97,55,0.24957
9654340,-0.11500,72.7500,97,55,0.26252
9654350,-0.12000,71.4375,97,55,0.27912
9654360,-0.12000,69.0625,97,55,0.32430
9654370,-0.12000,68.0000,97,55,0.35140
9654380,-0.11500,67.0625,97,55,0.38071
9654390,-0.11500,66.2500,97,55,0.41123
9654400,-0.10500,64.9375,97,55,0.47399
9654410,-0.09000,64.4375,97,55,0.50085
9654420,-0.07000,64.0625,97,55,0.52454
9654430,-0.06000,63.6875,97,55,0.54921
9654440,-0.04500,63.0625,97,55,0.59512
9654450,-0.02000,62.8125,97,55,0.61441
9654460,-0.01500,62.6250,97,55,0.63101
9654470,-0.03500,62.4375,97,55,0.64469
9654480,-0.06000,62.1250,97,55,0.66349
9654490,-0.09000,61.9375,97,55,0.66911
9654500,-0.12500,61.8750,97,55,0.67253
9654510,-0.15500,61.7500,97,55,0.67326
9654520,-0.16000,61.4375,97,55,0.66984
9654530,-0.16000,61.2500,97,55,0.66642
9654540,-0.16000,61.2500,97,55,0.66642
9654550,-0.15000,60.9375,97,55,0.65543
9654560,-0.14000,60.5000,97,55,0.63980
9654570,-0.14500,60.3125,97,55,0.62979
9654580,-0.21000,60.1250,97,55,0.61905
9654590,-0.14500,59.8750,97,55,0.60733
9654600,0.35000,59.4375,97,55,0.58022
9654610,1.19000,59.2500,97,55,0.56728
9654620,1.60500,59.0625,97,55,0.55458
9654630,1.02500,58.8125,97,55,0.54066
9654640,0.13000,58.4375,97,55,0.51136
9654650,-0.29000,58.1875,97,55,0.49670
9654660,-0.32000,57.9375,97,55,0.48230
9654670,-0.28000,57.6875,97,55,0.46838
9654680,-0.26000,57.1875,97,55,0.44249
9654690,-0.24500,56.9375,97,55,0.43028
9654700,-0.23500,56.6875,97,55,0.41905
9654710,-0.22500,56.4375,97,55,0.40977
9654720,-0.22000,55.9375,97,55,0.39365
9654730,-0.21000,55.6875,97,55,0.38584
9654740,-0.20500,55.4375,97,55,0.37802
9654750,-0.19500,55.1875,97,55,0.37070
9654760,-0.19000,54.6875,97,55,0.35678
9654770,-0.18000,54.4375,97,55,0.35067
9654780,-0.17000,54.2500,97,55,0.34481
9654790,-0.17000,54.2500,97,55,0.34481
9654800,-0.15500,54.3125,97,55,0.33089
9654810,-0.13500,54.9375,97,55,0.32772
9654820,-0.12500,56.3125,97,55,0.32503
9654830,-0.10500,58.6250,97,55,0.32137
9654840,-0.08500,66.0625,97,55,0.31331
9654850,-0.06500,70.6250,97,55,0.30940
9654860,-0.04500,75.3125,97,55,0.30574
9654870,-0.02000,79.7500,97,55,0.30232
9654880,0.00500,87.3125,97,55,0.29597
9654890,0.03500,90.1875,97,55,0.29280
9654900,0.06500,92.4375,97,55,0.28962
9654910,0.09000,94.1250,97,55,0.28742
9654920,0.12000,96.1250,97,55,0.28303
9654930,0.15000,96.6250,97,55,0.28010
9654940,0.18000,96.8750,97,55,0.27717
9654950,0.20500,96.8750,97,55,0.27399
9654960,0.20500,96.3750,97,55,0.26789
9654970,0.17500,95.8750,97,55,0.26496
9654980,0.11000,95.1250,97,55,0.26227
9654990,0.04000,94.3125,97,55,0.25934
9655000,-0.01500,92.3750,97,55,0.25250
9655010,-0.05500,91.3750,97,55,0.25031
9655020,-0.09000,90.2500,97,55,0.24884
9655030,-0.10500,89.1250,97,55,0.24689
9655040,-0.11500,86.6875,97,55,0.24151
9655050,-0.11500,85.4375,97,55,0.23907
9655060,-0.11500,84.1875,97,55,0.23687
9655070,-0.11500,82.8125,97,55,0.23565
9655080,-0.11500,79.8750,97,55,0.23858
9655090,-0.11500,78.3125,97,55,0.24444
9655100,-0.11500,76.7500,97,55,0.25372
9655110,-0.12000,75.2500,97,55,0.26520
9655120,-0.12500,72.4375,97,55,0.29768
9655130,-0.12500,71.1250,97,55,0.32039
9655140,-0.12500,69.9375,97,55,0.34652
9655150,-0.12500,68.8750,97,55,0.37558
9655160,-0.12000,67.0625,97,55,0.43858
9655170,-0.11500,66.3750,97,55,0.47131
9655180,-0.09500,65.7500,97,55,0.50379
9655190,-0.07500,65.1875,97,55,0.53504
9655200,-0.07000,64.3750,97,55,0.59121
9655210,-0.05500,64.0000,97,55,0.61221
9655220,-0.03000,63.6875,97,55,0.62906
9655230,-0.02000,63.4375,97,55,0.64567
9655240,-0.04000,63.0625,97,55,0.67375
9655250,-0.06500,62.9375,97,55,0.68425
9655260,-0.09500,62.8750,97,55,0.69255
9655270,-0.13000,62.7500,97,55,0.69841
9655280,-0.16000,62.5625,97,55,0.70452
9655290,-0.17000,62.4375,97,55,0.70452
9655300,-0.17000,62.2500,97,55,0.71355
9655310,-0.16500,62.1250,97,55,0.72576
9655320,-0.16000,61.7500,97,55,0.72625
9655330,-0.15000,61.5625,97,55,0.72088
9655340,-0.15000,61.5625,97,55,0.72088
9655350,-0.22500,61.1875,97,55,0.70403
9655360,-0.15000,60.8125,97,55,0.68205
9655370,0.33500,60.6250,97,55,0.66935
9655380,1.20000,60.3750,97,55,0.65568
9655390,1.67500,60.1875,97,55,0.64127
9655400,1.07500,59.7500,97,55,0.61270
9655410,0.15500,59.5000,97,55,0.59976
9655420,-0.28000,59.2500,97,55,0.58584
9655430,-0.33000,59.0000,97,55,0.57143
9655440,-0.29500,58.5000,97,55,0.54261
9655450,-0.27000,58.2500,97,55,0.52869
9655460,-0.26000,58.0625,97,55,0.51526
9655470,-0.25000,57.8125,97,55,0.50232
9655480,-0.24000,57.3125,97,55,0.47790
9655490,-0.23500,57.0625,97,55,0.46667
9655500,-0.23000,56.8125,97,55,0.45641
9655510,-0.22000,56.6250,97,55,0.44811
9655520,-0.21000,56.1250,97,55,0.43419
9655530,-0.20000,55.8750,97,55,0.42735
9655540,-0.20000,55.6875,97,55,0.42076
9655550,-0.19000,55.4375,97,55,0.41416
9655560,-0.17500,55.3125,97,55,0.40195
9655570,-0.16000,55.5625,97,55,0.39658
9655580,-0.15500,56.2500,97,55,0.39170
9655590,-0.13500,57.6875,97,55,0.38730
9655600,-0.12000,63.5625,97,55,0.37973
9655610,-0.09500,67.8125,97,55,0.37705
9655620,-0.07500,72.5625,97,55,0.37387
9655630,-0.05000,77.3750,97,55,0.37021
9655640,-0.02500,86.1250,97,55,0.36288
9655650,0.00000,89.6875,97,55,0.35946
9655660,0.03000,92.6250,97,55,0.35629
9655670,0.06000,94.8750,97,55,0.35311
9655680,0.08500,97.8750,97,55,0.34652
9655690,0.11500,98.7500,97,55,0.34335
9655700,0.14500,99.3125,97,55,0.34017
9655710,0.17500,99.6250,97,55,0.33773
9655720,0.19000,99.5000,97,55,0.33358
9655730,0.19500,99.1875,97,55,0.33040
9655740,0.15500,98.6875,97,55,0.32723
9655750,0.10000,98.0000,97,55,0.32430
9655760,0.03500,96.3125,97,55,0.31795
9655770,-0.02500,95.3750,97,55,0.31477
9655780,-0.06500,94.3750,97,55,0.31160
9655790,-0.09000,93.3125,97,55,0.30867
9655800,-0.11000,91.0625,97,55,0.30403
9655810,-0.11500,89.8750,97,55,0.30281
9655820,-0.12500,88.6250,97,55,0.30110
9655830,-0.12500,87.3750,97,55,0.29963
9655840,-0.12500,84.6250,97,55,0.29963
9655850,-0.12500,83.1875,97,55,0.30256
9655860,-0.12500,81.6250,97,55,0.30818
9655870,-0.12000,80.0625,97,55,0.31722
9655880,-0.12000,76.9375,97,55,0.34847
9655890,-0.11500,75.4375,97,55,0.37045
9655900,-0.11500,74.1250,97,55,0.39658
9655910,-0.12000,72.8125,97,55,0.42222
9655920,-0.12000,70.5625,97,55,0.47839
9655930,-0.11500,69.6875,97,55,0.51136
9655940,-0.11500,68.8750,97,55,0.54505
9655950,-0.10500,68.1875,97,55,0.57851
9655960,-0.08000,67.0625,97,55,0.64078
9655970,-0.07000,66.5625,97,55,0.66862
9655980,-0.06500,66.1875,97,55,0.69353
9655990,-0.04500,65.8125,97,55,0.71551
9656000,-0.02500,65.3125,97,55,0.74823
9656010,-0.04000,65.1250,97,55,0.75824
9656020,-0.06000,64.9375,97,55,0.76777
9656030,-0.08000,64.7500,97,55,0.77582
9656040,-0.11500,64.5000,97,55,0.78632
9656050,-0.15500,64.3750,97,55,0.78877
9656060,-0.17000,64.2500,97,55,0.78926
9656070,-0.17000,64.0625,97,55,0.78803
9656080,-0.17000,63.7500,97,55,0.78095
9656090,-0.15500,63.5625,97,55,0.77534
9656100,-0.14500,63.3750,97,55,0.76850
9656110,-0.15000,63.1875,97,55,0.76068
9656120,-0.21000,62.8125,97,55,0.74164
9656130,-0.17000,62.5625,97,55,0.73016
9656140,0.26500,62.3750,97,55,0.71770
9656150,1.10000,62.1250,97,55,0.70452
9656160,1.70500,61.6250,97,55,0.67619
9656170,1.32500,61.4375,97,55,0.66129
9656180,0.35000,61.1875,97,55,0.64615
9656190,-0.24000,61.0000,97,55,0.63077
9656200,-0.33500,60.4375,97,55,0.60171
9656210,-0.30000,60.1875,97,55,0.58877
9656220,-0.28000,59.9375,97,55,0.57534
9656230,-0.26500,59.6875,97,55,0.56215
9656240,-0.25500,59.2500,97,55,0.53651
9656250,-0.25500,59.2500,97,55,0.53651
9656260,-0.25500,59.2500,97,55,0.53651
9656270,-0.25500,59.2500,97,55,0.53651
9656280,-0.22000,58.0625,97,55,0.48230
9656290,-0.21000,57.8125,97,55,0.47375
9656300,-0.21000,57.5625,97,55,0.46545
9656310,-0.20000,57.3125,97,55,0.45885
9656320,-0.19000,56.8750,97,55,0.44689
9656330,-0.18000,56.8125,97,55,0.44078
9656340,-0.17000,56.9375,97,55,0.43492
9656350,-0.16000,57.5000,97,55,0.42955
9656360,-0.14500,61.1250,97,55,0.42002
9656370,-0.12500,64.5000,97,55,0.41563
9656380,-0.10500,68.8125,97,55,0.41148
9656390,-0.08500,73.6875,97,55,0.40757
9656400,-0.06500,83.5000,97,55,0.40098
9656410,-0.03500,87.9375,97,55,0.39829
9656420,-0.01000,91.7500,97,55,0.39512
9656430,0.02000,94.8750,97,55,0.39194
9656440,0.02000,94.8750,97,55,0.39194
9656450,0.08000,100.6250,97,55,0.38217
9656460,0.10000,101.5625,97,55,0.37900
9656470,0.13000,102.1250,97,55,0.37607
9656480,0.16000,102.5625,97,55,0.37045
9656490,0.18500,102.4375,97,55,0.36777
9656500,0.18500,102.0625,97,55,0.36508
9656510,0.16500,101.5000,97,55,0.36288
9656520,0.11500,99.9375,97,55,0.35897
9656530,0.05500,99.0625,97,55,0.35678
9656540,-0.00500,98.1250,97,55,0.35458
9656550,-0.04500,97.0625,97,55,0.35238
9656560,-0.08000,94.8750,97,55,0.34774
9656570,-0.09500,93.6875,97,55,0.34505
9656580,-0.11000,92.4375,97,55,0.34237
9656590,-0.11500,91.1875,97,55,0.34017
9656600,-0.11500,88.5625,97,55,0.33871
9656610,-0.11500,87.1875,97,55,0.34017
9656620,-0.12000,85.6875,97,55,0.34286
9656630,-0.12000,84.0625,97,55,0.34799
9656640,-0.11500,80.7500,97,55,0.36923
9656650,-0.11500,79.1250,97,55,0.38584
9656660,-0.12000,77.6250,97,55,0.40708
9656670,-0.12000,76.1875,97,55,0.43248
9656680,-0.12000,73.6250,97,55,0.49280
9656690,-0.12000,72.4375,97,55,0.52601
9656700,-0.12000,71.3750,97,55,0.55995
9656710,-0.11500,70.4375,97,55,0.58926
9656720,-0.10500,68.9375,97,55,0.64469
9656730,-0.08000,68.3750,97,55,0.67350
9656740,-0.06000,67.8125,97,55,0.70085
9656750,-0.05500,67.3750,97,55,0.72601
9656760,-0.04500,66.5625,97,55,0.76850
9656770,-0.02000,66.2500,97,55,0.78559
9656780,-0.02500,66.0000,97,55,0.79951
9656790,-0.05000,65.8125,97,55,0.81050
9656800,-0.07000,65.3750,97,55,0.82344
9656810,-0.10000,65.1875,97,55,0.82540
9656820,-0.13500,64.9375,97,55,0.82735
9656830,-0.16000,64.7500,97,55,0.82784
9656840,-0.16000,64.3125,97,55,0.82491
9656850,-0.16000,64.0625,97,55,0.82100
9656860,-0.15000,63.8750,97,55,0.81563
9656870,-0.14000,63.6250,97,55,0.80879
9656880,-0.13500,63.1250,97,55,0.79096
9656890,-0.17500,62.8750,97,55,0.78022
9656900,-0.18000,62.5625,97,55,0.76850
9656910,0.12000,62.3750,97,55,0.75629
9656920,0.88500,61.8750,97,55,0.73040
9656930,1.64000,61.6250,97,55,0.71600
9656940,1.45500,61.3125,97,55,0.70110
9656950,0.52500,61.0625,97,55,0.68571
9656960,-0.15500,60.5000,97,55,0.65470
9656970,-0.33000,60.1875,97,55,0.63907
9656980,-0.30000,59.9375,97,55,0.62344
9656990,-0.26500,59.6875,97,55,0.60806
9657000,-0.25500,59.1250,98,55,0.57998
9657010,-0.24000,58.8750,98,55,0.56825
9657020,-0.23500,58.6250,98,55,0.55580
9657030,-0.22500,58.3750,98,55,0.54335
9657040,-0.22000,57.9375,98,55,0.51941
9657050,-0.21000,57.6875,98,55,0.50842
9657060,-0.20500,57.3750,98,55,0.49792
9657070,-0.19500,57.1250,98,55,0.48816
9657080,-0.19000,56.6250,98,55,0.47057
9657090,-0.18000,56.3750,98,55,0.46252
9657100,-0.17000,56.1875,98,55,0.45592
9657110,-0.16000,56.0000,98,55,0.45031
9657120,-0.15000,56.6250,98,55,0.43834
9657130,-0.13500,57.8750,98,55,0.43223
9657140,-0.11500,60.0625,98,55,0.42613
9657150,-0.09500,63.1875,98,55,0.42051
9657160,-0.07500,71.9375,98,55,0.40977
9657170,-0.05500,76.8125,98,55,0.40464
9657180,-0.03000,81.4375,98,55,0.39976
9657190,0.00000,85.6875,98,55,0.39463
9657200,0.02500,92.5000,98,55,0.38584
9657210,0.06000,94.9375,98,55,0.38266
9657220,0.08000,96.8125,98,55,0.37875
9657230,0.11000,98.1250,98,55,0.37436
9657240,0.11000,98.1250,98,55,0.37436
9657250,0.16500,99.6250,98,55,0.36068
9657260,0.19500,99.5625,98,55,0.35629
9657270,0.21000,99.2500,98,55,0.35189
9657280,0.19000,98.1250,98,55,0.34335
9657290,0.14500,97.4375,98,55,0.33944
9657300,0.09000,96.5625,98,55,0.33651
9657310,0.03500,95.5000,98,55,0.33455
9657320,-0.01500,93.2500,98,55,0.32943
9657330,-0.04500,92.0625,98,55,0.32650
9657340,-0.07000,90.8750,98,55,0.32357
9657350,-0.08500,89.6875,98,55,0.30818
9657360,-0.10000,87.1250,98,55,0.27497
9657370,-0.10500,85.6875,98,55,0.26813
9657380,-0.11000,84.3125,98,55,0.26422
9657390,-0.11000,82.8125,98,55,0.26300
9657400,-0.11000,79.6250,98,55,0.26789
9657410,-0.11000,77.9375,98,55,0.27399
9657420,-0.11000,76.3750,98,55,0.28376
9657430,-0.11000,74.8750,98,55,0.29744
9657440,-0.11000,74.8750,98,55,0.29744
9657450,-0.11000,70.9375,98,55,0.36068
9657460,-0.11000,69.8125,98,55,0.38803
9657470,-0.11000,68.8750,98,55,0.41685
9657480,-0.11000,67.3125,98,55,0.47717
9657490,-0.10500,66.6250,98,55,0.50672
9657500,-0.09500,66.0625,98,55,0.53162
9657510,-0.07000,65.5000,98,55,0.55336
9657520,-0.05500,64.6875,98,55,0.59829
9657530,-0.04500,64.3750,98,55,0.61783
9657540,-0.02500,64.1250,98,55,0.63492
9657550,-0.00500,63.8750,98,55,0.64933
9657560,-0.01000,63.5000,98,55,0.67009
9657570,-0.03000,63.3750,98,55,0.67692
9657580,-0.05500,63.1875,98,55,0.68181
9657590,-0.09500,63.0000,98,55,0.68449
9657600,-0.13500,62.6875,98,55,0.68376
9657610,-0.15500,62.5000,98,55,0.68059
9657620,-0.15500,62.3125,98,55,0.67643
9657630,-0.15000,62.1250,98,55,0.67106
9657640,-0.14500,61.7500,98,55,0.65665
9657650,-0.13000,61.5000,98,55,0.64786
9657660,-0.12500,61.3125,98,55,0.63810
9657670,-0.16500,61.0625,98,55,0.62735
9657680,-0.19000,60.6250,98,55,0.60317
9657690,0.06500,60.3750,98,55,0.58974
9657700,0.80000,60.1875,98,55,0.57729
9657710,1.57000,59.9375,98,55,0.56484
9657720,1.41500,59.4375,98,55,0.53700
9657730,0.51000,59.1875,98,55,0.52234
9657740,-0.15500,58.9375,98,55,0.50745
9657750,-0.32000,58.6250,98,55,0.49304
9657760,-0.28500,58.1875,98,55,0.46520
9657770,-0.25000,57.9375,98,55,0.45201
9657780,-0.24000,57.6875,98,55,0.43907
9657790,-0.23000,57.4375,98,55,0.42686
9657800,-0.22000,56.8750,98,55,0.40586
9657810,-0.21000,56.6250,98,55,0.39805
9657820,-0.20000,56.3750,98,55,0.38974
9657830,-0.19500,56.1250,98,55,0.38144
9657840,-0.19000,55.6250,98,55,0.36630
9657850,-0.18500,55.3750,98,55,0.35922
9657860,-0.17000,55.1250,98,55,0.35214
9657870,-0.16000,54.8750,98,55,0.34554
9657880,-0.15500,54.5625,98,55,0.33382
9657890,-0.14500,54.5625,98,55,0.32869
9657900,-0.13000,54.7500,98,55,0.32479
9657910,-0.11500,55.3125,98,55,0.32161
9657920,-0.10000,58.7500,98,55,0.31331
9657930,-0.08500,61.9375,98,55,0.30891
9657940,-0.06500,65.8750,98,55,0.30476
9657950,-0.04000,70.3125,98,55,0.30061
9657960,-0.01500,79.2500,98,55,0.29280
9657970,0.01000,83.2500,98,55,0.28913
9657980,0.03500,86.6875,98,55,0.28571
9657990,0.06000,89.5625,98,55,0.28254
9658000,0.09000,93.5000,98,55,0.27717
9658010,0.12000,94.7500,98,55,0.27546
9658020,0.15000,95.5000,98,55,0.27302
9658030,0.18500,95.9375,98,55,0.27033
9658040,0.21500,95.8750,98,55,0.26374
9658050,0.23000,95.5625,98,55,0.26032
9658060,0.21500,95.0625,98,55,0.25665
9658070,0.16500,94.4375,98,55,0.25299
9658080,0.09500,92.7500,98,55,0.24567
9658090,0.03000,91.7500,98,55,0.24249
9658100,-0.02000,90.6875,98,55,0.24054
9658110,-0.05500,89.5000,98,55,0.23907
9658120,-0.08500,87.1250,98,55,0.23419
9658130,-0.09500,85.8750,98,55,0.23126
9658140,-0.10500,84.5625,98,55,0.22833
9658150,-0.10500,83.1875,98,55,0.22564
9658160,-0.10500,80.3125,98,55,0.22173
9658170,-0.10500,78.8125,98,55,0.22149
9658180,-0.10500,77.2500,98,55,0.22295
9658190,-0.10500,75.6875,98,55,0.22686
9658200,-0.10500,72.6875,98,55,0.24371
9658210,-0.10500,71.3125,98,55,0.25592
9658220,-0.11000,70.0625,98,55,0.27253
9658230,-0.11500,68.8750,98,55,0.29304
9658240,-0.11500,66.9375,98,55,0.34310
9658250,-0.11500,66.9375,98,55,0.34310
9658260,-0.11000,65.4375,98,55,0.40147
9658270,-0.10500,64.8125,98,55,0.43150
9658280,-0.09500,63.8125,98,55,0.48938
9658290,-0.07000,63.3750,98,55,0.51575
9658300,-0.05500,63.0625,98,55,0.53700
9658310,-0.05500,63.0625,98,55,0.53700
9658320,-0.02500,62.3125,98,55,0.58828
9658330,-0.00500,62.1250,98,55,0.60220
9658340,-0.01500,62.0000,98,55,0.61368
9658350,-0.03500,61.8750,98,55,0.62247
9658360,-0.06500,61.5625,98,55,0.63321
9658370,-0.10500,61.4375,98,55,0.63614
9658380,-0.13583,61.3125,98,55,0.63687
9658390,-0.15500,61.1875,98,55,0.63590
9658400,-0.16000,60.9375,98,55,0.62833
9658410,-0.16000,60.7500,98,55,0.62271
9658420,-0.15500,60.5625,98,55,0.61612
9658430,-0.14500,60.3750,98,55,0.60806
9658440,-0.13500,60.0000,98,55,0.58852
9658450,-0.16000,59.7500,98,55,0.57778
9658460,-0.22000,59.5625,98,55,0.56606
9658470,-0.05500,59.3125,98,55,0.55336
9658480,0.54500,58.9375,98,55,0.52625
9658490,1.37500,58.6875,98,55,0.51233
9658500,1.56000,58.5000,98,55,0.49963
9658510,0.75500,58.2500,98,55,0.48791
9658520,-0.04500,57.8125,98,55,0.46227
9658530,-0.31500,57.5625,98,55,0.44933
9658540,-0.31500,57.5625,98,55,0.44933
9658550,-0.27000,57.0625,98,55,0.42491
9658560,-0.24500,56.5000,98,55,0.40171
9658570,-0.23000,56.2500,98,55,0.39121
9658580,-0.22000,56.0000,98,55,0.38144
9658590,-0.22000,56.0000,98,55,0.38144
9658600,-0.20500,55.3125,98,55,0.35726
9658610,-0.20000,55.1250,98,55,0.35165
9658620,-0.19500,54.8750,98,55,0.34603
9658630,-0.19000,54.6250,98,55,0.34066
9658640,-0.18000,54.1875,98,55,0.33016
9658650,-0.17000,54.0000,98,55,0.32527
9658660,-0.16000,53.8125,98,55,0.32063
9658670,-0.15000,53.6875,98,55,0.31624
9658680,-0.13500,54.1250,98,55,0.30794
9658690,-0.12500,55.0000,98,55,0.30403
9658700,-0.11000,56.6250,98,55,0.30110
9658710,-0.09500,59.1875,98,55,0.29890
9658720,-0.07500,66.8125,98,55,0.29328
9658730,-0.05500,71.3125,98,55,0.29035
9658740,-0.03000,75.8125,98,55,0.28742
9658750,-0.00500,80.0000,98,55,0.28425
9658760,0.02000,87.0000,98,55,0.27814
9658770,0.05000,89.6250,98,55,0.27521
9658780,0.08000,91.6875,98,55,0.27253
9658790,0.10500,93.1875,98,55,0.26984
9658800,0.13500,94.8750,98,55,0.26496
9658810,0.16500,95.1875,98,55,0.26349
9658820,0.19500,95.2500,98,55,0.26105
9658830,0.21500,95.1250,98,55,0.25836
9658840,0.21000,94.4375,98,55,0.25299
9658850,0.16500,93.8750,98,55,0.25006
9658860,0.10500,93.1250,98,55,0.24737
9658870,0.03000,92.2500,98,55,0.24444
9658880,-0.02000,90.2500,98,55,0.23907
9658890,-0.06000,89.1875,98,55,0.23614
9658900,-0.08500,88.0625,98,55,0.23443
9658910,-0.10000,86.8750,98,55,0.23321
9658920,-0.11000,84.4375,98,55,0.22857
9658930,-0.11500,83.1250,98,55,0.22662
9658940,-0.11500,81.7500,98,55,0.22491
9658950,-0.11000,80.3750,98,55,0.22393
9658960,-0.11000,77.3750,98,55,0.22735
9658970,-0.11500,75.8125,98,55,0.23272
9658980,-0.11000,74.3125,98,55,0.24103
9658990,-0.11000,72.8750,98,55,0.25299
9659000,-0.11000,70.3125,97,55,0.28254
9659010,-0.11500,69.1875,97,55,0.30281
9659020,-0.11500,68.1250,97,55,0.32723
9659030,-0.11500,67.1875,97,55,0.35482
9659040,-0.11500,65.5625,97,55,0.41490
9659050,-0.11000,64.9375,97,55,0.44567
9659060,-0.10500,64.3750,97,55,0.47546
9659070,-0.09500,63.9375,97,55,0.50403
9659080,-0.07000,63.1250,97,55,0.55531
9659090,-0.06500,62.8125,97,55,0.57705
9659100,-0.04500,62.5625,97,55,0.59341
9659110,-0.02000,62.3125,97,55,0.60611
9659120,-0.01000,61.9375,97,55,0.62979
9659130,-0.03000,61.7500,97,55,0.63858
9659140,-0.05500,61.6250,97,55,0.64542
9659150,-0.08500,61.5000,97,55,0.65031
9659160,-0.11500,61.2500,97,55,0.65470
9659170,-0.15000,61.0625,97,55,0.65421
9659180,-0.16000,60.8750,97,55,0.65201
9659190,-0.16000,60.7500,97,55,0.64835
9659200,-0.15500,60.3750,97,55,0.63736
9659210,-0.15000,60.2500,97,55,0.62979
9659220,-0.13500,60.0625,97,55,0.62149
9659230,-0.13500,60.0625,97,55,0.62149
9659240,-0.20500,59.3750,97,55,0.59023
9659250,-0.16500,59.1875,97,55,0.57778
9659260,0.23500,59.0000,97,55,0.56484
9659270,1.06500,58.7500,97,55,0.55116
9659280,1.64500,58.3125,97,55,0.52308
9659290,1.16500,58.1250,97,55,0.50891
9659300,0.24500,57.9375,97,55,0.49646
9659310,-0.24000,57.6875,97,55,0.48474
9659320,-0.31500,57.1875,97,55,0.46032
9659330,-0.28000,56.9375,97,55,0.44811
9659340,-0.25000,56.6875,97,55,0.43639
9659350,-0.24000,56.3750,97,55,0.42515
9659360,-0.23000,55.9375,97,55,0.40415
9659370,-0.22000,55.6875,97,55,0.39463
9659380,-0.21500,55.5000,97,55,0.38559
9659390,-0.21000,55.2500,97,55,0.37729
9659400,-0.20000,54.8125,97,55,0.38999
9659410,-0.20000,54.5625,97,55,0.39145
9659420,-0.19000,54.3125,97,55,0.38926
9659430,-0.18000,54.1250,97,55,0.38510
9659440,-0.17000,53.7500,97,55,0.37485
9659450,-0.16000,53.6875,97,55,0.36972
9659460,-0.15000,53.8125,97,55,0.36484
9659470,-0.14000,54.2500,97,55,0.36044
9659480,-0.12500,57.2500,97,55,0.35189
9659490,-0.11500,60.1875,97,55,0.34750
9659500,-0.09500,64.0000,97,55,0.34432
9659510,-0.07500,68.5000,97,55,0.34212
9659520,-0.05500,77.8750,97,55,0.33578
9659530,-0.03000,82.1250,97,55,0.33211
9659540,0.00000,85.9375,97,55,0.32845
9659550,0.02000,89.1250,97,55,0.32503
9659560,0.05000,93.6250,97,55,0.31795
9659570,0.08000,95.0625,97,55,0.31453
9659580,0.11000,96.1250,97,55,0.31111
9659590,0.14000,96.8125,97,55,0.30794
9659600,0.17000,97.3750,97,55,0.30403
9659610,0.19500,97.3125,97,55,0.30159
9659620,0.20500,97.1250,97,55,0.29866
9659630,0.17500,96.7500,97,55,0.29573
9659640,0.12500,95.5000,97,55,0.28987
9659650,0.05000,94.6875,97,55,0.28669
9659660,-0.00500,93.7500,97,55,0.28327
9659670,-0.05500,92.7500,97,55,0.27985
9659680,-0.08500,90.5625,97,55,0.27277
9659690,-0.10500,89.3750,97,55,0.26960
9659700,-0.11500,88.1875,97,55,0.26764
9659710,-0.12500,87.0000,97,55,0.26667
9659720,-0.12500,84.4375,97,55,0.26374
9659730,-0.12500,83.0625,97,55,0.26325
9659740,-0.12500,81.6875,97,55,0.26422
9659750,-0.12000,80.1250,97,55,0.26716
9659760,-0.12000,77.0000,97,55,0.28278
9659770,-0.12000,75.5000,97,55,0.29670
9659780,-0.12500,74.0625,97,55,0.31526
9659790,-0.12500,72.6875,97,55,0.33797
9659800,-0.12500,70.3750,97,55,0.38510
9659810,-0.12500,69.3750,97,55,0.41416
9659820,-0.12000,68.4375,97,55,0.44615
9659830,-0.12000,67.6250,97,55,0.47961
9659840,-0.11500,66.3125,97,55,0.54628
9659850,-0.10500,65.7500,97,55,0.57802
9659860,-0.08500,65.2500,97,55,0.60757
9659870,-0.07000,64.8750,97,55,0.63492
9659880,-0.06500,64.2500,97,55,0.68107
9659890,-0.04000,64.0625,97,55,0.69963
9659900,-0.02000,63.8125,97,55,0.71306
9659910,-0.03000,63.6250,97,55,0.72283
9659920,-0.05500,63.3125,97,55,0.73919
9659930,-0.08000,63.1875,97,55,0.74481
9659940,-0.11000,63.0625,97,55,0.74847
9659950,-0.15000,62.9375,97,55,0.75018
9659960,-0.17000,62.6875,97,55,0.74823
9659970,-0.17000,62.5000,97,55,0.74481
9659980,-0.16500,62.3125,97,55,0.73968
9659990,-0.16000,62.1250,97,55,0.73284
9660000,-0.14500,61.8125,98,55,0.71673
9660010,-0.14500,61.6250,98,55,0.70696
9660020,-0.19000,61.3750,98,55,0.69646
9660030,-0.19500,61.1875,98,55,0.68498
9660040,0.11500,60.7500,98,55,0.65958
9660050,0.90000,60.5625,98,55,0.64567
9660060,1.66500,60.3125,98,55,0.63126
9660070,1.44500,60.0625,98,55,0.61636
9660080,0.49500,59.6250,98,55,0.58584
9660090,-0.16500,59.4375,98,55,0.57070
9660100,-0.33000,59.1875,98,55,0.55702
9660110,-0.30000,59.0000,98,55,0.54457
9660120,-0.27000,58.5000,98,55,0.51844
9660130,-0.26000,58.2500,98,55,0.50549
9660140,-0.25000,58.0000,98,55,0.49304
9660150,-0.24000,57.7500,98,55,0.48107
9660160,-0.23000,57.3125,98,55,0.46007
9660170,-0.22500,57.0625,98,55,0.45055
9660180,-0.21500,56.8750,98,55,0.44151
9660190,-0.21000,56.6250,98,55,0.43346
9660200,-0.20000,56.1875,98,55,0.42100
9660210,-0.19000,55.9375,98,55,0.41490
9660220,-0.18000,55.7500,98,55,0.40904
9660230,-0.17500,55.6250,98,55,0.40342
9660240,-0.16500,55.8750,98,55,0.39292
9660250,-0.15500,56.6250,98,55,0.38779
9660260,-0.13500,58.1875,98,55,0.38291
9660270,-0.12000,60.7500,98,55,0.37827
9660280,-0.09500,68.7500,98,55,0.37021
9660290,-0.07500,73.5625,98,55,0.36654
9660300,-0.05500,78.3750,98,55,0.36410
9660310,-0.03500,83.0000,98,55,0.36215
9660320,-0.01000,90.7500,98,55,0.35678
9660330,0.02000,93.7500,98,55,0.35360
9660340,0.05000,96.1250,98,55,0.35043
9660350,0.08000,97.8750,98,55,0.34725
9660360,0.11000,99.8750,98,55,0.34090
9660370,0.13500,100.3125,98,55,0.33773
9660380,0.16500,100.5625,98,55,0.33431
9660390,0.19500,100.6250,98,55,0.33114
9660400,0.20500,100.0625,98,55,0.32723
9660410,0.18500,99.5000,98,55,0.32552
9660420,0.14500,98.8125,98,55,0.32332
9660430,0.08000,98.0000,98,55,0.32088
9660440,0.01500,96.1250,98,55,0.31600
9660450,-0.03500,95.0625,98,55,0.31355
9660460,-0.07000,94.0000,98,55,0.31087
9660470,-0.09500,92.9375,98,55,0.30842
9660480,-0.10500,90.5625,98,55,0.30403
9660490,-0.11000,89.3750,98,55,0.30208
9660500,-0.11500,88.0625,98,55,0.30134
9660510,-0.11500,86.7500,98,55,0.30183
9660520,-0.11500,83.8750,98,55,0.30549
9660530,-0.11500,82.3125,98,55,0.31087
9660540,-0.11500,80.6875,98,55,0.31990
9660550,-0.11500,79.1250,98,55,0.33284
9660560,-0.11500,76.1250,98,55,0.37143
9660570,-0.11500,74.7500,98,55,0.39707
9660580,-0.12000,73.5000,98,55,0.42637
9660590,-0.12000,72.3125,98,55,0.45836
9660600,-0.12000,70.3750,98,55,0.51551
9660610,-0.11500,69.5625,98,55,0.54725
9660620,-0.11500,68.8750,98,55,0.57998
9660630,-0.10500,68.2500,98,55,0.61245
9660640,-0.08500,67.3125,98,55,0.67179
9660650,-0.06500,66.8750,98,55,0.69792
9660660,-0.06000,66.5625,98,55,0.72088
9660670,-0.05000,66.3125,98,55,0.74090
9660680,-0.02500,65.8750,98,55,0.77216
9660690,-0.03500,65.6875,98,55,0.78339
9660700,-0.05500,65.5000,98,55,0.79023
9660710,-0.07000,65.3750,98,55,0.79414
9660720,-0.09500,65.0625,98,55,0.79976
9660730,-0.13500,64.9375,98,55,0.80024
9660740,-0.16000,64.8125,98,55,0.79902
9660750,-0.16500,64.6250,98,55,0.79634
9660760,-0.16000,64.3125,98,55,0.78681
9660770,-0.15500,64.1250,98,55,0.78022
9660780,-0.14000,63.9375,98,55,0.77241
9660790,-0.14000,63.6875,98,55,0.76337
9660800,-0.18000,63.1875,98,55,0.74237
9660810,-0.17000,63.0000,98,55,0.73016
9660820,-0.17000,63.0000,98,55,0.73016
9660830,0.94000,62.5000,98,55,0.70305
9660840,0.94000,62.5000,98,55,0.70305
9660850,1.47500,61.8750,98,55,0.65812
9660860,0.52000,61.6250,98,55,0.64249
9660870,-0.17000,61.3750,98,55,0.62686
9660880,-0.33500,60.8125,98,55,0.59634
