RelativeTimeMilliseconds,ECG,ART,ART (Sys),ART (Dia),PPG
9874960,-0.26000,57.9375,96,55,0.47961
9874970,-0.25000,57.6875,96,55,0.46667
9874980,-0.24000,57.4375,96,55,0.45470
9874990,-0.23000,57.1875,96,55,0.44371
9875000,-0.22000,56.8125,97,56,0.42393
9875010,-0.21500,56.6250,97,56,0.41514
9875020,-0.21000,56.3750,97,56,0.40806
9875030,-0.20000,56.1875,97,56,0.40220
9875040,-0.19500,55.7500,97,56,0.39048
9875050,-0.19000,55.5625,97,56,0.38486
9875060,-0.18000,55.3750,97,56,0.37949
9875070,-0.17000,55.2500,97,56,0.37460
9875080,-0.15500,55.5625,97,56,0.36532
9875090,-0.14000,56.2500,97,56,0.36093
9875100,-0.12500,57.6250,97,56,0.35678
9875110,-0.10500,59.8125,97,56,0.35263
9875120,-0.08500,66.3750,97,56,0.34676
9875130,-0.06500,70.3750,97,56,0.34359
9875140,-0.04500,74.5625,97,56,0.34042
9875150,-0.01500,78.7500,97,56,0.33724
9875160,0.01000,86.5625,97,56,0.33138
9875170,0.04000,89.8125,97,56,0.32845
9875180,0.07000,92.5000,97,56,0.32576
9875190,0.10000,94.6250,97,56,0.32332
9875200,0.13000,97.5000,97,56,0.31844
9875210,0.15500,98.3750,97,56,0.31600
9875220,0.18500,98.9375,97,56,0.31429
9875230,0.21000,99.1875,97,56,0.31258
9875240,0.21000,99.1875,97,56,0.31258
9875250,0.17500,98.8750,97,56,0.30452
9875260,0.11500,98.3750,97,56,0.30183
9875270,0.05000,97.6875,97,56,0.29915
9875280,-0.01000,95.8750,97,56,0.29451
9875290,-0.05500,94.8750,97,56,0.29255
9875300,-0.08500,93.8125,97,56,0.29060
9875310,-0.10000,92.6875,97,56,0.28889
9875320,-0.11000,90.2500,97,56,0.28791
9875330,-0.12000,89.0000,97,56,0.28694
9875340,-0.12500,87.7500,97,56,0.28571
9875350,-0.12500,86.3750,97,56,0.28474
9875360,-0.12000,83.5625,97,56,0.28547
9875370,-0.12000,82.0625,97,56,0.28840
9875380,-0.12000,80.5625,97,56,0.29426
9875390,-0.12500,79.0625,97,56,0.30379
9875400,-0.12500,76.1250,97,56,0.33578
9875410,-0.12500,74.8125,97,56,0.35873
9875420,-0.12500,73.5000,97,56,0.38169
9875430,-0.12500,72.3750,97,56,0.40586
9875440,-0.12500,70.2500,97,56,0.46886
9875450,-0.12500,69.3750,97,56,0.50427
9875460,-0.12500,69.3750,97,56,0.50427
9875470,-0.12000,67.8750,97,56,0.57680
9875480,-0.11000,66.8125,97,56,0.64371
9875490,-0.08500,66.3750,97,56,0.67350
9875500,-0.06500,66.0000,97,56,0.70012
9875510,-0.06500,65.6875,97,56,0.72357
9875520,-0.04500,65.2500,97,56,0.75360
9875530,-0.02500,65.0625,97,56,0.76654
9875540,-0.02500,64.9375,97,56,0.77827
9875550,-0.04500,64.8125,97,56,0.78828
9875560,-0.06500,64.6250,97,56,0.80122
9875570,-0.10000,64.5000,97,56,0.80415
9875580,-0.14000,64.3750,97,56,0.80488
9875590,-0.16000,64.3125,97,56,0.80366
9875600,-0.16500,64.0625,97,56,0.79609
9875610,-0.15500,63.9375,97,56,0.78974
9875620,-0.14500,63.7500,97,56,0.78193
9875630,-0.13500,63.5625,97,56,0.77363
9875640,-0.13000,63.1875,97,56,0.75311
9875650,-0.17000,63.0000,97,56,0.74115
9875660,-0.17500,62.8125,97,56,0.72845
9875670,0.14500,62.5625,97,56,0.71477
9875680,0.88500,62.1250,97,56,0.68449
9875690,1.62500,61.8750,97,56,0.66838
9875700,1.54500,61.6250,97,56,0.65201
9875710,0.61000,61.3750,97,56,0.63541
9875720,-0.14000,60.8750,97,56,0.60635
9875730,-0.32500,60.5625,97,56,0.59170
9875740,-0.30500,60.3125,97,56,0.57680
9875750,-0.28000,60.0000,97,56,0.56190
9875760,-0.26500,59.5000,97,56,0.53333
9875770,-0.25500,59.1875,97,56,0.51966
9875780,-0.24000,58.9375,97,56,0.50672
9875790,-0.23500,58.6250,97,56,0.49451
9875800,-0.23500,58.6250,97,56,0.49451
9875810,-0.22000,57.8125,97,56,0.46422
9875820,-0.21000,57.5625,97,56,0.45690
9875830,-0.21000,57.5625,97,56,0.45690
9875840,-0.19500,56.6875,97,56,0.43468
9875850,-0.19000,56.4375,97,56,0.42833
9875860,-0.18000,56.1875,97,56,0.42222
9875870,-0.17000,56.0625,97,56,0.41661
9875880,-0.16000,56.3125,97,56,0.40562
9875890,-0.14000,57.0625,97,56,0.40049
9875900,-0.12500,58.5000,97,56,0.39536
9875910,-0.10500,60.7500,97,56,0.39048
9875920,-0.08500,67.4375,97,56,0.38388
9875930,-0.06500,71.4375,97,56,0.38071
9875940,-0.03500,75.6250,97,56,0.37753
9875950,-0.01000,79.7500,97,56,0.37411
9875960,0.02000,87.2500,97,56,0.36679
9875970,0.04500,90.3125,97,56,0.36288
9875980,0.07500,92.8750,97,56,0.35897
9875990,0.10500,94.8750,97,56,0.35556
9876000,0.13500,97.3750,97,56,0.34945
9876010,0.16000,98.1250,97,56,0.34750
9876020,0.18500,98.5625,97,56,0.34579
9876030,0.20000,98.6875,97,56,0.34359
9876040,0.19500,98.3125,97,56,0.33822
9876050,0.15500,97.8125,97,56,0.33529
9876060,0.09500,97.1250,97,56,0.33187
9876070,0.03000,96.3125,97,56,0.32821
9876080,-0.01500,94.4375,97,56,0.32112
9876090,-0.05500,93.3750,97,56,0.31844
9876100,-0.08000,92.2500,97,56,0.31575
9876110,-0.10000,91.1250,97,56,0.31331
9876120,-0.10500,88.7500,97,56,0.30965
9876130,-0.11500,87.5000,97,56,0.30720
9876140,-0.11500,86.1875,97,56,0.30452
9876150,-0.11500,84.8125,97,56,0.30208
9876160,-0.11500,81.8750,97,56,0.30037
9876170,-0.11500,80.3750,97,56,0.30232
9876180,-0.11500,78.8125,97,56,0.30720
9876190,-0.12500,77.3125,97,56,0.31624
9876200,-0.12500,74.5000,97,56,0.34799
9876210,-0.12000,73.1875,97,56,0.36703
9876220,-0.12000,71.9375,97,56,0.38828
9876230,-0.12000,70.8125,97,56,0.41514
9876240,-0.12000,68.8125,97,56,0.47912
9876250,-0.12000,67.9375,97,56,0.51380
9876260,-0.11500,67.1875,97,56,0.54872
9876270,-0.10500,66.5625,97,56,0.58291
9876280,-0.09500,65.4375,97,56,0.64542
9876290,-0.07500,65.0000,97,56,0.67302
9876300,-0.05500,64.6250,97,56,0.69768
9876310,-0.05000,64.3125,97,56,0.71917
9876320,-0.05000,64.3125,97,56,0.71917
9876330,-0.01500,63.5625,97,56,0.75604
9876340,-0.00500,63.3750,97,56,0.76508
9876350,-0.03000,63.2500,97,56,0.77216
9876360,-0.05500,62.9375,97,56,0.77973
9876370,-0.08500,62.7500,97,56,0.78022
9876380,-0.12000,62.6250,97,56,0.77827
9876390,-0.14500,62.5000,97,56,0.77436
9876400,-0.15500,62.1250,97,56,0.76190
9876410,-0.15500,61.9375,97,56,0.75385
9876420,-0.14500,61.8125,97,56,0.74481
9876430,-0.13500,61.5625,97,56,0.73480
9876440,-0.12500,61.1875,97,56,0.71233
9876450,-0.14500,61.0000,97,56,0.69939
9876460,-0.19000,60.7500,97,56,0.68523
9876470,-0.05000,60.5625,97,56,0.66984
9876480,0.50500,60.0625,97,56,0.61294
9876490,1.33500,59.8125,97,56,0.58974
9876500,1.62500,59.5625,97,56,0.57045
9876510,0.90000,59.3125,97,56,0.55336
9876520,0.03000,58.8125,97,56,0.52601
9876530,-0.30000,58.5625,97,56,0.51233
9876540,-0.30000,58.3125,97,56,0.49866
9876550,-0.26500,58.0625,97,56,0.48523
9876560,-0.24500,57.5625,97,56,0.45983
9876570,-0.23500,57.3125,97,56,0.44786
9876580,-0.22000,57.0625,97,56,0.43639
9876590,-0.21500,56.8125,97,56,0.42589
9876600,-0.20500,56.2500,97,56,0.40708
9876610,-0.20000,56.0625,97,56,0.39976
9876620,-0.19000,55.8125,97,56,0.39365
9876630,-0.19000,55.6250,97,56,0.38730
9876640,-0.18000,55.2500,97,56,0.37460
9876650,-0.17000,55.0625,97,56,0.36850
9876660,-0.15500,54.8750,97,56,0.36264
9876670,-0.15000,54.6875,97,56,0.35702
9876680,-0.14000,54.6250,97,56,0.34652
9876690,-0.12500,54.8750,97,56,0.34188
9876700,-0.11000,55.6875,97,56,0.33724
9876710,-0.09500,57.0625,97,56,0.33309
9876720,-0.08000,62.1250,97,56,0.32772
9876730,-0.06000,65.6250,97,56,0.32479
9876740,-0.03000,69.3750,97,56,0.32137
9876750,-0.00500,73.3750,97,56,0.31795
9876760,0.02000,80.9375,97,56,0.31062
9876770,0.05000,84.2500,97,56,0.30672
9876780,0.08000,87.0625,97,56,0.30281
9876790,0.11000,89.4375,97,56,0.29915
9876800,0.14000,92.6875,97,56,0.29182
9876810,0.17000,93.6250,97,56,0.28913
9876820,0.20500,94.2500,97,56,0.28718
9876830,0.23000,94.6250,97,56,0.28449
9876840,0.23500,94.7500,97,56,0.28164
9876850,0.21000,94.6250,97,56,0.27863
9876860,0.15000,94.2500,97,56,0.27546
9876870,0.08000,93.7500,97,56,0.27228
9876880,0.01500,92.2500,97,56,0.26667
9876890,-0.03000,91.3750,97,56,0.26398
9876900,-0.06500,90.4375,97,56,0.26129
9876910,-0.08500,89.3750,97,56,0.25861
9876920,-0.09500,87.0625,97,56,0.25421
9876930,-0.10500,85.8125,97,56,0.25299
9876940,-0.11500,84.5000,97,56,0.25079
9876950,-0.11500,83.1875,97,56,0.24884
9876960,-0.11500,80.4375,97,56,0.24493
9876970,-0.11500,79.0000,97,56,0.24396
9876980,-0.11500,77.5000,97,56,0.24420
9876990,-0.11500,76.0000,97,56,0.24615
9877000,-0.11000,73.1250,96,56,0.25836
9877010,-0.11500,71.8125,96,56,0.26935
9877020,-0.11500,70.5625,96,56,0.28181
9877030,-0.11500,69.3750,96,56,0.29670
9877040,-0.11500,67.3750,96,56,0.34017
9877050,-0.11500,66.5000,96,56,0.36679
9877060,-0.11500,65.6875,96,56,0.39585
9877070,-0.11500,65.0000,96,56,0.42613
9877080,-0.10500,63.8750,96,56,0.48645
9877090,-0.10500,63.8750,96,56,0.48645
9877100,-0.07500,63.0000,96,56,0.54090
9877110,-0.06000,62.6250,96,56,0.56484
9877120,-0.05000,62.1250,96,56,0.60220
9877130,-0.02500,61.8750,96,56,0.61441
9877140,-0.00500,61.6250,96,56,0.62613
9877150,-0.02000,61.4375,96,56,0.63590
9877160,-0.04500,61.1875,96,56,0.64933
9877170,-0.06500,61.0625,96,56,0.65275
9877180,-0.10500,61.0000,96,56,0.65421
9877190,-0.14000,60.8750,96,56,0.65348
9877200,-0.16000,60.5000,96,56,0.64713
9877210,-0.16000,60.3750,96,56,0.64200
9877220,-0.15500,60.2500,96,56,0.63565
9877230,-0.14500,60.0625,96,56,0.62857
9877240,-0.13500,59.6875,96,56,0.61074
9877250,-0.12500,59.5000,96,56,0.60049
9877260,-0.16500,59.3125,96,56,0.58950
9877270,-0.19000,59.1250,96,56,0.57753
9877280,0.08000,58.7500,96,56,0.55189
9877290,0.77500,58.5625,96,56,0.53846
9877300,1.51000,58.3750,96,56,0.52479
9877310,1.42000,58.1875,96,56,0.51087
9877320,0.52500,57.7500,96,56,0.48425
9877330,-0.16000,57.5000,96,56,0.47277
9877340,-0.32000,57.3125,96,56,0.46032
9877350,-0.28500,57.0625,96,56,0.44762
9877360,-0.25000,56.5625,96,56,0.42369
9877370,-0.23500,56.3750,96,56,0.41245
9877380,-0.23000,56.1250,96,56,0.40195
9877390,-0.21500,55.9375,96,56,0.39194
9877400,-0.21500,55.9375,96,56,0.39194
9877410,-0.20000,55.3125,96,56,0.36606
9877420,-0.19500,55.0625,96,56,0.35971
9877430,-0.18500,54.8750,96,56,0.35458
9877440,-0.18500,54.8750,96,56,0.35458
9877450,-0.17000,54.1875,96,56,0.33846
9877460,-0.16000,54.0000,96,56,0.33382
9877470,-0.15000,53.7500,96,56,0.32991
9877480,-0.14000,53.4375,96,56,0.32234
9877490,-0.12500,53.3750,96,56,0.31868
9877500,-0.11500,53.5000,96,56,0.31551
9877510,-0.10500,54.0000,96,56,0.31209
9877520,-0.08500,56.6250,96,56,0.30769
9877530,-0.06500,59.0625,96,56,0.30525
9877540,-0.06500,59.0625,96,56,0.30525
9877550,-0.02000,65.6875,96,56,0.29963
9877560,0.00500,73.3750,96,56,0.29426
9877570,0.03000,77.1250,96,56,0.29158
9877580,0.06000,80.6250,96,56,0.28864
9877590,0.09000,83.6875,96,56,0.28571
9877600,0.12000,88.4375,96,56,0.28010
9877610,0.15000,90.1250,96,56,0.27692
9877620,0.18500,91.3750,96,56,0.27497
9877630,0.18500,91.3750,96,56,0.27497
9877640,0.23000,93.0625,96,56,0.26862
9877650,0.22000,93.1250,96,56,0.26618
9877660,0.17000,93.0000,96,56,0.26422
9877670,0.10000,92.6250,96,56,0.26252
9877680,0.02500,91.5000,96,56,0.25836
9877690,-0.03000,90.7500,96,56,0.25592
9877700,-0.07000,89.8750,96,56,0.25348
9877710,-0.09500,88.8750,96,56,0.25104
9877720,-0.11500,86.7500,96,56,0.24933
9877730,-0.12000,85.5625,96,56,0.24811
9877740,-0.12500,84.3750,96,56,0.24615
9877750,-0.12000,83.1250,96,56,0.24420
9877760,-0.12500,80.5000,96,56,0.24005
9877770,-0.12500,79.1250,96,56,0.23834
9877780,-0.12000,77.6250,96,56,0.23785
9877790,-0.11500,76.1875,96,56,0.23883
9877800,-0.11500,73.3125,96,56,0.24737
9877810,-0.11500,72.0000,96,56,0.25617
9877820,-0.11500,70.6875,96,56,0.26691
9877830,-0.11500,69.5000,96,56,0.28010
9877840,-0.11500,69.5000,96,56,0.28010
9877850,-0.12000,66.3750,96,56,0.34408
9877860,-0.12000,65.5625,96,56,0.37167
9877870,-0.11500,64.8125,96,56,0.40122
9877880,-0.11000,63.5625,96,56,0.46227
9877890,-0.10000,63.0625,96,56,0.49182
9877900,-0.08000,62.6250,96,56,0.52015
9877910,-0.06500,62.2500,96,56,0.54628
9877920,-0.06000,61.6250,96,56,0.58364
9877930,-0.03500,61.3750,96,56,0.60073
9877940,-0.01500,61.1875,96,56,0.61612
9877950,-0.02000,61.0000,96,56,0.62930
9877960,-0.04500,60.7500,96,56,0.64786
9877970,-0.07500,60.6250,96,56,0.65372
9877980,-0.10500,60.5000,96,56,0.65714
9877990,-0.14500,60.4375,96,56,0.65836
9878000,-0.16000,60.1875,96,55,0.65519
9878010,-0.16500,60.0625,96,55,0.65153
9878020,-0.16000,59.8750,96,55,0.64664
9878030,-0.15000,59.7500,96,55,0.64054
9878040,-0.14500,59.4375,96,55,0.62540
9878050,-0.13500,59.2500,96,55,0.61636
9878060,-0.16500,59.0625,96,55,0.60635
9878070,-0.22000,58.8125,96,55,0.59560
9878080,-0.03500,58.3750,96,55,0.57143
9878090,0.57500,58.2500,96,55,0.55824
9878100,1.38500,58.0625,96,55,0.54457
9878110,1.54500,57.8125,96,55,0.53065
9878120,0.75000,57.4375,96,55,0.50696
9878130,-0.04500,57.2500,96,55,0.49426
9878140,-0.31000,57.0625,96,55,0.48107
9878150,-0.30500,56.8750,96,55,0.46813
9878160,-0.27000,56.4375,96,55,0.44298
9878170,-0.25000,56.2500,96,55,0.43126
9878180,-0.24000,56.0625,96,55,0.42027
9878190,-0.23000,55.8750,96,55,0.40977
9878200,-0.22500,55.3750,96,55,0.39096
9878210,-0.21500,55.1250,96,55,0.38266
9878220,-0.20500,54.8750,96,55,0.37631
9878230,-0.19500,54.6250,96,55,0.37094
9878240,-0.19000,54.2500,96,55,0.35971
9878250,-0.18000,54.0625,96,55,0.35433
9878260,-0.17500,53.8750,96,55,0.34945
9878270,-0.16000,53.6875,96,55,0.34505
9878280,-0.15500,53.3750,96,55,0.33651
9878290,-0.14500,53.3125,96,55,0.33260
9878300,-0.13500,53.4375,96,55,0.32918
9878310,-0.11500,53.8750,96,55,0.32576
9878320,-0.10000,56.4375,96,55,0.32161
9878330,-0.08500,58.8125,96,55,0.31917
9878340,-0.06000,61.8750,96,55,0.31673
9878350,-0.03500,65.5000,96,55,0.31429
9878360,-0.01000,73.3125,96,55,0.30891
9878370,0.01500,77.1250,96,55,0.30623
9878380,0.04500,80.7500,96,55,0.30330
9878390,0.07500,83.9375,96,55,0.30037
9878400,0.10500,88.9375,96,55,0.29499
9878410,0.13500,90.6875,96,55,0.29231
9878420,0.16500,91.9375,96,55,0.29060
9878430,0.20000,92.8750,96,55,0.28938
9878440,0.22000,93.9375,96,55,0.28523
9878450,0.21500,94.1250,96,55,0.28303
9878460,0.17500,94.0625,96,55,0.28083
9878470,0.11000,93.8750,96,55,0.27863
9878480,0.04000,92.8750,96,55,0.27424
9878490,-0.01500,92.1875,96,55,0.27204
9878500,-0.06500,91.3750,96,55,0.26960
9878510,-0.09500,90.4375,96,55,0.26740
9878520,-0.11000,88.4375,96,55,0.26520
9878530,-0.11500,87.3750,96,55,0.26789
9878540,-0.12500,86.1875,96,55,0.27277
9878550,-0.12500,85.0000,96,55,0.27399
9878560,-0.12500,85.0000,96,55,0.27399
9878570,-0.12500,85.0000,96,55,0.27399
9878580,-0.12500,85.0000,96,55,0.27399
9878590,-0.12500,78.5000,96,55,0.27131
9878600,-0.12500,75.5000,96,55,0.28132
9878610,-0.12500,74.0625,96,55,0.29158
9878620,-0.12500,72.7500,96,55,0.30379
9878630,-0.12500,71.4375,96,55,0.31868
9878640,-0.13000,69.1250,96,55,0.36484
9878650,-0.13000,68.1250,96,55,0.39463
9878660,-0.12500,67.1875,96,55,0.42759
9878670,-0.12000,66.3750,96,55,0.46276
9878680,-0.11500,65.0625,96,55,0.53626
9878690,-0.10500,64.5000,96,55,0.57216
9878700,-0.08500,64.0000,96,55,0.60659
9878710,-0.07500,63.5625,96,55,0.63858
9878720,-0.06000,62.9375,96,55,0.68523
9878730,-0.03500,62.6875,96,55,0.70598
9878740,-0.02000,62.5000,96,55,0.72527
9878750,-0.03500,62.3125,96,55,0.74237
9878760,-0.06000,61.9375,96,55,0.76728
9878770,-0.08500,61.8125,96,55,0.77534
9878780,-0.12000,61.6875,96,55,0.78071
9878790,-0.15500,61.5625,96,55,0.78364
9878800,-0.17000,61.3125,96,55,0.78266
9878810,-0.17000,61.1875,96,55,0.77949
9878820,-0.17000,61.0625,96,55,0.77460
9878830,-0.15500,60.9375,96,55,0.76825
9878840,-0.15000,60.6250,96,55,0.75238
9878850,-0.14500,60.5000,96,55,0.74261
9878860,-0.19000,60.3125,96,55,0.73138
9878870,-0.22000,60.1250,96,55,0.71893
9878880,0.05000,59.7500,96,55,0.69035
9878890,0.77000,59.5625,96,55,0.67473
9878900,1.55000,59.3750,96,55,0.65861
9878910,1.49500,59.1875,96,55,0.64200
9878920,0.59500,58.7500,96,55,0.61197
9878930,-0.13500,58.5625,96,55,0.59609
9878940,-0.33000,58.3750,96,55,0.57973
9878950,-0.30500,58.1875,96,55,0.56361
9878960,-0.28000,57.7500,96,55,0.53284
9878970,-0.26000,57.5625,96,55,0.51819
9878980,-0.25000,57.3125,96,55,0.50403
9878990,-0.24000,57.1250,96,55,0.49084
9879000,-0.23000,56.6875,96,55,0.46691
9879010,-0.22000,56.5000,96,55,0.45617
9879020,-0.22000,56.2500,96,55,0.44762
9879030,-0.21000,56.0625,96,55,0.44029
9879040,-0.20000,55.5625,96,55,0.42515
9879050,-0.19000,55.3125,96,55,0.41783
9879060,-0.18500,55.1250,96,55,0.41074
9879070,-0.17500,55.0000,96,55,0.40440
9879080,-0.16500,54.7500,96,55,0.39292
9879090,-0.15500,54.7500,96,55,0.38779
9879100,-0.14000,55.0625,96,55,0.38315
9879110,-0.12500,55.8750,96,55,0.37900
9879120,-0.10500,59.6250,96,55,0.37338
9879130,-0.09000,62.6875,96,55,0.36996
9879140,-0.07000,66.3125,96,55,0.36654
9879150,-0.04500,70.3125,96,55,0.36288
9879160,-0.01500,78.5625,96,55,0.35580
9879170,0.01000,82.3750,96,55,0.35263
9879180,0.04000,85.8750,96,55,0.34921
9879190,0.07500,88.9375,96,55,0.34603
9879200,0.10500,93.4375,96,55,0.33993
9879210,0.13000,94.9375,96,55,0.33773
9879220,0.16000,96.0000,96,55,0.33578
9879230,0.18500,96.8125,96,55,0.33309
9879240,0.20500,97.5625,96,55,0.32698
9879250,0.19500,97.6250,96,55,0.32405
9879260,0.14500,97.4375,96,55,0.32137
9879270,0.08000,97.1250,96,55,0.31868
9879280,0.01000,96.0000,96,55,0.31331
9879290,-0.04500,95.2500,96,55,0.31062
9879300,-0.08000,94.3750,96,55,0.30769
9879310,-0.10500,93.5000,96,55,0.30501
9879320,-0.12000,91.4375,96,55,0.30305
9879330,-0.12500,90.3125,96,55,0.30134
9879340,-0.13000,89.1875,96,55,0.29939
9879350,-0.13500,88.0000,96,55,0.29719
9879360,-0.13000,85.5000,96,55,0.29353
9879370,-0.12500,84.1250,96,55,0.29255
9879380,-0.12500,82.7500,96,55,0.29304
9879390,-0.12500,81.2500,96,55,0.29621
9879400,-0.12500,78.2500,96,55,0.31209
9879410,-0.12500,76.7500,96,55,0.32381
9879420,-0.12500,75.3750,96,55,0.33846
9879430,-0.12500,74.0625,96,55,0.35873
9879440,-0.12500,74.0625,96,55,0.35873
9879450,-0.12500,70.5000,96,55,0.44689
9879460,-0.12500,69.5625,96,55,0.48278
9879470,-0.12500,68.6875,96,55,0.52039
9879480,-0.12000,67.2500,96,55,0.59634
9879490,-0.12000,66.6875,96,55,0.59634
9879500,-0.08500,66.1875,96,55,0.66618
9879510,-0.06500,65.7500,96,55,0.69719
9879520,-0.06000,64.9375,96,55,0.74042
9879530,-0.04500,64.6875,96,55,0.75946
9879540,-0.02000,64.4375,96,55,0.77705
9879550,-0.02500,64.3125,96,55,0.79219
9879560,-0.05000,64.0000,96,55,0.81416
9879570,-0.07000,63.8750,96,55,0.82125
9879580,-0.10500,63.7500,96,55,0.82613
9879590,-0.14500,63.6250,96,55,0.82857
9879600,-0.16500,63.3750,96,55,0.82759
9879610,-0.16500,63.3750,96,55,0.82759
9879620,-0.16000,63.1250,96,55,0.81807
9879630,-0.15000,63.0000,96,55,0.81172
9879640,-0.14500,62.6875,96,55,0.79609
9879650,-0.13500,62.5000,96,55,0.78657
9879660,-0.17000,62.3125,96,55,0.77582
9879670,-0.20000,62.1250,96,55,0.76361
9879680,0.08000,61.7500,96,55,0.73578
9879690,0.08000,61.7500,96,55,0.73578
9879700,1.59000,61.3125,96,55,0.70452
9879710,1.57500,61.0625,96,55,0.68791
9879720,0.67000,60.5625,96,55,0.65739
9879730,-0.10500,60.3125,96,55,0.64151
9879740,-0.32500,60.1250,96,55,0.62540
9879750,-0.30500,59.8750,96,55,0.60904
9879760,-0.28000,59.3750,96,55,0.57705
9879770,-0.27000,59.1875,96,55,0.56166
9879780,-0.25500,58.9375,96,55,0.54725
9879790,-0.24500,58.6875,96,55,0.53358
9879800,-0.23500,58.2500,96,55,0.50842
9879810,-0.22500,58.0625,96,55,0.49841
9879820,-0.22000,57.8750,96,55,0.48962
9879830,-0.21500,57.6250,96,55,0.48059
9879840,-0.21000,57.1875,96,55,0.46349
9879850,-0.20000,57.0000,96,55,0.45617
9879860,-0.19000,56.8125,96,55,0.44933
9879870,-0.18000,56.5625,96,55,0.44298
9879880,-0.17000,56.3125,96,55,0.43199
9879890,-0.15500,56.4375,96,55,0.42662
9879900,-0.14500,56.8750,96,55,0.42125
9879910,-0.12500,57.8750,96,55,0.41636
9879920,-0.11000,62.1250,96,55,0.40952
9879930,-0.08500,65.4375,96,55,0.40562
9879940,-0.08500,65.4375,96,55,0.40562
9879950,-0.04000,73.6250,96,55,0.39780
9879960,-0.01500,82.2500,96,55,0.39145
9879970,0.01500,86.1875,96,55,0.38803
9879980,0.04500,89.6875,96,55,0.38462
9879990,0.08000,92.6250,96,55,0.38144
9880000,0.10500,96.8750,97,55,0.37485
9880010,0.13000,98.1875,97,55,0.37216
9880020,0.16000,99.1250,97,55,0.36996
9880030,0.18500,99.7500,97,55,0.36728
9880040,0.20000,100.2500,97,55,0.36142
9880050,0.19000,100.0625,97,55,0.35849
9880060,0.15000,99.7500,97,55,0.35531
9880070,0.09000,99.2500,97,55,0.35238
9880080,0.03000,97.8125,97,55,0.34725
9880090,-0.02500,96.9375,97,55,0.34481
9880100,-0.06000,95.9375,97,55,0.34237
9880110,-0.06000,95.9375,97,55,0.34237
9880120,-0.10000,92.5625,97,55,0.33748
9880130,-0.11000,91.3750,97,55,0.33578
9880140,-0.11500,90.1250,97,55,0.33358
9880150,-0.12000,88.8750,97,55,0.33138
9880160,-0.12000,86.1250,97,55,0.32772
9880170,-0.11500,84.7500,97,55,0.32698
9880180,-0.11500,83.2500,97,55,0.32821
9880190,-0.11500,81.6875,97,55,0.33187
9880200,-0.12000,78.6250,97,55,0.34969
9880210,-0.12000,77.1250,97,55,0.36264
9880220,-0.12500,75.6875,97,55,0.37851
9880230,-0.12500,74.3750,97,55,0.40049
9880240,-0.12500,72.0000,97,55,0.45934
9880250,-0.12500,70.9375,97,55,0.49426
9880260,-0.12500,70.0000,97,55,0.53114
9880270,-0.11500,69.1250,97,55,0.56899
9880280,-0.10500,67.6875,97,55,0.64371
9880290,-0.09000,67.0625,97,55,0.67888
9880300,-0.06500,66.5625,97,55,0.71136
9880310,-0.05500,66.0625,97,55,0.74042
9880320,-0.04500,65.3125,97,55,0.77973
9880330,-0.04500,65.3125,97,55,0.77973
9880340,-0.01500,64.6875,97,55,0.81368
9880350,-0.03000,64.4375,97,55,0.82784
9880360,-0.05500,64.0625,97,55,0.84737
9880370,-0.08000,63.8750,97,55,0.85324
9880380,-0.12500,63.6875,97,55,0.85641
9880390,-0.15500,63.5000,97,55,0.85714
9880400,-0.16000,63.1250,97,55,0.85226
9880410,-0.16000,62.9375,97,55,0.84664
9880420,-0.15500,62.7500,97,55,0.83980
9880430,-0.14500,62.5625,97,55,0.83223
9880440,-0.14500,62.5625,97,55,0.83223
9880450,-0.14500,62.0000,97,55,0.80317
9880460,-0.20000,61.8125,97,55,0.79096
9880470,-0.10500,61.5625,97,55,0.77729
9880480,0.42000,61.1250,97,55,0.74676
9880490,1.26000,60.8750,97,55,0.73065
9880500,1.65500,60.6250,97,55,0.71355
9880510,1.06000,60.4375,97,55,0.69621
9880520,0.13500,59.9375,97,55,0.66520
9880530,-0.30000,59.6875,97,55,0.64884
9880540,-0.32000,59.4375,97,55,0.63175
9880550,-0.28000,59.1875,97,55,0.61441
9880560,-0.25500,58.6875,97,55,0.58144
9880570,-0.24500,58.4375,97,55,0.56606
9880580,-0.23500,58.1875,97,55,0.53626
9880590,-0.22500,57.9375,97,55,0.50012
9880600,-0.22000,57.4375,97,55,0.46032
9880610,-0.21000,57.1875,97,55,0.44835
9880620,-0.20000,56.9375,97,55,0.43907
9880630,-0.19500,56.6875,97,55,0.43053
9880640,-0.19000,56.1875,97,55,0.41490
9880650,-0.18000,55.9375,97,55,0.40806
9880660,-0.17500,55.6875,97,55,0.40147
9880670,-0.16500,55.5000,97,55,0.39512
9880680,-0.15500,55.2500,97,55,0.38339
9880690,-0.13500,55.3750,97,55,0.37778
9880700,-0.12000,55.8125,97,55,0.37241
9880710,-0.10500,56.8125,97,55,0.36728
9880720,-0.08500,61.0000,97,55,0.35946
9880730,-0.06500,64.1875,97,55,0.35531
9880740,-0.04500,67.9375,97,55,0.35092
9880750,-0.01500,71.8750,97,55,0.34652
9880760,0.00500,79.9375,97,55,0.33797
9880770,0.03500,83.5625,97,55,0.33358
9880780,0.06500,86.8125,97,55,0.32943
9880790,0.10000,89.5625,97,55,0.32552
9880800,0.13000,93.5000,97,55,0.31795
9880810,0.15500,94.7500,97,55,0.31526
9880820,0.18500,95.6250,97,55,0.31331
9880830,0.21500,96.1875,97,55,0.31087
9880840,0.21500,96.5000,97,55,0.30525
9880850,0.18500,96.3125,97,55,0.30208
9880860,0.13000,95.8750,97,55,0.29866
9880870,0.06000,95.3125,97,55,0.29524
9880880,0.00000,93.8125,97,55,0.28938
9880890,-0.04500,92.9375,97,55,0.28669
9880900,-0.07500,91.9375,97,55,0.28400
9880910,-0.09500,90.8750,97,55,0.28156
9880920,-0.10500,88.5625,97,55,0.27888
9880930,-0.11500,87.3125,97,55,0.27668
9880940,-0.11500,86.0625,97,55,0.27399
9880950,-0.11500,84.8125,97,55,0.27106
9880960,-0.11500,82.0625,97,55,0.26593
9880970,-0.12000,80.6250,97,55,0.26422
9880980,-0.12000,79.1250,97,55,0.26398
9880990,-0.11500,77.6250,97,55,0.26569
9881000,-0.11500,74.6250,96,55,0.27790
9881010,-0.11500,73.2500,96,55,0.28791
9881020,-0.12000,71.8750,96,55,0.30085
9881030,-0.12000,70.6875,96,55,0.31844
9881040,-0.12000,68.5625,96,55,0.36532
9881050,-0.12000,67.6875,96,55,0.39341
9881060,-0.12000,66.8750,96,55,0.42320
9881070,-0.11500,66.1250,96,55,0.45372
9881080,-0.11000,64.9375,96,55,0.51380
9881090,-0.09500,64.4375,96,55,0.54188
9881100,-0.07500,64.0000,96,55,0.56777
9881110,-0.05500,63.6875,96,55,0.58828
9881120,-0.05000,63.1250,96,55,0.62125
9881130,-0.02500,62.8750,96,55,0.63614
9881140,-0.02500,62.8750,96,55,0.63614
9881150,-0.01500,62.4375,96,55,0.65934
9881160,-0.03500,62.1875,96,55,0.67302
9881170,-0.06000,62.0625,96,55,0.67619
9881180,-0.09500,61.9375,96,55,0.67766
9881190,-0.13500,61.7500,96,55,0.67717
9881200,-0.15500,61.5000,96,55,0.67155
9881210,-0.16000,61.3750,96,55,0.66667
9881220,-0.15500,61.3125,96,55,0.66081
9881230,-0.14500,61.1875,96,55,0.65397
9881240,-0.13500,60.8750,96,55,0.63712
9881250,-0.12500,60.6250,96,55,0.62711
9881260,-0.14000,60.4375,96,55,0.61587
9881270,-0.19000,60.2500,96,55,0.60342
9881280,-0.07000,59.7500,96,55,0.57656
9881290,0.48500,59.5000,96,55,0.56239
9881300,1.31500,59.2500,96,55,0.54823
9881310,1.58000,59.0000,96,55,0.53529
9881320,0.88500,58.5000,96,55,0.50940
9881330,0.03500,58.2500,96,55,0.49573
9881340,-0.30500,58.0000,96,55,0.48181
9881350,-0.30500,57.7500,96,55,0.46813
9881360,-0.30500,57.7500,96,55,0.46813
9881370,-0.24500,57.0625,96,55,0.43004
9881380,-0.23000,56.7500,96,55,0.41832
9881390,-0.22000,56.5000,96,55,0.40733
9881400,-0.21500,56.0000,96,55,0.38779
9881410,-0.21000,55.7500,96,55,0.38071
9881420,-0.20000,55.5000,96,55,0.37485
9881430,-0.19500,55.3125,96,55,0.36874
9881440,-0.19500,55.3125,96,55,0.36874
9881450,-0.18500,54.8125,96,55,0.35678
9881460,-0.17000,54.3750,96,55,0.34530
9881470,-0.16000,54.1250,96,55,0.33993
9881480,-0.15000,53.9375,96,55,0.32991
9881490,-0.13500,53.8750,96,55,0.32552
9881500,-0.12500,54.0000,96,55,0.32112
9881510,-0.11000,54.4375,96,55,0.31795
9881520,-0.09500,57.0000,96,55,0.31209
9881530,-0.07500,59.4375,96,55,0.30867
9881540,-0.05500,62.5625,96,55,0.30501
9881550,-0.03500,66.1250,96,55,0.30134
9881560,-0.00500,73.8125,96,55,0.29524
9881570,0.02000,77.6250,96,55,0.29255
9881580,0.05000,81.1250,96,55,0.28987
9881590,0.08000,84.3125,96,55,0.28718
9881600,0.11000,89.1250,96,55,0.28205
9881610,0.14000,90.8125,96,55,0.28059
9881620,0.17500,92.0000,96,55,0.27912
9881630,0.20500,92.8750,96,55,0.27668
9881640,0.23000,93.7500,96,55,0.27131
9881650,0.23500,93.8750,96,55,0.26886
9881660,0.20000,93.7500,96,55,0.26618
9881670,0.13500,93.3750,96,55,0.26398
9881680,0.06000,92.2500,96,55,0.25910
9881690,0.00000,91.4375,96,55,0.25665
9881700,-0.04500,90.5625,96,55,0.25421
9881710,-0.08000,89.5625,96,55,0.25275
9881720,-0.09500,87.3125,96,55,0.24982
9881730,-0.11000,86.1875,96,55,0.24786
9881740,-0.11500,85.0000,96,55,0.24567
9881750,-0.12000,83.7500,96,55,0.24347
9881760,-0.12000,81.1250,96,55,0.23858
9881770,-0.12000,79.7500,96,55,0.23639
9881780,-0.11500,78.2500,96,55,0.23468
9881790,-0.11500,76.7500,96,55,0.23443
9881800,-0.11500,73.8750,96,55,0.24054
9881810,-0.11500,72.5625,96,55,0.24713
9881820,-0.11500,71.3125,96,55,0.25690
9881830,-0.11500,70.0625,96,55,0.27082
9881840,-0.12000,67.8750,96,55,0.30989
9881850,-0.12000,66.9375,96,55,0.33455
9881860,-0.12000,66.0625,96,55,0.36166
9881870,-0.11500,65.3750,96,55,0.39072
9881880,-0.11000,64.1250,96,55,0.45104
9881890,-0.10500,63.6250,96,55,0.48059
9881900,-0.08000,63.1875,96,55,0.50891
9881910,-0.06500,62.8125,96,55,0.53211
9881920,-0.06000,62.1875,96,55,0.57094
9881930,-0.03500,61.9375,96,55,0.58926
9881940,-0.01500,61.6875,96,55,0.60562
9881950,-0.02500,61.5000,96,55,0.61929
9881960,-0.04500,61.1875,96,55,0.63858
9881970,-0.07000,61.0625,96,55,0.64469
9881980,-0.10500,60.9375,96,55,0.64835
9881990,-0.14500,60.8125,96,55,0.65006
9882000,-0.16000,60.5000,96,55,0.64713
9882010,-0.16000,60.3750,96,55,0.64322
9882020,-0.16000,60.2500,96,55,0.63810
9882030,-0.15500,60.1250,96,55,0.63175
9882040,-0.14500,59.7500,96,55,0.61661
9882050,-0.13500,59.6250,96,55,0.60733
9882060,-0.16500,59.4375,96,55,0.59731
9882070,-0.22000,59.1875,96,55,0.58632
9882080,-0.04500,58.8125,96,55,0.56190
9882090,0.58500,58.6250,96,55,0.54896
9882100,1.41500,58.4375,96,55,0.53578
9882110,1.52500,58.2500,96,55,0.52357
9882120,0.74000,57.8125,96,55,0.49915
9882130,-0.04000,57.6250,96,55,0.48596
9882140,-0.32000,57.3750,96,55,0.47277
9882150,-0.30500,57.1875,96,55,0.45983
9882160,-0.27000,56.7500,96,55,0.43468
9882170,-0.25000,56.5625,96,55,0.42271
9882180,-0.24000,56.3125,96,55,0.41148
9882190,-0.23000,56.1250,96,55,0.40073
9882200,-0.22000,55.6250,96,55,0.38144
9882210,-0.21500,55.3750,96,55,0.37411
9882220,-0.20500,55.1875,96,55,0.36801
9882230,-0.20000,54.9375,96,55,0.36166
9882240,-0.19000,54.5000,96,55,0.34969
9882250,-0.18000,54.3125,96,55,0.34432
9882260,-0.17000,54.0625,96,55,0.33895
9882270,-0.16500,53.8750,96,55,0.33407
9882280,-0.15500,53.6250,96,55,0.32552
9882290,-0.14000,53.6250,96,55,0.32161
9882300,-0.12500,53.7500,96,55,0.31819
9882310,-0.11000,54.3125,96,55,0.31600
9882320,-0.09500,57.3125,96,55,0.31209
9882330,-0.07500,59.8750,96,55,0.30940
9882340,-0.05500,63.1250,96,55,0.30672
9882350,-0.03500,66.7500,96,55,0.30403
9882360,-0.00500,74.5000,96,55,0.29817
9882370,0.02000,78.3125,96,55,0.29548
9882380,0.05000,81.7500,96,55,0.29304
9882390,0.08000,84.8125,96,55,0.29060
9882400,0.11000,89.5625,96,55,0.28547
9882410,0.14000,91.1875,96,55,0.28376
9882420,0.17000,92.4375,96,55,0.28254
9882430,0.20000,93.3125,96,55,0.28083
9882440,0.22500,94.1875,96,55,0.27668
9882450,0.21500,94.3750,96,55,0.27424
9882460,0.17500,94.2500,96,55,0.27179
9882470,0.11000,94.0000,96,55,0.26935
9882480,0.04000,92.8125,96,55,0.26398
9882490,-0.02500,92.0625,96,55,0.26129
9882500,-0.07000,91.1875,96,55,0.25910
9882510,-0.09500,90.2500,96,55,0.25788
9882520,-0.11000,88.1250,96,55,0.25568
9882530,-0.12000,87.0000,96,55,0.25397
9882540,-0.12000,85.8125,96,55,0.25177
9882550,-0.12000,84.6250,96,55,0.24933
9882560,-0.11500,82.0625,96,55,0.24469
9882570,-0.11500,80.6875,96,55,0.24298
9882580,-0.11500,79.2500,96,55,0.24200
9882590,-0.11500,77.8125,96,55,0.24225
9882600,-0.11000,74.8750,96,55,0.24982
9882610,-0.11500,73.5000,96,55,0.25714
9882620,-0.11500,73.5000,96,55,0.25714
9882630,-0.11500,70.9375,96,55,0.28718
9882640,-0.11500,68.6875,96,55,0.34408
9882650,-0.12000,67.7500,96,55,0.37460
9882660,-0.12000,66.8750,96,55,0.40733
9882670,-0.12000,66.0625,96,55,0.44127
9882680,-0.12000,66.0625,96,55,0.44127
9882690,-0.10000,64.2500,96,55,0.54457
9882700,-0.07500,63.7500,96,55,0.57680
9882710,-0.06500,63.3125,96,55,0.60269
9882720,-0.05500,62.6250,96,55,0.64713
9882730,-0.03500,62.3125,96,55,0.66813
9882740,-0.01500,62.0625,96,55,0.68694
9882750,-0.02500,61.8750,96,55,0.70305
9882760,-0.05000,61.5625,96,55,0.72674
9882770,-0.07500,61.4375,96,55,0.73431
9882780,-0.11500,61.3125,96,55,0.73919
9882790,-0.15000,61.2500,96,55,0.74164
9882800,-0.16500,60.9375,96,55,0.73944
9882810,-0.17000,60.8125,96,55,0.73553
9882820,-0.17000,60.8125,96,55,0.73553
9882830,-0.16000,60.5000,96,55,0.72332
9882840,-0.14500,60.1875,96,55,0.70720
9882850,-0.14500,60.0625,96,55,0.69744
9882860,-0.18000,59.8750,96,55,0.68694
9882870,-0.21000,59.6875,96,55,0.67546
9882880,0.02000,59.3750,96,55,0.64908
9882890,0.72500,59.1875,96,55,0.63468
9882900,1.53000,59.0000,96,55,0.61978
9882910,1.46000,58.8125,96,55,0.60586
9882920,0.60000,58.4375,96,55,0.57753
9882930,-0.11000,58.2500,96,55,0.56190
9882940,-0.32500,58.0625,96,55,0.54603
9882950,-0.30500,57.9375,96,55,0.53065
9882960,-0.27000,57.5000,96,55,0.50183
9882970,-0.26000,57.2500,96,55,0.48840
9882980,-0.25000,57.0625,96,55,0.47546
9882990,-0.24500,56.8750,96,55,0.46300
9883000,-0.23500,56.4375,96,55,0.44200
9883010,-0.22500,56.1875,96,55,0.43370
9883020,-0.21500,56.0000,96,55,0.42491
9883030,-0.21000,55.7500,96,55,0.41636
9883040,-0.20000,55.3125,96,55,0.40122
9883050,-0.19000,55.1250,96,55,0.39414
9883060,-0.18000,54.9375,96,55,0.38755
9883070,-0.17500,54.7500,96,55,0.38169
9883080,-0.16000,54.5000,96,55,0.37094
9883090,-0.15500,54.6250,96,55,0.36606
9883100,-0.13500,55.0000,96,55,0.36142
9883110,-0.12500,55.8750,96,55,0.35800
9883120,-0.10500,59.8750,96,55,0.35238
9883130,-0.08500,63.0625,96,55,0.34945
9883140,-0.06500,66.6875,96,55,0.34652
9883150,-0.04000,70.6875,96,55,0.34359
9883160,-0.01000,78.8125,96,55,0.33773
9883170,0.01500,82.5625,96,55,0.33480
9883180,0.04500,86.0000,96,55,0.33187
9883190,0.07500,88.9375,96,55,0.32894
9883200,0.10500,93.2500,96,55,0.32430
9883210,0.13000,94.7500,96,55,0.32283
9883220,0.16500,95.8125,96,55,0.32063
9883230,0.19000,96.5625,96,55,0.31844
9883240,0.21000,97.3125,96,55,0.31331
9883250,0.20000,97.3750,96,55,0.31062
9883260,0.15500,97.1875,96,55,0.30794
9883270,0.09000,96.8125,96,55,0.30623
9883280,0.02000,95.6250,96,55,0.30403
9883290,0.02000,95.6250,96,55,0.30403
9883300,-0.07500,93.9375,96,55,0.29866
9883310,-0.10000,92.9375,96,55,0.29402
9883320,-0.11500,90.7500,96,55,0.27961
9883330,-0.12500,89.6250,96,55,0.27375
9883340,-0.12500,88.4375,96,55,0.27595
9883350,-0.12500,87.1875,96,55,0.29035
9883360,-0.12500,84.6250,96,55,0.35507
9883370,-0.12500,83.3125,96,55,0.39585
9883380,-0.12500,81.8750,96,55,0.43346
9883390,-0.12000,80.3750,96,55,0.46325
9883400,-0.12000,77.3125,96,55,0.49744
9883410,-0.12000,75.9375,96,55,0.50647
9883420,-0.12000,74.6250,96,55,0.51600
9883430,-0.12000,73.3750,96,55,0.52869
9883440,-0.12500,71.1250,96,55,0.56728
9883450,-0.12500,70.1250,96,55,0.59267
9883460,-0.12000,69.1875,96,55,0.62051
9883470,-0.11500,68.3750,96,55,0.65006
9883480,-0.10500,67.0000,96,55,0.70989
9883490,-0.10500,67.0000,96,55,0.70989
9883500,-0.07000,65.9375,96,55,0.76508
9883510,-0.06500,65.5000,96,55,0.78559
9883520,-0.03500,64.8750,96,55,0.81856
9883530,-0.02000,64.6250,96,55,0.83419
9883540,-0.02500,64.3750,96,55,0.84737
9883550,-0.05500,64.1875,96,55,0.85812
9883560,-0.08000,63.8125,96,55,0.87106
9883570,-0.11500,63.6875,96,55,0.87399
9883580,-0.15000,63.5625,96,55,0.87473
9883590,-0.16500,63.5000,96,55,0.87350
9883600,-0.16500,63.2500,96,55,0.86471
9883610,-0.16000,63.1250,96,55,0.85739
9883620,-0.15000,62.9375,96,55,0.84933
9883630,-0.14500,62.7500,96,55,0.84029
9883640,-0.13500,62.3750,96,55,0.81905
9883650,-0.18000,62.2500,96,55,0.80684
9883660,-0.21000,62.0625,96,55,0.79365
9883670,0.08000,61.8750,96,55,0.77924
9883680,0.80500,61.5000,96,55,0.74750
9883690,1.58500,61.3125,96,55,0.73089
9883700,1.55000,61.0625,96,55,0.71380
9883710,0.64000,60.8750,96,55,0.69768
9883720,-0.12000,60.3750,96,55,0.66422
9883730,-0.32500,60.1250,96,55,0.64567
9883740,-0.30500,59.8750,96,55,0.62735
9883750,-0.27500,59.6875,96,55,0.61099
9883760,-0.26000,59.1875,96,55,0.58852
9883770,-0.25000,59.0000,96,55,0.58046
9883780,-0.24000,58.7500,96,55,0.56923
9883790,-0.23000,58.5000,96,55,0.54994
9883800,-0.22000,58.0625,96,55,0.48425
9883810,-0.21500,57.8125,96,55,0.44493
9883820,-0.20500,57.6250,96,55,0.39731
9883830,-0.20000,57.3750,96,55,0.35043
9883840,-0.20000,57.3750,96,55,0.35043
9883850,-0.18000,56.6875,96,55,0.26764
9883860,-0.17000,56.5000,96,55,0.25958
9883870,-0.16500,56.3750,96,55,0.25665
9883880,-0.15000,56.6250,96,55,0.25617
9883890,-0.13500,57.3125,96,55,0.25617
9883900,-0.12000,58.6250,96,55,0.25617
9883910,-0.10500,60.8125,96,55,0.25714
9883920,-0.10500,60.8125,96,55,0.25714
9883930,-0.06000,71.5000,96,55,0.26178
9883940,-0.03500,75.7500,96,55,0.26276
9883950,-0.01000,80.0000,96,55,0.26349
9883960,0.02000,87.8125,96,55,0.26471
9883970,0.05000,91.0625,96,55,0.26520
9883980,0.08000,93.6875,96,55,0.26545
9883990,0.11000,95.8125,96,55,0.26545
9884000,0.14000,98.6250,96,55,0.26642
9884010,0.16500,99.5625,96,55,0.26764
9884020,0.19500,100.1250,96,55,0.26789
9884030,0.20500,100.3750,96,55,0.26789
9884040,0.18500,100.3125,96,55,0.26764
9884050,0.14000,99.9375,96,55,0.26764
9884060,0.08000,99.5000,96,55,0.26764
9884070,0.01500,98.8125,96,55,0.26764
9884080,-0.03500,97.1250,96,55,0.26740
9884090,-0.07500,96.1250,96,55,0.26691
9884100,-0.10000,95.0625,96,55,0.26642
9884110,-0.11500,93.9375,96,55,0.26667
9884120,-0.12000,91.6250,96,55,0.26716
9884130,-0.12500,90.4375,96,55,0.26642
9884140,-0.12500,89.1875,96,55,0.26593
9884150,-0.12500,87.8750,96,55,0.26569
9884160,-0.12500,85.1875,96,55,0.26716
9884170,-0.12500,83.7500,96,55,0.27033
9884180,-0.11500,82.2500,96,55,0.27595
9884190,-0.12000,80.7500,96,55,0.28498
9884200,-0.12500,77.8125,96,55,0.31209
9884210,-0.12500,76.3750,96,55,0.32943
9884220,-0.12500,75.1250,96,55,0.35214
9884230,-0.12000,73.9375,96,55,0.37998
9884240,-0.12000,71.8125,96,55,0.44615
9884250,-0.11500,70.8750,96,55,0.48254
9884260,-0.11000,70.0625,96,55,0.51966
9884270,-0.10500,69.3750,96,55,0.55678
9884280,-0.08000,68.1250,96,55,0.62686
9884290,-0.08000,68.1250,96,55,0.62686
9884300,-0.05000,67.1875,96,55,0.68694
9884310,-0.03500,66.8125,96,55,0.70867
9884320,-0.03500,66.8125,96,55,0.70867
9884330,-0.02000,66.0625,96,55,0.75897
9884340,-0.04500,65.8125,96,55,0.77241
9884350,-0.06500,65.5625,96,55,0.78339
9884360,-0.10000,65.1250,96,55,0.79780
9884370,-0.14500,64.9375,96,55,0.80147
9884380,-0.16000,64.7500,96,55,0.80293
9884390,-0.16000,64.5000,96,55,0.80269
9884400,-0.15500,64.1250,96,55,0.79634
9884410,-0.15500,64.1250,96,55,0.79634
9884420,-0.13500,63.6250,96,55,0.78486
9884430,-0.13000,63.3750,96,55,0.77778
9884440,-0.16000,62.8750,96,55,0.75995
9884450,-0.17500,62.6250,96,55,0.74945
9884460,0.11000,62.3750,96,55,0.73773
9884470,0.84500,62.1250,96,55,0.72479
9884480,1.62000,61.5625,96,55,0.69670
9884490,1.53000,61.3125,96,55,0.68156
9884500,0.62500,61.0625,96,55,0.66618
9884510,-0.11500,60.7500,96,55,0.65177
9884520,-0.32000,60.1875,96,55,0.62320
9884530,-0.30000,59.9375,96,55,0.60830
9884540,-0.27000,59.6250,96,55,0.59341
9884550,-0.26000,59.3750,96,55,0.57851
9884560,-0.24500,58.8125,96,55,0.55018
9884570,-0.23500,58.5625,96,55,0.53700
9884580,-0.23000,58.3750,96,55,0.52454
9884590,-0.22000,58.1250,96,55,0.51282
9884600,-0.21000,57.6250,96,55,0.49280
9884610,-0.20500,57.3750,96,55,0.48474
9884620,-0.20000,57.1250,96,55,0.47643
9884630,-0.19500,56.8750,96,55,0.46862
9884640,-0.18500,56.3750,96,55,0.45421
9884650,-0.18000,56.1250,96,55,0.44737
9884660,-0.17000,56.0000,96,55,0.44103
9884670,-0.15500,55.9375,96,55,0.43492
9884680,-0.14000,56.6875,96,55,0.40171
9884690,-0.12500,57.9375,96,55,0.39048
9884700,-0.11000,59.9375,96,55,0.38339
9884710,-0.09000,62.8125,96,55,0.37875
9884720,-0.06500,70.3125,96,55,0.37070
9884730,-0.04000,74.5000,96,55,0.36679
9884740,-0.01000,78.6875,96,55,0.36337
9884750,0.01500,82.7500,96,55,0.35995
9884760,0.04500,89.6250,96,55,0.35336
9884770,0.07500,92.3125,96,55,0.34994
9884780,0.10500,94.3750,96,55,0.34676
9884790,0.13000,96.0000,96,55,0.34359
9884800,0.16500,97.9375,96,55,0.33797
9884810,0.18500,98.4375,96,55,0.33578
9884820,0.20500,98.6875,96,55,0.33309
9884830,0.20000,98.6250,96,55,0.33016
9884840,0.16500,97.8750,96,55,0.32405
9884850,0.10000,97.2500,96,55,0.32088
9884860,0.03500,96.5000,96,55,0.31795
9884870,-0.01500,95.6250,96,55,0.31526
9884880,-0.05000,93.6250,96,55,0.30965
9884890,-0.05000,93.6250,96,55,0.30965
9884900,-0.09000,91.3750,96,55,0.30525
9884910,-0.10000,90.1875,96,55,0.30403
9884920,-0.10500,87.7500,96,55,0.29988
9884930,-0.10500,86.4375,96,55,0.29744
9884940,-0.10500,85.0625,96,55,0.29524
9884950,-0.10500,83.6250,96,55,0.29353
9884960,-0.10500,80.6250,96,55,0.29280
9884970,-0.10500,79.0625,96,55,0.29499
9884980,-0.10500,77.5625,96,55,0.29939
9884990,-0.11000,76.1250,96,55,0.30672
9885000,-0.11000,73.4375,96,55,0.32991
9885010,-0.11500,72.2500,96,55,0.34408
9885020,-0.11500,71.1250,96,55,0.36313
9885030,-0.11000,70.1250,96,55,0.38584
9885040,-0.10500,68.3125,96,55,0.43834
9885050,-0.10500,67.5625,96,55,0.46618
9885060,-0.09500,66.8750,96,55,0.49402
9885070,-0.08500,66.2500,96,55,0.52088
9885080,-0.05500,65.3125,96,55,0.57045
9885090,-0.04500,64.9375,96,55,0.59194
9885100,-0.03500,64.5625,96,55,0.60855
9885110,-0.01500,64.3125,96,55,0.62173
9885120,0.00000,63.8125,96,55,0.64615
9885130,-0.01500,63.6250,96,55,0.65543
9885140,-0.03500,63.4375,96,55,0.66276
9885150,-0.06500,63.2500,96,55,0.66764
9885160,-0.10000,63.0000,96,55,0.67179
9885170,-0.14000,62.8125,96,55,0.67131
9885180,-0.15500,62.6875,96,55,0.66935
9885190,-0.15500,62.5000,96,55,0.66618
9885200,-0.14500,62.1875,96,55,0.65641
9885210,-0.14000,62.0000,96,55,0.65006
9885220,-0.12500,61.7500,96,55,0.64298
9885230,-0.12500,61.5000,96,55,0.63492
9885240,-0.17500,61.1250,96,55,0.61587
9885250,-0.16500,61.0000,96,55,0.60488
9885260,0.18500,60.7500,96,55,0.59316
9885270,0.96500,60.5000,96,55,0.58046
9885280,1.61500,60.0625,96,55,0.55385
9885290,1.28500,59.8750,96,55,0.54042
9885300,0.35500,59.6250,96,55,0.52845
9885310,-0.21500,59.4375,96,55,0.51697
9885320,-0.32500,59.0625,96,55,0.49304
9885330,-0.28000,58.8750,96,55,0.48107
9885340,-0.25000,58.6250,96,55,0.46935
9885350,-0.24000,58.3750,96,55,0.45788
9885360,-0.22500,57.8750,96,55,0.43663
9885370,-0.22000,57.6250,96,55,0.42686
9885380,-0.21000,57.3750,96,55,0.41783
9885390,-0.20000,57.1250,96,55,0.40904
9885400,-0.19500,56.6875,96,55,0.39414
9885410,-0.19000,56.4375,96,55,0.38852
9885420,-0.18500,56.1875,96,55,0.38242
9885430,-0.17500,56.0000,96,55,0.37607
9885440,-0.16500,55.5625,96,55,0.36459
9885450,-0.15500,55.3750,96,55,0.35922
9885460,-0.14500,55.2500,96,55,0.35409
9885470,-0.13500,55.1875,96,55,0.34945
9885480,-0.11500,55.8750,96,55,0.34066
9885490,-0.10000,56.9375,96,55,0.33651
9885500,-0.08500,58.7500,96,55,0.33358
9885510,-0.06500,61.3125,96,55,0.33138
9885520,-0.04500,68.1250,96,55,0.32527
9885530,-0.02500,72.0000,96,55,0.32210
9885540,0.00500,75.9375,96,55,0.31917
9885550,0.03500,79.7500,96,55,0.31600
9885560,0.06000,86.3750,96,55,0.30965
9885570,0.09000,88.9375,96,55,0.30647
9885580,0.12000,90.9375,96,55,0.30354
9885590,0.14500,92.5625,96,55,0.30061
9885600,0.17500,94.4375,96,55,0.29524
9885610,0.21500,94.8750,96,55,0.29353
9885620,0.23500,95.0625,96,55,0.29133
9885630,0.22000,95.0625,96,55,0.28889
9885640,0.17500,94.5000,96,55,0.28400
9885650,0.11000,93.9375,96,55,0.28132
9885660,0.04000,93.1875,96,55,0.27888
9885670,-0.01500,92.3750,96,55,0.27643
9885680,-0.05500,90.3750,96,55,0.27179
9885690,-0.08000,89.2500,96,55,0.26935
9885700,-0.09500,88.0625,96,55,0.26789
9885710,-0.10500,86.8750,96,55,0.26667
9885720,-0.11500,84.3125,96,55,0.26203
9885730,-0.11500,82.9375,96,55,0.25983
9885740,-0.11500,81.5625,96,55,0.25763
9885750,-0.11500,81.5625,96,55,0.25763
9885760,-0.11500,77.1250,96,55,0.25519
9885770,-0.11500,77.1250,96,55,0.25519
9885780,-0.11500,74.1875,96,55,0.26154
9885790,-0.11000,72.8750,96,55,0.26838
9885800,-0.11500,70.3750,96,55,0.28987
9885810,-0.11500,69.3125,96,55,0.30330
9885820,-0.11500,68.3125,96,55,0.32063
9885830,-0.11500,67.3750,96,55,0.34139
9885840,-0.11500,67.3750,96,55,0.34139
9885850,-0.11500,65.1875,96,55,0.41709
9885860,-0.10500,64.6250,96,55,0.44396
9885870,-0.10000,64.1250,96,55,0.47057
9885880,-0.08500,63.3125,96,55,0.51893
9885890,-0.07000,63.0625,96,55,0.54017
9885900,-0.06000,62.7500,96,55,0.55653
9885910,-0.04000,62.5625,96,55,0.56947
9885920,-0.01500,62.1250,96,55,0.59316
9885930,-0.00500,62.0000,96,55,0.60244
9885940,-0.03000,61.8125,96,55,0.60952
9885950,-0.05500,61.6875,96,55,0.61490
9885960,-0.08500,61.3750,96,55,0.62051
9885970,-0.12500,61.1875,96,55,0.62076
9885980,-0.15500,61.0625,96,55,0.61929
9885990,-0.16000,60.8125,96,55,0.61636
9886000,-0.15500,60.4375,96,55,0.60659
9886010,-0.15000,60.3125,96,55,0.60024
9886020,-0.14500,60.1250,96,55,0.59292
9886030,-0.13500,59.8750,96,55,0.58462
9886040,-0.14500,59.5000,96,55,0.56557
9886050,-0.19500,59.3125,96,55,0.55482
9886060,-0.14500,59.0625,96,55,0.54335
9886070,0.26000,58.8750,96,55,0.53138
9886080,1.07000,58.4375,96,55,0.50647
9886090,1.62000,58.2500,96,55,0.49402
9886100,1.13500,58.0625,96,55,0.48278
9886110,0.21500,57.8125,96,55,0.47253
9886120,-0.26000,57.4375,96,55,0.45006
9886130,-0.32500,57.2500,96,55,0.43858
9886140,-0.28000,57.0625,96,55,0.42735
9886150,-0.25000,56.8750,96,55,0.41661
9886160,-0.24000,56.4375,96,55,0.39658
9886170,-0.22500,56.1875,96,55,0.38755
9886180,-0.22000,56.0000,96,55,0.37924
9886190,-0.21000,55.7500,96,55,0.37143
9886200,-0.20500,55.3750,96,55,0.35873
9886210,-0.19500,55.1250,96,55,0.35433
9886220,-0.18500,54.8750,96,55,0.34969
9886230,-0.18000,54.6875,96,55,0.34505
9886240,-0.17000,54.1875,96,55,0.33626
9886250,-0.16000,54.0000,96,55,0.33236
9886260,-0.15000,53.8125,96,55,0.32845
9886270,-0.13500,53.7500,96,55,0.32479
9886280,-0.12500,54.0000,96,55,0.31868
9886290,-0.10500,54.6250,96,55,0.31575
9886300,-0.09000,55.8750,96,55,0.31380
9886310,-0.07500,57.8750,96,55,0.31209
9886320,-0.05500,64.0000,96,55,0.30769
9886330,-0.03500,67.7500,96,55,0.30525
9886340,-0.01000,71.6875,96,55,0.30305
9886350,0.02000,75.6250,96,55,0.30061
9886360,0.04000,82.8750,96,55,0.29621
9886370,0.07000,85.8750,96,55,0.29377
9886380,0.10000,88.4375,96,55,0.29158
9886390,0.12500,90.4375,96,55,0.28962
9886400,0.15500,93.0000,96,55,0.28669
9886410,0.19000,93.6875,96,55,0.28596
9886420,0.22000,94.1250,96,55,0.28425
9886430,0.23500,94.3125,96,55,0.28230
9886440,0.21000,94.0625,96,55,0.27814
9886450,0.15500,93.6875,96,55,0.27619
9886460,0.08000,93.1875,96,55,0.27424
9886470,0.01500,92.5000,96,55,0.27253
9886480,-0.03500,90.7500,96,55,0.26862
9886490,-0.07500,89.7500,96,55,0.26642
9886500,-0.09500,88.6875,96,55,0.26520
9886510,-0.10500,87.5625,96,55,0.26471
9886520,-0.10500,87.5625,96,55,0.26471
9886530,-0.11500,83.9375,96,55,0.26105
9886540,-0.12000,82.6875,96,55,0.25934
9886550,-0.12000,81.3125,96,55,0.25788
9886560,-0.12000,78.4375,96,55,0.25543
9886570,-0.11500,77.0000,96,55,0.25543
9886580,-0.11500,75.5625,96,55,0.25714
9886590,-0.11500,74.1250,96,55,0.26105
9886600,-0.11500,71.5000,96,55,0.27497
9886610,-0.12000,70.3125,96,55,0.28694
9886620,-0.12000,69.1875,96,55,0.30281
9886630,-0.12000,68.1875,96,55,0.32210
9886640,-0.12000,66.3750,96,55,0.36947
9886650,-0.12000,65.6250,96,55,0.39634
9886660,-0.11500,65.0000,96,55,0.42393
9886670,-0.10500,64.3750,96,55,0.45153
9886680,-0.09000,63.4375,96,55,0.50403
9886690,-0.06500,63.0625,96,55,0.52772
9886700,-0.06000,62.7500,96,55,0.54652
9886710,-0.04500,62.4375,96,55,0.56190
9886720,-0.01500,62.0000,96,55,0.60733
9886730,-0.01000,61.8125,96,55,0.64396
9886740,-0.03000,61.6250,96,55,0.66691
9886750,-0.05500,61.4375,96,55,0.68205
9886760,-0.08500,61.2500,96,55,0.69792
9886770,-0.12000,61.1250,96,55,0.70085
9886780,-0.12000,61.1250,96,55,0.70085
9886790,-0.16000,60.8750,96,55,0.69963
9886800,-0.16000,60.6250,96,55,0.69109
9886810,-0.15000,60.5000,96,55,0.68523
9886820,-0.14500,60.3125,96,55,0.67790
9886830,-0.13500,60.1250,96,55,0.66935
9886840,-0.14000,59.7500,96,55,0.64908
9886850,-0.19000,59.5625,96,55,0.63736
9886860,-0.18000,59.3750,96,55,0.62442
9886870,0.18000,59.1250,96,55,0.61074
9886880,0.97000,58.7500,96,55,0.58217
9886890,1.61500,58.5625,96,55,0.56752
9886900,1.27000,58.3125,96,55,0.55409
9886910,0.36000,58.1250,96,55,0.54115
9886920,-0.20000,57.6875,96,55,0.51306
9886930,-0.31500,57.4375,96,55,0.49890
9886940,-0.28000,57.1875,96,55,0.48523
9886950,-0.25500,57.0000,96,55,0.47204
9886960,-0.24000,56.5625,96,55,0.44786
9886970,-0.23000,56.3125,96,55,0.43639
9886980,-0.22000,56.0625,96,55,0.42589
9886990,-0.21500,55.8750,96,55,0.41587
9887000,-0.21000,55.3750,96,55,0.40098
9887010,-0.20000,55.1875,96,55,0.39365
9887020,-0.19500,54.9375,96,55,0.38632
9887030,-0.18000,54.7500,96,55,0.37949
9887040,-0.17000,54.3125,96,55,0.36703
9887050,-0.16000,54.0625,96,55,0.36142
9887060,-0.15500,53.8750,96,55,0.35653
9887070,-0.14000,53.8125,96,55,0.35189
9887080,-0.13000,54.0000,96,55,0.34335
9887090,-0.12000,54.6250,96,55,0.33944
9887100,-0.10500,55.8750,96,55,0.33675
9887110,-0.08500,57.8750,96,55,0.33455
9887120,-0.06500,64.0625,96,55,0.32894
9887130,-0.04500,67.8750,96,55,0.32576
9887140,-0.02500,71.8750,96,55,0.32259
9887150,0.00000,75.8125,96,55,0.31966
9887160,0.03000,83.1875,96,55,0.31429
9887170,0.06000,86.2500,96,55,0.31184
9887180,0.09000,88.8750,96,55,0.30965
9887190,0.12000,90.9375,96,55,0.30720
9887200,0.14500,93.7500,96,55,0.30427
9887210,0.17500,94.6250,96,55,0.30232
9887220,0.20000,95.1875,96,55,0.29988
9887230,0.21500,95.5000,96,55,0.29744
9887240,0.19500,95.5000,96,55,0.29255
9887250,0.14500,95.1875,96,55,0.29011
9887260,0.07500,94.7500,96,55,0.28767
9887270,0.01000,94.1875,96,55,0.28523
9887280,-0.04000,92.6875,96,55,0.27961
9887290,-0.07500,91.8125,96,55,0.27717
9887300,-0.10000,90.8125,96,55,0.27570
9887310,-0.11500,89.8125,96,55,0.27497
9887320,-0.12000,87.5625,96,55,0.27131
9887330,-0.12000,87.5625,96,55,0.27131
9887340,-0.12000,85.1250,96,55,0.26642
9887350,-0.12000,83.8750,96,55,0.26422
9887360,-0.12000,81.1875,96,55,0.26105
9887370,-0.11500,79.7500,96,55,0.26105
9887380,-0.11500,78.3125,96,55,0.26349
9887390,-0.11500,76.8750,96,55,0.26862
9887400,-0.11500,74.1250,96,55,0.28694
9887410,-0.11500,72.8125,96,55,0.30183
9887420,-0.12000,71.6250,96,55,0.32112
9887430,-0.12000,70.5000,96,55,0.34481
9887440,-0.12000,70.5000,96,55,0.34481
9887450,-0.12500,67.6875,96,55,0.43394
9887460,-0.11500,66.9375,96,55,0.46716
9887470,-0.11000,66.2500,96,55,0.50061
9887480,-0.10000,65.1250,96,55,0.56508
9887490,-0.08000,64.7500,96,55,0.59487
9887500,-0.07000,64.3750,96,55,0.61856
9887510,-0.05500,64.0625,96,55,0.63761
9887520,-0.03000,63.5000,96,55,0.67473
9887530,-0.01500,63.3125,96,55,0.69035
9887540,-0.02500,63.1875,96,55,0.70354
9887550,-0.05000,63.0625,96,55,0.71429
9887560,-0.07500,62.8125,96,55,0.72845
9887570,-0.11000,62.6875,96,55,0.73211
9887580,-0.14500,62.5625,96,55,0.73358
9887590,-0.16000,62.4375,96,55,0.73333
9887600,-0.16500,62.1250,96,55,0.72674
9887610,-0.16000,62.0000,96,55,0.72161
9887620,-0.15500,61.8750,96,55,0.71551
9887630,-0.14500,61.7500,96,55,0.70818
9887640,-0.14000,61.3750,96,55,0.68987
9887650,-0.18000,61.1875,96,55,0.67888
9887660,-0.20000,61.0625,96,55,0.66716
9887670,0.06000,60.8125,96,55,0.65470
9887680,0.79000,60.4375,96,55,0.62759
9887690,1.59000,60.2500,96,55,0.61319
9887700,1.51000,60.0000,96,55,0.59976
9887710,0.62500,59.7500,96,55,0.58657
9887720,-0.10500,59.2500,96,55,0.55751
9887730,-0.32500,59.0625,96,55,0.54261
9887740,-0.30000,58.8125,96,55,0.52796
9887750,-0.27000,58.6250,96,55,0.51404
9887760,-0.26000,58.1875,96,55,0.48718
9887770,-0.25000,57.9375,96,55,0.47473
9887780,-0.24000,57.7500,96,55,0.46300
9887790,-0.23000,57.5000,96,55,0.45226
9887800,-0.22000,57.0625,96,55,0.43590
9887810,-0.21000,56.8125,96,55,0.42759
9887820,-0.21000,56.5625,96,55,0.41954
9887830,-0.20000,56.3750,96,55,0.41197
9887840,-0.19500,55.8750,96,55,0.39805
9887850,-0.18500,55.6250,96,55,0.39194
9887860,-0.18000,55.4375,96,55,0.38632
9887870,-0.16500,55.3750,96,55,0.38144
9887880,-0.15500,55.6875,96,55,0.37289
9887890,-0.14000,56.4375,96,55,0.36874
9887900,-0.12500,57.8750,96,55,0.36532
9887910,-0.10500,60.1250,96,55,0.36264
9887920,-0.08500,66.8125,96,55,0.35556
9887930,-0.06500,70.8750,96,55,0.35214
9887940,-0.03500,75.1250,96,55,0.34896
9887950,-0.00500,79.3750,96,55,0.34603
9887960,0.02000,87.0625,96,55,0.34042
9887970,0.05000,90.1875,96,55,0.33773
9887980,0.08000,92.8125,96,55,0.33480
9887990,0.11000,94.9375,96,55,0.33187
9888000,0.14000,97.6250,96,55,0.32796
9888010,0.16500,98.4375,96,55,0.32576
9888020,0.19500,99.0000,96,55,0.32308
9888030,0.21500,99.3125,96,55,0.32039
9888040,0.20500,99.3125,96,55,0.31526
9888050,0.16500,99.0000,96,55,0.31282
9888060,0.10000,98.5000,96,55,0.31062
9888070,0.03000,97.8750,96,55,0.30842
9888080,-0.02500,96.1875,96,55,0.30379
9888090,-0.07000,95.2500,96,55,0.30134
9888100,-0.10000,94.1875,96,55,0.29963
9888110,-0.11000,93.1250,96,55,0.29841
9888120,-0.12000,90.8750,96,55,0.29475
9888130,-0.12500,89.6875,96,55,0.29304
9888140,-0.12500,88.4375,96,55,0.29133
9888150,-0.12500,87.1250,96,55,0.29011
9888160,-0.12500,84.3750,96,55,0.28913
9888170,-0.12000,82.9375,96,55,0.29060
9888180,-0.12000,81.4375,96,55,0.29402
9888190,-0.12000,79.8750,96,55,0.30037
9888200,-0.12000,77.0000,96,55,0.32039
9888210,-0.12000,75.6250,96,55,0.33675
9888220,-0.12500,74.3125,96,55,0.35775
9888230,-0.12500,73.0625,96,55,0.38339
9888240,-0.12500,70.9375,96,55,0.44420
9888250,-0.12500,70.0625,96,55,0.47814
9888260,-0.12000,69.3125,96,55,0.51306
9888270,-0.11500,68.6250,96,55,0.54774
9888280,-0.10500,67.5000,96,55,0.61319
9888290,-0.08000,67.0625,96,55,0.63883
9888300,-0.06500,66.6250,96,55,0.66032
9888310,-0.05500,66.3125,96,55,0.68254
9888320,-0.04000,65.7500,96,55,0.72259
9888330,-0.02000,65.5625,96,55,0.73895
9888340,-0.02500,65.3750,96,55,0.75238
9888350,-0.04500,65.2500,96,55,0.76288
9888360,-0.07000,65.0625,96,55,0.77631
9888370,-0.10000,64.9375,96,55,0.77973
9888380,-0.13500,64.8125,96,55,0.78120
9888390,-0.15500,64.6875,96,55,0.78071
9888400,-0.16000,64.4375,96,55,0.77338
9888410,-0.15500,64.2500,96,55,0.76850
9888420,-0.14500,64.0625,96,55,0.76264
9888430,-0.13500,63.9375,96,55,0.75556
9888440,-0.13000,63.5625,96,55,0.73822
9888450,-0.16500,63.3750,96,55,0.72772
9888460,-0.18000,63.1250,96,55,0.71648
9888470,0.09000,62.9375,96,55,0.70427
9888480,0.83500,62.4375,96,55,0.67741
9888490,1.62500,62.1875,96,55,0.66422
9888500,1.56000,62.0000,96,55,0.65128
9888510,0.67000,61.6875,96,55,0.63712
9888520,-0.09000,61.1875,96,55,0.60684
9888530,-0.32000,60.9375,96,55,0.59121
9888540,-0.30000,60.6875,96,55,0.57582
9888550,-0.27000,60.4375,96,55,0.56093
9888560,-0.26000,59.8750,96,55,0.53333
9888570,-0.25000,59.6250,96,55,0.52063
9888580,-0.24000,59.4375,96,55,0.50867
9888590,-0.22500,59.2500,96,55,0.49719
9888600,-0.22000,58.7500,96,55,0.47912
9888610,-0.21000,58.5000,96,55,0.47033
9888620,-0.20500,58.2500,96,55,0.46178
9888630,-0.20000,58.0000,96,55,0.45372
9888640,-0.19500,57.4375,96,55,0.43956
9888650,-0.18500,57.1250,96,55,0.43321
9888660,-0.17500,56.8750,96,55,0.42735
9888670,-0.16000,56.6875,96,55,0.42173
9888680,-0.15000,56.8125,96,55,0.41221
9888690,-0.13500,57.5000,96,55,0.40855
9888700,-0.12000,58.8750,96,55,0.40537
9888710,-0.10500,61.0625,96,55,0.40195
9888720,-0.08500,67.6875,96,55,0.39414
9888730,-0.06500,71.7500,96,55,0.39048
9888740,-0.03500,76.0000,96,55,0.38657
9888750,-0.01000,80.2500,96,55,0.38266
9888760,0.01500,87.8750,96,55,0.37607
9888770,0.04500,91.0000,96,55,0.36947
9888780,0.07500,93.6250,96,55,0.36117
9888790,0.10000,95.6250,96,55,0.35580
9888800,0.13000,98.3125,96,55,0.35043
9888810,0.16000,99.1250,96,55,0.34799
9888820,0.18500,99.6250,96,55,0.34554
9888830,0.18500,99.6250,96,55,0.34554
9888840,0.19500,99.5625,96,55,0.33651
9888850,0.15500,99.1875,96,55,0.33358
9888860,0.09500,98.6250,96,55,0.33089
9888870,0.03500,97.9375,96,55,0.32821
9888880,-0.02000,96.1875,96,55,0.32283
9888890,-0.05500,95.1250,96,55,0.32112
9888900,-0.08000,94.0625,96,55,0.31966
9888910,-0.09500,92.9375,96,55,0.31770
9888920,-0.10500,90.5000,96,55,0.31429
9888930,-0.11500,89.2500,96,55,0.31233
9888940,-0.11500,88.0000,96,55,0.31062
9888950,-0.12000,86.6250,96,55,0.30916
9888960,-0.12000,83.8125,96,55,0.30696
9888970,-0.12000,82.2500,96,55,0.30745
9888980,-0.11500,80.7500,96,55,0.31013
9888990,-0.11500,79.1875,96,55,0.31551
9889000,-0.11500,76.2500,96,55,0.33309
9889010,-0.12000,74.8750,96,55,0.34774
9889020,-0.12000,73.6250,96,55,0.36679
9889030,-0.12000,72.4375,96,55,0.38999
9889040,-0.12500,70.3125,96,55,0.44640
9889050,-0.12500,69.3750,96,55,0.47790
9889060,-0.12000,68.5625,96,55,0.50989
9889070,-0.11500,67.8750,96,55,0.54188
9889080,-0.10500,66.6875,96,55,0.60244
9889090,-0.09000,66.1875,96,55,0.62589
9889100,-0.06500,65.7500,96,55,0.64542
9889110,-0.05500,65.3750,96,55,0.66545
9889120,-0.04500,64.8125,96,55,0.70110
9889130,-0.02000,64.5625,96,55,0.71551
9889140,-0.01500,64.3750,96,55,0.72723
9889150,-0.03000,64.1875,96,55,0.73626
9889160,-0.05500,63.8750,96,55,0.74750
9889170,-0.08500,63.6875,96,55,0.75018
9889180,-0.12500,63.5625,96,55,0.75092
9889190,-0.15500,63.4375,96,55,0.74969
9889200,-0.16000,63.1250,96,55,0.74164
9889210,-0.15500,62.9375,96,55,0.73626
9889220,-0.15000,62.7500,96,55,0.72967
9889230,-0.14000,62.5625,96,55,0.72186
9889240,-0.13000,62.1250,96,55,0.70256
9889250,-0.13000,62.1250,96,55,0.70256
9889260,-0.19000,61.6250,96,55,0.67937
9889270,-0.13500,61.4375,96,55,0.66642
9889280,0.34500,60.9375,96,55,0.63883
9889290,1.17000,60.6875,96,55,0.62540
9889300,1.64000,60.3750,96,55,0.61221
9889310,1.13000,60.1250,96,55,0.59756
9889320,0.20000,59.6250,96,55,0.56703
9889330,-0.27000,59.3750,96,55,0.55189
9889340,-0.31500,59.1250,96,55,0.53700
9889350,-0.27500,58.8750,96,55,0.52234
9889360,-0.25500,58.3750,96,55,0.49499
9889370,-0.24000,58.1250,96,55,0.48205
9889380,-0.23000,57.8750,96,55,0.46960
9889390,-0.22000,57.6250,96,55,0.45812
9889400,-0.21500,57.1250,96,55,0.43980
9889410,-0.21000,56.8750,96,55,0.43101
9889420,-0.20000,56.6250,96,55,0.42222
9889430,-0.19000,56.3750,96,55,0.41368
9889440,-0.18000,55.8750,96,55,0.39878
9889450,-0.17500,55.6250,96,55,0.39219
9889460,-0.17000,55.4375,96,55,0.38608
9889470,-0.16000,55.3125,96,55,0.37998
9889480,-0.14500,55.1250,96,55,0.36801
9889490,-0.13500,55.3125,96,55,0.36313
9889500,-0.12000,55.8750,96,55,0.35922
9889510,-0.10500,57.0000,96,55,0.35482
9889520,-0.08500,61.7500,96,55,0.34603
9889530,-0.06500,65.1250,96,55,0.34188
9889540,-0.06500,65.1250,96,55,0.34188
9889550,-0.01500,73.0000,96,55,0.33358
9889560,0.01000,80.9375,96,55,0.32576
9889570,0.03500,84.4375,96,55,0.32186
9889580,0.06500,87.5000,96,55,0.31795
9889590,0.09500,90.0625,96,55,0.31429
9889600,0.12500,93.6875,96,55,0.30891
9889610,0.15500,94.8125,96,55,0.30549
9889620,0.18500,95.5625,96,55,0.30183
9889630,0.21500,96.0000,96,55,0.29817
9889640,0.22500,96.1250,96,55,0.29084
9889650,0.20500,95.8750,96,55,0.28742
9889660,0.15000,95.5000,96,55,0.28400
9889670,0.08000,94.8750,96,55,0.28059
9889680,0.01000,93.2500,96,55,0.27424
9889690,-0.03500,92.3125,96,55,0.27228
9889700,-0.07000,91.2500,96,55,0.27082
9889710,-0.09000,90.1875,96,55,0.26862
9889720,-0.10500,87.8125,96,55,0.26374
9889730,-0.11000,86.5625,96,55,0.26105
9889740,-0.11500,85.2500,96,55,0.25788
9889750,-0.11500,83.9375,96,55,0.25495
9889760,-0.12000,81.1875,96,55,0.25006
9889770,-0.12000,79.7500,96,55,0.24884
9889780,-0.12000,78.2500,96,55,0.24884
9889790,-0.12000,76.7500,96,55,0.25055
9889800,-0.12000,73.9375,96,55,0.26056
9889810,-0.11500,72.5625,96,55,0.26984
9889820,-0.11500,71.3125,96,55,0.28254
9889830,-0.11500,70.1875,96,55,0.29963
9889840,-0.11500,70.1875,96,55,0.29963
9889850,-0.12500,67.2500,96,55,0.37289
9889860,-0.12500,66.4375,96,55,0.40269
9889870,-0.12500,66.4375,96,55,0.40269
9889880,-0.11000,64.6875,96,55,0.49524
9889890,-0.10000,64.1875,96,55,0.52088
9889900,-0.08500,63.8125,96,55,0.54261
9889910,-0.06500,63.4375,96,55,0.56508
9889920,-0.05500,62.9375,96,55,0.60586
9889930,-0.03500,62.6875,96,55,0.62295
9889940,-0.01000,62.5000,96,55,0.63761
9889950,-0.01500,62.3125,96,55,0.64957
9889960,-0.03500,62.0000,96,55,0.66545
9889970,-0.06500,61.8750,96,55,0.66935
9889980,-0.10000,61.7500,96,55,0.67106
9889990,-0.13500,61.6250,96,55,0.67082
9890000,-0.15500,61.3750,96,55,0.66496
9890010,-0.16000,61.2500,96,55,0.66032
9890020,-0.15500,61.0625,96,55,0.65470
9890030,-0.14500,60.8750,96,55,0.64811
9890040,-0.14000,60.5000,96,55,0.63101
9890050,-0.13000,60.3750,96,55,0.62100
9890060,-0.15000,60.1875,96,55,0.61001
9890070,-0.20000,60.0000,96,55,0.59805
9890080,-0.07000,59.5000,96,55,0.57143
9890090,0.47500,59.2500,96,55,0.55849
9890100,1.30000,59.0625,96,55,0.54603
9890110,1.58000,58.8125,96,55,0.53260
9890120,1.58000,58.8125,96,55,0.53260
9890130,0.02500,58.1250,96,55,0.48962
9890140,-0.30000,57.9375,96,55,0.47546
9890150,-0.30500,57.6875,96,55,0.46178
9890160,-0.26500,57.2500,96,55,0.43614
9890170,-0.25000,57.0000,96,55,0.42393
9890180,-0.24000,56.8125,96,55,0.41245
9890190,-0.23000,56.5000,96,55,0.40293
9890200,-0.22000,56.0000,96,55,0.38681
9890210,-0.21000,55.8125,96,55,0.37875
9890220,-0.20000,55.5625,96,55,0.37118
9890230,-0.19500,55.3750,96,55,0.36410
9890240,-0.19000,54.9375,96,55,0.35092
9890250,-0.18000,54.6875,96,55,0.34505
9890260,-0.17000,54.4375,96,55,0.33944
9890270,-0.16000,54.2500,96,55,0.33455
9890280,-0.15500,54.0000,96,55,0.32625
9890290,-0.14000,53.9375,96,55,0.32332
9890300,-0.12500,54.0625,96,55,0.32088
9890310,-0.11500,54.5625,96,55,0.31795
9890320,-0.09500,57.3125,96,55,0.31209
9890330,-0.07500,59.8125,96,55,0.30891
9890340,-0.06000,62.9375,96,55,0.30574
9890350,-0.03500,66.5625,96,55,0.30256
9890360,-0.01000,74.3125,96,55,0.29670
9890370,0.01000,78.0625,96,55,0.29377
9890380,0.04500,81.5625,96,55,0.29084
9890390,0.07500,84.6875,96,55,0.28864
9890400,0.10500,89.4375,96,55,0.28474
9890410,0.13000,91.0625,96,55,0.28230
9890420,0.16500,92.3125,96,55,0.27985
9890430,0.19500,93.1250,96,55,0.27741
9890440,0.22500,94.0000,96,55,0.27179
9890450,0.23500,94.0000,96,55,0.26886
9890460,0.20500,93.8125,96,55,0.26618
9890470,0.15000,93.4375,96,55,0.26349
9890480,0.08000,92.2500,96,55,0.25812
9890490,0.01000,91.4375,96,55,0.25665
9890500,-0.04000,90.5625,96,55,0.25543
9890510,-0.07500,89.6250,96,55,0.25372
9890520,-0.09500,87.4375,96,55,0.24933
9890530,-0.10500,86.2500,96,55,0.24713
9890540,-0.11500,85.0625,96,55,0.24493
9890550,-0.11500,83.8750,96,55,0.24274
9890560,-0.11500,81.3125,96,55,0.23858
9890570,-0.11500,79.8750,96,55,0.23663
9890580,-0.11500,78.3750,96,55,0.23516
9890590,-0.11500,76.9375,96,55,0.23541
9890600,-0.11500,74.0625,96,55,0.24029
9890610,-0.11500,72.6875,96,55,0.24591
9890620,-0.12000,71.4375,96,55,0.25470
9890630,-0.12000,71.4375,96,55,0.25470
9890640,-0.12000,68.0625,96,55,0.30427
9890650,-0.12500,67.1875,96,55,0.32821
9890660,-0.12500,66.3125,96,55,0.35531
9890670,-0.12000,65.6250,96,55,0.38437
9890680,-0.10500,64.3750,96,55,0.44591
9890690,-0.10500,63.8750,96,55,0.47277
9890700,-0.09000,63.4375,96,55,0.49670
9890710,-0.07000,63.0625,96,55,0.52210
9890720,-0.05500,62.4375,96,55,0.57021
9890730,-0.04500,62.1875,96,55,0.59096
9890740,-0.01500,62.0000,96,55,0.60904
9890750,-0.00500,61.7500,96,55,0.62418
9890760,-0.02500,61.4375,96,55,0.64591
9890770,-0.04500,61.3125,96,55,0.65299
9890780,-0.07500,61.1875,96,55,0.65788
9890790,-0.11500,61.0625,96,55,0.65983
9890800,-0.15000,60.8125,96,55,0.65836
9890810,-0.16000,60.6875,96,55,0.65617
9890820,-0.16000,60.5000,96,55,0.65299
9890830,-0.15500,60.3750,96,55,0.64860
9890840,-0.14500,60.0000,96,55,0.63516
9890850,-0.14500,60.0000,96,55,0.63516
9890860,-0.13000,59.6875,96,55,0.61734
9890870,-0.18000,59.5000,96,55,0.60708
9890880,-0.19000,59.1250,96,55,0.58388
9890890,0.14000,58.8750,96,55,0.57241
9890900,0.90000,58.6875,96,55,0.56142
9890910,0.90000,58.6875,96,55,0.56142
9890920,1.33000,58.0625,96,55,0.52308
9890930,0.41500,57.8125,96,55,0.50965
9890940,-0.19000,57.5625,96,55,0.49646
9890950,-0.32000,57.3750,96,55,0.48352
9890960,-0.28500,56.9375,96,55,0.45910
9890970,-0.25500,56.6875,96,55,0.44786
9890980,-0.24000,56.4375,96,55,0.43712
9890990,-0.23000,56.2500,96,55,0.42808
9891000,-0.22000,55.7500,96,55,0.41172
9891010,-0.21500,55.5625,96,55,0.40317
9891020,-0.20500,55.3750,96,55,0.39512
9891030,-0.20000,55.1250,96,55,0.38755
9891040,-0.19000,54.7500,96,55,0.37411
9891050,-0.18500,54.5000,96,55,0.36825
9891060,-0.17500,54.3125,96,55,0.36264
9891070,-0.16500,54.1250,96,55,0.35775
9891080,-0.15500,53.8125,96,55,0.34921
9891090,-0.14500,53.7500,96,55,0.34628
9891100,-0.13500,53.8750,96,55,0.34383
9891110,-0.12000,54.3125,96,55,0.34090
9891120,-0.10000,56.8750,96,55,0.33431
9891130,-0.08500,59.3125,96,55,0.33114
9891140,-0.06500,62.4375,96,55,0.32796
9891150,-0.04500,66.0000,96,55,0.32479
9891160,-0.02500,73.7500,96,55,0.31893
9891170,0.00000,77.6250,96,55,0.31624
9891180,0.03500,81.2500,96,55,0.31380
9891190,0.06000,84.4375,96,55,0.31233
9891200,0.09000,89.5000,96,55,0.30989
9891210,0.12000,91.2500,96,55,0.30794
9891220,0.15000,92.6250,96,55,0.30574
9891230,0.17500,93.5625,96,55,0.30330
9891240,0.20500,94.6875,96,55,0.29841
9891250,0.22500,94.8750,96,55,0.29621
9891260,0.21000,94.8750,96,55,0.29426
9891270,0.15500,94.6250,96,55,0.29206
9891280,0.09000,93.6875,96,55,0.28694
9891290,0.02000,93.0625,96,55,0.28498
9891300,-0.03500,92.2500,96,55,0.28352
9891310,-0.07500,91.3750,96,55,0.28181
9891320,-0.09500,89.3125,96,55,0.27766
9891330,-0.11500,88.1875,96,55,0.27521
9891340,-0.12000,87.0000,96,55,0.27277
9891350,-0.12500,85.8125,96,55,0.27033
9891360,-0.12500,83.3125,96,55,0.26569
9891370,-0.12500,81.9375,96,55,0.26374
9891380,-0.12000,80.5625,96,55,0.26276
9891390,-0.12000,79.1250,96,55,0.26325
9891400,-0.12000,76.1875,96,55,0.26813
9891410,-0.12000,74.7500,96,55,0.27326
9891420,-0.12000,73.4375,96,55,0.28132
9891430,-0.12000,72.1875,96,55,0.29304
9891440,-0.12500,69.8750,96,55,0.32772
9891450,-0.12500,68.8125,96,55,0.35067
9891460,-0.12500,67.8750,96,55,0.37656
9891470,-0.12500,67.0625,96,55,0.40488
9891480,-0.12000,65.7500,96,55,0.46545
9891490,-0.11500,65.1875,96,55,0.49182
9891500,-0.09500,64.6875,96,55,0.51551
9891510,-0.07500,64.2500,96,55,0.54115
9891520,-0.07000,63.5625,96,55,0.59048
9891530,-0.05000,63.2500,96,55,0.61221
9891540,-0.02500,63.0000,96,55,0.63150
9891550,-0.03000,62.8125,96,55,0.64811
9891560,-0.03000,62.8125,96,55,0.64811
9891570,-0.07500,62.4375,96,55,0.68083
9891580,-0.10500,62.3125,96,55,0.68645
9891590,-0.14500,62.1875,96,55,0.68913
9891600,-0.17000,61.9375,96,55,0.68864
9891610,-0.17000,61.8125,96,55,0.68694
9891620,-0.17000,61.6250,96,55,0.68449
9891630,-0.16500,61.5000,96,55,0.68083
9891640,-0.16500,61.5000,96,55,0.68083
9891650,-0.14500,61.1250,96,55,0.66276
9891660,-0.15500,60.9375,96,55,0.65470
9891670,-0.22000,60.7500,96,55,0.64542
9891680,-0.13000,60.3750,96,55,0.62442
9891690,0.39000,60.1875,96,55,0.61343
9891700,1.25000,60.0000,96,55,0.60220
9891710,1.64500,59.8125,96,55,0.58974
9891720,1.04000,59.3750,96,55,0.56288
9891730,0.13500,59.1250,96,55,0.54896
9891740,-0.29000,58.9375,96,55,0.53504
9891750,-0.32500,58.6875,96,55,0.52137
9891760,-0.28500,58.2500,96,55,0.49499
9891770,-0.27000,58.0000,96,55,0.48278
9891780,-0.25500,57.7500,96,55,0.47082
9891790,-0.24500,57.5625,96,55,0.46081
9891800,-0.23500,57.1250,96,55,0.44274
9891810,-0.23000,56.8750,96,55,0.43370
9891820,-0.22000,56.6875,96,55,0.42515
9891830,-0.21500,56.4375,96,55,0.41709
9891840,-0.20500,56.0000,96,55,0.40269
9891850,-0.19500,55.8125,96,55,0.39609
9891860,-0.18500,55.5625,96,55,0.38999
9891870,-0.17500,55.3750,96,55,0.38413
9891880,-0.17000,55.1875,96,55,0.37411
9891890,-0.16000,55.2500,96,55,0.37021
9891900,-0.14500,55.6250,96,55,0.36703
9891910,-0.13500,56.5625,96,55,0.36361
9891920,-0.11500,60.6250,96,55,0.35751
9891930,-0.09500,63.7500,96,55,0.35433
9891940,-0.07500,67.5000,96,55,0.35140
9891950,-0.05500,71.5000,96,55,0.34823
9891960,-0.02500,79.6875,96,55,0.34237
9891970,0.00000,83.5000,96,55,0.33944
9891980,0.03000,86.9375,96,55,0.33651
9891990,0.06000,89.8750,96,55,0.33455
9892000,0.09000,94.1875,97,55,0.33065
9892010,0.12000,95.6875,97,55,0.32821
9892020,0.15000,96.7500,97,55,0.32576
9892030,0.18000,97.5625,97,55,0.32332
9892040,0.20500,98.3750,97,55,0.31819
9892050,0.20500,98.4375,97,55,0.31551
9892060,0.20500,98.4375,97,55,0.31551
9892070,0.12000,97.8750,97,55,0.31038
9892080,0.05000,96.6250,97,55,0.30623
9892090,-0.01500,95.8125,97,55,0.30501
9892100,-0.06000,94.8750,97,55,0.30330
9892110,-0.09500,93.8750,97,55,0.30110
9892120,-0.11000,91.7500,97,55,0.29719
9892130,-0.12000,90.6250,97,55,0.29524
9892140,-0.12000,89.3750,97,55,0.29328
9892150,-0.12500,88.1875,97,55,0.29109
9892160,-0.12500,85.6250,97,55,0.28718
9892170,-0.12500,84.3125,97,55,0.28571
9892180,-0.12500,82.9375,97,55,0.28523
9892190,-0.12500,81.4375,97,55,0.28620
9892200,-0.12500,78.3750,97,55,0.29353
9892210,-0.12500,76.9375,97,55,0.30110
9892220,-0.12500,75.5625,97,55,0.31233
9892230,-0.12000,74.2500,97,55,0.32772
9892240,-0.12000,71.8125,97,55,0.37045
9892250,-0.12000,70.8125,97,55,0.39683
9892260,-0.12500,69.8750,97,55,0.42564
9892270,-0.12000,69.0000,97,55,0.45592
9892280,-0.11500,67.6250,97,55,0.51355
9892290,-0.11000,67.0000,97,55,0.53773
9892300,-0.08500,66.5000,97,55,0.56410
9892310,-0.07000,66.1250,97,55,0.59048
9892320,-0.06500,65.4375,97,55,0.63810
9892330,-0.04500,65.1250,97,55,0.65812
9892340,-0.02500,64.8750,97,55,0.67546
9892350,-0.02500,64.6875,97,55,0.68987
9892360,-0.04500,64.3750,97,55,0.71062
9892370,-0.07000,64.3125,97,55,0.71746
9892380,-0.10000,64.1875,97,55,0.72210
9892390,-0.14000,64.0625,97,55,0.72381
9892400,-0.16000,63.8125,97,55,0.72234
9892410,-0.16500,63.6250,97,55,0.72039
9892420,-0.16000,63.5000,97,55,0.71722
9892430,-0.15500,63.3750,97,55,0.71306
9892440,-0.15500,63.3750,97,55,0.71306
9892450,-0.13500,62.8750,97,55,0.69328
9892460,-0.17000,62.6875,97,55,0.68449
9892470,-0.20000,62.5000,97,55,0.67448
9892480,0.02500,62.0625,97,55,0.65275
9892490,0.71500,61.8750,97,55,0.64200
9892500,1.55000,61.6250,97,55,0.62979
9892510,1.62000,61.3750,97,55,0.61685
9892520,0.78000,60.9375,97,55,0.58901
9892530,-0.04000,60.6875,97,55,0.57485
9892540,-0.04000,60.6875,97,55,0.57485
9892550,-0.30500,60.2500,97,55,0.54628
9892560,-0.27000,59.7500,97,55,0.51917
9892570,-0.26000,59.5625,97,55,0.50647
9892580,-0.25000,59.3125,97,55,0.49426
9892590,-0.24000,59.0625,97,55,0.48425
9892600,-0.23000,58.6250,97,55,0.46618
9892610,-0.22000,58.3750,97,55,0.45690
9892620,-0.21000,58.1250,97,55,0.44811
9892630,-0.21000,57.8750,97,55,0.43980
9892640,-0.20000,57.4375,97,55,0.42466
9892650,-0.19500,57.2500,97,55,0.41783
9892660,-0.18500,57.0000,97,55,0.41197
9892670,-0.18000,56.8125,97,55,0.40659
9892680,-0.16500,56.6875,97,55,0.39780
9892690,-0.15500,56.9375,97,55,0.39438
9892700,-0.13500,57.7500,97,55,0.39072
9892710,-0.12500,59.1875,97,55,0.38681
9892720,-0.10500,64.5625,97,55,0.37900
9892730,-0.08500,68.2500,97,55,0.37534
9892740,-0.06500,72.3750,97,55,0.37167
9892750,-0.03500,76.6875,97,55,0.36825
9892760,-0.01000,85.1250,97,55,0.36215
9892770,0.02000,88.8750,97,55,0.35946
9892780,0.05000,92.0625,97,55,0.35702
9892790,0.07500,94.6875,97,55,0.35531
9892800,0.10500,98.3750,97,55,0.35189
9892810,0.13000,99.5625,97,55,0.34969
9892820,0.16000,100.3750,97,55,0.34725
9892830,0.19000,100.9375,97,55,0.34457
9892840,0.21000,101.2500,97,55,0.33968
9892850,0.20000,101.0625,97,55,0.33748
9892860,0.16500,100.6875,97,55,0.33529
9892870,0.10500,100.0625,97,55,0.33114
9892880,0.04000,98.4375,97,55,0.32357
9892890,-0.01000,97.4375,97,55,0.32186
9892900,-0.05500,96.3750,97,55,0.31990
9892910,-0.08000,95.2500,97,55,0.31819
9892920,-0.09500,92.8750,97,55,0.31453
9892930,-0.10500,91.6250,97,55,0.31233
9892940,-0.11000,90.3125,97,55,0.31013
9892950,-0.11500,89.0000,97,55,0.30794
9892960,-0.11000,86.2500,97,55,0.30525
9892970,-0.11500,84.7500,97,55,0.30501
9892980,-0.11500,83.3125,97,55,0.30574
9892990,-0.11500,81.7500,97,55,0.30818
9893000,-0.11500,78.6250,97,55,0.32015
9893010,-0.11500,77.1875,97,55,0.33187
9893020,-0.11500,75.8125,97,55,0.34774
9893030,-0.11500,74.5000,97,55,0.36777
9893040,-0.11500,72.1875,97,55,0.42027
9893050,-0.11500,71.1250,97,55,0.45104
9893060,-0.11500,70.1875,97,55,0.48400
9893070,-0.11000,69.3750,97,55,0.51819
9893080,-0.10000,68.0000,97,55,0.58144
9893090,-0.08000,67.4375,97,55,0.60684
9893100,-0.05500,66.9375,97,55,0.63394
9893110,-0.05500,66.5000,97,55,0.66056
9893120,-0.04500,65.8125,97,55,0.70745
9893130,-0.02500,65.5625,97,55,0.72650
9893140,-0.01500,65.3125,97,55,0.74261
9893150,-0.03500,65.1250,97,55,0.75580
9893160,-0.05500,64.7500,97,55,0.77338
9893170,-0.08500,64.5625,97,55,0.77851
9893180,-0.12500,64.3750,97,55,0.78120
9893190,-0.15000,64.1875,97,55,0.78095
9893200,-0.16000,63.8750,97,55,0.77607
9893210,-0.15500,63.6875,97,55,0.77241
9893220,-0.14500,63.5000,97,55,0.76752
9893230,-0.14000,63.3125,97,55,0.76117
9893240,-0.13000,62.9375,97,55,0.74481
9893250,-0.14500,62.6250,97,55,0.73504
9893260,-0.19500,62.3750,97,55,0.72430
9893270,-0.06500,62.1250,97,55,0.71233
9893280,0.49500,61.6875,97,55,0.68694
9893290,1.34000,61.4375,97,55,0.67424
9893300,1.69000,61.1875,97,55,0.66032
9893310,1.00000,60.8750,97,55,0.64518
9893320,0.09000,60.3750,97,55,0.61368
9893330,-0.28500,60.1250,97,55,0.59731
9893340,-0.30500,59.8750,97,55,0.58120
9893350,-0.27500,59.5625,97,55,0.56557
9893360,-0.25500,59.0000,97,55,0.53602
9893370,-0.24500,58.7500,97,55,0.52234
9893380,-0.23000,58.5000,97,55,0.50940
9893390,-0.22500,58.2500,97,55,0.49817
9893400,-0.21500,57.6875,97,55,0.47717
9893410,-0.21000,57.4375,97,55,0.46667
9893420,-0.20500,57.1250,97,55,0.45690
9893430,-0.20000,56.8750,97,55,0.44786
9893440,-0.19000,56.3750,97,55,0.43126
9893450,-0.18000,56.1250,97,55,0.42393
9893460,-0.17000,55.9375,97,55,0.41709
9893470,-0.16500,55.7500,97,55,0.41050
9893480,-0.15500,55.6250,97,55,0.39902
9893490,-0.14000,56.0000,97,55,0.39463
9893500,-0.12500,56.9375,97,55,0.38999
9893510,-0.10500,58.6250,97,55,0.38486
9893520,-0.08500,64.2500,97,55,0.37460
9893530,-0.06500,68.0000,97,55,0.36947
9893540,-0.04500,72.0000,97,55,0.36459
9893550,-0.02000,76.1875,97,55,0.35971
9893560,0.01000,84.0000,97,55,0.35092
9893570,0.03500,87.4375,97,55,0.34676
9893580,0.06500,90.2500,97,55,0.34286
9893590,0.09000,92.5625,97,55,0.34017
9893600,0.12000,95.6250,97,55,0.33455
9893610,0.12000,95.6250,97,55,0.33455
9893620,0.18000,97.1250,97,55,0.32747
9893630,0.20500,97.4375,97,55,0.32357
9893640,0.21500,97.3750,97,55,0.31526
9893650,0.18500,97.0000,97,55,0.31111
9893660,0.13000,96.5000,97,55,0.30745
9893670,0.06500,95.8125,97,55,0.30379
9893680,0.00500,94.1250,97,55,0.29841
9893690,-0.04000,93.0625,97,55,0.29670
9893700,-0.07000,92.0000,97,55,0.29426
9893710,-0.09000,90.8750,97,55,0.29158
9893720,-0.10500,88.5000,97,55,0.28547
9893730,-0.11000,87.1875,97,55,0.28230
9893740,-0.11500,85.9375,97,55,0.27912
9893750,-0.11500,84.5625,97,55,0.27595
9893760,-0.11500,81.7500,97,55,0.27009
9893770,-0.11500,80.2500,97,55,0.26813
9893780,-0.11500,78.7500,97,55,0.26813
9893790,-0.11500,77.1875,97,55,0.27009
9893800,-0.12000,74.3750,97,55,0.28181
9893810,-0.12000,73.0625,97,55,0.29328
9893820,-0.12000,71.7500,97,55,0.30891
9893830,-0.12000,70.6250,97,55,0.32894
9893840,-0.11500,68.5000,97,55,0.37998
9893850,-0.11500,68.5000,97,55,0.37998
9893860,-0.11500,66.9375,97,55,0.44078
9893870,-0.11000,66.2500,97,55,0.47302
9893880,-0.10000,65.1875,97,55,0.53211
9893890,-0.08500,64.7500,97,55,0.55580
9893900,-0.06000,64.3125,97,55,0.58071
9893910,-0.05000,64.0000,97,55,0.60464
9893920,-0.04500,63.4375,97,55,0.64542
9893930,-0.02000,63.1875,97,55,0.66178
9893940,-0.00500,63.0000,97,55,0.67570
9893950,-0.02500,62.8125,97,55,0.68669
9893960,-0.04500,62.5000,97,55,0.70037
9893970,-0.07500,62.3125,97,55,0.70379
9893980,-0.11500,62.2500,97,55,0.70452
9893990,-0.14500,62.1250,97,55,0.70305
9894000,-0.15500,61.8125,96,55,0.69768
9894010,-0.15500,61.6250,96,55,0.69280
9894020,-0.14500,61.4375,96,55,0.68669
9894030,-0.13500,61.2500,96,55,0.67937
9894040,-0.12500,60.8750,96,55,0.66081
9894050,-0.12500,60.8750,96,55,0.66081
9894060,-0.17500,60.4375,96,55,0.63858
9894070,-0.16000,60.1875,96,55,0.62637
9894080,0.19000,59.6875,96,55,0.60024
9894090,0.98500,59.4375,96,55,0.58779
9894100,1.63500,59.2500,96,55,0.57387
9894110,1.26000,59.0625,96,55,0.55946
9894120,0.33000,58.6250,96,55,0.52943
9894130,-0.21000,58.4375,96,55,0.51453
9894140,-0.31500,58.1875,96,55,0.49988
9894150,-0.28000,57.9375,96,55,0.48571
9894160,-0.25000,57.4375,96,55,0.45861
9894170,-0.24000,57.2500,96,55,0.44591
9894180,-0.22500,57.0000,96,55,0.43516
9894190,-0.21500,56.7500,96,55,0.42589
9894200,-0.20500,56.3125,96,55,0.40684
9894210,-0.20000,56.1250,96,55,0.39756
9894220,-0.19000,55.8750,96,55,0.38901
9894230,-0.19000,55.6250,96,55,0.38095
9894240,-0.17500,55.1875,96,55,0.36679
9894250,-0.16500,54.9375,96,55,0.36068
9894260,-0.15500,54.7500,96,55,0.35507
9894270,-0.15000,54.5625,96,55,0.34994
9894280,-0.14000,54.3750,96,55,0.34139
9894290,-0.12500,54.5000,96,55,0.33822
9894300,-0.11500,54.9375,96,55,0.33455
9894310,-0.09500,56.0000,96,55,0.33065
9894320,-0.08000,60.3125,96,55,0.32259
9894330,-0.06000,63.5000,96,55,0.31893
9894340,-0.04000,67.1250,96,55,0.31526
9894350,-0.01500,70.9375,96,55,0.31160
9894360,0.01000,78.6875,96,55,0.30476
9894370,0.04000,82.2500,96,55,0.30159
9894380,0.07000,85.3750,96,55,0.29915
9894390,0.10000,87.9375,96,55,0.29744
9894400,0.13000,91.6875,96,55,0.29182
9894410,0.16000,92.8125,96,55,0.28864
9894420,0.19500,93.6250,96,55,0.28547
9894430,0.22500,94.1250,96,55,0.28230
9894440,0.24000,94.2500,96,55,0.27595
9894450,0.22000,94.0000,96,55,0.27277
9894460,0.16500,93.6250,96,55,0.26984
9894470,0.10000,93.0625,96,55,0.26691
9894480,0.03000,91.5625,96,55,0.26252
9894490,-0.02500,90.6250,96,55,0.26154
9894500,-0.06000,89.6250,96,55,0.25958
9894510,-0.08500,88.6250,96,55,0.25739
9894520,-0.10000,87.5625,96,55,0.25519
9894530,-0.11000,86.3750,96,55,0.25299
9894540,-0.11000,86.3750,96,55,0.25299
9894550,-0.12000,83.9375,96,55,0.24884
9894560,-0.11500,81.3125,96,55,0.24444
9894570,-0.11500,79.8750,96,55,0.24225
9894580,-0.11500,78.4375,96,55,0.24054
9894590,-0.11500,76.9375,96,55,0.24029
9894600,-0.11500,74.0000,96,55,0.24396
9894610,-0.11500,72.6250,96,55,0.24860
9894620,-0.11500,71.3750,96,55,0.25641
9894630,-0.11500,70.1875,96,55,0.26789
9894640,-0.11500,68.0000,96,55,0.30354
9894650,-0.11500,67.0625,96,55,0.32747
9894660,-0.11500,66.2500,96,55,0.35482
9894670,-0.11000,65.5000,96,55,0.38437
9894680,-0.10500,64.2500,96,55,0.44689
9894690,-0.08500,63.7500,96,55,0.47424
9894700,-0.07000,63.3125,96,55,0.49890
9894710,-0.06500,62.9375,96,55,0.52552
9894720,-0.04500,62.3125,96,55,0.57534
9894730,-0.01500,62.0625,96,55,0.59683
9894740,-0.01000,61.8125,96,55,0.61538
9894750,-0.03500,61.6250,96,55,0.63101
9894760,-0.05500,61.3125,96,55,0.65372
9894770,-0.08500,61.1875,96,55,0.66105
9894780,-0.12500,61.0625,96,55,0.66618
9894790,-0.15500,60.9375,96,55,0.66813
9894800,-0.16000,60.6875,96,55,0.66691
9894810,-0.16000,60.5625,96,55,0.66447
9894820,-0.15500,60.4375,96,55,0.66056
9894830,-0.14500,60.2500,96,55,0.65543
9894840,-0.13500,59.9375,96,55,0.64127
9894850,-0.14000,59.7500,96,55,0.63248
9894860,-0.20000,59.5625,96,55,0.62247
9894870,-0.15500,59.3750,96,55,0.61123
9894880,0.28000,59.0000,96,55,0.58657
9894890,1.10000,58.8125,96,55,0.57460
9894900,1.61000,58.5625,96,55,0.56264
9894910,1.13500,58.3750,96,55,0.54945
9894920,0.21500,57.9375,96,55,0.51868
9894930,-0.26000,57.7500,96,55,0.50061
9894940,-0.31500,57.5625,96,55,0.48523
9894950,-0.27000,57.3125,96,55,0.47106
9894960,-0.27000,57.3125,96,55,0.47106
9894970,-0.23500,56.6250,96,55,0.43346
9894980,-0.22500,56.4375,96,55,0.42247
9894990,-0.21500,56.1875,96,55,0.41343
9895000,-0.21000,55.6875,96,55,0.39756
9895010,-0.19500,55.4375,96,55,0.38974
9895020,-0.19000,55.1875,96,55,0.38217
9895030,-0.18000,55.0000,96,55,0.37534
9895040,-0.17500,54.5625,96,55,0.36264
9895050,-0.16500,54.3750,96,55,0.35726
9895060,-0.16000,54.1250,96,55,0.35214
9895070,-0.14500,53.9375,96,55,0.34725
9895080,-0.13500,53.7500,96,55,0.33895
9895090,-0.12000,53.8125,96,55,0.33626
9895100,-0.10500,54.0625,96,55,0.33407
9895110,-0.08500,54.6875,96,55,0.33114
9895120,-0.08500,54.6875,96,55,0.33114
9895130,-0.04500,60.8750,96,55,0.32259
9895140,-0.02500,64.2500,96,55,0.31966
9895150,0.00000,67.9375,96,55,0.31673
9895160,0.02000,75.7500,96,55,0.31111
9895170,0.04500,79.4375,96,55,0.30867
9895180,0.07000,82.8125,96,55,0.30623
9895190,0.10000,85.6875,96,55,0.30452
9895200,0.13000,90.0625,96,55,0.30183
9895210,0.16000,91.5625,96,55,0.29988
9895220,0.19500,92.5625,96,55,0.29768
9895230,0.22500,93.3125,96,55,0.29548
9895240,0.22500,93.9375,96,55,0.29133
9895250,0.20500,93.9375,96,55,0.28864
9895260,0.14500,93.7500,96,55,0.28596
9895270,0.07000,93.3750,96,55,0.28327
9895280,0.00000,92.2500,96,55,0.27863
9895290,-0.04500,91.4375,96,55,0.27766
9895300,-0.04500,91.4375,96,55,0.27766
9895310,-0.09500,89.5000,96,55,0.27595
9895320,-0.11000,87.3125,96,55,0.27179
9895330,-0.11500,86.2500,96,55,0.26935
9895340,-0.12000,85.0625,96,55,0.26716
9895350,-0.12000,83.8125,96,55,0.26496
9895360,-0.12000,81.1875,96,55,0.26129
9895370,-0.11500,79.7500,96,55,0.25983
9895380,-0.11500,78.3125,96,55,0.25910
9895390,-0.11500,76.8750,96,55,0.25983
9895400,-0.11500,74.0000,96,55,0.26520
9895410,-0.11500,72.6875,96,55,0.27082
9895420,-0.11500,71.4375,96,55,0.27961
9895430,-0.12000,70.2500,96,55,0.29206
9895440,-0.12000,70.2500,96,55,0.29206
9895450,-0.12000,67.1250,96,55,0.35116
9895460,-0.11500,66.3125,96,55,0.37705
9895470,-0.11500,65.5625,96,55,0.40488
9895480,-0.10500,64.2500,96,55,0.46325
9895490,-0.09000,63.7500,96,55,0.48840
9895500,-0.09000,63.7500,96,55,0.48840
9895510,-0.06500,62.8750,96,55,0.53455
9895520,-0.04500,62.2500,96,55,0.57973
9895530,-0.02000,62.0000,96,55,0.59951
9895540,-0.01500,61.7500,96,55,0.61685
9895550,-0.03500,61.5625,96,55,0.63175
9895560,-0.06500,61.2500,96,55,0.65275
9895570,-0.09500,61.1250,96,55,0.65934
9895580,-0.13500,61.0625,96,55,0.66374
9895590,-0.13500,61.0625,96,55,0.66374
9895600,-0.16000,60.6250,96,55,0.66398
9895610,-0.16000,60.4375,96,55,0.66203
9895620,-0.16000,60.3125,96,55,0.65910
9895630,-0.15000,60.1875,96,55,0.65470
9895640,-0.14000,59.8750,96,55,0.64249
9895650,-0.14500,59.7500,96,55,0.63468
9895660,-0.20500,59.5625,96,55,0.62564
9895670,-0.15500,59.3750,96,55,0.61587
9895680,0.31000,59.0000,96,55,0.59463
9895690,1.13500,58.8125,96,55,0.58413
9895700,1.13500,58.8125,96,55,0.58413
9895710,1.11500,58.4375,96,55,0.55971
9895720,0.21000,58.0000,96,55,0.53284
9895730,-0.26500,57.8125,96,55,0.51893
9895740,-0.32000,57.5625,96,55,0.50525
9895750,-0.28000,57.3750,96,55,0.49182
9895760,-0.26000,56.9375,96,55,0.46691
9895770,-0.24500,56.7500,96,55,0.45519
9895780,-0.23500,56.5625,96,55,0.44396
9895790,-0.22500,56.3125,96,55,0.43468
9895800,-0.22000,55.9375,96,55,0.41832
9895810,-0.21000,55.7500,96,55,0.41001
9895820,-0.20000,55.5625,96,55,0.40195
9895830,-0.19500,55.3125,96,55,0.39438
9895840,-0.19000,54.9375,96,55,0.38022
9895850,-0.18000,54.7500,96,55,0.37411
9895860,-0.17000,54.5000,96,55,0.36825
9895870,-0.16000,54.3125,96,55,0.36288
9895880,-0.15500,54.1875,96,55,0.35458
9895890,-0.14000,54.3125,96,55,0.35165
9895900,-0.12500,54.8125,96,55,0.34823
9895910,-0.10500,55.8125,96,55,0.34457
9895920,-0.08500,60.1875,96,55,0.33773
9895930,-0.06500,63.4375,96,55,0.33455
9895940,-0.04500,67.1250,96,55,0.33138
9895950,-0.02000,71.0625,96,55,0.32845
9895960,0.00500,79.0625,96,55,0.32259
9895970,0.03500,82.8125,96,55,0.31966
9895980,0.06500,86.0625,96,55,0.31673
9895990,0.09000,88.9375,96,55,0.31477
9896000,0.12000,93.0625,97,55,0.31136
9896010,0.14500,94.4375,97,55,0.30940
9896020,0.18000,95.5000,97,55,0.30720
9896030,0.20500,96.1875,97,55,0.30501
9896040,0.21500,96.8750,97,55,0.30061
9896050,0.19000,96.8125,97,55,0.29841
9896060,0.13500,96.5625,97,55,0.29597
9896070,0.06500,96.1250,97,55,0.29353
9896080,0.00000,94.8125,97,55,0.28938
9896090,-0.05500,94.0000,97,55,0.28840
9896100,-0.09000,93.0625,97,55,0.28669
9896110,-0.10500,92.0625,97,55,0.28474
9896120,-0.11500,89.8750,97,55,0.28083
9896130,-0.11500,89.8750,97,55,0.28083
9896140,-0.13000,87.5625,97,55,0.27643
9896150,-0.13000,86.3125,97,55,0.27399
9896160,-0.12500,83.6875,97,55,0.26935
9896170,-0.12500,82.3125,97,55,0.26764
9896180,-0.12500,80.8750,97,55,0.26716
9896190,-0.12500,79.3750,97,55,0.26838
9896200,-0.12500,76.4375,97,55,0.27643
9896210,-0.12500,75.0625,97,55,0.28425
9896220,-0.12000,73.7500,97,55,0.29548
9896230,-0.12500,72.5000,97,55,0.31013
9896240,-0.12500,70.2500,97,55,0.35067
9896250,-0.12500,69.2500,97,55,0.37607
9896260,-0.12500,68.3750,97,55,0.40391
9896270,-0.12000,67.5625,97,55,0.43321
9896280,-0.11500,66.3125,97,55,0.48962
9896290,-0.09500,65.8125,97,55,0.51355
9896300,-0.07000,65.3125,97,55,0.53944
9896310,-0.06000,64.8750,97,55,0.56508
9896320,-0.04500,64.2500,97,55,0.61172
9896330,-0.02000,64.0000,97,55,0.63150
9896340,-0.02000,64.0000,97,55,0.63150
9896350,-0.04500,63.5625,97,55,0.66374
9896360,-0.06500,63.3125,97,55,0.68547
9896370,-0.09500,63.1875,97,55,0.69255
9896380,-0.13500,63.0625,97,55,0.69744
9896390,-0.16000,62.9375,97,55,0.69939
9896400,-0.17000,62.6875,97,55,0.69768
9896410,-0.16000,62.5625,97,55,0.69548
9896420,-0.16000,62.4375,97,55,0.69231
9896430,-0.14500,62.3125,97,55,0.68791
9896440,-0.14500,62.3125,97,55,0.68791
9896450,-0.16000,61.7500,97,55,0.66789
9896460,-0.21000,61.5625,97,55,0.65934
9896470,-0.07500,61.4375,97,55,0.64957
9896480,0.53000,61.0625,97,55,0.62857
9896490,1.40500,60.8125,97,55,0.61783
9896500,1.66500,60.6250,97,55,0.60586
9896510,0.95500,60.3750,97,55,0.59292
9896520,0.07000,60.0000,97,55,0.56581
9896530,-0.30500,59.7500,97,55,0.55189
9896540,-0.32000,59.5625,97,55,0.53822
9896550,-0.28500,59.3125,97,55,0.52479
9896560,-0.27000,58.8125,97,55,0.49915
9896570,-0.25500,58.5625,97,55,0.48694
9896580,-0.25000,58.3125,97,55,0.47570
9896590,-0.24000,58.1250,97,55,0.46593
9896600,-0.23000,57.6875,97,55,0.44835
9896610,-0.22500,57.5000,97,55,0.43980
9896620,-0.22000,57.3125,97,55,0.43175
9896630,-0.21000,57.0625,97,55,0.42418
9896640,-0.20000,56.6250,97,55,0.41001
9896650,-0.19500,56.4375,97,55,0.40391
9896660,-0.19000,56.1875,97,55,0.39829
9896670,-0.18000,56.0000,97,55,0.39292
9896680,-0.16500,56.0000,97,55,0.38437
9896690,-0.15500,56.3125,97,55,0.38144
9896700,-0.13500,57.1250,97,55,0.37802
9896710,-0.11500,58.6875,97,55,0.37436
9896720,-0.10000,64.1250,97,55,0.36728
9896730,-0.08000,67.7500,97,55,0.36386
9896740,-0.05500,71.8125,97,55,0.36068
9896750,-0.02500,76.0625,97,55,0.35775
9896760,-0.00500,84.1875,97,55,0.35189
9896770,0.02500,87.7500,97,55,0.34896
9896780,0.06000,90.8125,97,55,0.34603
9896790,0.09000,93.3750,97,55,0.34383
9896800,0.11500,96.9375,97,55,0.34042
9896810,0.14500,98.0625,97,55,0.33871
9896820,0.17000,98.8750,97,55,0.33675
9896830,0.19500,99.3750,97,55,0.33455
9896840,0.19500,99.3750,97,55,0.33455
9896850,0.16500,99.5000,97,55,0.32723
9896860,0.11000,99.1250,97,55,0.32503
9896870,0.04500,98.6250,97,55,0.32259
9896880,-0.01500,97.0625,97,55,0.31868
9896890,-0.06500,96.1875,97,55,0.31770
9896900,-0.09500,95.1875,97,55,0.31624
9896910,-0.11000,94.1250,97,55,0.31453
9896920,-0.12000,91.9375,97,55,0.31111
9896930,-0.12500,90.8125,97,55,0.30940
9896940,-0.12500,89.6250,97,55,0.30745
9896950,-0.13000,88.3750,97,55,0.30574
9896960,-0.13500,85.7500,97,55,0.30305
9896970,-0.13500,84.3750,97,55,0.30183
9896980,-0.13000,82.9375,97,55,0.30134
9896990,-0.12500,81.4375,97,55,0.30305
9897000,-0.12500,78.4375,97,55,0.31429
9897010,-0.12500,77.0000,97,55,0.32503
9897020,-0.12500,75.6250,97,55,0.33993
9897030,-0.12500,74.3750,97,55,0.35946
9897040,-0.12500,72.1250,97,55,0.41197
9897050,-0.12500,71.1250,97,55,0.44322
9897060,-0.12500,70.2500,97,55,0.47668
9897070,-0.12000,69.4375,97,55,0.51136
9897080,-0.11000,68.1250,97,55,0.57509
9897090,-0.08500,67.5625,97,55,0.60073
9897100,-0.06500,67.1250,97,55,0.62808
9897110,-0.05500,66.7500,97,55,0.65495
9897120,-0.04000,66.0625,97,55,0.70305
9897130,-0.01500,65.8125,97,55,0.72357
9897140,-0.02500,65.6250,97,55,0.74139
9897150,-0.02500,65.6250,97,55,0.74139
9897160,-0.07000,65.1250,97,55,0.77680
9897170,-0.10500,65.0000,97,55,0.78291
9897180,-0.14000,64.8125,97,55,0.78657
9897190,-0.16000,64.6875,97,55,0.78730
9897200,-0.16500,64.3750,97,55,0.78315
9897210,-0.16000,64.1875,97,55,0.77949
9897220,-0.15500,64.0000,97,55,0.77460
9897230,-0.14000,63.7500,97,55,0.76899
9897240,-0.13500,63.3750,97,55,0.75433
9897250,-0.17000,63.1250,97,55,0.74554
9897260,-0.17000,62.8750,97,55,0.73578
9897270,0.12500,62.5625,97,55,0.72479
9897280,0.87000,62.0625,97,55,0.70012
9897290,1.63500,61.8125,97,55,0.68767
9897300,1.51500,61.5000,97,55,0.67399
9897310,0.59500,61.1875,97,55,0.65958
9897320,-0.13000,60.6250,97,55,0.62882
9897330,-0.32500,60.3125,97,55,0.61319
9897340,-0.30000,60.0625,97,55,0.59756
9897350,-0.27000,59.7500,97,55,0.58242
9897360,-0.26000,59.1875,97,55,0.55360
9897370,-0.25000,58.8750,97,55,0.53968
9897380,-0.24000,58.6250,97,55,0.52650
9897390,-0.23000,58.3125,97,55,0.51502
9897400,-0.22000,57.8125,97,55,0.49475
9897410,-0.21000,57.5625,97,55,0.48474
9897420,-0.20500,57.3125,97,55,0.47521
9897430,-0.20000,57.0625,97,55,0.46618
9897440,-0.20000,57.0625,97,55,0.46618
9897450,-0.18000,56.3125,97,55,0.44274
9897460,-0.17000,56.1250,97,55,0.43590
9897470,-0.16000,55.9375,97,55,0.42979
9897480,-0.15500,55.8750,97,55,0.41905
9897490,-0.14000,56.1875,97,55,0.41465
9897500,-0.12500,57.1250,97,55,0.40952
9897510,-0.10500,58.7500,97,55,0.40464
9897520,-0.08500,64.3125,97,55,0.39512
9897530,-0.06500,68.0000,97,55,0.39072
9897540,-0.04500,72.1250,97,55,0.38657
9897550,-0.01500,76.3125,97,55,0.38242
9897560,0.01000,84.3125,97,55,0.37436
9897570,0.04500,87.6875,97,55,0.37045
9897580,0.07500,90.5625,97,55,0.36728
9897590,0.10000,92.8750,97,55,0.36459
9897600,0.13000,96.0625,97,55,0.35800
9897610,0.16000,97.0000,97,55,0.35433
9897620,0.18500,97.6250,97,55,0.35043
9897630,0.20000,98.1250,97,55,0.34286
9897640,0.19000,98.0625,97,55,0.33919
9897650,0.15500,97.7500,97,55,0.33529
9897660,0.09000,97.2500,97,55,0.33162
9897670,0.03000,96.6250,97,55,0.32821
9897680,-0.02500,94.9375,97,55,0.32308
9897690,-0.06500,93.9375,97,55,0.32161
9897700,-0.08500,92.8750,97,55,0.31966
9897710,-0.10000,91.7500,97,55,0.31746
9897720,-0.11000,89.3125,97,55,0.31233
9897730,-0.11500,88.0000,97,55,0.31038
9897740,-0.12000,86.6875,97,55,0.30818
9897750,-0.12000,85.3125,97,55,0.30598
9897760,-0.12500,82.5000,97,55,0.30232
9897770,-0.12500,81.0000,97,55,0.30110
9897780,-0.12500,79.4375,97,55,0.30110
9897790,-0.12000,77.8750,97,55,0.30305
9897800,-0.12000,74.8750,97,55,0.31380
9897810,-0.12000,73.5625,97,55,0.32454
9897820,-0.12000,72.2500,97,55,0.33944
9897830,-0.12000,71.0625,97,55,0.35922
9897840,-0.12000,68.8750,97,55,0.41148
9897850,-0.12500,68.0000,97,55,0.44249
9897860,-0.12000,67.2500,97,55,0.47521
9897870,-0.11000,66.5625,97,55,0.50891
9897880,-0.10000,65.4375,97,55,0.57021
9897890,-0.08000,65.0000,97,55,0.59463
9897900,-0.06500,64.5625,97,55,0.62076
9897910,-0.05500,64.2500,97,55,0.64615
9897920,-0.03500,63.6875,97,55,0.69060
9897930,-0.01500,63.5000,97,55,0.70867
9897940,-0.01500,63.3125,97,55,0.72381
9897950,-0.03500,63.1250,97,55,0.73626
9897960,-0.06500,62.8125,97,55,0.75214
9897970,-0.09000,62.6875,97,55,0.75629
9897980,-0.13500,62.5625,97,55,0.75726
9897990,-0.13500,62.5625,97,55,0.75726
9898000,-0.16000,62.0625,97,55,0.75165
9898010,-0.15500,61.8750,97,55,0.74701
9898020,-0.15000,61.6875,97,55,0.74066
9898030,-0.14000,61.5000,97,55,0.73284
9898040,-0.13000,61.0625,97,55,0.71355
9898050,-0.14500,60.8125,97,55,0.70232
9898060,-0.20000,60.5000,97,55,0.68987
9898070,-0.05500,60.2500,97,55,0.67643
9898080,0.52500,59.8125,97,55,0.64835
9898090,1.36000,59.5625,97,55,0.63492
9898100,1.60000,59.3125,97,55,0.62002
9898110,0.87500,59.0625,97,55,0.60440
9898120,0.02000,58.5625,97,55,0.57241
9898130,-0.31000,58.3125,97,55,0.55629
9898140,-0.30500,58.0625,97,55,0.54017
9898150,-0.26500,57.8125,97,55,0.52454
9898160,-0.24500,57.3125,97,55,0.49475
9898170,-0.23500,57.1250,97,55,0.48107
9898180,-0.22500,56.8750,97,55,0.46960
9898190,-0.21500,56.6250,97,55,0.45934
9898200,-0.21000,56.1875,97,55,0.43810
9898210,-0.20000,55.9375,97,55,0.42808
9898220,-0.19500,55.7500,97,55,0.41880
9898230,-0.18500,55.5000,97,55,0.41001
9898240,-0.18000,55.0625,97,55,0.39414
9898250,-0.17000,54.8750,97,55,0.38706
9898260,-0.16000,54.6250,97,55,0.38071
9898270,-0.15500,54.4375,97,55,0.37485
9898280,-0.14000,54.2500,97,55,0.36484
9898290,-0.12500,54.3750,97,55,0.36142
9898300,-0.10500,54.8125,97,55,0.35751
9898310,-0.09000,55.6875,97,55,0.35336
9898320,-0.07500,59.6250,97,55,0.34505
9898330,-0.05500,62.6250,97,55,0.34115
9898340,-0.03500,66.1250,97,55,0.33724
9898350,-0.00500,69.9375,97,55,0.33333
9898360,0.02000,77.6250,97,55,0.32527
9898370,0.05000,81.1875,97,55,0.32137
9898380,0.08000,84.4375,97,55,0.31819
9898390,0.11000,87.1875,97,55,0.31551
9898400,0.14000,91.1875,97,55,0.30842
9898410,0.17000,92.4375,97,55,0.30476
9898420,0.20500,93.2500,97,55,0.30110
9898430,0.23500,93.7500,97,55,0.29719
9898440,0.23500,93.7500,97,55,0.29719
9898450,0.20000,93.9375,97,55,0.28596
9898460,0.14000,93.6250,97,55,0.28254
9898470,0.07000,93.1875,97,55,0.27912
9898480,0.00000,91.7500,97,55,0.27399
9898490,-0.04500,90.8125,97,55,0.27253
9898500,-0.07500,89.8125,97,55,0.26984
9898510,-0.09000,88.6875,97,55,0.26667
9898520,-0.10500,86.3125,97,55,0.26007
9898530,-0.10500,85.0625,97,55,0.25714
9898540,-0.10500,83.7500,97,55,0.25421
9898550,-0.11000,82.4375,97,55,0.25128
9898560,-0.11000,79.6250,97,55,0.24542
9898570,-0.10500,78.1875,97,55,0.24274
9898580,-0.10500,76.6875,97,55,0.24176
9898590,-0.10500,75.1875,97,55,0.24200
9898600,-0.11000,72.3750,97,55,0.24689
9898610,-0.11000,71.0625,97,55,0.25348
9898620,-0.11000,69.8125,97,55,0.26374
9898630,-0.11000,68.6250,97,55,0.27790
9898640,-0.11000,66.6875,97,55,0.31868
9898650,-0.11000,65.8750,97,55,0.34457
9898660,-0.11000,65.8750,97,55,0.34457
9898670,-0.10500,64.5000,97,55,0.40415
9898680,-0.09500,63.3750,97,55,0.46447
9898690,-0.07500,62.9375,97,55,0.49011
9898700,-0.05500,62.5625,97,55,0.51795
9898710,-0.04500,62.2500,97,55,0.54554
9898720,-0.03500,61.7500,97,55,0.59560
9898730,-0.00500,61.5625,97,55,0.61661
9898740,-0.00500,61.3750,97,55,0.63468
9898750,-0.03000,61.1875,97,55,0.64982
9898760,-0.05500,60.8750,97,55,0.67082
9898770,-0.08500,60.7500,97,55,0.67717
9898780,-0.12500,60.6250,97,55,0.68010
9898790,-0.15000,60.5000,97,55,0.68059
9898800,-0.16000,60.3125,97,55,0.67839
9898810,-0.15500,60.1875,97,55,0.67497
9898820,-0.15000,60.0000,97,55,0.67009
9898830,-0.14000,59.8750,97,55,0.66398
9898840,-0.13500,59.5000,97,55,0.64811
9898850,-0.14500,59.3125,97,55,0.63834
9898860,-0.20000,59.1250,97,55,0.62735
9898870,-0.10500,58.9375,97,55,0.61490
9898880,0.27500,58.5625,97,55,0.58926
9898890,1.08500,58.3750,97,55,0.57680
9898900,1.61500,58.1875,97,55,0.56288
9898910,1.11500,57.9375,97,55,0.54823
9898920,0.20500,57.5000,97,55,0.51844
9898930,-0.26000,57.2500,97,55,0.50379
9898940,-0.31500,57.0625,97,55,0.48938
9898950,-0.27500,56.8750,97,55,0.47546
9898960,-0.24500,56.3750,97,55,0.44933
9898970,-0.23500,56.1875,97,55,0.43712
9898980,-0.22500,55.9375,97,55,0.42686
9898990,-0.22000,55.7500,97,55,0.41807
9899000,-0.20500,55.2500,96,55,0.39976
9899010,-0.20000,55.0000,96,55,0.39096
9899020,-0.19000,54.7500,96,55,0.38217
9899030,-0.18500,54.5625,96,55,0.37387
9899040,-0.17500,54.1250,96,55,0.36020
9899050,-0.17000,53.9375,96,55,0.35458
9899060,-0.16000,53.6875,96,55,0.34945
9899070,-0.16000,53.6875,96,55,0.34945
9899080,-0.13500,53.2500,96,55,0.33773
9899090,-0.12500,53.3125,96,55,0.33553
9899100,-0.11000,53.6875,96,55,0.33260
9899110,-0.09500,54.4375,96,55,0.32967
9899120,-0.07500,58.0000,96,55,0.32332
9899130,-0.05500,60.8750,96,55,0.32039
9899140,-0.03500,64.1875,96,55,0.31746
9899150,-0.01500,67.9375,96,55,0.31453
9899160,0.01500,75.6250,96,55,0.30891
9899170,0.04000,79.2500,96,55,0.30623
9899180,0.07500,82.5000,96,55,0.30427
9899190,0.10500,85.3125,96,55,0.30281
9899200,0.13500,89.4375,96,55,0.29817
9899210,0.16500,90.7500,96,55,0.29573
9899220,0.16500,90.7500,96,55,0.29573
9899230,0.22500,92.3750,96,55,0.29084
9899240,0.23500,92.9375,96,55,0.28547
9899250,0.21000,92.8125,96,55,0.28303
9899260,0.15500,92.5625,96,55,0.28059
9899270,0.08000,92.1250,96,55,0.27790
9899280,0.01000,90.7500,96,55,0.27546
9899290,-0.04500,89.9375,96,55,0.27399
9899300,-0.07500,89.0000,96,55,0.27228
9899310,-0.09500,88.0000,96,55,0.27009
9899320,-0.10500,85.8125,96,55,0.26569
9899330,-0.11000,84.6250,96,55,0.26374
9899340,-0.11500,83.4375,96,55,0.26178
9899350,-0.11500,82.1875,96,55,0.25958
9899360,-0.11500,79.4375,96,55,0.25519
9899370,-0.11500,78.0000,96,55,0.25324
9899380,-0.11000,76.5625,96,55,0.25250
9899390,-0.11000,75.0625,96,55,0.25299
9899400,-0.11000,72.1875,96,55,0.25641
9899410,-0.11000,70.8750,96,55,0.26105
9899420,-0.11000,69.6250,96,55,0.26886
9899430,-0.11500,68.5000,96,55,0.28034
9899440,-0.11500,68.5000,96,55,0.28034
9899450,-0.11500,65.5625,96,55,0.33797
9899460,-0.11500,64.8125,96,55,0.36410
9899470,-0.11000,64.1250,96,55,0.39243
9899480,-0.10500,63.0625,96,55,0.44274
9899490,-0.09000,62.6250,96,55,0.47009
9899500,-0.07500,62.2500,96,55,0.49792
9899510,-0.06500,61.8750,96,55,0.52479
9899520,-0.04500,61.3750,96,55,0.57289
9899530,-0.02000,61.1875,96,55,0.59316
9899540,-0.00500,61.0625,96,55,0.61074
9899550,-0.02500,60.8750,96,55,0.62540
9899560,-0.05000,60.6250,96,55,0.64689
9899570,-0.07500,60.5000,96,55,0.65372
9899580,-0.11500,60.3750,96,55,0.65739
9899590,-0.14500,60.3125,96,55,0.65910
9899600,-0.16000,60.0625,96,55,0.65958
9899610,-0.16000,59.9375,96,55,0.65788
9899620,-0.15500,59.8125,96,55,0.65446
9899630,-0.14500,59.6250,96,55,0.64957
9899640,-0.13500,59.3125,96,55,0.63614
9899650,-0.13500,59.1250,96,55,0.62759
9899660,-0.18000,58.9375,96,55,0.61832
9899670,-0.18500,58.7500,96,55,0.60806
9899680,0.12500,58.3750,96,55,0.58803
9899690,0.88000,58.1875,96,55,0.57656
9899700,1.59000,58.0000,96,55,0.56386
9899710,1.33500,57.8125,96,55,0.55067
9899720,1.33500,57.8125,96,55,0.55067
9899730,-0.17500,57.1875,96,55,0.50891
9899740,-0.32000,57.0000,96,55,0.49524
9899750,-0.29000,56.8125,96,55,0.48205
9899760,-0.25500,56.3750,96,55,0.45714
9899770,-0.24000,56.1250,96,55,0.44567
9899780,-0.23000,55.8750,96,55,0.43590
9899790,-0.22000,55.6250,96,55,0.42735
9899800,-0.22000,55.6250,96,55,0.42735
9899810,-0.20500,54.9375,96,55,0.40049
9899820,-0.19500,54.7500,96,55,0.39243
9899830,-0.19000,54.5000,96,55,0.38510
9899840,-0.18500,54.0625,96,55,0.37241
9899850,-0.17500,53.8125,96,55,0.36679
9899860,-0.16000,53.5625,96,55,0.36142
9899870,-0.15500,53.3750,96,55,0.35678
9899880,-0.14500,53.1875,96,55,0.35043
9899890,-0.13500,53.2500,96,55,0.34725
9899900,-0.12000,53.5625,96,55,0.34383
9899910,-0.10500,54.3125,96,55,0.34066
9899920,-0.08500,57.9375,96,55,0.33504
9899930,-0.06500,60.8125,96,55,0.33211
9899940,-0.04500,64.3125,96,55,0.32943
9899950,-0.02500,68.1250,96,55,0.32674
9899960,0.00000,76.0000,96,55,0.32112
9899970,0.03000,79.7500,96,55,0.31844
9899980,0.06000,83.0625,96,55,0.31648
9899990,0.09000,86.0000,96,55,0.31502
9900000,0.12000,90.3750,97,55,0.31087
9900010,0.14500,91.8750,97,55,0.30842
9900020,0.17500,93.0000,97,55,0.30574
9900030,0.20500,93.7500,97,55,0.30281
9900040,0.22500,94.5625,97,55,0.29744
9900050,0.20500,94.5625,97,55,0.29475
9900060,0.15500,94.4375,97,55,0.29231
9900070,0.09000,94.0625,97,55,0.28987
9900080,0.02000,92.8750,97,55,0.28718
9900090,-0.03500,92.0625,97,55,0.28547
9900100,-0.07500,91.1875,97,55,0.28352
9900110,-0.10000,90.2500,97,55,0.28156
9900120,-0.11500,88.1250,97,55,0.27668
9900130,-0.12500,87.0000,97,55,0.27424
9900140,-0.12500,85.8125,97,55,0.27179
9900150,-0.12500,84.6250,97,55,0.26935
9900160,-0.12500,82.1250,97,55,0.26520
9900170,-0.12500,80.8125,97,55,0.26349
9900180,-0.12500,79.3750,97,55,0.26300
9900190,-0.12500,79.3750,97,55,0.26300
9900200,-0.12500,75.0625,97,55,0.26691
9900210,-0.12500,73.7500,97,55,0.27179
9900220,-0.12500,72.5000,97,55,0.28010
9900230,-0.12000,71.2500,97,55,0.29206
9900240,-0.12000,69.0625,97,55,0.32747
9900250,-0.12000,68.0625,97,55,0.35092
9900260,-0.12000,67.2500,97,55,0.37778
9900270,-0.11500,66.4375,97,55,0.40708
9900280,-0.11000,65.1250,97,55,0.45885
9900290,-0.10500,64.6250,97,55,0.48694
9900300,-0.09000,64.1250,97,55,0.51600
9900310,-0.07500,63.7500,97,55,0.54432
9900320,-0.06500,63.1250,97,55,0.59487
9900330,-0.04500,62.8750,97,55,0.61661
9900340,-0.02000,62.6875,97,55,0.63541
9900350,-0.02000,62.5000,97,55,0.65153
9900360,-0.04000,62.1875,97,55,0.67570
9900370,-0.06500,62.1250,97,55,0.68376
9900380,-0.06500,62.1250,97,55,0.68376
9900390,-0.13500,61.8750,97,55,0.69035
9900400,-0.16000,61.6875,97,55,0.69206
9900410,-0.17000,61.5625,97,55,0.69109
9900420,-0.16500,61.4375,97,55,0.68889
9900430,-0.16000,61.3125,97,55,0.68547
9900440,-0.15000,61.0000,97,55,0.67448
9900450,-0.14500,60.8125,97,55,0.66716
9900460,-0.15500,60.6250,97,55,0.65861
9900470,-0.21000,60.4375,97,55,0.64908
9900480,-0.09500,60.0625,97,55,0.62906
9900490,0.46500,59.8750,97,55,0.61758
9900500,1.32500,59.6250,97,55,0.60537
9900510,1.65500,59.4375,97,55,0.59267
9900520,1.00000,59.0000,97,55,0.56679
9900530,0.10000,58.8125,97,55,0.55336
9900540,-0.30500,58.6250,97,55,0.53968
9900550,-0.32500,58.3750,97,55,0.52625
9900560,-0.28500,58.0000,97,55,0.50037
9900570,-0.27000,57.7500,97,55,0.48791
9900580,-0.27000,57.7500,97,55,0.48791
9900590,-0.24500,57.3750,97,55,0.46764
9900600,-0.23500,56.9375,97,55,0.44835
9900610,-0.23000,56.6875,97,55,0.43907
9900620,-0.22000,56.5000,97,55,0.43028
9900630,-0.21500,56.2500,97,55,0.42198
9900640,-0.20500,55.8125,97,55,0.40757
9900650,-0.20000,55.6250,97,55,0.40122
9900660,-0.19000,55.4375,97,55,0.39536
9900670,-0.18000,55.1875,97,55,0.38999
9900680,-0.17000,54.9375,97,55,0.38266
9900690,-0.16000,55.0000,97,55,0.37875
9900700,-0.15000,55.2500,97,55,0.37509
9900710,-0.13500,55.9375,97,55,0.37143
9900720,-0.11500,59.3750,97,55,0.36435
9900730,-0.09500,62.3125,97,55,0.36117
9900740,-0.07500,65.8750,97,55,0.35800
9900750,-0.05000,69.8125,97,55,0.35507
9900760,-0.02500,78.1250,97,55,0.34896
9900770,0.00000,82.0625,97,55,0.34628
9900780,0.03000,85.6250,97,55,0.34457
9900790,0.06000,88.7500,97,55,0.34310
9900800,0.09500,93.5000,97,55,0.33895
9900810,0.12500,95.1875,97,55,0.33675
9900820,0.15000,96.3750,97,55,0.33480
9900830,0.17500,97.2500,97,55,0.33236
9900840,0.20500,98.2500,97,55,0.32796
9900850,0.20500,98.3750,97,55,0.32576
9900860,0.18000,98.2500,97,55,0.32332
9900870,0.12000,97.9375,97,55,0.32063
9900880,0.12000,97.9375,97,55,0.32063
9900890,-0.01500,96.1250,97,55,0.31600
9900900,-0.06000,95.2500,97,55,0.31429
9900910,-0.09500,94.2500,97,55,0.31258
9900920,-0.11500,92.1250,97,55,0.30965
9900930,-0.12500,91.0000,97,55,0.30818
9900940,-0.13000,89.8125,97,55,0.30647
9900950,-0.13000,88.6875,97,55,0.30427
9900960,-0.13000,86.1250,97,55,0.30012
9900970,-0.13000,84.8125,97,55,0.29841
9900980,-0.12500,83.4375,97,55,0.29792
9900990,-0.12500,82.0000,97,55,0.29841
9901000,-0.12500,79.0000,97,55,0.30232
9901010,-0.12500,77.5625,97,55,0.30745
9901020,-0.12000,76.1250,97,55,0.31600
9901030,-0.12500,74.8125,97,55,0.32821
9901040,-0.12500,74.8125,97,55,0.32821
9901050,-0.12500,71.3125,97,55,0.38926
9901060,-0.12500,70.3125,97,55,0.41636
9901070,-0.12500,69.4375,97,55,0.45324
9901080,-0.12000,67.8750,97,55,0.52430
9901090,-0.11500,67.2500,97,55,0.55824
9901100,-0.10500,66.7500,97,55,0.59219
9901110,-0.08500,66.3125,97,55,0.62491
9901120,-0.06500,65.6250,97,55,0.68425
9901130,-0.05500,65.3125,97,55,0.70965
9901140,-0.03500,65.0625,97,55,0.73211
9901150,-0.01500,64.8750,97,55,0.75189
9901160,-0.02500,64.5625,97,55,0.78193
9901170,-0.04500,64.4375,97,55,0.79048
9901180,-0.07000,64.3125,97,55,0.79585
9901190,-0.10500,64.1875,97,55,0.80073
9901200,-0.14500,63.9375,97,55,0.80586
9901210,-0.16000,63.8125,97,55,0.80586
9901220,-0.16000,63.6875,97,55,0.80415
9901230,-0.16000,63.5000,97,55,0.80049
9901240,-0.14500,63.1250,97,55,0.78901
9901250,-0.14000,62.9375,97,55,0.78144
9901260,-0.13500,62.7500,97,55,0.77289
9901270,-0.17500,62.5625,97,55,0.76313
9901280,-0.18000,62.1875,97,55,0.74164
9901290,0.15500,61.9375,97,55,0.72918
9901300,0.15500,61.9375,97,55,0.72918
9901310,1.64000,61.5000,97,55,0.70110
9901320,1.51000,61.0625,97,55,0.67033
9901330,0.56500,60.8750,97,55,0.65446
9901340,-0.16000,60.6250,97,55,0.63834
9901350,-0.33000,60.3750,97,55,0.62247
9901360,-0.30000,59.9375,97,55,0.59194
9901370,-0.28000,59.6875,97,55,0.57851
9901380,-0.26500,59.4375,97,55,0.56654
9901390,-0.25000,59.1875,97,55,0.55385
9901400,-0.24000,58.6875,97,55,0.52918
9901410,-0.23000,58.4375,97,55,0.51770
9901420,-0.22500,58.2500,97,55,0.50672
9901430,-0.22000,58.0625,97,55,0.49646
9901440,-0.21000,57.6250,97,55,0.47790
9901450,-0.20500,57.3750,97,55,0.46960
9901460,-0.19500,57.1250,97,55,0.46227
9901470,-0.19000,56.9375,97,55,0.45543
9901480,-0.17500,56.5000,97,55,0.44493
9901490,-0.17000,56.3750,97,55,0.43956
9901500,-0.15500,56.4375,97,55,0.43419
9901510,-0.14500,56.8750,97,55,0.42906
9901520,-0.12500,59.4375,97,55,0.41978
9901530,-0.11000,61.8750,97,55,0.41563
9901540,-0.09000,65.0625,97,55,0.41172
9901550,-0.07000,68.8750,97,55,0.40781
9901560,-0.04500,77.1875,97,55,0.40024
9901570,-0.01500,81.3750,97,55,0.39707
9901580,0.01000,85.2500,97,55,0.39438
9901590,0.04000,88.6875,97,55,0.39145
9901600,0.07000,94.0000,97,55,0.38462
9901610,0.10000,95.8750,97,55,0.38144
9901620,0.13000,97.3125,97,55,0.37827
9901630,0.13000,97.3125,97,55,0.37827
9901640,0.18500,99.3750,97,55,0.36996
9901650,0.19500,99.5000,97,55,0.36728
9901660,0.19000,99.3750,97,55,0.36435
9901670,0.14500,99.0625,97,55,0.36142
9901680,0.09000,97.9375,97,55,0.35775
9901690,0.02500,97.1250,97,55,0.35556
9901700,-0.02500,96.1875,97,55,0.35336
9901710,-0.06500,95.1875,97,55,0.35140
9901720,-0.09000,93.0000,97,55,0.34774
9901730,-0.10500,91.8750,97,55,0.34554
9901740,-0.11500,90.6250,97,55,0.34310
9901750,-0.11500,89.3750,97,55,0.34066
9901760,-0.12500,86.7500,97,55,0.33578
9901770,-0.12500,85.4375,97,55,0.33455
9901780,-0.12500,84.0625,97,55,0.33407
9901790,-0.12500,82.6250,97,55,0.33358
9901800,-0.12000,79.6250,97,55,0.33504
9901810,-0.12000,78.0625,97,55,0.33871
9901820,-0.12000,76.5625,97,55,0.34579
9901830,-0.12000,75.1875,97,55,0.35653
9901840,-0.12000,72.6250,97,55,0.39096
9901850,-0.12000,71.4375,97,55,0.41514
9901860,-0.11500,70.4375,97,55,0.44322
9901870,-0.11500,69.4375,97,55,0.47424
9901880,-0.11500,67.8125,97,55,0.53040
9901890,-0.10500,67.1250,97,55,0.56190
9901900,-0.09500,66.5625,97,55,0.59487
9901910,-0.07000,66.0000,97,55,0.62735
9901920,-0.05500,65.1875,97,55,0.68645
9901930,-0.05500,64.8750,97,55,0.71209
9901940,-0.03500,64.5625,97,55,0.73455
9901950,-0.01500,64.3125,97,55,0.75409
9901960,-0.02500,63.9375,97,55,0.78437
9901970,-0.04500,63.7500,97,55,0.79316
9901980,-0.06500,63.5625,97,55,0.79853
9901990,-0.10500,63.4375,97,55,0.80366
9902000,-0.14500,63.1875,96,55,0.80855
9902010,-0.16000,63.0625,96,55,0.80830
9902020,-0.16000,62.8750,96,55,0.80610
9902030,-0.15500,62.6875,96,55,0.80244
9902040,-0.14500,62.3750,96,55,0.79048
9902050,-0.13500,62.1250,96,55,0.78266
9902060,-0.13000,61.8750,96,55,0.77363
9902070,-0.17000,61.6250,96,55,0.76288
9902080,-0.19000,61.1875,96,55,0.73993
9902090,0.12000,60.9375,96,55,0.72698
9902100,0.86000,60.7500,96,55,0.71282
9902110,1.57500,60.5000,96,55,0.69792
9902120,1.43500,59.9375,96,55,0.66667
9902130,0.51000,59.6875,96,55,0.65031
9902140,-0.17000,59.5000,96,55,0.63370
9902150,-0.32500,59.2500,96,55,0.61709
9902160,-0.29500,58.8125,96,55,0.58486
9902170,-0.29500,58.8125,96,55,0.58486
9902180,-0.25000,58.3125,96,55,0.55775
9902190,-0.24000,58.0625,96,55,0.54408
9902200,-0.23000,57.6250,96,55,0.51673
9902210,-0.22000,57.3750,96,55,0.50354
9902220,-0.21000,57.1250,96,55,0.49109
9902230,-0.20500,56.8750,96,55,0.47912
9902240,-0.19500,56.3750,96,55,0.45788
9902250,-0.19000,56.1250,96,55,0.44860
9902260,-0.18000,55.8750,96,55,0.44005
9902270,-0.17500,55.6250,96,55,0.43223
9902280,-0.16000,55.1875,96,55,0.42076
9902290,-0.15500,55.0625,96,55,0.41514
9902300,-0.14000,55.0625,96,55,0.40928
9902310,-0.12500,55.2500,96,55,0.40366
9902320,-0.11000,56.8750,96,55,0.39267
9902330,-0.09000,58.6875,96,55,0.38755
9902340,-0.07000,61.3125,96,55,0.38242
9902350,-0.07000,61.3125,96,55,0.38242
9902360,-0.02000,72.2500,96,55,0.36825
9902370,0.00000,76.2500,96,55,0.36459
9902380,0.03000,80.1250,96,55,0.36142
9902390,0.06000,83.6250,96,55,0.35775
9902400,0.09000,89.2500,96,55,0.34823
9902410,0.12000,91.3750,96,55,0.34408
9902420,0.14500,93.0625,96,55,0.33578
9902430,0.18000,94.2500,96,55,0.33162
9902440,0.21500,95.5625,96,55,0.32186
9902450,0.23000,95.8125,96,55,0.31819
9902460,0.22000,95.7500,96,55,0.31575
9902470,0.17000,95.5000,96,55,0.31380
9902480,0.11000,94.5000,96,55,0.30745
9902490,0.04000,93.7500,96,55,0.30427
9902500,-0.01500,92.8750,96,55,0.30134
9902510,-0.06000,91.8750,96,55,0.29817
9902520,-0.08500,89.6875,96,55,0.29158
9902530,-0.09500,88.5000,96,55,0.28840
9902540,-0.10500,87.2500,96,55,0.28547
9902550,-0.11000,86.0000,96,55,0.28254
9902560,-0.11500,83.4375,96,55,0.27961
9902570,-0.11500,82.1250,96,55,0.27814
9902580,-0.11500,80.6875,96,55,0.27692
9902590,-0.11500,79.2500,96,55,0.27643
9902600,-0.11500,76.3125,96,55,0.28132
9902610,-0.11500,74.8125,96,55,0.28816
9902620,-0.11500,73.4375,96,55,0.29915
9902630,-0.11500,72.0625,96,55,0.31453
9902640,-0.11500,69.6875,96,55,0.35849
9902650,-0.12000,68.6250,96,55,0.38608
9902660,-0.12500,67.6250,96,55,0.41221
9902670,-0.12000,66.8125,96,55,0.43785
9902680,-0.11000,65.3750,96,55,0.49963
9902690,-0.10500,64.7500,96,55,0.53187
9902700,-0.09000,64.1875,96,55,0.56313
9902710,-0.07000,63.7500,96,55,0.59267
9902720,-0.05500,63.0000,96,55,0.64371
9902730,-0.05000,62.6875,96,55,0.66496
9902740,-0.02500,62.4375,96,55,0.68278
9902750,-0.01000,62.2500,96,55,0.69744
9902760,-0.02500,61.8750,96,55,0.71355
9902770,-0.05500,61.7500,96,55,0.71917
9902780,-0.07500,61.6250,96,55,0.72308
9902790,-0.11500,61.5000,96,55,0.72503
9902800,-0.15000,61.3125,96,55,0.72332
9902810,-0.16000,61.1875,96,55,0.71990
9902820,-0.16000,61.0625,96,55,0.71477
9902830,-0.15500,60.8750,96,55,0.70818
9902840,-0.15500,60.8750,96,55,0.70818
9902850,-0.14000,60.3750,96,55,0.68181
9902860,-0.13500,60.2500,96,55,0.67155
9902870,-0.17500,60.0000,96,55,0.66007
9902880,-0.19500,59.5625,96,55,0.63370
9902890,0.08500,59.3750,96,55,0.61954
9902900,0.80500,59.1875,96,55,0.60488
9902910,1.52500,58.9375,96,55,0.58974
9902920,1.37500,58.5000,96,55,0.55018
9902930,0.47500,58.3125,96,55,0.53455
9902940,-0.17500,58.0625,96,55,0.51917
9902950,-0.32500,57.8750,96,55,0.49866
9902960,-0.29000,57.4375,96,55,0.47448
9902970,-0.26000,57.1875,96,55,0.46203
9902980,-0.24000,56.9375,96,55,0.44982
9902990,-0.23500,56.6875,96,55,0.43834
9903000,-0.22000,56.2500,96,55,0.41709
9903010,-0.21500,56.0625,96,55,0.40757
9903020,-0.20500,55.8125,96,55,0.39902
9903030,-0.20000,55.5625,96,55,0.39096
9903040,-0.19000,55.0625,96,55,0.37582
9903050,-0.18000,54.8750,96,55,0.37118
9903060,-0.17000,54.6250,96,55,0.36606
9903070,-0.17000,54.4375,96,55,0.35873
9903080,-0.15500,54.0625,96,55,0.34237
9903090,-0.14500,53.9375,96,55,0.32723
9903100,-0.13500,53.9375,96,55,0.31795
9903110,-0.11500,54.0000,96,55,0.31160
9903120,-0.10000,55.3750,96,55,0.30305
9903130,-0.08500,57.0625,96,55,0.29963
9903140,-0.06500,59.5000,96,55,0.29744
9903150,-0.04500,62.5625,96,55,0.29548
9903160,-0.01500,69.8750,96,55,0.29084
9903170,0.00500,73.7500,96,55,0.28816
9903180,0.03000,77.5000,96,55,0.28523
9903190,0.06000,81.0000,96,55,0.28230
9903200,0.09000,86.6875,96,55,0.27643
9903210,0.12000,88.8750,96,55,0.27375
9903220,0.15000,90.5625,96,55,0.27106
9903230,0.18500,91.7500,96,55,0.26838
9903240,0.22000,93.1875,96,55,0.26520
9903250,0.23500,93.4375,96,55,0.26276
9903260,0.22500,93.5625,96,55,0.26007
9903270,0.17000,93.3750,96,55,0.25739
9903280,0.10000,92.5000,96,55,0.25226
9903290,0.03000,91.8125,96,55,0.24957
9903300,-0.02500,91.0000,96,55,0.24689
9903310,-0.06500,90.0625,96,55,0.24444
9903320,-0.09000,88.0000,96,55,0.24005
9903330,-0.10500,86.8750,96,55,0.23785
9903340,-0.11500,85.7500,96,55,0.23663
9903350,-0.12000,84.5625,96,55,0.23590
9903360,-0.12000,82.0625,96,55,0.23297
9903370,-0.11500,80.6875,96,55,0.23223
9903380,-0.11500,79.3125,96,55,0.23297
9903390,-0.11500,77.8750,96,55,0.23614
9903400,-0.11500,74.9375,96,55,0.25128
9903410,-0.12500,73.5000,96,55,0.26447
9903420,-0.12500,72.1250,96,55,0.28132
9903430,-0.12500,70.8125,96,55,0.30208
9903440,-0.12000,68.5000,96,55,0.34505
9903450,-0.12000,67.5000,96,55,0.37167
9903460,-0.12500,66.5625,96,55,0.40098
9903470,-0.12000,65.7500,96,55,0.43126
9903480,-0.11000,64.3750,96,55,0.49158
9903490,-0.11000,64.3750,96,55,0.49158
9903500,-0.09500,63.2500,96,55,0.54603
9903510,-0.07500,62.8125,96,55,0.56947
9903520,-0.06500,62.1875,96,55,0.60781
9903530,-0.05500,61.8750,96,55,0.62271
9903540,-0.02500,61.6250,96,55,0.63321
9903550,-0.01000,61.4375,96,55,0.64054
9903560,-0.02500,61.1250,96,55,0.65104
9903570,-0.05500,61.0000,96,55,0.65372
9903580,-0.08000,60.8750,96,55,0.65446
9903590,-0.11500,60.7500,96,55,0.65348
9903600,-0.15000,60.5000,96,55,0.64689
9903610,-0.16500,60.3750,96,55,0.64127
9903620,-0.16500,60.3125,96,55,0.63443
9903630,-0.16000,60.1875,96,55,0.62662
9903640,-0.16000,60.1875,96,55,0.62662
9903650,-0.14500,59.7500,96,55,0.59976
9903660,-0.14500,59.5625,96,55,0.58877
9903670,-0.18000,59.4375,96,55,0.57656
9903680,-0.20500,59.0625,96,55,0.54945
9903690,0.04000,58.8750,96,55,0.53504
9903700,0.74500,58.6875,96,55,0.52039
9903710,1.52500,58.4375,96,55,0.50598
9903720,1.42500,58.0625,96,55,0.47766
9903730,0.54500,57.8750,96,55,0.46422
9903740,-0.13500,57.6250,96,55,0.45275
9903750,-0.32500,57.3750,96,55,0.44249
9903760,-0.30000,56.9375,96,55,0.42076
9903770,-0.26000,56.6875,96,55,0.41001
9903780,-0.25000,56.5000,96,55,0.39976
9903790,-0.23500,56.2500,96,55,0.38999
9903800,-0.22500,55.8125,96,55,0.37241
9903810,-0.21500,55.6250,96,55,0.36484
9903820,-0.21000,55.3750,96,55,0.35824
9903830,-0.20000,55.1875,96,55,0.35214
9903840,-0.19000,54.6875,96,55,0.34286
9903850,-0.18000,54.5000,96,55,0.33871
9903860,-0.18000,54.2500,96,55,0.33455
9903870,-0.17000,54.0000,96,55,0.33040
9903880,-0.16000,53.7500,96,55,0.32283
9903890,-0.15000,53.6250,96,55,0.31966
9903900,-0.13500,53.6250,96,55,0.31648
9903910,-0.12000,53.8125,96,55,0.31306
9903920,-0.10500,55.6250,96,55,0.30720
9903930,-0.08500,57.6250,96,55,0.30452
9903940,-0.07000,60.3750,96,55,0.30281
9903950,-0.05000,63.7500,96,55,0.30134
9903960,-0.02500,71.4375,96,55,0.29670
9903970,0.00000,75.3750,96,55,0.29402
9903980,0.03000,79.1875,96,55,0.29133
9903990,0.06000,82.6250,96,55,0.28864
9904000,0.08500,88.1875,96,55,0.28376
9904010,0.11000,90.2500,96,55,0.28132
9904020,0.14500,91.8750,96,55,0.27888
9904030,0.17500,93.0625,96,55,0.27643
9904040,0.20500,94.3125,96,55,0.27424
9904050,0.22500,94.6250,96,55,0.27277
9904060,0.21500,94.6250,96,55,0.27057
9904070,0.17000,94.3750,96,55,0.26789
9904080,0.10000,93.4375,96,55,0.26252
9904090,0.03000,92.8125,96,55,0.26007
9904100,-0.03000,92.0000,96,55,0.25812
9904110,-0.07500,91.1250,96,55,0.25617
9904120,-0.09500,89.0625,96,55,0.25201
9904130,-0.11000,87.9375,96,55,0.24957
9904140,-0.12000,86.8125,96,55,0.24811
9904150,-0.12500,85.6250,96,55,0.24713
9904160,-0.12500,83.1250,96,55,0.24420
9904170,-0.12000,81.8125,96,55,0.24420
9904180,-0.12000,80.4375,96,55,0.24591
9904190,-0.11500,79.0625,96,55,0.25006
9904200,-0.11500,76.1250,96,55,0.26886
9904210,-0.11500,74.6875,96,55,0.28425
9904220,-0.12000,73.3125,96,55,0.30354
9904230,-0.12500,72.0625,96,55,0.32650
9904240,-0.12500,69.6875,96,55,0.37167
9904250,-0.12500,68.6250,96,55,0.39927
9904260,-0.12500,67.6875,96,55,0.42930
9904270,-0.12500,66.8125,96,55,0.46056
9904280,-0.12000,65.3125,96,55,0.52234
9904290,-0.12000,65.3125,96,55,0.52234
9904300,-0.09500,64.1875,96,55,0.57827
9904310,-0.07500,63.6875,96,55,0.60220
9904320,-0.07000,63.0000,96,55,0.64078
9904330,-0.05000,62.6875,96,55,0.65543
9904340,-0.02500,62.5000,96,55,0.66545
9904350,-0.02000,62.2500,96,55,0.67204
9904360,-0.04500,61.9375,96,55,0.68181
9904370,-0.06500,61.7500,96,55,0.68449
9904380,-0.09500,61.6250,96,55,0.68523
9904390,-0.13500,61.5625,96,55,0.68425
9904400,-0.16000,61.3125,96,55,0.67741
9904410,-0.17000,61.2500,96,55,0.67179
9904420,-0.16500,61.1875,96,55,0.66520
9904430,-0.16000,61.0625,96,55,0.65739
9904440,-0.15500,60.8125,96,55,0.63980
9904450,-0.14500,60.6250,96,55,0.62979
9904460,-0.14500,60.4375,96,55,0.61880
9904470,-0.20000,60.3125,96,55,0.60659
9904480,-0.17000,60.0000,96,55,0.57998
9904490,0.22500,59.8125,96,55,0.56606
9904500,1.03500,59.6250,96,55,0.55189
9904510,1.65000,59.4375,96,55,0.53748
9904520,1.24000,59.0000,96,55,0.50891
9904530,0.30500,58.7500,96,55,0.49499
9904540,-0.23000,58.5625,96,55,0.48278
9904550,-0.33000,58.3750,96,55,0.47204
9904560,-0.29000,57.9375,96,55,0.44884
9904570,-0.27000,57.6875,96,55,0.43761
9904580,-0.25500,57.5000,96,55,0.42686
9904590,-0.24000,57.3125,96,55,0.41661
9904600,-0.23000,56.8750,96,55,0.39780
9904610,-0.22000,56.6875,96,55,0.38926
9904620,-0.22000,56.4375,96,55,0.38144
9904630,-0.21000,56.1875,96,55,0.37436
9904640,-0.20000,55.8125,96,55,0.36410
9904650,-0.19000,55.5625,96,55,0.35946
9904660,-0.18500,55.3750,96,55,0.35482
9904670,-0.18000,55.1875,96,55,0.35067
9904680,-0.17000,54.8750,96,55,0.34286
9904690,-0.15500,54.8750,96,55,0.33944
9904700,-0.15000,55.0625,96,55,0.33602
9904710,-0.13500,55.6250,96,55,0.33284
9904720,-0.11500,58.6875,96,55,0.32674
9904730,-0.10000,61.4375,96,55,0.32479
9904740,-0.08000,64.8125,96,55,0.32308
9904750,-0.05500,68.6250,96,55,0.32088
9904760,-0.03000,76.7500,96,55,0.31600
9904770,-0.03000,76.7500,96,55,0.31600
9904780,0.02500,84.4375,96,55,0.31062
9904790,0.05500,87.6875,96,55,0.30794
9904800,0.08500,92.5625,96,55,0.30232
9904810,0.11500,94.2500,96,55,0.29939
9904820,0.14500,95.5625,96,55,0.29646
9904830,0.17500,96.5000,96,55,0.29377
9904840,0.20000,97.5625,96,55,0.29109
9904850,0.21500,97.7500,96,55,0.28938
9904860,0.19000,97.7500,96,55,0.28742
9904870,0.14000,97.5000,96,55,0.28523
9904880,0.07000,96.4375,96,55,0.28059
9904890,0.00500,95.7500,96,55,0.27839
9904900,-0.05000,94.9375,96,55,0.27619
9904910,-0.08500,94.0000,96,55,0.27424
9904920,-0.10500,91.8750,96,55,0.27033
9904930,-0.11500,90.8125,96,55,0.26935
9904940,-0.12500,89.6875,96,55,0.26886
9904950,-0.12500,88.5000,96,55,0.26789
9904960,-0.12500,86.0625,96,55,0.26667
9904970,-0.12500,84.7500,96,55,0.26813
9904980,-0.12500,83.3750,96,55,0.27179
9904990,-0.12500,81.9375,96,55,0.27863
9905000,-0.12500,78.9375,96,55,0.30379
9905010,-0.11500,77.4375,96,55,0.32308
9905020,-0.11500,76.0625,96,55,0.34628
9905030,-0.11500,74.7500,96,55,0.37314
9905040,-0.12000,72.3125,96,55,0.42369
9905050,-0.12000,71.2500,96,55,0.45324
9905060,-0.12500,70.1875,96,55,0.48498
9905070,-0.12000,69.3125,96,55,0.51697
9905080,-0.11500,67.7500,96,55,0.57753
9905090,-0.11000,67.1250,96,55,0.60440
9905100,-0.09500,66.5625,96,55,0.62882
9905110,-0.07000,66.0625,96,55,0.65079
9905120,-0.06000,65.2500,96,55,0.68669
9905130,-0.05000,64.9375,96,55,0.70842
9905140,-0.02500,64.6875,96,55,0.73162
9905150,-0.02000,64.5000,96,55,0.74676
9905160,-0.04000,64.1875,96,55,0.76337
9905170,-0.06000,64.0625,96,55,0.76703
9905180,-0.08500,63.9375,96,55,0.76850
9905190,-0.12500,63.8125,96,55,0.76777
9905200,-0.15500,63.6250,96,55,0.76093
9905210,-0.16500,63.5000,96,55,0.75531
9905220,-0.16000,63.3750,96,55,0.74847
9905230,-0.15500,63.2500,96,55,0.74066
9905240,-0.14500,62.9375,96,55,0.72259
9905250,-0.13500,62.8125,96,55,0.71209
9905260,-0.15000,62.6250,96,55,0.70037
9905270,-0.20000,62.4375,96,55,0.68742
9905280,-0.13000,62.0625,96,55,0.65934
9905290,0.34000,61.8125,96,55,0.64444
9905300,1.19000,61.5625,96,55,0.62906
9905310,1.73500,61.3125,96,55,0.61343
9905320,1.22500,60.9375,96,55,0.58291
9905330,0.26500,60.6875,96,55,0.56947
9905340,-0.25000,60.4375,96,55,0.55678
9905350,-0.32500,60.1875,96,55,0.54335
9905360,-0.29000,59.6875,96,55,0.51722
9905370,-0.27000,59.4375,96,55,0.50476
9905380,-0.26000,59.2500,96,55,0.49280
9905390,-0.24500,59.0000,96,55,0.48156
9905400,-0.23500,58.5625,96,55,0.46178
9905410,-0.22500,58.3750,96,55,0.45299
9905420,-0.22000,58.1250,96,55,0.44469
9905430,-0.21000,57.8750,96,55,0.43712
9905440,-0.21000,57.4375,96,55,0.42564
9905450,-0.20000,57.2500,96,55,0.42002
9905460,-0.19000,57.0000,96,55,0.41465
9905470,-0.18000,56.8125,96,55,0.40952
9905480,-0.18000,56.8125,96,55,0.40952
9905490,-0.16000,56.5000,96,55,0.39560
9905500,-0.15000,56.8750,96,55,0.39121
9905510,-0.13500,57.6875,96,55,0.38681
9905520,-0.11500,61.6875,96,55,0.37924
9905530,-0.09500,64.9375,96,55,0.37680
9905540,-0.08000,68.7500,96,55,0.37485
9905550,-0.05500,72.8750,96,55,0.37265
9905560,-0.03500,81.4375,96,55,0.36752
9905570,-0.00500,85.5000,96,55,0.36508
9905580,0.03000,89.1250,96,55,0.36264
9905590,0.06000,92.1875,96,55,0.36020
9905600,0.06000,92.1875,96,55,0.36020
9905610,0.12000,98.3125,96,55,0.35189
9905620,0.14500,99.4375,96,55,0.34921
9905630,0.17500,100.1875,96,55,0.34652
9905640,0.20500,100.9375,96,55,0.34335
9905650,0.21500,101.0000,96,55,0.34164
9905660,0.19000,100.8125,96,55,0.33944
9905670,0.14000,100.4375,96,55,0.33700
9905680,0.07500,99.1250,96,55,0.33236
9905690,0.01000,98.2500,96,55,0.33016
9905700,-0.03500,97.3125,96,55,0.32821
9905710,-0.07500,96.2500,96,55,0.32625
9905720,-0.09500,94.0625,96,55,0.32186
9905730,-0.10500,92.9375,96,55,0.32063
9905740,-0.11500,91.7500,96,55,0.31966
9905750,-0.11500,90.5000,96,55,0.31844
9905760,-0.11500,87.9375,96,55,0.31868
9905770,-0.11500,86.5625,96,55,0.32186
9905780,-0.11500,85.1250,96,55,0.32796
9905790,-0.11500,83.6250,96,55,0.33773
9905800,-0.11500,80.5625,96,55,0.36972
9905810,-0.11500,79.0000,96,55,0.39219
9905820,-0.11500,77.5625,96,55,0.41856
9905830,-0.12000,76.1875,96,55,0.44835
9905840,-0.12500,73.6250,96,55,0.50330
9905850,-0.12000,72.5000,96,55,0.53480
9905860,-0.12000,71.5000,96,55,0.56825
9905870,-0.11500,70.5625,96,55,0.60171
