RelativeTimeMilliseconds,ECG,ART,ART (Sys),ART (Dia),PPG
10200000,-0.19000,58.8125,94,55,0.56068
10200010,-0.19000,58.8125,94,55,0.55238
10200020,-0.24000,58.8125,94,55,0.54310
10200030,-0.20500,58.7500,94,55,0.55043
10200040,0.20500,58.6250,94,55,0.56703
10200050,0.99000,58.5000,94,55,0.56142
10200060,0.99000,58.5000,94,55,0.56142
10200070,1.00000,58.2500,94,55,0.54188
10200080,0.14500,57.9375,94,55,0.51990
10200090,-0.28500,57.6875,94,55,0.50745
10200100,-0.33000,57.4375,94,55,0.49499
10200110,-0.29000,57.1875,94,55,0.48278
10200120,-0.26500,56.6250,94,55,0.45910
10200130,-0.25500,56.3125,94,55,0.44811
10200140,-0.25000,56.0000,94,55,0.43761
10200150,-0.24500,55.6250,94,55,0.42784
10200160,-0.24000,55.0000,94,55,0.41074
10200170,-0.24000,54.6875,94,55,0.40440
10200180,-0.23000,54.3125,94,55,0.39927
10200190,-0.21500,54.0000,94,55,0.39438
10200200,-0.20000,53.4375,94,55,0.38559
10200210,-0.19000,53.1250,94,55,0.38193
10200220,-0.19000,52.9375,94,55,0.37875
10200230,-0.17500,52.6875,94,55,0.37558
10200240,-0.17500,52.6875,94,55,0.37558
10200250,-0.15000,52.3750,94,55,0.36630
10200260,-0.13500,52.5000,94,55,0.36386
10200270,-0.11500,52.8125,94,55,0.36215
10200280,-0.10000,54.8125,94,55,0.35922
10200290,-0.08000,56.6875,94,55,0.35751
10200300,-0.06000,59.1250,94,55,0.35604
10200310,-0.03000,61.9375,94,55,0.35482
10200320,-0.00500,68.3750,94,55,0.35263
10200330,0.02000,71.7500,94,55,0.35165
10200340,0.05000,75.0000,94,55,0.35043
10200350,0.09000,77.9375,94,55,0.34896
10200360,0.12000,82.8750,94,55,0.34554
10200370,0.15500,84.7500,94,55,0.34408
10200380,0.19500,86.2500,94,55,0.34286
10200390,0.22500,87.3125,94,55,0.34042
10200400,0.21500,88.5625,94,55,0.33407
10200410,0.17500,88.7500,94,55,0.33040
10200420,0.10500,88.6875,94,55,0.32650
10200430,0.03000,88.5000,94,55,0.32259
10200440,-0.03500,87.5625,94,55,0.31477
10200450,-0.07500,86.8125,94,55,0.31087
10200460,-0.10500,85.9375,94,55,0.30696
10200470,-0.12500,85.0000,94,55,0.30379
10200480,-0.13000,82.8750,94,55,0.29768
10200490,-0.13500,81.6875,94,55,0.29377
10200500,-0.13000,80.5000,94,55,0.29011
10200510,-0.12500,79.2500,94,55,0.28694
10200520,-0.12500,76.6250,94,55,0.28181
10200530,-0.12500,75.2500,94,55,0.28107
10200540,-0.13000,73.8125,94,55,0.28205
10200550,-0.13000,72.4375,94,55,0.28523
10200560,-0.13000,69.8750,94,55,0.30061
10200570,-0.13000,68.6875,94,55,0.31184
10200580,-0.13500,67.5625,94,55,0.32552
10200590,-0.13500,66.5000,94,55,0.34383
10200600,-0.13500,64.6250,94,55,0.39145
10200610,-0.13000,63.8125,94,55,0.41954
10200620,-0.12000,63.1250,94,55,0.44933
10200630,-0.10500,62.5625,94,55,0.47985
10200640,-0.09500,61.6250,94,55,0.53919
10200650,-0.08500,61.2500,94,55,0.56630
10200660,-0.06500,60.9375,94,55,0.59096
10200670,-0.05000,60.6250,94,55,0.61026
10200680,-0.06500,60.1875,94,55,0.64078
10200690,-0.08500,60.0000,94,55,0.65446
10200700,-0.11500,59.8125,94,55,0.66593
10200710,-0.14500,59.6875,94,55,0.67497
10200720,-0.18000,59.5000,94,55,0.68523
10200730,-0.19000,59.4375,94,55,0.68694
10200740,-0.19500,59.3750,94,55,0.68669
10200750,-0.18500,59.3125,94,55,0.68474
10200760,-0.18500,59.3125,94,55,0.68474
10200770,-0.16000,59.1250,94,55,0.66935
10200780,-0.16000,59.0625,94,55,0.66203
10200790,-0.20500,59.0000,94,55,0.65348
10200800,-0.20000,58.8125,94,55,0.63346
10200810,0.13000,58.6875,94,55,0.62198
10200820,0.91000,58.5000,94,55,0.61001
10200830,1.55000,58.4375,94,55,0.59756
10200840,1.15500,58.2500,94,55,0.57167
10200850,0.26500,58.1250,94,55,0.55824
10200860,-0.23000,58.0000,94,55,0.54457
10200870,-0.32500,57.9375,94,55,0.53211
10200880,-0.29000,57.6875,94,55,0.50818
10200890,-0.27000,57.5000,94,55,0.49573
10200900,-0.26000,57.3125,94,55,0.48327
10200910,-0.25000,57.1250,94,55,0.47131
10200920,-0.24000,56.7500,94,55,0.44957
10200930,-0.23000,56.5625,94,55,0.44005
10200940,-0.22000,56.3125,94,55,0.43150
10200950,-0.21000,56.0625,94,55,0.42369
10200960,-0.20500,55.5625,94,55,0.41050
10200970,-0.19000,55.3125,94,55,0.40537
10200980,-0.18000,55.0625,94,55,0.40098
10200990,-0.17000,54.8125,94,55,0.39609
10201000,-0.16000,54.3750,94,55,0.38632
10201010,-0.15000,54.2500,94,55,0.38217
10201020,-0.15000,54.1875,94,55,0.37827
10201030,-0.13500,54.3125,94,55,0.37460
10201040,-0.11500,55.5625,94,55,0.36825
10201050,-0.10000,57.0000,94,55,0.36581
10201060,-0.08500,59.0625,94,55,0.36337
10201070,-0.06000,61.6875,94,55,0.36190
10201080,-0.03500,68.1875,94,55,0.35897
10201090,-0.00500,71.7500,94,55,0.35653
10201100,0.03000,75.4375,94,55,0.35409
10201110,0.08000,79.0000,94,55,0.35165
10201120,0.11500,85.0625,94,55,0.34628
10201130,0.13500,87.5000,94,55,0.34383
10201140,0.15500,89.5000,94,55,0.34115
10201150,0.18500,91.0625,94,55,0.33846
10201160,0.21000,93.0625,94,55,0.33358
10201170,0.21500,93.5625,94,55,0.33211
10201180,0.17000,93.8750,94,55,0.33138
10201190,0.10000,93.9375,94,55,0.33065
10201200,0.02000,93.3125,94,55,0.32796
10201210,-0.04500,92.7500,94,55,0.32650
10201220,-0.09500,91.9375,94,55,0.32454
10201230,-0.12500,91.0625,94,55,0.32259
10201240,-0.14000,88.9375,94,55,0.31844
10201250,-0.14500,87.8125,94,55,0.31624
10201260,-0.13500,86.5625,94,55,0.31380
10201270,-0.12500,85.3125,94,55,0.31233
10201280,-0.13500,82.5625,94,55,0.30989
10201290,-0.14500,81.1250,94,55,0.30842
10201300,-0.14500,79.6875,94,55,0.30794
10201310,-0.12000,78.1875,94,55,0.30891
10201320,-0.11500,75.2500,94,55,0.31770
10201330,-0.11500,73.8125,94,55,0.32698
10201340,-0.12500,72.5000,94,55,0.34042
10201350,-0.13000,71.3125,94,55,0.35824
10201360,-0.13000,69.0625,94,55,0.40171
10201370,-0.12500,68.0625,94,55,0.42466
10201380,-0.12000,67.1875,94,55,0.45250
10201390,-0.10500,66.3750,94,55,0.48303
10201400,-0.08500,65.0625,94,55,0.54579
10201410,-0.07500,64.5000,94,55,0.57582
10201420,-0.07500,64.0625,94,55,0.60366
10201430,-0.05500,63.6250,94,55,0.62906
10201440,-0.05500,63.6250,94,55,0.62906
10201450,-0.05500,62.6875,94,55,0.68938
10201460,-0.08500,62.5000,94,55,0.70379
10201470,-0.10500,62.3750,94,55,0.71331
10201480,-0.14500,62.3125,94,55,0.72405
10201490,-0.18000,62.3125,94,55,0.72698
10201500,-0.20000,62.2500,94,55,0.72821
10201510,-0.20000,62.2500,94,55,0.72796
10201520,-0.20000,62.1875,94,55,0.72308
10201530,-0.18500,62.1250,94,55,0.71868
10201540,-0.18000,62.0000,94,55,0.71331
10201550,-0.18000,61.9375,94,55,0.70672
10201560,-0.23500,61.6875,94,55,0.69035
10201570,-0.21500,61.5625,94,55,0.68107
10201580,0.17500,61.3750,94,55,0.67057
10201590,0.99000,61.2500,94,55,0.65885
10201600,1.61500,60.8750,94,55,0.63248
10201610,1.26500,60.6250,94,55,0.61832
10201620,0.31000,60.3750,94,55,0.60366
10201630,-0.25000,60.1250,94,55,0.58877
10201640,-0.34000,59.5625,94,55,0.55897
10201650,-0.30500,59.2500,94,55,0.54481
10201660,-0.29000,58.9375,94,55,0.53162
10201670,-0.28000,58.6250,94,55,0.52015
10201680,-0.27000,58.0000,94,55,0.49963
10201690,-0.26000,57.6250,94,55,0.48938
10201700,-0.25000,57.3125,94,55,0.47961
10201710,-0.24500,57.0000,94,55,0.47033
10201720,-0.24000,56.3750,94,55,0.45397
10201730,-0.23000,56.0625,94,55,0.44664
10201740,-0.22000,55.7500,94,55,0.44005
10201750,-0.21000,55.5000,94,55,0.43419
10201760,-0.19000,55.0000,94,55,0.42466
10201770,-0.18000,54.7500,94,55,0.42125
10201780,-0.17000,54.5625,94,55,0.41807
10201790,-0.16000,54.5000,94,55,0.41514
10201800,-0.14500,54.8750,94,55,0.41001
10201810,-0.12500,55.6875,94,55,0.40806
10201820,-0.10500,57.1250,94,55,0.40635
10201830,-0.08500,59.1875,94,55,0.40464
10201840,-0.08500,59.1875,94,55,0.40464
10201850,-0.03500,68.4375,94,55,0.39878
10201860,-0.01000,72.1250,94,55,0.39683
10201870,-0.01000,72.1250,94,55,0.39683
10201880,0.04500,82.6875,94,55,0.39219
10201890,0.07500,85.5625,94,55,0.39023
10201900,0.10500,88.0000,94,55,0.38803
10201910,0.14000,90.0000,94,55,0.38559
10201920,0.17500,92.6250,94,55,0.38046
10201930,0.20500,93.4375,94,55,0.37753
10201940,0.21500,93.9375,94,55,0.37436
10201950,0.19000,94.1875,94,55,0.37094
10201960,0.14000,93.8750,94,55,0.36508
10201970,0.07000,93.3750,94,55,0.36313
10201980,0.00000,92.6875,94,55,0.36044
10201990,-0.04500,91.8125,94,55,0.35702
10202000,-0.07500,89.8750,94,55,0.34969
10202010,-0.10000,88.8125,94,55,0.34603
10202020,-0.11000,87.6250,94,55,0.34212
10202030,-0.11500,86.3750,94,55,0.33797
10202040,-0.11500,83.8750,94,55,0.33040
10202050,-0.11000,82.5625,94,55,0.32698
10202060,-0.11000,81.1875,94,55,0.32405
10202070,-0.11000,79.7500,94,55,0.32259
10202080,-0.11500,77.0000,94,55,0.30965
10202090,-0.12500,75.6250,94,55,0.31013
10202100,-0.12500,74.2500,94,55,0.31697
10202110,-0.12500,72.8750,94,55,0.32943
10202120,-0.12500,70.5000,94,55,0.37070
10202130,-0.12500,69.3750,94,55,0.39853
10202140,-0.12500,68.3750,94,55,0.43028
10202150,-0.12500,67.3750,94,55,0.46447
10202160,-0.11500,65.7500,94,55,0.53162
10202170,-0.09000,65.0625,94,55,0.55995
10202180,-0.05000,64.4375,94,55,0.59048
10202190,-0.04500,63.8750,94,55,0.62100
10202200,-0.05000,63.0625,94,55,0.67521
10202210,-0.03500,62.6875,94,55,0.69817
10202220,-0.02000,62.3125,94,55,0.71795
10202230,-0.03500,62.0625,94,55,0.73431
10202240,-0.05500,61.6875,94,55,0.75751
10202250,-0.08000,61.5625,94,55,0.76459
10202260,-0.11500,61.4375,94,55,0.76899
10202270,-0.14000,61.3750,94,55,0.76972
10202280,-0.15000,61.1250,94,55,0.76532
10202290,-0.15000,61.1250,94,55,0.76532
10202300,-0.13500,60.8125,94,55,0.75556
10202310,-0.13000,60.6875,94,55,0.74872
10202320,-0.12000,60.3750,94,55,0.73065
10202330,-0.13500,60.1875,94,55,0.71966
10202340,-0.17000,60.0000,94,55,0.70745
10202350,0.00000,59.8125,94,55,0.69426
10202360,0.00000,59.8125,94,55,0.69426
10202370,1.46500,59.0625,94,55,0.65299
10202380,1.72500,58.8750,94,55,0.63834
10202390,0.93000,58.6250,94,55,0.62320
10202400,0.03000,58.0625,94,55,0.59170
10202410,-0.28500,57.8125,94,55,0.57582
10202420,-0.29000,57.5625,94,55,0.56020
10202430,-0.26000,57.3125,94,55,0.54481
10202440,-0.26000,57.3125,94,55,0.54481
10202450,-0.25000,56.8125,94,55,0.51502
10202460,-0.23000,56.3125,94,55,0.48791
10202470,-0.22000,56.0625,94,55,0.47692
10202480,-0.20500,55.5625,94,55,0.45714
10202490,-0.19500,55.3125,94,55,0.44762
10202500,-0.19000,55.1250,94,55,0.43858
10202510,-0.19000,54.9375,94,55,0.43028
10202520,-0.20500,54.6250,94,55,0.41612
10202530,-0.20500,54.4375,94,55,0.41001
10202540,-0.19000,54.3125,94,55,0.40464
10202550,-0.18500,54.1875,94,55,0.39976
10202560,-0.17000,54.0000,94,55,0.39170
10202570,-0.16000,54.0625,94,55,0.38852
10202580,-0.14500,54.3750,94,55,0.38510
10202590,-0.14500,54.3750,94,55,0.38510
10202600,-0.10000,58.5000,94,55,0.37460
10202610,-0.08500,61.0000,94,55,0.37118
10202620,-0.06000,64.0000,94,55,0.36777
10202630,-0.03500,67.3125,94,55,0.36459
10202640,-0.01000,74.3750,94,55,0.35824
10202650,0.01500,77.8125,94,55,0.35482
10202660,0.04500,81.0000,94,55,0.35116
10202670,0.08000,83.8125,94,55,0.34847
10202680,0.11500,88.1250,94,55,0.34432
10202690,0.15000,89.6250,94,55,0.34164
10202700,0.19000,90.6875,94,55,0.33871
10202710,0.21500,91.3750,94,55,0.33578
10202720,0.20500,92.0000,94,55,0.32967
10202730,0.15000,91.8750,94,55,0.32674
10202740,0.08500,91.5625,94,55,0.32381
10202750,0.01500,91.0000,94,55,0.32063
10202760,-0.03500,89.3750,94,55,0.31551
10202770,-0.07500,88.4375,94,55,0.31404
10202780,-0.09500,87.3125,94,55,0.31184
10202790,-0.11500,86.1875,94,55,0.30965
10202800,-0.11500,83.6250,94,55,0.30501
10202810,-0.12000,82.3125,94,55,0.30256
10202820,-0.12500,81.0000,94,55,0.30037
10202830,-0.12500,79.6250,94,55,0.29841
10202840,-0.12500,76.6875,94,55,0.29670
10202850,-0.12500,76.6875,94,55,0.29670
10202860,-0.12500,73.8125,94,55,0.30134
10202870,-0.12500,72.3750,94,55,0.30720
10202880,-0.12500,69.6875,94,55,0.32772
10202890,-0.12500,68.4375,94,55,0.34432
10202900,-0.12500,67.3125,94,55,0.36557
10202910,-0.12500,66.1875,94,55,0.39048
10202920,-0.11500,64.3125,94,55,0.44908
10202930,-0.11000,63.5000,94,55,0.48132
10202940,-0.09500,62.8125,94,55,0.51404
10202950,-0.06500,62.2500,94,55,0.54652
10202960,-0.05500,61.1875,94,55,0.60317
10202970,-0.04500,60.7500,94,55,0.62418
10202980,-0.02500,60.3750,94,55,0.64567
10202990,-0.01500,60.0625,94,55,0.66569
10203000,-0.03000,59.6250,94,55,0.69744
10203010,-0.05500,59.4375,94,55,0.70867
10203020,-0.07500,59.2500,94,55,0.71697
10203030,-0.11500,59.1250,94,55,0.72210
10203040,-0.14500,58.9375,94,55,0.72503
10203050,-0.16000,58.8125,94,55,0.72308
10203060,-0.15500,58.6875,94,55,0.71917
10203070,-0.15000,58.5625,94,55,0.71355
10203080,-0.13500,58.3125,94,55,0.69768
10203090,-0.13000,58.1875,94,55,0.68791
10203100,-0.13500,58.1250,94,55,0.67717
10203110,-0.18000,58.0000,94,55,0.66545
10203120,-0.11000,57.6875,94,55,0.64054
10203130,0.37000,57.5625,94,55,0.62686
10203140,1.19000,57.3750,94,55,0.61245
10203150,1.61500,57.2500,94,55,0.59731
10203160,1.05500,56.9375,94,55,0.56679
10203170,0.15500,56.7500,94,55,0.55287
10203180,-0.27000,56.5625,94,55,0.53748
10203190,-0.30000,56.3750,94,55,0.52161
10203200,-0.25500,56.0625,94,55,0.49133
10203210,-0.24000,55.8750,94,55,0.47692
10203220,-0.22500,55.6250,94,55,0.46300
10203230,-0.22000,55.3750,94,55,0.44982
10203240,-0.20500,54.9375,94,55,0.42540
10203250,-0.20000,54.6875,94,55,0.41441
10203260,-0.19000,54.5000,94,55,0.40562
10203270,-0.18000,54.2500,94,55,0.39829
10203280,-0.17000,53.8125,94,55,0.38315
10203290,-0.16000,53.6250,94,55,0.37631
10203300,-0.15500,53.4375,94,55,0.36996
10203310,-0.14500,53.2500,94,55,0.36410
10203320,-0.13500,52.9375,94,55,0.35385
10203330,-0.12500,52.8125,94,55,0.34945
10203340,-0.10500,52.8125,94,55,0.34579
10203350,-0.09500,52.8750,94,55,0.34212
10203360,-0.07500,53.9375,94,55,0.33675
10203370,-0.06000,55.1875,94,55,0.33480
10203380,-0.03500,57.0625,94,55,0.33236
10203390,-0.01500,59.4375,94,55,0.32991
10203400,0.01500,65.3125,94,55,0.32503
10203410,0.04000,68.5625,94,55,0.32259
10203420,0.07000,71.8750,94,55,0.32015
10203430,0.10000,75.1250,94,55,0.31746
10203440,0.13000,80.8125,94,55,0.31184
10203450,0.16500,83.0625,94,55,0.30940
10203460,0.20500,84.9375,94,55,0.30769
10203470,0.24500,86.3750,94,55,0.30672
10203480,0.26500,88.1875,94,55,0.30281
10203490,0.25500,88.5625,94,55,0.30061
10203500,0.20500,88.7500,94,55,0.29768
10203510,0.13000,88.6250,94,55,0.29475
10203520,0.06000,87.7500,94,55,0.28889
10203530,0.00000,87.0000,94,55,0.28620
10203540,-0.04500,86.1875,94,55,0.28376
10203550,-0.07500,85.1875,94,55,0.28132
10203560,-0.08500,83.0000,94,55,0.27717
10203570,-0.10500,81.8125,94,55,0.27595
10203580,-0.11000,80.5000,94,55,0.27399
10203590,-0.11500,79.1875,94,55,0.27179
10203600,-0.11500,76.3750,94,55,0.26716
10203610,-0.11500,74.9375,94,55,0.26520
10203620,-0.11500,73.5000,94,55,0.26447
10203630,-0.11500,72.0625,94,55,0.26545
10203640,-0.11000,69.3125,94,55,0.27448
10203650,-0.11000,68.0625,94,55,0.28400
10203660,-0.11000,66.8125,94,55,0.29548
10203670,-0.11000,65.6875,94,55,0.30965
10203680,-0.10500,63.6875,94,55,0.35287
10203690,-0.10500,62.8125,94,55,0.38022
10203700,-0.10000,62.0625,94,55,0.41001
10203710,-0.09000,61.3750,94,55,0.44176
10203720,-0.06500,60.2500,94,55,0.50696
10203730,-0.05000,59.8125,94,55,0.53871
10203740,-0.04500,59.3750,94,55,0.56899
10203750,-0.02500,59.0625,94,55,0.59707
10203760,0.00000,58.5000,94,55,0.64103
10203770,-0.00500,58.3125,94,55,0.65543
10203780,-0.02500,58.1875,94,55,0.66886
10203790,-0.05500,58.0000,94,55,0.68034
10203800,-0.08500,57.8125,94,55,0.69475
10203810,-0.12500,57.7500,94,55,0.69768
10203820,-0.15000,57.6875,94,55,0.69792
10203830,-0.15500,57.6250,94,55,0.69573
10203840,-0.14500,57.5000,94,55,0.68596
10203850,-0.13500,57.4375,94,55,0.67814
10203860,-0.12500,57.3750,94,55,0.66960
10203870,-0.11500,57.2500,94,55,0.66007
10203880,-0.13500,57.0625,94,55,0.63687
10203890,-0.17500,56.9375,94,55,0.62344
10203900,-0.01500,56.7500,94,55,0.60879
10203910,0.60000,56.6250,94,55,0.59341
10203920,1.41500,56.2500,94,55,0.56117
10203930,1.48000,56.1250,94,55,0.54432
10203940,0.69000,55.9375,94,55,0.52747
10203950,-0.03500,55.7500,94,55,0.51062
10203960,-0.28000,55.3750,94,55,0.48059
10203970,-0.26500,55.1875,94,55,0.46813
10203980,-0.23000,55.0000,94,55,0.45519
10203990,-0.22000,54.7500,94,55,0.44200
10204000,-0.21000,54.3125,93,55,0.41636
10204010,-0.20000,54.1250,93,55,0.40464
10204020,-0.19000,53.9375,93,55,0.39341
10204030,-0.18500,53.7500,93,55,0.38315
10204040,-0.17500,53.3125,93,55,0.36508
10204050,-0.17000,53.1250,93,55,0.35726
10204060,-0.17000,53.0000,93,55,0.35140
10204070,-0.15500,52.8125,93,55,0.34701
10204080,-0.14500,52.4375,93,55,0.33773
10204090,-0.13500,52.2500,93,55,0.33382
10204100,-0.12000,52.1250,93,55,0.33040
10204110,-0.11000,52.0625,93,55,0.32747
10204120,-0.09500,52.1250,93,55,0.31868
10204130,-0.07500,52.5000,93,55,0.31087
10204140,-0.06000,53.1875,93,55,0.30598
10204150,-0.04500,54.3750,93,55,0.30256
10204160,-0.02500,58.5000,93,55,0.29866
10204170,-0.00500,61.1875,93,55,0.29768
10204180,0.02000,64.1875,93,55,0.29646
10204190,0.05000,67.3750,93,55,0.29499
10204200,0.08000,73.8750,93,55,0.29158
10204210,0.11000,76.8125,93,55,0.28938
10204220,0.14500,79.5000,93,55,0.28718
10204230,0.18000,81.8125,93,55,0.28498
10204240,0.22500,85.1250,93,55,0.28034
10204250,0.26000,86.1875,93,55,0.27790
10204260,0.27500,87.0000,93,55,0.27619
10204270,0.25000,87.5000,93,55,0.27497
10204280,0.18500,87.6875,93,55,0.27057
10204290,0.11000,87.4375,93,55,0.26789
10204300,0.03500,86.9375,93,55,0.26520
10204310,0.03500,86.9375,93,55,0.26520
10204320,-0.05500,84.6875,93,55,0.25739
10204330,-0.08500,83.6875,93,55,0.25495
10204340,-0.09500,82.6250,93,55,0.25275
10204350,-0.10500,81.5000,93,55,0.25031
10204360,-0.10500,79.0625,93,55,0.24640
10204370,-0.10500,77.8125,93,55,0.24542
10204380,-0.11000,76.5000,93,55,0.24396
10204390,-0.11000,75.1250,93,55,0.24274
10204400,-0.10500,72.3750,93,55,0.24249
10204410,-0.10500,70.9375,93,55,0.24518
10204420,-0.11000,69.5625,93,55,0.25079
10204430,-0.11000,68.3125,93,55,0.25958
10204440,-0.11000,68.3125,93,55,0.25958
10204450,-0.11500,64.8750,93,55,0.31111
10204460,-0.11500,63.8750,93,55,0.33236
10204470,-0.10500,62.9375,93,55,0.35458
10204480,-0.09500,61.3750,93,55,0.41197
10204490,-0.08000,60.6875,93,55,0.44371
10204500,-0.05500,60.1250,93,55,0.47595
10204510,-0.05000,59.6875,93,55,0.50745
10204520,-0.03500,58.8750,93,55,0.56606
10204530,-0.01000,58.5000,93,55,0.59170
10204540,0.00000,58.2500,93,55,0.61416
10204550,-0.02500,58.0000,93,55,0.63346
10204560,-0.05500,57.6250,93,55,0.66056
10204570,-0.08500,57.5000,93,55,0.66764
10204580,-0.11500,57.3750,93,55,0.67375
10204590,-0.14500,57.2500,93,55,0.67766
10204600,-0.15500,57.0625,93,55,0.67961
10204610,-0.15500,57.0000,93,55,0.67741
10204620,-0.15000,56.8750,93,55,0.67326
10204630,-0.13500,56.8125,93,55,0.66740
10204640,-0.12500,56.6250,93,55,0.65153
10204650,-0.13500,56.5000,93,55,0.64151
10204660,-0.19000,56.3750,93,55,0.63150
10204670,-0.12500,56.2500,93,55,0.62125
10204680,0.31500,56.0000,93,55,0.59683
10204690,1.14500,55.8750,93,55,0.58339
10204700,1.60000,55.7500,93,55,0.56923
10204710,0.99500,55.6250,93,55,0.55433
10204720,0.13000,55.3750,93,55,0.52357
10204730,-0.24500,55.2500,93,55,0.50842
10204740,-0.29000,55.1250,93,55,0.49353
10204750,-0.26000,54.9375,93,55,0.47888
10204760,-0.24000,54.5625,93,55,0.45275
10204770,-0.23000,54.3750,93,55,0.44200
10204780,-0.21500,54.1875,93,55,0.43028
10204790,-0.21000,53.9375,93,55,0.41880
10204800,-0.20000,53.5625,93,55,0.39780
10204810,-0.19000,53.3750,93,55,0.38877
10204820,-0.18000,53.1875,93,55,0.38046
10204830,-0.18000,53.1875,93,55,0.38046
10204840,-0.16000,52.5625,93,55,0.36020
10204850,-0.15500,52.3750,93,55,0.35433
10204860,-0.14000,52.1875,93,55,0.34969
10204870,-0.13000,52.0000,93,55,0.34579
10204880,-0.12000,51.7500,93,55,0.33748
10204890,-0.11000,51.8125,93,55,0.33382
10204900,-0.11000,51.8125,93,55,0.33382
10204910,-0.08000,52.5625,93,55,0.32772
10204920,-0.06000,55.2500,93,55,0.32259
10204930,-0.04000,57.4375,93,55,0.31966
10204940,-0.01500,60.0625,93,55,0.31697
10204950,0.00500,63.0000,93,55,0.31429
10204960,0.03000,69.6250,93,55,0.31038
10204970,0.06000,72.9375,93,55,0.30940
10204980,0.09000,76.1250,93,55,0.30769
10204990,0.12000,79.0625,93,55,0.30574
10205000,0.15000,83.6875,93,55,0.30061
10205010,0.18500,85.5000,93,55,0.29817
10205020,0.22000,86.8750,93,55,0.29573
10205030,0.24500,87.8750,93,55,0.29328
10205040,0.24000,88.8750,93,55,0.28913
10205050,0.19000,89.0625,93,55,0.28718
10205060,0.12000,89.0000,93,55,0.28571
10205070,0.04000,88.7500,93,55,0.28474
10205080,-0.02000,87.6875,93,55,0.28107
10205090,-0.06500,86.9375,93,55,0.27863
10205100,-0.09000,86.0625,93,55,0.27595
10205110,-0.11000,85.1250,93,55,0.27326
10205120,-0.11500,83.0000,93,55,0.26740
10205130,-0.12500,81.8125,93,55,0.26447
10205140,-0.12500,80.6250,93,55,0.26178
10205150,-0.12500,79.3750,93,55,0.25958
10205160,-0.12500,76.8750,93,55,0.25885
10205170,-0.12500,75.5000,93,55,0.25885
10205180,-0.12500,74.1250,93,55,0.26007
10205190,-0.12500,72.7500,93,55,0.26349
10205200,-0.12500,70.1250,93,55,0.27985
10205210,-0.12000,68.9375,93,55,0.29377
10205220,-0.12000,67.7500,93,55,0.31209
10205230,-0.12500,66.6250,93,55,0.33455
10205240,-0.12000,64.6250,93,55,0.38974
10205250,-0.11500,63.7500,93,55,0.42076
10205260,-0.10500,63.0000,93,55,0.44884
10205270,-0.08500,62.3750,93,55,0.47497
10205280,-0.06500,61.2500,93,55,0.53431
10205290,-0.05500,60.8125,93,55,0.56337
10205300,-0.03500,60.3750,93,55,0.59023
10205310,-0.01500,60.0625,93,55,0.61465
10205320,-0.02500,59.5000,93,55,0.65372
10205330,-0.05000,59.2500,93,55,0.66838
10205340,-0.07000,59.0625,93,55,0.67961
10205350,-0.10500,58.8750,93,55,0.68791
10205360,-0.14000,58.6250,93,55,0.69451
10205370,-0.16000,58.5000,93,55,0.69548
10205380,-0.17000,58.4375,93,55,0.69475
10205390,-0.16500,58.3750,93,55,0.69255
10205400,-0.15500,58.1875,93,55,0.68352
10205410,-0.15000,58.0625,93,55,0.67692
10205420,-0.14000,58.0000,93,55,0.66886
10205430,-0.17000,57.8750,93,55,0.65934
10205440,-0.21500,57.6250,93,55,0.63785
10205450,-0.01500,57.5000,93,55,0.62540
10205460,0.64000,57.3750,93,55,0.61343
10205470,1.45000,57.1875,93,55,0.60122
10205480,1.51500,56.8750,93,55,0.57338
10205490,0.66000,56.6875,93,55,0.55873
10205500,-0.09500,56.5000,93,55,0.54359
10205510,-0.31500,56.3125,93,55,0.52845
10205520,-0.30500,56.0625,93,55,0.49866
10205530,-0.27500,55.8750,93,55,0.48425
10205540,-0.26000,55.6250,93,55,0.47033
10205550,-0.25000,55.4375,93,55,0.45739
10205560,-0.24000,55.0625,93,55,0.43687
10205570,-0.23000,54.8125,93,55,0.42686
10205580,-0.22500,54.6250,93,55,0.41734
10205590,-0.22000,54.4375,93,55,0.40781
10205600,-0.21000,54.0625,93,55,0.38999
10205610,-0.21000,53.8750,93,55,0.38193
10205620,-0.19500,53.6875,93,55,0.37460
10205630,-0.18000,53.5625,93,55,0.36801
10205640,-0.17000,53.2500,93,55,0.35726
10205650,-0.16000,53.1875,93,55,0.35263
10205660,-0.14500,53.1875,93,55,0.34896
10205670,-0.13500,53.3750,93,55,0.34603
10205680,-0.11500,54.8125,93,55,0.33944
10205690,-0.09500,56.3125,93,55,0.33602
10205700,-0.07500,58.4375,93,55,0.33309
10205710,-0.05500,61.1250,93,55,0.33040
10205720,-0.03000,67.6250,93,55,0.32503
10205730,-0.00500,71.2500,93,55,0.32210
10205740,0.02000,74.8750,93,55,0.31917
10205750,0.05000,78.3750,93,55,0.31624
10205760,0.08500,84.3750,93,55,0.31233
10205770,0.12000,86.7500,93,55,0.31038
10205780,0.15000,88.6875,93,55,0.30818
10205790,0.18500,90.1875,93,55,0.30574
10205800,0.18500,90.1875,93,55,0.30574
10205810,0.24000,92.5625,93,55,0.29866
10205820,0.22500,92.8125,93,55,0.29621
10205830,0.22500,92.8125,93,55,0.29621
10205840,0.10000,92.0625,93,55,0.28864
10205850,0.03000,91.4375,93,55,0.28620
10205860,-0.03000,90.6875,93,55,0.28474
10205870,-0.07000,89.8750,93,55,0.28376
10205880,-0.09500,87.8750,93,55,0.28010
10205890,-0.10500,86.8125,93,55,0.27790
10205900,-0.11500,85.6250,93,55,0.27570
10205910,-0.12000,84.4375,93,55,0.27302
10205920,-0.12500,82.0625,93,55,0.26764
10205930,-0.12500,80.8750,93,55,0.26569
10205940,-0.12000,79.6250,93,55,0.26471
10205950,-0.12000,78.3125,93,55,0.26545
10205960,-0.12000,75.6250,93,55,0.27326
10205970,-0.12000,74.3125,93,55,0.28156
10205980,-0.12500,73.0625,93,55,0.29426
10205990,-0.12500,71.8125,93,55,0.31136
10206000,-0.12500,69.5000,93,55,0.35897
10206010,-0.12500,68.4375,93,55,0.38877
10206020,-0.12500,67.4375,93,55,0.42173
10206030,-0.12000,66.5625,93,55,0.45641
10206040,-0.10500,65.0000,93,55,0.52747
10206050,-0.08000,64.3750,93,55,0.56166
10206060,-0.07000,63.8125,93,55,0.58950
10206070,-0.06500,63.3125,93,55,0.61294
10206080,-0.04000,62.4375,93,55,0.65910
10206090,-0.03000,62.0625,93,55,0.67888
10206100,-0.05000,61.8125,93,55,0.69597
10206110,-0.07500,61.5625,93,55,0.70989
10206120,-0.10500,61.1250,93,55,0.72821
10206130,-0.14500,60.9375,93,55,0.73309
10206140,-0.17000,60.8125,93,55,0.73553
10206150,-0.18000,60.6250,93,55,0.73578
10206160,-0.18000,60.5000,93,55,0.72821
10206170,-0.17000,60.4375,93,55,0.72503
10206180,-0.16000,60.3125,93,55,0.72210
10206190,-0.15500,60.2500,93,55,0.71551
10206200,-0.16500,60.0625,93,55,0.69695
10206210,-0.21500,59.9375,93,55,0.68596
10206220,-0.09500,59.8125,93,55,0.67375
10206230,0.49000,59.6875,93,55,0.66081
10206240,1.37500,59.4375,93,55,0.63321
10206250,1.68500,59.3125,93,55,0.61832
10206260,0.97500,59.1250,93,55,0.60464
10206270,0.07000,59.0000,93,55,0.59145
10206280,-0.30500,58.6875,93,55,0.56264
10206290,-0.31500,58.5000,93,55,0.54774
10206300,-0.29000,58.3125,93,55,0.53309
10206310,-0.27500,58.1250,93,55,0.51868
10206320,-0.26500,57.7500,93,55,0.49133
10206330,-0.25500,57.5625,93,55,0.47863
10206340,-0.24500,57.3125,93,55,0.46667
10206350,-0.24000,57.1250,93,55,0.45568
10206360,-0.23000,56.6250,93,55,0.43858
10206370,-0.22000,56.4375,93,55,0.43077
10206380,-0.21000,56.1875,93,55,0.42344
10206390,-0.21000,56.1875,93,55,0.42344
10206400,-0.19500,55.5625,93,55,0.40562
10206410,-0.18500,55.3750,93,55,0.40122
10206420,-0.18500,55.3750,93,55,0.40122
10206430,-0.17000,55.1250,93,55,0.39414
10206440,-0.15500,55.3125,93,55,0.38730
10206450,-0.14000,55.8750,93,55,0.38413
10206460,-0.12000,57.0000,93,55,0.38144
10206470,-0.10500,58.7500,93,55,0.37900
10206480,-0.08500,64.1250,93,55,0.37411
10206490,-0.06000,67.4375,93,55,0.37192
10206500,-0.04000,71.0625,93,55,0.36972
10206510,-0.01500,74.8125,93,55,0.36801
10206520,0.01500,81.9375,93,55,0.36557
10206530,0.04500,85.0625,93,55,0.36410
10206540,0.07500,87.7500,93,55,0.36239
10206550,0.10500,89.9375,93,55,0.36068
10206560,0.14000,92.9375,93,55,0.35873
10206570,0.17000,93.8750,93,55,0.35751
10206580,0.19500,94.5000,93,55,0.35653
10206590,0.19500,94.8125,93,55,0.35556
10206600,0.15500,94.6875,93,55,0.35409
10206610,0.09500,94.3125,93,55,0.35336
10206620,0.03000,93.7500,93,55,0.35214
10206630,-0.03000,93.0000,93,55,0.35067
10206640,-0.07500,91.1250,93,55,0.34750
10206650,-0.10000,90.0625,93,55,0.34579
10206660,-0.12000,88.9375,93,55,0.34481
10206670,-0.12000,88.9375,93,55,0.34481
10206680,-0.13500,85.2500,93,55,0.34066
10206690,-0.13500,84.0000,93,55,0.33919
10206700,-0.13500,82.6875,93,55,0.33797
10206710,-0.13500,81.3125,93,55,0.33724
10206720,-0.13500,78.5000,93,55,0.34017
10206730,-0.13000,77.0000,93,55,0.34530
10206740,-0.13500,75.5000,93,55,0.35409
10206750,-0.13500,74.1250,93,55,0.36679
10206760,-0.13000,71.5000,93,55,0.39805
10206770,-0.12500,70.3125,93,55,0.42076
10206780,-0.12500,69.1875,93,55,0.44811
10206790,-0.11500,68.1250,93,55,0.47888
10206800,-0.11000,66.1875,93,55,0.54701
10206810,-0.09500,65.3750,93,55,0.58193
10206820,-0.07500,64.6250,93,55,0.61612
10206830,-0.05500,63.9375,93,55,0.64884
10206840,-0.05500,63.9375,93,55,0.64884
10206850,-0.03000,62.3750,93,55,0.72674
10206860,-0.01000,62.0000,93,55,0.74261
10206870,-0.01500,61.6875,93,55,0.75849
10206880,-0.03500,61.1250,93,55,0.78413
10206890,-0.05500,60.8750,93,55,0.79316
10206900,-0.09500,60.6250,93,55,0.79976
10206910,-0.13000,60.4375,93,55,0.80391
10206920,-0.14500,60.1875,93,55,0.80586
10206930,-0.14500,60.0000,93,55,0.80366
10206940,-0.14000,59.8750,93,55,0.79976
10206950,-0.13000,59.6875,93,55,0.79438
10206960,-0.12500,59.3750,93,55,0.77900
10206970,-0.12000,59.2500,93,55,0.76972
10206980,-0.16500,59.1250,93,55,0.75946
10206990,-0.14500,59.0000,93,55,0.74799
10207000,0.24500,58.6250,93,55,0.72210
10207010,1.04500,58.5000,93,55,0.70794
10207020,1.66000,58.3125,93,55,0.69328
10207030,1.32500,58.1250,93,55,0.67863
10207040,0.37000,57.8125,93,55,0.64786
10207050,-0.20500,57.6875,93,55,0.63321
10207060,-0.29500,57.4375,93,55,0.61905
10207070,-0.25500,57.2500,93,55,0.60391
10207080,-0.24000,56.7500,93,55,0.57289
10207090,-0.22500,56.5625,93,55,0.55775
10207100,-0.22000,56.3125,93,55,0.54286
10207110,-0.21000,56.1250,93,55,0.52869
10207120,-0.20000,55.6250,93,55,0.50232
10207130,-0.19000,55.3750,93,55,0.49011
10207140,-0.19000,55.1875,93,55,0.47863
10207150,-0.18500,54.9375,93,55,0.46813
10207160,-0.17500,54.5625,93,55,0.45177
10207170,-0.16500,54.3750,93,55,0.44396
10207180,-0.16000,54.1875,93,55,0.43614
10207190,-0.15500,54.0000,93,55,0.42882
10207200,-0.14000,53.7500,93,55,0.41587
10207210,-0.12500,53.7500,93,55,0.40977
10207220,-0.11000,54.0000,93,55,0.40366
10207230,-0.09500,54.6250,93,55,0.39756
10207240,-0.07500,57.5000,93,55,0.38559
10207250,-0.05500,59.8125,93,55,0.38046
10207260,-0.03500,62.6250,93,55,0.37607
10207270,-0.00500,65.7500,93,55,0.37094
10207280,0.02000,72.6250,93,55,0.36044
10207290,0.05000,76.0625,93,55,0.35556
10207300,0.08000,79.3125,93,55,0.35092
10207310,0.11500,82.2500,93,55,0.34676
10207320,0.14500,86.6875,93,55,0.33895
10207330,0.18000,88.3125,93,55,0.33504
10207340,0.21500,89.5000,93,55,0.33089
10207350,0.25000,90.3750,93,55,0.32698
10207360,0.25500,91.2500,93,55,0.32161
10207370,0.22000,91.2500,93,55,0.31844
10207380,0.15500,91.0000,93,55,0.31477
10207390,0.08000,90.5625,93,55,0.31087
10207400,0.01500,89.2500,93,55,0.30330
10207410,-0.03500,88.3125,93,55,0.29988
10207420,-0.06000,87.3125,93,55,0.29646
10207430,-0.08000,86.1875,93,55,0.29280
10207440,-0.09500,83.7500,93,55,0.28645
10207450,-0.09500,82.4375,93,55,0.28449
10207460,-0.10500,81.1250,93,55,0.28327
10207470,-0.10500,79.8125,93,55,0.28181
10207480,-0.10500,77.0625,93,55,0.27863
10207490,-0.10500,75.6250,93,55,0.27790
10207500,-0.11000,74.1875,93,55,0.27863
10207510,-0.11000,72.7500,93,55,0.28156
10207520,-0.11500,70.0625,93,55,0.29768
10207530,-0.11500,68.7500,93,55,0.31209
10207540,-0.11500,67.5625,93,55,0.33089
10207550,-0.11000,66.5000,93,55,0.35409
10207560,-0.11000,64.5000,93,55,0.40122
10207570,-0.10500,63.6875,93,55,0.43004
10207580,-0.09500,62.9375,93,55,0.46178
10207590,-0.07500,62.2500,93,55,0.49475
10207600,-0.05500,61.1250,93,55,0.55849
10207610,-0.04500,60.6875,93,55,0.58755
10207620,-0.04000,60.3125,93,55,0.61368
10207630,-0.01500,59.9375,93,55,0.63663
10207640,-0.00500,59.3750,93,55,0.67302
10207650,-0.02000,59.1250,93,55,0.68449
10207660,-0.04500,58.9375,93,55,0.69206
10207670,-0.07000,58.8125,93,55,0.69866
10207680,-0.11000,58.5625,93,55,0.70598
10207690,-0.14000,58.4375,93,55,0.70623
10207700,-0.15000,58.3125,93,55,0.70427
10207710,-0.15000,58.2500,93,55,0.70061
10207720,-0.14500,58.0625,93,55,0.68840
10207730,-0.13500,57.9375,93,55,0.68010
10207740,-0.12500,57.8125,93,55,0.67057
10207750,-0.12500,57.6250,93,55,0.66007
10207760,-0.17500,57.3750,93,55,0.63907
10207770,-0.13500,57.2500,93,55,0.62711
10207780,0.30000,57.1250,93,55,0.61416
10207790,1.11500,57.0000,93,55,0.60024
10207800,1.59000,56.6875,93,55,0.57045
10207810,1.10000,56.5625,93,55,0.55507
10207820,0.20500,56.3750,93,55,0.53944
10207830,-0.25000,56.1875,93,55,0.52381
10207840,-0.29500,55.8125,93,55,0.49304
10207850,-0.25500,55.6250,93,55,0.47985
10207860,-0.23500,55.5000,93,55,0.46813
10207870,-0.22500,55.3125,93,55,0.45592
10207880,-0.22000,54.8750,93,55,0.43150
10207890,-0.21000,54.6875,93,55,0.42027
10207900,-0.20000,54.4375,93,55,0.40977
10207910,-0.19000,54.2500,93,55,0.40000
10207920,-0.18500,53.8750,93,55,0.38291
10207930,-0.18000,53.6875,93,55,0.37582
10207940,-0.17000,53.4375,93,55,0.36947
10207950,-0.15500,53.2500,93,55,0.36386
10207960,-0.15000,52.9375,93,55,0.35678
10207970,-0.14000,52.8125,93,55,0.35336
10207980,-0.13000,52.6875,93,55,0.34994
10207990,-0.11500,52.6250,93,55,0.34676
10208000,-0.09500,52.9375,92,54,0.34115
10208010,-0.07500,53.6250,92,54,0.33871
10208020,-0.06000,54.8750,92,54,0.33626
10208030,-0.04500,56.6250,92,54,0.33407
10208040,-0.02500,61.6875,92,54,0.32943
10208050,0.00000,64.6875,92,54,0.32772
10208060,0.03000,67.8750,92,54,0.32650
10208070,0.06000,71.1250,92,54,0.32479
10208080,0.09000,77.3125,92,54,0.32137
10208090,0.12500,80.0000,92,54,0.31941
10208100,0.16000,82.3125,92,54,0.31746
10208110,0.20000,84.2500,92,54,0.31575
10208120,0.23500,86.8750,92,54,0.31233
10208130,0.26500,87.6250,92,54,0.31038
10208140,0.26000,88.1250,92,54,0.30818
10208150,0.21500,88.3750,92,54,0.30623
10208160,0.14000,88.1250,92,54,0.30403
10208170,0.06000,87.7500,92,54,0.30256
10208180,-0.00500,87.1250,92,54,0.30061
10208190,-0.05500,86.3750,92,54,0.29866
10208200,-0.08500,84.5000,92,54,0.29475
10208210,-0.10000,83.4375,92,54,0.29255
10208220,-0.11000,82.3125,92,54,0.28376
10208230,-0.11500,81.1250,92,54,0.27179
10208240,-0.11000,78.5625,92,54,0.26081
10208250,-0.11500,77.2500,92,54,0.25885
10208260,-0.11500,75.9375,92,54,0.25836
10208270,-0.11500,74.5000,92,54,0.25812
10208280,-0.11500,71.6250,92,54,0.26032
10208290,-0.11500,70.2500,92,54,0.26447
10208300,-0.11500,68.9375,92,54,0.27131
10208310,-0.11500,67.6250,92,54,0.28156
10208320,-0.11500,65.3750,92,54,0.31380
10208330,-0.12000,64.3750,92,54,0.33553
10208340,-0.12000,63.5000,92,54,0.36068
10208350,-0.10500,62.6875,92,54,0.38803
10208360,-0.09500,61.2500,92,54,0.43736
10208370,-0.07500,60.6250,92,54,0.46496
10208380,-0.06500,60.1250,92,54,0.49353
10208390,-0.06500,60.1250,92,54,0.49353
10208400,-0.03500,58.9375,92,54,0.57167
10208410,-0.01500,58.6875,92,54,0.59292
10208420,-0.02500,58.4375,92,54,0.61123
10208430,-0.04500,58.2500,92,54,0.62662
10208440,-0.04500,58.2500,92,54,0.62662
10208450,-0.10500,57.7500,92,54,0.65421
10208460,-0.14500,57.6250,92,54,0.65665
10208470,-0.17000,57.5000,92,54,0.65812
10208480,-0.17000,57.3125,92,54,0.65641
10208490,-0.17000,57.3125,92,54,0.65641
10208500,-0.15500,57.1250,92,54,0.64786
10208510,-0.14500,57.0625,92,54,0.64127
10208520,-0.13500,56.8750,92,54,0.62466
10208530,-0.16500,56.7500,92,54,0.61441
10208540,-0.20500,56.6875,92,54,0.60269
10208550,-0.00500,56.5625,92,54,0.58999
10208560,0.66000,56.2500,92,54,0.56606
10208570,1.46000,56.1875,92,54,0.55287
10208580,1.42000,56.0625,92,54,0.53895
10208590,0.57500,55.9375,92,54,0.52454
10208600,-0.10500,55.6250,92,54,0.49548
10208610,-0.30500,55.5000,92,54,0.48083
10208620,-0.28500,55.3125,92,54,0.46618
10208630,-0.25000,55.1875,92,54,0.45177
10208640,-0.24000,54.8750,92,54,0.42442
10208650,-0.24000,54.8750,92,54,0.42442
10208660,-0.22000,54.5000,92,54,0.40391
10208670,-0.21000,54.3125,92,54,0.39390
10208680,-0.20000,53.9375,92,54,0.37485
10208690,-0.19500,53.8125,92,54,0.36606
10208700,-0.19000,53.6250,92,54,0.35775
10208710,-0.18000,53.5000,92,54,0.35018
10208720,-0.17000,53.0625,92,54,0.33700
10208730,-0.16000,52.8125,92,54,0.33162
10208740,-0.14500,52.5625,92,54,0.32674
10208750,-0.13500,52.4375,92,54,0.32332
10208760,-0.12500,52.3125,92,54,0.31746
10208770,-0.11000,52.4375,92,54,0.31429
10208780,-0.09500,52.8125,92,54,0.31160
10208790,-0.07500,53.5625,92,54,0.30916
10208800,-0.06000,56.8125,92,54,0.30452
10208810,-0.04000,59.1875,92,54,0.30232
10208820,-0.01500,61.9375,92,54,0.30012
10208830,0.01000,65.0000,92,54,0.29792
10208840,0.03500,71.5000,92,54,0.29402
10208850,0.06500,74.7500,92,54,0.29304
10208860,0.09500,77.7500,92,54,0.29255
10208870,0.13000,80.3750,92,54,0.29158
10208880,0.16000,84.5000,92,54,0.28889
10208890,0.19500,86.0000,92,54,0.28718
10208900,0.23500,87.1875,92,54,0.28547
10208910,0.24500,88.0000,92,54,0.28400
10208920,0.21500,88.8125,92,54,0.28059
10208930,0.15500,88.8750,92,54,0.27888
10208940,0.08000,88.6875,92,54,0.27717
10208950,0.00500,88.3125,92,54,0.27619
10208960,-0.04500,87.0625,92,54,0.27497
10208970,-0.08000,86.2500,92,54,0.27350
10208980,-0.10000,85.3125,92,54,0.27179
10208990,-0.11500,84.3125,92,54,0.26984
10209000,-0.12000,82.0625,91,54,0.26545
10209010,-0.12500,80.8750,91,54,0.26349
10209020,-0.12500,79.6250,91,54,0.26154
10209030,-0.12500,78.3750,91,54,0.26032
10209040,-0.12500,75.6875,91,54,0.25958
10209050,-0.12500,74.3125,91,54,0.26081
10209060,-0.12500,72.9375,91,54,0.26349
10209070,-0.12500,71.5625,91,54,0.26789
10209080,-0.12500,68.9375,91,54,0.28498
10209090,-0.12500,67.6875,91,54,0.29866
10209100,-0.12500,66.5625,91,54,0.31624
10209110,-0.12500,65.5625,91,54,0.33748
10209120,-0.12500,63.6875,91,54,0.38950
10209130,-0.11500,62.8750,91,54,0.41856
10209140,-0.10000,62.1875,91,54,0.44860
10209150,-0.08000,61.5625,91,54,0.47497
10209160,-0.06500,60.4375,91,54,0.52454
10209170,-0.06000,60.0000,91,54,0.55018
10209180,-0.04500,59.6250,91,54,0.57387
10209190,-0.02500,59.3125,91,54,0.59512
10209200,-0.03500,58.7500,91,54,0.62979
10209210,-0.06000,58.5625,91,54,0.64274
10209220,-0.08500,58.3125,91,54,0.65275
10209230,-0.11500,58.1875,91,54,0.66007
10209240,-0.15500,57.8750,91,54,0.66618
10209250,-0.17000,57.7500,91,54,0.66545
10209260,-0.17000,57.6250,91,54,0.66276
10209270,-0.17000,57.5000,91,54,0.65910
10209280,-0.16000,57.3125,91,54,0.64835
10209290,-0.15000,57.1875,91,54,0.64127
10209300,-0.14500,57.0625,91,54,0.63297
10209310,-0.18000,57.0000,91,54,0.62344
10209320,-0.21000,56.6875,91,54,0.60171
10209330,0.00500,56.5625,91,54,0.58950
10209340,0.70000,56.4375,91,54,0.57680
10209350,1.49000,56.3125,91,54,0.56435
10209360,1.40500,56.0625,91,54,0.53871
10209370,0.54000,55.9375,91,54,0.52479
10209380,-0.12500,55.8125,91,54,0.51038
10209390,-0.31000,55.6250,91,54,0.49597
10209400,-0.31000,55.6250,91,54,0.49597
10209410,-0.26000,55.0625,91,54,0.45446
10209420,-0.25000,54.9375,91,54,0.44151
10209430,-0.24000,54.7500,91,54,0.42930
10209440,-0.23500,54.4375,91,54,0.40659
10209450,-0.22500,54.3125,91,54,0.39756
10209460,-0.22000,54.1250,91,54,0.38974
10209470,-0.21000,54.0000,91,54,0.38169
10209480,-0.20000,53.6250,91,54,0.36654
10209490,-0.19000,53.5000,91,54,0.35995
10209500,-0.18500,53.3125,91,54,0.35360
10209510,-0.17000,53.1875,91,54,0.34750
10209520,-0.16000,52.9375,91,54,0.33675
10209530,-0.15500,52.8125,91,54,0.33138
10209540,-0.14000,52.8125,91,54,0.32698
10209550,-0.14000,52.8125,91,54,0.32698
10209560,-0.11000,54.2500,91,54,0.31990
10209570,-0.09000,55.7500,91,54,0.31697
10209580,-0.07500,57.8125,91,54,0.31453
10209590,-0.05500,60.3750,91,54,0.31160
10209600,-0.03000,66.6250,91,54,0.30403
10209610,0.00000,70.0000,91,54,0.30159
10209620,0.02000,73.5000,91,54,0.29915
10209630,0.05000,76.9375,91,54,0.29621
10209640,0.08000,82.8750,91,54,0.29304
10209650,0.11000,85.2500,91,54,0.29133
10209660,0.14000,87.1875,91,54,0.28913
10209670,0.17500,88.6875,91,54,0.28718
10209680,0.20500,90.7500,91,54,0.28181
10209690,0.22500,91.3125,91,54,0.27888
10209700,0.19500,91.6875,91,54,0.27643
10209710,0.14000,91.8125,91,54,0.27424
10209720,0.06500,91.3125,91,54,0.27057
10209730,0.00000,90.8125,91,54,0.26886
10209740,-0.05500,90.1875,91,54,0.26789
10209750,-0.09500,89.4375,91,54,0.26716
10209760,-0.11500,87.6250,91,54,0.26398
10209770,-0.13000,86.5625,91,54,0.26227
10209780,-0.14000,85.4375,91,54,0.26056
10209790,-0.13500,84.2500,91,54,0.25910
10209800,-0.13500,81.7500,91,54,0.25763
10209810,-0.13500,80.5000,91,54,0.25763
10209820,-0.13500,79.1250,91,54,0.25910
10209830,-0.13500,77.8125,91,54,0.26227
10209840,-0.13500,75.0000,91,54,0.27473
10209850,-0.13500,73.6250,91,54,0.28449
10209860,-0.13500,72.3125,91,54,0.29841
10209870,-0.13500,71.0625,91,54,0.31648
10209880,-0.13500,68.6250,91,54,0.36435
10209890,-0.13500,67.5000,91,54,0.39292
10209900,-0.13500,66.5625,91,54,0.42320
10209910,-0.13000,65.6875,91,54,0.45446
10209920,-0.12000,64.2500,91,54,0.51600
10209930,-0.10000,63.6250,91,54,0.54530
10209940,-0.08000,63.0625,91,54,0.56899
10209950,-0.07500,62.5625,91,54,0.58877
10209960,-0.06500,61.6875,91,54,0.62735
10209970,-0.04000,61.3750,91,54,0.64371
10209980,-0.03500,61.0625,91,54,0.65739
10209990,-0.05500,60.8125,91,54,0.66813
10210000,-0.08000,60.3750,91,54,0.68181
10210010,-0.11000,60.2500,91,54,0.68523
10210020,-0.14500,60.0625,91,54,0.68645
10210030,-0.17000,60.0000,91,54,0.68571
10210040,-0.17000,60.0000,91,54,0.68571
10210050,-0.17500,59.6875,91,54,0.67302
10210060,-0.17000,59.5625,91,54,0.66642
10210070,-0.16000,59.4375,91,54,0.65885
10210080,-0.15500,59.1875,91,54,0.64029
10210090,-0.17500,59.0625,91,54,0.62955
10210100,-0.22000,58.9375,91,54,0.61783
10210110,-0.06500,58.8125,91,54,0.60488
10210120,0.56000,58.5000,91,54,0.57705
10210130,1.43000,58.3125,91,54,0.56239
10210140,1.62000,58.1875,91,54,0.54872
10210150,0.83500,58.0000,91,54,0.53578
10210160,-0.00500,57.6875,91,54,0.50745
10210170,-0.31500,57.5000,91,54,0.49304
10210180,-0.31500,57.3125,91,54,0.47888
10210190,-0.28500,57.1250,91,54,0.46520
10210200,-0.27500,56.8125,91,54,0.43932
10210210,-0.26000,56.6250,91,54,0.42711
10210220,-0.25500,56.4375,91,54,0.41563
10210230,-0.24500,56.2500,91,54,0.40464
10210240,-0.24000,55.8750,91,54,0.38632
10210250,-0.23000,55.6875,91,54,0.37949
10210260,-0.22000,55.5000,91,54,0.37509
10210270,-0.21000,55.3125,91,54,0.37192
10210280,-0.20000,54.9375,91,54,0.36142
10210290,-0.19000,54.7500,91,54,0.35580
10210300,-0.18000,54.5625,91,54,0.35043
10210310,-0.17000,54.4375,91,54,0.34530
10210320,-0.15500,54.3750,91,54,0.33578
10210330,-0.14500,54.7500,91,54,0.33138
10210340,-0.13000,55.5000,91,54,0.32845
10210350,-0.10500,56.8125,91,54,0.32576
10210360,-0.08500,61.3125,91,54,0.31893
10210370,-0.06500,64.3125,91,54,0.31551
10210380,-0.04500,67.6250,91,54,0.31233
10210390,-0.02500,71.2500,91,54,0.30965
10210400,0.00500,78.5625,91,54,0.30427
10210410,0.03500,81.9375,91,54,0.30159
10210420,0.06500,85.0000,91,54,0.29866
10210430,0.09500,87.5625,91,54,0.29573
10210440,0.13000,91.4375,91,54,0.29133
10210450,0.16000,92.7500,91,54,0.28962
10210460,0.19000,93.7500,91,54,0.28718
10210470,0.21000,94.4375,91,54,0.28449
10210480,0.19500,94.9375,91,54,0.27863
10210490,0.15500,94.8750,91,54,0.27570
10210500,0.08000,94.5625,91,54,0.27326
10210510,0.01000,94.0000,91,54,0.27106
10210520,-0.04500,92.5000,91,54,0.26642
10210530,-0.08500,91.5625,91,54,0.26398
10210540,-0.10500,90.5625,91,54,0.26227
10210550,-0.12000,89.5625,91,54,0.26129
10210560,-0.13000,87.2500,91,54,0.25714
10210570,-0.13500,86.0000,91,54,0.25495
10210580,-0.13500,84.8125,91,54,0.25299
10210590,-0.13500,83.5625,91,54,0.25153
10210600,-0.13500,80.8750,91,54,0.25324
10210610,-0.13500,79.5000,91,54,0.25788
10210620,-0.13500,78.1250,91,54,0.26642
10210630,-0.13500,76.6875,91,54,0.27912
10210640,-0.13500,74.0000,91,54,0.31111
10210650,-0.13500,72.7500,91,54,0.33455
10210660,-0.13500,71.5625,91,54,0.36288
10210670,-0.13500,70.4375,91,54,0.39512
10210680,-0.13500,68.3750,91,54,0.46691
10210690,-0.13500,67.5000,91,54,0.50427
10210700,-0.13000,66.6875,91,54,0.54090
10210710,-0.10500,66.0000,91,54,0.57558
10210720,-0.08500,64.7500,91,54,0.63761
10210730,-0.07500,64.2500,91,54,0.66349
10210740,-0.07000,63.8125,91,54,0.68278
10210750,-0.05000,63.4375,91,54,0.69744
10210760,-0.04000,62.8125,91,54,0.72405
10210770,-0.05500,62.5625,91,54,0.73382
10210780,-0.08000,62.3750,91,54,0.74066
10210790,-0.10500,62.2500,91,54,0.74505
10210800,-0.14500,62.0000,91,54,0.74652
10210810,-0.17000,61.8750,91,54,0.74408
10210820,-0.18083,61.7500,91,54,0.73993
10210830,-0.18000,61.6250,91,54,0.73358
10210840,-0.17000,61.4375,91,54,0.71697
10210850,-0.16000,61.3125,91,54,0.70672
10210860,-0.15500,61.2500,91,54,0.69548
10210870,-0.16000,61.0625,91,54,0.68327
10210880,-0.20000,60.7500,91,54,0.65617
10210890,-0.09500,60.5000,91,54,0.64151
10210900,0.42000,60.3125,91,54,0.62637
10210910,1.27500,60.0625,91,54,0.61050
10210920,1.73500,59.6250,91,54,0.57656
10210930,1.11500,59.3750,91,54,0.55897
10210940,0.15000,59.1250,91,54,0.54310
10210950,-0.27500,58.8750,91,54,0.52845
10210960,-0.31500,58.3125,91,54,0.49768
10210970,-0.31500,58.3125,91,54,0.49768
10210980,-0.27000,57.7500,91,54,0.46789
10210990,-0.26000,57.5000,91,54,0.45348
10211000,-0.25000,57.0000,92,54,0.42711
10211010,-0.24000,56.7500,92,54,0.41514
10211020,-0.23000,56.5000,92,54,0.40391
10211030,-0.22000,56.2500,92,54,0.39390
10211040,-0.21500,55.7500,92,54,0.37875
10211050,-0.21000,55.5000,92,54,0.37192
10211060,-0.20000,55.3125,92,54,0.36532
10211070,-0.19000,55.0625,92,54,0.35897
10211080,-0.18000,54.6250,92,54,0.34799
10211090,-0.17000,54.5000,92,54,0.34286
10211100,-0.15500,54.3750,92,54,0.33797
10211110,-0.14500,54.4375,92,54,0.33382
10211120,-0.12500,55.5625,92,54,0.32674
10211130,-0.10500,56.9375,92,54,0.32357
10211140,-0.08500,58.8750,92,54,0.32112
10211150,-0.06500,61.3750,92,54,0.31917
10211160,-0.04500,67.6875,92,54,0.31380
10211170,-0.01500,71.1875,92,54,0.31136
10211180,0.01000,74.8125,92,54,0.30867
10211190,0.03000,78.3125,92,54,0.30549
10211200,0.06000,84.5000,92,54,0.29841
10211210,0.09500,86.9375,92,54,0.29475
10211220,0.12500,89.0000,92,54,0.29133
10211230,0.15500,90.5625,92,54,0.28816
10211240,0.18500,92.5625,92,54,0.28400
10211250,0.21000,93.1250,92,54,0.28132
10211260,0.21000,93.4375,92,54,0.27839
10211270,0.17500,93.4375,92,54,0.27546
10211280,0.12000,92.8125,92,54,0.26960
10211290,0.05000,92.1875,92,54,0.26642
10211300,-0.00500,91.4375,92,54,0.26300
10211310,-0.05000,90.5000,92,54,0.25983
10211320,-0.07500,88.4375,92,54,0.25421
10211330,-0.09500,87.2500,92,54,0.25177
10211340,-0.11000,86.0625,92,54,0.25055
10211350,-0.12000,84.7500,92,54,0.24982
10211360,-0.11500,82.1250,92,54,0.24689
10211370,-0.12000,80.7500,92,54,0.24542
10211380,-0.12000,79.3750,92,54,0.24493
10211390,-0.12000,78.0000,92,54,0.24640
10211400,-0.11500,75.0625,92,54,0.25861
10211410,-0.12000,73.6250,92,54,0.27057
10211420,-0.12000,72.3125,92,54,0.28694
10211430,-0.11500,71.0625,92,54,0.30818
10211440,-0.11500,68.6250,92,54,0.35433
10211450,-0.11500,68.6250,92,54,0.35433
10211460,-0.11500,66.5625,92,54,0.41685
10211470,-0.12000,65.6875,92,54,0.45226
10211480,-0.11500,64.0625,92,54,0.52430
10211490,-0.10500,63.4375,92,54,0.55897
10211500,-0.08500,62.8750,92,54,0.59121
10211510,-0.05500,62.3750,92,54,0.62051
10211520,-0.04500,61.5000,92,54,0.66935
10211530,-0.04000,61.1250,92,54,0.68816
10211540,-0.02000,60.8125,92,54,0.70085
10211550,-0.01500,60.5000,92,54,0.70965
10211560,-0.03000,60.0625,92,54,0.72259
10211570,-0.05500,59.8750,92,54,0.72601
10211580,-0.08500,59.6875,92,54,0.72698
10211590,-0.12500,59.5000,92,54,0.72576
10211600,-0.15000,59.1875,92,54,0.71770
10211610,-0.15500,59.0625,92,54,0.71087
10211620,-0.15500,58.9375,92,54,0.70232
10211630,-0.14500,58.8125,92,54,0.69206
10211640,-0.13500,58.5625,92,54,0.66984
10211650,-0.13000,58.4375,92,54,0.65690
10211660,-0.13500,58.3125,92,54,0.64274
10211670,-0.18500,58.1250,92,54,0.62759
10211680,-0.06500,57.8125,92,54,0.59560
10211690,0.49500,57.6250,92,54,0.57900
10211700,1.33500,57.4375,92,54,0.56190
10211710,1.59500,57.2500,92,54,0.54481
10211720,0.88000,56.8750,92,54,0.51013
10211730,0.03000,56.6875,92,54,0.49304
10211740,-0.30000,56.5000,92,54,0.47839
10211750,-0.30000,56.3125,92,54,0.46471
10211760,-0.26000,55.8750,92,54,0.43614
10211770,-0.24500,55.6250,92,54,0.42222
10211780,-0.23500,55.4375,92,54,0.40904
10211790,-0.22000,55.1875,92,54,0.39634
10211800,-0.21000,54.7500,92,54,0.37338
10211810,-0.20500,54.5000,92,54,0.36288
10211820,-0.20000,54.3125,92,54,0.35311
10211830,-0.19500,54.0625,92,54,0.34408
10211840,-0.19500,54.0625,92,54,0.34408
10211850,-0.17500,53.4375,92,54,0.32576
10211860,-0.16000,53.2500,92,54,0.32015
10211870,-0.15500,53.0625,92,54,0.31477
10211880,-0.14000,52.7500,92,54,0.30452
10211890,-0.13000,52.6875,92,54,0.29988
10211900,-0.11500,52.7500,92,54,0.29573
10211910,-0.10500,53.0625,92,54,0.29158
10211920,-0.08500,55.0000,92,54,0.28376
10211930,-0.06500,56.7500,92,54,0.28010
10211940,-0.06500,56.7500,92,54,0.28010
10211950,-0.02000,61.8750,92,54,0.27546
10211960,0.00000,68.1875,92,54,0.27009
10211970,0.02500,71.5625,92,54,0.26691
10211980,0.06000,74.9375,92,54,0.26349
10211990,0.09000,78.0625,92,54,0.26007
10212000,0.12000,83.1875,91,54,0.25372
10212010,0.15500,85.0625,91,54,0.25079
10212020,0.19500,86.6250,91,54,0.24762
10212030,0.23500,87.7500,91,54,0.24444
10212040,0.25500,89.1250,91,54,0.24103
10212050,0.24500,89.4375,91,54,0.23883
10212060,0.19500,89.5000,91,54,0.23614
10212070,0.12000,89.2500,91,54,0.23321
10212080,0.04500,88.3125,91,54,0.22686
10212090,-0.01500,87.5625,91,54,0.22369
10212100,-0.06000,86.6875,91,54,0.22051
10212110,-0.08500,85.6875,91,54,0.21758
10212120,-0.09500,83.4375,91,54,0.21294
10212130,-0.10500,82.1875,91,54,0.21074
10212140,-0.11500,80.9375,91,54,0.21001
10212150,-0.12500,79.6875,91,54,0.20977
10212160,-0.12500,77.0000,91,54,0.20781
10212170,-0.12500,75.6250,91,54,0.20757
10212180,-0.12500,74.1875,91,54,0.20879
10212190,-0.12500,72.7500,91,54,0.21245
10212200,-0.12500,70.0000,91,54,0.22930
10212210,-0.12500,68.6875,91,54,0.24420
10212220,-0.12500,67.4375,91,54,0.26349
10212230,-0.12500,66.2500,91,54,0.28742
10212240,-0.12500,64.1250,91,54,0.33626
10212250,-0.12500,63.2500,91,54,0.36630
10212260,-0.12000,62.3750,91,54,0.39951
10212270,-0.11500,61.6250,91,54,0.43419
10212280,-0.10000,60.4375,91,54,0.50281
10212290,-0.08000,59.8750,91,54,0.53455
10212300,-0.05500,59.4375,91,54,0.56361
10212310,-0.05000,59.0625,91,54,0.59219
10212320,-0.03500,58.5000,91,54,0.63834
10212330,-0.01000,58.2500,91,54,0.65177
10212340,-0.01000,58.0000,91,54,0.66081
10212350,-0.04000,57.7500,91,54,0.66789
10212360,-0.06500,57.4375,91,54,0.67497
10212370,-0.09500,57.3125,91,54,0.67521
10212380,-0.13500,57.2500,91,54,0.67375
10212390,-0.13500,57.2500,91,54,0.67375
10212400,-0.16000,57.0625,91,54,0.65861
10212410,-0.16000,57.0000,91,54,0.65079
10212420,-0.15500,56.8750,91,54,0.64176
10212430,-0.14500,56.8125,91,54,0.63175
10212440,-0.13500,56.6250,91,54,0.61099
10212450,-0.14500,56.5000,91,54,0.59878
10212460,-0.20000,56.3750,91,54,0.58535
10212470,-0.07500,56.2500,91,54,0.57070
10212480,0.46500,55.9375,91,54,0.53944
10212490,1.28500,55.8125,91,54,0.52357
10212500,1.54500,55.6250,91,54,0.50769
10212510,0.81500,55.4375,91,54,0.49206
10212520,0.00000,55.1250,91,54,0.46227
10212530,-0.29500,55.0000,91,54,0.44982
10212540,-0.30000,54.8125,91,54,0.43858
10212550,-0.26000,54.6250,91,54,0.42637
10212560,-0.24000,54.2500,91,54,0.40244
10212570,-0.23500,54.0625,91,54,0.39121
10212580,-0.22500,53.8750,91,54,0.38095
10212590,-0.21000,53.6250,91,54,0.37143
10212600,-0.20000,53.2500,91,54,0.35482
10212610,-0.20000,53.0000,91,54,0.34774
10212620,-0.19500,52.8125,91,54,0.34115
10212630,-0.18000,52.5625,91,54,0.33504
10212640,-0.16500,52.1250,91,54,0.32698
10212650,-0.16500,52.1250,91,54,0.32698
10212660,-0.15500,51.7500,91,54,0.31819
10212670,-0.14500,51.5625,91,54,0.31429
10212680,-0.13500,51.3125,91,54,0.30720
10212690,-0.11500,51.3750,91,54,0.30427
10212700,-0.10000,51.6875,91,54,0.30183
10212710,-0.08000,52.3750,91,54,0.29939
10212720,-0.06500,55.5000,91,54,0.29548
10212730,-0.04500,57.8125,91,54,0.29475
10212740,-0.02000,60.5625,91,54,0.29426
10212750,0.00000,63.5625,91,54,0.29353
10212760,0.03000,70.1250,91,54,0.29109
10212770,0.06000,73.3750,91,54,0.28938
10212780,0.09000,76.3750,91,54,0.28767
10212790,0.12000,79.0625,91,54,0.28596
10212800,0.15000,83.3125,91,54,0.28254
10212810,0.18500,84.7500,91,54,0.28083
10212820,0.22500,85.8750,91,54,0.27912
10212830,0.24500,86.6875,91,54,0.27766
10212840,0.23500,87.5625,91,54,0.27668
10212850,0.18500,87.5625,91,54,0.27570
10212860,0.10500,87.3750,91,54,0.27473
10212870,0.03000,87.0000,91,54,0.27350
10212880,-0.03000,85.7500,91,54,0.27057
10212890,-0.07000,84.9375,91,54,0.26886
10212900,-0.09500,84.0000,91,54,0.26716
10212910,-0.11500,83.0000,91,54,0.26545
10212920,-0.12500,80.7500,91,54,0.26129
10212930,-0.12500,79.5625,91,54,0.26007
10212940,-0.13000,78.3125,91,54,0.25934
10212950,-0.13000,77.0625,91,54,0.25788
10212960,-0.12500,74.4375,91,54,0.25617
10212970,-0.12500,73.0000,91,54,0.25714
10212980,-0.12500,71.6250,91,54,0.26032
10212990,-0.12500,70.2500,91,54,0.26618
10213000,-0.12000,67.7500,91,54,0.28962
10213010,-0.12000,66.5625,91,54,0.30769
10213020,-0.12000,65.5000,91,54,0.32943
10213030,-0.12500,64.4375,91,54,0.35482
10213040,-0.12500,62.6250,91,54,0.40391
10213050,-0.12000,61.8125,91,54,0.43272
10213060,-0.11500,61.1875,91,54,0.46349
10213070,-0.10000,60.5625,91,54,0.49499
10213080,-0.07500,59.5000,91,54,0.55629
10213090,-0.06500,59.1250,91,54,0.58388
10213100,-0.06000,58.8125,91,54,0.60855
10213110,-0.03500,58.5000,91,54,0.63004
10213120,-0.03500,58.5000,91,54,0.63004
10213130,-0.03500,57.8125,91,54,0.67228
10213140,-0.05500,57.5625,91,54,0.67839
10213150,-0.08500,57.3750,91,54,0.68327
10213160,-0.12500,57.0625,91,54,0.68694
10213170,-0.15500,56.9375,91,54,0.68571
10213180,-0.17000,56.8750,91,54,0.68254
10213190,-0.17000,56.7500,91,54,0.67766
10213200,-0.16000,56.5000,91,54,0.66349
10213210,-0.15500,56.3750,91,54,0.65421
10213220,-0.15000,56.3125,91,54,0.64347
10213230,-0.15000,56.1875,91,54,0.63150
10213240,-0.19500,56.0000,91,54,0.60781
10213250,-0.19000,55.8750,91,54,0.59463
10213260,0.14000,55.7500,91,54,0.58046
10213270,0.91000,55.6250,91,54,0.56581
10213280,1.56500,55.3125,91,54,0.53529
10213290,1.22000,55.1875,91,54,0.51966
10213300,0.33000,55.0000,91,54,0.50427
10213310,-0.20000,54.8750,91,54,0.48913
10213320,-0.31000,54.5000,91,54,0.46007
10213330,-0.28000,54.3750,91,54,0.44786
10213340,-0.25500,54.1875,91,54,0.43712
10213350,-0.24500,54.0000,91,54,0.42589
10213360,-0.23500,53.6875,91,54,0.40391
10213370,-0.22500,53.5000,91,54,0.39365
10213380,-0.21500,53.3125,91,54,0.38413
10213390,-0.21000,53.1250,91,54,0.37534
10213400,-0.20000,52.7500,91,54,0.36068
10213410,-0.19000,52.5625,91,54,0.35458
10213420,-0.18000,52.3750,91,54,0.34921
10213430,-0.17000,52.1250,91,54,0.34432
10213440,-0.16500,51.7500,91,54,0.33724
10213450,-0.15500,51.6250,91,54,0.33333
10213460,-0.14000,51.5625,91,54,0.32943
10213470,-0.13000,51.5000,91,54,0.32576
10213480,-0.11500,52.0625,91,54,0.31917
10213490,-0.10000,52.8750,91,54,0.31624
10213500,-0.08000,54.3125,91,54,0.31404
10213510,-0.06500,56.3125,91,54,0.31209
10213520,-0.03500,61.6250,91,54,0.30867
10213530,-0.01500,64.7500,91,54,0.30794
10213540,0.01000,68.0000,91,54,0.30769
10213550,0.04000,71.3125,91,54,0.30672
10213560,0.07000,77.5000,91,54,0.30403
10213570,0.10000,80.1875,91,54,0.30232
10213580,0.13000,82.5000,91,54,0.30037
10213590,0.16500,84.3750,91,54,0.29841
10213600,0.19500,87.0000,91,54,0.29475
10213610,0.22500,87.8125,91,54,0.29304
10213620,0.23500,88.3750,91,54,0.29158
10213630,0.20500,88.6875,91,54,0.29011
10213640,0.14000,88.6875,91,54,0.28938
10213650,0.06500,88.3125,91,54,0.28889
10213660,0.00000,87.8125,91,54,0.28791
10213670,-0.05500,87.1875,91,54,0.28645
10213680,-0.08500,85.6250,91,54,0.28303
10213690,-0.10500,84.6875,91,54,0.28132
10213700,-0.11500,83.6875,91,54,0.27961
10213710,-0.12500,82.5625,91,54,0.27790
10213720,-0.12500,80.2500,91,54,0.27521
10213730,-0.12500,79.0625,91,54,0.27497
10213740,-0.12500,77.8125,91,54,0.27546
10213750,-0.12500,77.8125,91,54,0.27546
10213760,-0.12000,73.8750,91,54,0.28230
10213770,-0.12000,72.5000,91,54,0.28938
10213780,-0.12000,71.1250,91,54,0.29988
10213790,-0.12000,69.8750,91,54,0.31453
10213800,-0.12500,67.5000,91,54,0.35678
10213810,-0.12500,66.4375,91,54,0.38364
10213820,-0.12500,65.3750,91,54,0.41319
10213830,-0.12500,64.4375,91,54,0.44469
10213840,-0.12500,64.4375,91,54,0.44469
10213850,-0.11500,62.2500,91,54,0.52894
10213860,-0.09500,61.6875,91,54,0.55922
10213870,-0.07500,61.1875,91,54,0.58852
10213880,-0.06500,60.2500,91,54,0.64078
10213890,-0.05500,59.9375,91,54,0.66252
10213900,-0.03000,59.6250,91,54,0.68107
10213910,-0.02500,59.3750,91,54,0.69646
10213920,-0.04500,58.8750,91,54,0.71746
10213930,-0.07500,58.6875,91,54,0.72210
10213940,-0.10000,58.5625,91,54,0.72357
10213950,-0.13500,58.4375,91,54,0.72405
10213960,-0.16000,58.2500,91,54,0.72112
10213970,-0.17000,58.1250,91,54,0.71722
10213980,-0.16500,58.0625,91,54,0.71184
10213990,-0.16000,58.0000,91,54,0.70525
10214000,-0.15500,57.7500,91,54,0.68840
10214010,-0.14500,57.6250,91,54,0.67814
10214020,-0.15000,57.5625,91,54,0.66691
10214030,-0.20500,57.4375,91,54,0.65446
10214040,-0.13000,57.1875,91,54,0.62955
10214050,0.37500,57.0625,91,54,0.61563
10214060,1.22500,56.8750,91,54,0.60098
10214070,1.63000,56.7500,91,54,0.58584
10214080,1.03000,56.4375,91,54,0.55409
10214090,0.13000,56.2500,91,54,0.53797
10214100,-0.28000,56.1250,91,54,0.52186
10214110,-0.31500,55.9375,91,54,0.50647
10214120,-0.28000,55.5000,91,54,0.47717
10214130,-0.26000,55.3125,91,54,0.46520
10214140,-0.25000,55.1875,91,54,0.45446
10214150,-0.24000,55.0000,91,54,0.44347
10214160,-0.23000,54.6250,91,54,0.42222
10214170,-0.22000,54.4375,91,54,0.41270
10214180,-0.21000,54.2500,91,54,0.40415
10214190,-0.21000,54.1250,91,54,0.39634
10214200,-0.20000,53.7500,91,54,0.38291
10214210,-0.19000,53.5625,91,54,0.37680
10214220,-0.18000,53.3750,91,54,0.37094
10214230,-0.17500,53.1875,91,54,0.36630
10214240,-0.16000,52.9375,91,54,0.35824
10214250,-0.15500,52.8750,91,54,0.35409
10214260,-0.13500,53.0625,91,54,0.35018
10214270,-0.12000,53.5625,91,54,0.34676
10214280,-0.12000,53.5625,91,54,0.34676
10214290,-0.08000,58.4375,91,54,0.33822
10214300,-0.06000,61.1250,91,54,0.33553
10214310,-0.04000,64.2500,91,54,0.33284
10214320,-0.01500,71.1875,91,54,0.32845
10214330,0.01000,74.7500,91,54,0.32723
10214340,0.04000,78.1875,91,54,0.32650
10214350,0.07000,81.3125,91,54,0.32527
10214360,0.10000,86.3750,91,54,0.32063
10214370,0.13000,88.3125,91,54,0.31795
10214380,0.16000,89.7500,91,54,0.31502
10214390,0.19500,90.8750,91,54,0.31233
10214400,0.22500,92.3125,91,54,0.30720
10214410,0.22000,92.6250,91,54,0.30501
10214420,0.18500,92.6875,91,54,0.30305
10214430,0.12000,92.5625,91,54,0.30208
10214440,0.04500,91.6250,91,54,0.30037
10214450,-0.02000,90.9375,91,54,0.29890
10214460,-0.06500,90.1250,91,54,0.29695
10214470,-0.09500,89.1875,91,54,0.29475
10214480,-0.11500,87.0625,91,54,0.29035
10214490,-0.12500,85.8750,91,54,0.28840
10214500,-0.12500,84.7500,91,54,0.28669
10214510,-0.13000,83.5625,91,54,0.28523
10214520,-0.13500,81.0000,91,54,0.28498
10214530,-0.13500,79.6875,91,54,0.28669
10214540,-0.13000,78.3125,91,54,0.28987
10214550,-0.13000,76.9375,91,54,0.29524
10214560,-0.13000,74.1875,91,54,0.31575
10214570,-0.13000,72.8125,91,54,0.33236
10214580,-0.13000,71.5625,91,54,0.35360
10214590,-0.13000,70.3750,91,54,0.37949
10214600,-0.12500,68.1875,91,54,0.44249
10214610,-0.13000,67.1875,91,54,0.47790
10214620,-0.12500,66.2500,91,54,0.51453
10214630,-0.12500,65.3750,91,54,0.54603
10214640,-0.11500,63.9375,91,54,0.60513
10214650,-0.10000,63.3125,91,54,0.63565
10214660,-0.07500,62.7500,91,54,0.66447
10214670,-0.06500,62.3125,91,54,0.69060
10214680,-0.06500,61.6875,91,54,0.73333
10214690,-0.04000,61.3750,91,54,0.74945
10214700,-0.04000,61.3750,91,54,0.74945
10214710,-0.05000,60.9375,91,54,0.77241
10214720,-0.07500,60.5625,91,54,0.78364
10214730,-0.09500,60.4375,91,54,0.78462
10214740,-0.13500,60.3125,91,54,0.78315
10214750,-0.16000,60.2500,91,54,0.78071
10214760,-0.17000,60.0625,91,54,0.77167
10214770,-0.17000,59.9375,91,54,0.76532
10214780,-0.16000,59.8125,91,54,0.75726
10214790,-0.15000,59.6875,91,54,0.74799
10214800,-0.14000,59.3750,91,54,0.72576
10214810,-0.15500,59.2500,91,54,0.71306
10214820,-0.20000,59.1250,91,54,0.69915
10214830,-0.20000,59.1250,91,54,0.69915
10214840,0.51500,58.6250,91,54,0.65665
10214850,1.38500,58.4375,91,54,0.64054
10214860,1.73500,58.2500,91,54,0.62369
10214870,1.00000,58.0625,91,54,0.60659
10214880,0.07500,57.6250,91,54,0.57216
10214890,-0.29000,57.4375,91,54,0.55556
10214900,-0.30500,57.2500,91,54,0.53919
10214910,-0.28000,57.0625,91,54,0.52332
10214920,-0.27000,56.6250,91,54,0.49353
10214930,-0.26000,56.3750,91,54,0.48156
10214940,-0.24500,56.1250,91,54,0.47106
10214950,-0.24000,55.9375,91,54,0.46032
10214960,-0.23000,55.5625,91,54,0.43907
10214970,-0.22000,55.3750,91,54,0.42882
10214980,-0.21000,55.1875,91,54,0.41905
10214990,-0.20500,55.0000,91,54,0.41026
10215000,-0.20000,54.6250,92,54,0.39560
10215010,-0.19000,54.4375,92,54,0.38974
10215020,-0.18000,54.2500,92,54,0.38462
10215030,-0.17000,54.1250,92,54,0.38071
10215040,-0.15500,54.1875,92,54,0.37387
10215050,-0.14500,54.5000,92,54,0.37021
10215060,-0.12500,55.3125,92,54,0.36654
10215070,-0.11000,56.7500,92,54,0.36288
10215080,-0.09500,61.3750,92,54,0.35604
10215090,-0.07000,64.4375,92,54,0.35287
10215100,-0.04500,67.8125,92,54,0.34994
10215110,-0.02500,71.4375,92,54,0.34725
10215120,0.00000,78.8125,92,54,0.34164
10215130,0.03000,82.1875,92,54,0.33944
10215140,0.06500,85.1875,92,54,0.33773
10215150,0.09500,87.6875,92,54,0.33529
10215160,0.13000,91.3125,92,54,0.32991
10215170,0.15500,92.5000,92,54,0.32747
10215180,0.19000,93.3125,92,54,0.32479
10215190,0.19000,93.3125,92,54,0.32479
10215200,0.21500,94.0625,92,54,0.31575
10215210,0.17500,93.8125,92,54,0.31282
10215220,0.11500,93.3750,92,54,0.31013
10215230,0.04500,92.8125,92,54,0.30842
10215240,-0.01500,91.1250,92,54,0.30574
10215250,-0.05500,90.1250,92,54,0.30354
10215260,-0.08500,89.0625,92,54,0.30134
10215270,-0.10500,87.9375,92,54,0.29890
10215280,-0.11500,85.5000,92,54,0.29402
10215290,-0.12500,84.2500,92,54,0.29182
10215300,-0.12500,82.9375,92,54,0.28987
10215310,-0.12500,81.6250,92,54,0.28791
10215320,-0.12000,78.8750,92,54,0.28791
10215330,-0.12000,77.4375,92,54,0.29109
10215340,-0.12000,76.0000,92,54,0.29695
10215350,-0.12500,74.6250,92,54,0.30696
10215360,-0.12500,71.9375,92,54,0.34115
10215370,-0.12500,70.6250,92,54,0.36508
10215380,-0.12500,69.4375,92,54,0.39341
10215390,-0.12500,68.3750,92,54,0.42564
10215400,-0.12000,66.3125,92,54,0.49670
10215410,-0.11500,65.3750,92,54,0.53333
10215420,-0.10500,64.5625,92,54,0.56923
10215430,-0.09833,63.8646,92,54,0.59862
10215440,-0.08500,63.2500,92,54,0.62491
10215450,-0.05500,62.6875,92,54,0.65153
10215460,-0.04500,62.1875,92,54,0.67692
10215470,-0.04500,61.6875,92,54,0.69988
10215480,-0.02500,60.8750,92,54,0.73626
10215490,-0.01000,60.5000,92,54,0.74921
10215500,-0.02500,60.1250,92,54,0.75873
10215510,-0.05000,59.8750,92,54,0.76532
10215520,-0.07500,59.3750,92,54,0.77070
10215530,-0.10500,59.1875,92,54,0.76948
10215540,-0.10000,59.0625,92,54,0.76557
10215550,0.08000,58.8750,92,54,0.75995
10215560,0.12000,58.5000,92,54,0.74554
10215570,-0.05500,58.3750,92,54,0.73626
10215580,-0.11500,58.2500,92,54,0.72552
10215590,0.01000,58.1250,92,54,0.71331
10215600,0.12000,57.7500,92,54,0.68596
10215610,0.04000,57.5625,92,54,0.67106
10215620,0.06000,57.4375,92,54,0.65568
10215630,0.48000,57.2500,92,54,0.63956
10215640,1.29000,56.9375,92,54,0.61001
10215650,1.72500,56.6875,92,54,0.59414
10215660,1.10500,56.5000,92,54,0.57753
10215670,1.10500,56.2500,92,54,0.57753
10215680,-0.19000,55.8750,92,54,0.52625
10215690,-0.24000,55.6875,92,54,0.50916
10215700,-0.22500,55.4375,92,54,0.49255
10215710,-0.25000,55.2500,92,54,0.47619
10215720,-0.26000,54.8750,92,54,0.44542
10215730,-0.25000,54.6875,92,54,0.43101
10215740,-0.23500,54.5000,92,54,0.41905
10215750,-0.23000,54.3125,92,54,0.40855
10215760,-0.23000,54.3125,92,54,0.40855
10215770,-0.17500,53.6250,92,54,0.37485
10215780,-0.17500,53.4375,92,54,0.36435
10215790,-0.19000,53.2500,92,54,0.35458
10215800,-0.20500,52.8125,92,54,0.33700
10215810,-0.19500,52.6250,92,54,0.32894
10215820,-0.17000,52.4375,92,54,0.32112
10215830,-0.16000,52.2500,92,54,0.31380
10215840,-0.17000,52.1875,92,54,0.30281
10215850,-0.16000,52.4375,92,54,0.29670
10215860,-0.14500,53.0625,92,54,0.29035
10215870,-0.12500,54.1875,92,54,0.28376
10215880,-0.10500,58.1875,92,54,0.27033
10215890,-0.07000,60.9375,92,54,0.26325
10215900,-0.03000,64.0625,92,54,0.25617
10215910,0.02500,67.4375,92,54,0.24933
10215920,0.06500,74.3125,92,54,0.23590
10215930,0.07000,77.5000,92,54,0.23077
10215940,0.07000,80.3750,92,54,0.22637
10215950,0.10000,82.8125,92,54,0.22051
10215960,0.13000,86.3750,92,54,0.20659
10215970,0.17000,87.5625,92,54,0.19976
10215980,0.19500,88.5000,92,54,0.19341
10215990,0.21000,89.0625,92,54,0.18755
10216000,0.17500,89.3750,91,54,0.17656
10216010,0.10500,89.1250,91,54,0.17118
10216020,0.10500,89.1250,91,54,0.17118
10216030,-0.03000,88.1875,91,54,0.16020
10216040,-0.08000,86.6250,91,54,0.15482
10216050,-0.11000,85.6250,91,54,0.15116
10216060,-0.13000,84.5625,91,54,0.14701
10216070,-0.14000,83.5000,91,54,0.14261
10216080,-0.15500,81.0625,91,54,0.13480
10216090,-0.15500,79.8125,91,54,0.13114
10216100,-0.15500,78.5000,91,54,0.12796
10216110,-0.15500,77.1875,91,54,0.12503
10216120,-0.16000,74.4375,91,54,0.12137
10216130,-0.15500,73.0625,91,54,0.12283
10216140,-0.15500,71.6250,91,54,0.12723
10216150,-0.15500,70.2500,91,54,0.13382
10216160,-0.15500,67.6250,91,54,0.15873
10216170,-0.15000,66.4375,91,54,0.17851
10216180,-0.15000,65.3125,91,54,0.20317
10216190,-0.15000,64.3125,91,54,0.23175
10216200,-0.14500,62.5000,91,54,0.29670
10216210,-0.13500,61.7500,91,54,0.33138
10216220,-0.11500,61.0625,91,54,0.36581
10216230,-0.09000,59.9375,91,54,0.39878
10216240,-0.07500,59.5000,91,54,0.44957
10216250,-0.06500,59.0625,91,54,0.47326
10216260,-0.04500,58.7500,91,54,0.49524
10216270,-0.02500,58.4375,91,54,0.51477
10216280,-0.03500,57.9375,91,54,0.54554
10216290,-0.06000,57.6875,91,54,0.55678
10216300,-0.08500,57.5000,91,54,0.56581
10216310,-0.12000,57.3125,91,54,0.57216
10216320,-0.15500,57.1250,91,54,0.57729
10216330,-0.17000,57.0625,91,54,0.57680
10216340,-0.17000,57.0000,91,54,0.57460
10216350,-0.16500,56.8750,91,54,0.57070
10216360,-0.15500,56.7500,91,54,0.55824
10216370,-0.14500,56.6250,91,54,0.54969
10216380,-0.14000,56.5625,91,54,0.53993
10216390,-0.18000,56.5000,91,54,0.52894
10216400,-0.19000,56.3125,91,54,0.50427
10216410,0.09000,56.1875,91,54,0.50134
10216420,0.83500,56.0625,91,54,0.50403
10216430,0.83500,56.0625,91,54,0.50403
10216440,1.31000,55.5625,91,54,0.48645
10216450,0.41000,55.3750,91,54,0.47741
10216460,-0.18000,55.1875,91,54,0.46716
10216470,-0.31500,55.0625,91,54,0.45641
10216480,-0.28000,54.6875,91,54,0.43541
10216490,-0.25000,54.5000,91,54,0.42540
10216500,-0.23500,54.2500,91,54,0.41587
10216510,-0.22500,54.0625,91,54,0.40684
10216520,-0.21500,53.6250,91,54,0.39023
10216530,-0.20000,53.3125,91,54,0.38413
10216540,-0.20000,53.0625,91,54,0.37949
10216550,-0.19000,52.8125,91,54,0.37411
10216560,-0.18500,52.3125,91,54,0.36361
10216570,-0.18000,52.0625,91,54,0.35873
10216580,-0.17000,51.8125,91,54,0.35385
10216590,-0.16500,51.5625,91,54,0.34945
10216600,-0.15500,51.1250,91,54,0.34115
10216610,-0.14500,51.0000,91,54,0.33773
10216620,-0.14500,51.0000,91,54,0.33773
10216630,-0.11500,50.8125,91,54,0.33187
10216640,-0.09500,51.3125,91,54,0.32967
10216650,-0.08000,52.1250,91,54,0.32845
10216660,-0.06000,53.5625,91,54,0.32698
10216670,-0.03500,55.5000,91,54,0.32552
10216680,-0.01500,60.7500,91,54,0.32308
10216690,0.01000,63.8125,91,54,0.32186
10216700,0.04000,67.0625,91,54,0.32063
10216710,0.07000,70.3125,91,54,0.31941
10216720,0.10500,76.3125,91,54,0.31648
10216730,0.14000,78.8125,91,54,0.31624
10216740,0.17500,80.8750,91,54,0.31648
10216750,0.21500,82.5625,91,54,0.31624
10216760,0.25500,84.8750,91,54,0.31551
10216770,0.25500,84.8750,91,54,0.31551
10216780,0.23000,85.8750,91,54,0.31477
10216790,0.23000,85.8750,91,54,0.31477
10216800,0.08000,85.8125,91,54,0.31306
10216810,0.01000,85.3750,91,54,0.31258
10216820,-0.04500,84.8125,91,54,0.31209
10216830,-0.08500,84.0625,91,54,0.31160
10216840,-0.10500,82.3125,91,54,0.31258
10216850,-0.12000,81.2500,91,54,0.31233
10216860,-0.12500,80.1875,91,54,0.31160
10216870,-0.12500,79.0000,91,54,0.31087
10216880,-0.13000,76.5625,91,54,0.30891
10216890,-0.13000,75.2500,91,54,0.30818
10216900,-0.13000,73.9375,91,54,0.30794
10216910,-0.13500,72.5625,91,54,0.30818
10216920,-0.13000,69.8125,91,54,0.31380
10216930,-0.13000,68.5625,91,54,0.31917
10216940,-0.13000,67.2500,91,54,0.32650
10216950,-0.12500,66.0625,91,54,0.33700
10216960,-0.13000,63.7500,91,54,0.36801
10216970,-0.13000,62.7500,91,54,0.38852
10216980,-0.12500,61.8750,91,54,0.41172
10216990,-0.12000,61.0625,91,54,0.43687
10217000,-0.11500,59.6250,91,53,0.49035
10217010,-0.09500,59.0000,91,53,0.51673
10217020,-0.07500,58.5000,91,53,0.54212
10217030,-0.06500,58.0000,91,53,0.56581
10217040,-0.05500,57.3125,91,53,0.60024
10217050,-0.02500,57.0625,91,53,0.61563
10217060,-0.02500,56.8125,91,53,0.62955
10217070,-0.04500,56.6250,91,53,0.64151
10217080,-0.07500,56.3125,91,53,0.65812
10217090,-0.10500,56.1875,91,53,0.66325
10217100,-0.14000,56.0625,91,53,0.66667
10217110,-0.16500,55.9375,91,53,0.66789
10217120,-0.17500,55.7500,91,53,0.66496
10217130,-0.17000,55.6250,91,53,0.66129
10217140,-0.16500,55.5625,91,53,0.65641
10217150,-0.15500,55.4375,91,53,0.65006
10217160,-0.14500,55.1875,91,53,0.63419
10217170,-0.15000,55.0625,91,53,0.62466
10217180,-0.20000,54.9375,91,53,0.61416
10217190,-0.13000,54.8125,91,53,0.60317
10217200,0.37000,54.5000,91,53,0.57973
10217210,1.20000,54.3750,91,53,0.56752
10217220,1.55500,54.2500,91,53,0.55482
10217230,0.95000,54.1250,91,53,0.54188
10217240,0.10000,53.8125,91,53,0.51966
10217250,-0.28000,53.6875,91,53,0.50794
10217260,-0.30500,53.5000,91,53,0.49597
10217270,-0.27000,53.2500,91,53,0.48400
10217280,-0.25000,52.8750,91,53,0.46056
10217290,-0.23500,52.6250,91,53,0.44957
10217300,-0.22500,52.4375,91,53,0.43932
10217310,-0.21500,52.3125,91,53,0.42979
10217320,-0.20500,51.9375,91,53,0.41270
10217330,-0.20000,51.7500,91,53,0.40635
10217340,-0.20000,51.5000,91,53,0.40122
10217350,-0.20000,51.3125,91,53,0.39609
10217360,-0.19000,50.9375,91,53,0.38608
10217370,-0.17500,50.7500,91,53,0.38144
10217380,-0.16500,50.5625,91,53,0.37729
10217390,-0.15500,50.3750,91,53,0.37363
10217400,-0.14500,50.0625,91,53,0.36703
10217410,-0.13000,50.0625,91,53,0.36435
10217420,-0.11500,50.1875,91,53,0.36190
10217430,-0.10000,50.6250,91,53,0.35971
10217440,-0.08500,53.0625,91,53,0.35775
10217450,-0.06500,55.1250,91,53,0.35629
10217460,-0.04500,57.7500,91,53,0.35433
10217470,-0.01500,60.6875,91,53,0.35238
10217480,0.01000,67.1250,91,53,0.34847
10217490,0.04000,70.5000,91,53,0.34628
10217500,0.07000,73.6250,91,53,0.34408
10217510,0.10500,76.5625,91,53,0.34212
10217520,0.14000,81.2500,91,53,0.33919
10217530,0.17500,83.0625,91,53,0.33846
10217540,0.21000,84.5000,91,53,0.33822
10217550,0.24000,85.5000,91,53,0.33724
10217560,0.23500,86.6250,91,53,0.33407
10217570,0.19000,86.7500,91,53,0.33236
10217580,0.12000,86.7500,91,53,0.33089
10217590,0.04000,86.5000,91,53,0.32991
10217600,-0.02500,85.5000,91,53,0.32796
10217610,-0.07000,84.7500,91,53,0.32698
10217620,-0.09500,83.8750,91,53,0.32601
10217630,-0.11500,82.9375,91,53,0.32503
10217640,-0.12500,80.8125,91,53,0.32430
10217650,-0.13000,79.6875,91,53,0.32332
10217660,-0.13000,79.6875,91,53,0.32332
10217670,-0.12500,77.2500,91,53,0.32063
10217680,-0.12500,74.6875,91,53,0.31844
10217690,-0.12500,73.3750,91,53,0.31819
10217700,-0.12500,72.0625,91,53,0.31941
10217710,-0.13000,70.6875,91,53,0.32259
10217720,-0.12500,68.1250,91,53,0.33700
10217730,-0.12500,66.8750,91,53,0.34725
10217740,-0.12500,65.7500,91,53,0.35995
10217750,-0.13000,64.6250,91,53,0.37680
10217760,-0.13000,62.5625,91,53,0.42051
10217770,-0.12000,61.6875,91,53,0.44640
10217780,-0.11500,60.9375,91,53,0.47350
10217790,-0.10500,60.2500,91,53,0.50159
10217800,-0.08000,59.0000,91,53,0.55629
10217810,-0.06500,58.5625,91,53,0.58193
10217820,-0.06500,58.5625,91,53,0.58193
10217830,-0.03500,57.7500,91,53,0.62393
10217840,-0.03500,57.7500,91,53,0.62393
10217850,-0.02500,56.8125,91,53,0.66740
10217860,-0.05000,56.5625,91,53,0.67912
10217870,-0.07500,56.3750,91,53,0.68864
10217880,-0.11500,56.1250,91,53,0.70061
10217890,-0.11500,56.1250,91,53,0.70061
10217900,-0.16500,55.9375,91,53,0.70330
10217910,-0.17000,55.8125,91,53,0.70208
10217920,-0.16000,55.5625,91,53,0.69499
10217930,-0.15500,55.4375,91,53,0.68962
10217940,-0.15000,55.3125,91,53,0.68352
10217950,-0.14500,55.2500,91,53,0.67619
10217960,-0.18000,55.0625,91,53,0.65910
10217970,-0.21500,54.9375,91,53,0.64933
10217980,0.03000,54.8125,91,53,0.63883
10217990,0.72500,54.6875,91,53,0.62759
10218000,1.48500,54.4375,91,53,0.60391
10218010,1.43500,54.3125,91,53,0.59145
10218020,0.55500,54.1875,91,53,0.57875
10218030,-0.13500,54.0625,91,53,0.56752
10218040,-0.31000,53.8125,91,53,0.54530
10218050,-0.29000,53.6875,91,53,0.53382
10218060,-0.26500,53.5000,91,53,0.52234
10218070,-0.25500,53.3750,91,53,0.51111
10218080,-0.24500,53.0625,91,53,0.49035
10218090,-0.23500,52.8750,91,53,0.48083
10218100,-0.22500,52.6875,91,53,0.47204
10218110,-0.21500,52.5000,91,53,0.46374
10218120,-0.21000,52.1250,91,53,0.44860
10218130,-0.20000,51.9375,91,53,0.44274
10218140,-0.19000,51.7500,91,53,0.43785
10218150,-0.18000,51.5625,91,53,0.43272
10218160,-0.17000,51.1875,91,53,0.42271
10218170,-0.16000,51.0625,91,53,0.41807
10218180,-0.15000,50.8750,91,53,0.41368
10218190,-0.13500,50.8125,91,53,0.40977
10218200,-0.12500,51.0000,91,53,0.40269
10218210,-0.10500,51.5625,91,53,0.39951
10218220,-0.09000,52.6250,91,53,0.39658
10218230,-0.07000,54.3750,91,53,0.39438
10218240,-0.05000,59.3750,91,53,0.39072
10218250,-0.02500,62.4375,91,53,0.38852
10218260,0.00000,65.7500,91,53,0.38632
10218270,0.03000,69.2500,91,53,0.38437
10218280,0.05000,76.0625,91,53,0.38046
10218290,0.08500,79.0000,91,53,0.37875
10218300,0.11500,81.5625,91,53,0.37705
10218310,0.14500,83.7500,91,53,0.37534
10218320,0.14500,83.7500,91,53,0.37534
10218330,0.21500,87.9375,91,53,0.37070
10218340,0.23000,88.6875,91,53,0.37021
10218350,0.21000,89.1250,91,53,0.36899
10218360,0.15500,89.3125,91,53,0.36557
10218370,0.08000,89.1250,91,53,0.36386
10218380,0.00500,88.7500,91,53,0.36215
10218390,-0.05000,88.1875,91,53,0.36020
10218400,-0.08500,86.6250,91,53,0.35678
10218410,-0.11000,85.6875,91,53,0.35507
10218420,-0.12500,84.6250,91,53,0.35336
10218430,-0.13000,83.5625,91,53,0.35238
10218440,-0.13000,83.5625,91,53,0.35238
10218450,-0.13000,79.9375,91,53,0.34945
10218460,-0.13500,78.6875,91,53,0.33651
10218470,-0.13500,77.4375,91,53,0.31819
10218480,-0.13500,74.7500,91,53,0.30696
10218490,-0.13500,73.3750,91,53,0.30891
10218500,-0.13500,72.0000,91,53,0.31477
10218510,-0.13500,70.6875,91,53,0.32503
10218520,-0.13500,68.1875,91,53,0.36020
10218530,-0.13500,67.0625,91,53,0.38095
10218540,-0.13500,65.9375,91,53,0.40342
10218550,-0.13500,64.9375,91,53,0.43150
10218560,-0.13000,63.1875,91,53,0.49792
10218570,-0.12500,62.3750,91,53,0.53333
10218580,-0.11500,61.7500,91,53,0.56874
10218590,-0.09000,61.1875,91,53,0.60293
10218600,-0.07000,60.2500,91,53,0.66520
10218610,-0.06500,59.8125,91,53,0.69206
10218620,-0.05000,59.5000,91,53,0.71551
10218630,-0.03500,59.1875,91,53,0.73284
10218640,-0.04500,58.7500,91,53,0.75873
10218650,-0.06500,58.5625,91,53,0.76972
10218660,-0.09500,58.3750,91,53,0.77802
10218670,-0.09500,58.3750,91,53,0.77802
10218680,-0.16000,58.0000,91,53,0.78950
10218690,-0.17500,57.8750,91,53,0.78926
10218700,-0.18000,57.7500,91,53,0.78681
10218710,-0.17000,57.6875,91,53,0.78291
10218720,-0.16000,57.5000,91,53,0.76972
10218730,-0.15000,57.3750,91,53,0.76142
10218740,-0.14500,57.2500,91,53,0.75214
10218750,-0.19000,57.1250,91,53,0.74164
10218760,-0.19000,56.8125,91,53,0.71697
10218770,0.12500,56.6875,91,53,0.70330
10218780,0.91000,56.5000,91,53,0.68864
10218790,1.66500,56.3750,91,53,0.67350
10218800,1.43000,56.1250,91,53,0.64200
10218810,0.47500,55.9375,91,53,0.62589
10218820,-0.17000,55.7500,91,53,0.60977
10218830,-0.32500,55.5625,91,53,0.59536
10218840,-0.29500,55.1875,91,53,0.56777
10218850,-0.27500,55.0000,91,53,0.55336
10218860,-0.26500,54.8125,91,53,0.53944
10218870,-0.25000,54.6250,91,53,0.52625
10218880,-0.24000,54.2500,91,53,0.50183
10218890,-0.23000,54.0625,91,53,0.49060
10218900,-0.22500,53.8750,91,53,0.48010
10218910,-0.22000,53.6875,91,53,0.47033
10218920,-0.21000,53.2500,91,53,0.45275
10218930,-0.20000,53.0625,91,53,0.44591
10218940,-0.19000,52.9375,91,53,0.44029
10218950,-0.18000,52.7500,91,53,0.43443
10218960,-0.17500,52.3750,91,53,0.42344
10218970,-0.16500,52.3125,91,53,0.41856
10218980,-0.15500,52.3125,91,53,0.41416
10218990,-0.13500,52.5000,91,53,0.41026
10219000,-0.12000,54.0000,91,54,0.40317
10219010,-0.10500,55.6250,91,54,0.39951
10219020,-0.08500,57.8750,91,54,0.39609
10219030,-0.06000,60.6250,91,54,0.39390
10219040,-0.03500,67.3125,91,54,0.38926
10219050,-0.00500,70.9375,91,54,0.38632
10219060,0.02000,74.5625,91,54,0.38339
10219070,0.05000,78.0625,91,54,0.38046
10219080,0.08500,83.9375,91,54,0.37509
10219090,0.11500,86.2500,91,54,0.37241
10219100,0.14500,88.1250,91,54,0.36972
10219110,0.17500,89.6250,91,54,0.36679
10219120,0.20500,91.5000,91,54,0.36117
10219130,0.21500,92.0000,91,54,0.35946
10219140,0.19500,92.2500,91,54,0.35849
10219150,0.14500,92.2500,91,54,0.35702
10219160,0.07000,91.5625,91,54,0.35409
10219170,0.00000,91.0000,91,54,0.35263
10219180,-0.05000,90.2500,91,54,0.35092
10219190,-0.08500,89.4375,91,54,0.34896
10219200,-0.10500,87.4375,91,54,0.34457
10219210,-0.12500,86.3125,91,54,0.34237
10219220,-0.12500,85.1875,91,54,0.34017
10219230,-0.13000,84.0000,91,54,0.33895
10219240,-0.13000,81.5625,91,54,0.33773
10219250,-0.13000,80.3750,91,54,0.33724
10219260,-0.13000,79.0625,91,54,0.33724
10219270,-0.13000,77.7500,91,54,0.33895
10219280,-0.13500,75.0000,91,54,0.35116
10219290,-0.13000,73.6250,91,54,0.36264
10219300,-0.12500,72.3125,91,54,0.37875
10219310,-0.12500,71.0000,91,54,0.39927
10219320,-0.12500,68.6250,91,54,0.45348
10219330,-0.12500,67.5000,91,54,0.48083
10219340,-0.12500,66.5000,91,54,0.50842
10219350,-0.12000,65.6250,91,54,0.54090
10219360,-0.11500,64.0625,91,54,0.61099
10219370,-0.09500,63.3750,91,54,0.64542
10219380,-0.07000,62.8125,91,54,0.67814
10219390,-0.05500,62.2500,91,54,0.70867
10219400,-0.05500,61.4375,91,54,0.76093
10219410,-0.03500,61.0625,91,54,0.78217
10219420,-0.01500,60.8125,91,54,0.80024
10219430,-0.03500,60.5000,91,54,0.81270
10219440,-0.03500,60.5000,91,54,0.81270
10219450,-0.06000,59.8750,91,54,0.83443
10219460,-0.11500,59.6875,91,54,0.83810
10219470,-0.15000,59.5000,91,54,0.83980
10219480,-0.16000,59.2500,91,54,0.83785
10219490,-0.16000,59.0625,91,54,0.83419
10219500,-0.15500,58.8750,91,54,0.82882
10219510,-0.14500,58.6875,91,54,0.82198
10219520,-0.13500,58.3750,91,54,0.80488
10219530,-0.13500,58.2500,91,54,0.79512
10219540,-0.18000,58.0625,91,54,0.78462
10219550,-0.09500,57.8750,91,54,0.77338
10219560,0.41500,57.4375,91,54,0.74799
10219570,1.27000,57.2500,91,54,0.73431
10219580,1.72500,57.0625,91,54,0.71990
10219590,1.15500,56.8125,91,54,0.70525
10219600,0.19500,56.3125,91,54,0.67424
10219610,-0.27000,56.0625,91,54,0.65861
10219620,-0.30500,55.8125,91,54,0.64298
10219630,-0.27500,55.5625,91,54,0.62882
10219640,-0.26000,55.0625,91,54,0.60171
10219650,-0.24500,54.8125,91,54,0.58828
10219660,-0.24000,54.5625,91,54,0.57534
10219670,-0.22500,54.3125,91,54,0.56313
10219680,-0.22000,53.8750,91,54,0.54090
10219690,-0.21000,53.6250,91,54,0.53089
10219700,-0.20000,53.3750,91,54,0.52137
10219710,-0.19000,53.1875,91,54,0.51233
10219720,-0.18000,52.8125,91,54,0.49670
10219730,-0.17000,52.5625,91,54,0.49060
10219740,-0.17000,52.5625,91,54,0.49060
10219750,-0.16000,52.1875,91,54,0.47863
10219760,-0.14500,51.9375,91,54,0.46813
10219770,-0.13000,51.9375,91,54,0.46300
10219780,-0.11500,52.1250,91,54,0.45788
10219790,-0.10000,52.6875,91,54,0.45299
10219800,-0.08000,55.5000,91,54,0.44396
10219810,-0.06000,57.7500,91,54,0.43956
10219820,-0.06000,57.7500,91,54,0.43956
10219830,-0.01000,63.6875,91,54,0.43199
10219840,-0.01000,63.6875,91,54,0.43199
10219850,0.04000,74.1875,91,54,0.42271
10219860,0.07000,77.4375,91,54,0.41929
10219870,0.10000,80.3750,91,54,0.41587
10219880,0.13000,84.9375,91,54,0.40855
10219890,0.15500,86.6250,91,54,0.40488
10219900,0.19500,87.9375,91,54,0.40147
10219910,0.22500,88.8125,91,54,0.39756
10219920,0.22500,88.8125,91,54,0.39756
10219930,0.20500,89.8125,91,54,0.38901
10219940,0.15500,89.6250,91,54,0.38584
10219950,0.08500,89.2500,91,54,0.38242
10219960,0.02000,88.0000,91,54,0.37485
10219970,-0.03000,87.1875,91,54,0.37118
10219980,-0.06500,86.3125,91,54,0.36752
10219990,-0.08500,85.3125,91,54,0.36410
10220000,-0.09500,83.0000,91,53,0.35751
10220010,-0.10500,81.7500,91,53,0.35433
10220020,-0.11000,80.5000,91,53,0.35140
10220030,-0.11000,79.1875,91,53,0.34945
10220040,-0.11000,76.5000,91,53,0.34652
10220050,-0.11500,75.1250,91,53,0.34554
10220060,-0.11000,73.7500,91,53,0.34579
10220070,-0.11000,72.3125,91,53,0.34847
10220080,-0.10500,69.6250,91,53,0.36361
10220090,-0.10500,68.3125,91,53,0.37753
10220100,-0.10500,67.1250,91,53,0.39634
10220110,-0.10500,66.0000,91,53,0.41978
10220120,-0.10500,63.8750,91,53,0.47375
10220130,-0.10500,63.0000,91,53,0.50012
10220140,-0.10500,63.0000,91,53,0.50012
10220150,-0.09500,61.4375,91,53,0.56459
10220160,-0.08500,60.2500,91,53,0.63077
10220170,-0.05500,59.6875,91,53,0.66105
10220180,-0.03500,59.2500,91,53,0.68913
10220190,-0.03500,58.8125,91,53,0.71429
10220200,-0.02000,58.1875,91,53,0.75433
10220210,-0.00500,57.9375,91,53,0.76972
10220220,-0.01000,57.6875,91,53,0.78168
10220230,-0.03500,57.5000,91,53,0.78877
10220240,-0.05500,57.1875,91,53,0.79487
10220250,-0.08500,57.0625,91,53,0.79560
10220260,-0.12500,56.8750,91,53,0.79463
10220270,-0.14500,56.7500,91,53,0.79170
10220280,-0.15000,56.5000,91,53,0.78071
10220290,-0.14500,56.3750,91,53,0.77314
10220300,-0.13500,56.2500,91,53,0.76410
10220310,-0.12500,56.1250,91,53,0.75385
10220320,-0.11500,55.8125,91,53,0.73138
10220330,-0.15500,55.6875,91,53,0.71941
10220340,-0.15500,55.6875,91,53,0.71941
10220350,0.11500,55.4375,91,53,0.69182
10220360,0.83500,55.0625,91,53,0.66056
10220370,1.56000,54.8750,91,53,0.64420
10220380,1.43500,54.6875,91,53,0.62759
10220390,0.52000,54.5000,91,53,0.61099
10220400,-0.15000,54.1875,91,53,0.57802
10220410,-0.30000,54.0000,91,53,0.56190
10220420,-0.27000,53.7500,91,53,0.54628
10220430,-0.24000,53.5625,91,53,0.53284
10220440,-0.24000,53.5625,91,53,0.53284
10220450,-0.23000,53.1875,91,53,0.50745
10220460,-0.21000,52.7500,91,53,0.48205
10220470,-0.20000,52.5625,91,53,0.47057
10220480,-0.19000,52.1250,91,53,0.44982
10220490,-0.18000,51.9375,91,53,0.44054
10220500,-0.17500,51.6875,91,53,0.43199
10220510,-0.17000,51.5000,91,53,0.40904
10220520,-0.15500,51.0625,91,53,0.36264
10220530,-0.14500,50.8125,91,53,0.35263
10220540,-0.14000,50.6250,91,53,0.34505
10220550,-0.13000,50.5000,91,53,0.33895
10220560,-0.11500,50.2500,91,53,0.32918
10220570,-0.10000,50.3750,91,53,0.32479
10220580,-0.08500,50.6875,91,53,0.32039
10220590,-0.06500,51.4375,91,53,0.31648
10220600,-0.05000,54.6250,91,53,0.30867
10220610,-0.03000,56.9375,91,53,0.30501
10220620,-0.00500,59.6875,91,53,0.30159
10220630,0.02000,62.7500,91,53,0.29915
10220640,0.05000,69.2500,91,53,0.29475
10220650,0.08000,72.4375,91,53,0.29231
10220660,0.11500,75.3750,91,53,0.28962
10220670,0.14500,78.0000,91,53,0.28669
10220680,0.18000,82.0000,91,53,0.28107
10220690,0.22500,83.3750,91,53,0.27766
10220700,0.26500,84.3750,91,53,0.27424
10220710,0.27500,85.0000,91,53,0.27106
10220720,0.25000,85.6250,91,53,0.26618
10220730,0.18500,85.5625,91,53,0.26496
10220740,0.11000,85.3125,91,53,0.26300
10220750,0.03500,84.8750,91,53,0.26032
10220760,-0.02500,83.5000,91,53,0.25446
10220770,-0.06500,82.6250,91,53,0.25177
10220780,-0.08500,81.6875,91,53,0.24908
10220790,-0.10000,80.6250,91,53,0.24640
10220800,-0.10500,78.3125,91,53,0.24103
10220810,-0.11000,77.0625,91,53,0.23858
10220820,-0.11000,77.0625,91,53,0.23858
10220830,-0.11500,74.4375,91,53,0.23468
10220840,-0.11500,71.7500,91,53,0.23346
10220850,-0.11500,70.3125,91,53,0.23321
10220860,-0.11500,68.9375,91,53,0.23468
10220870,-0.11500,67.6250,91,53,0.23834
10220880,-0.11500,65.1250,91,53,0.25519
10220890,-0.12000,64.0000,91,53,0.26911
10220900,-0.12000,62.9375,91,53,0.28694
10220910,-0.11500,61.9375,91,53,0.30867
10220920,-0.12000,60.1875,91,53,0.35800
10220930,-0.11500,59.4375,91,53,0.38193
10220940,-0.11500,59.4375,91,53,0.38193
10220950,-0.09500,58.1875,91,53,0.43907
10220960,-0.07000,57.1875,91,53,0.49670
10220970,-0.05500,56.8125,91,53,0.52308
10220980,-0.04500,56.4375,91,53,0.54676
10220990,-0.02500,56.1875,91,53,0.56777
10221000,-0.00500,55.6875,90,53,0.60171
10221010,-0.01500,55.5000,90,53,0.61416
10221020,-0.04000,55.3125,90,53,0.62344
10221030,-0.04000,55.3125,90,53,0.62906
10221040,-0.10500,54.9375,90,53,0.63394
10221050,-0.14500,54.8750,90,53,0.63394
10221060,-0.16500,54.7500,90,53,0.63248
10221070,-0.17000,54.6250,90,53,0.62930
10221080,-0.16000,54.4375,90,53,0.61856
10221090,-0.15500,54.3125,90,53,0.61099
10221100,-0.14500,54.1875,90,53,0.60220
10221110,-0.14000,54.0625,90,53,0.59243
10221120,-0.17000,53.8750,90,53,0.57045
10221130,-0.19000,53.6875,90,53,0.55922
10221140,0.05000,53.5000,90,53,0.54652
10221150,0.74500,53.3750,90,53,0.53309
10221160,1.51000,53.1250,90,53,0.50501
10221170,1.39000,53.0000,90,53,0.49035
10221180,0.51000,52.8750,90,53,0.47570
10221190,-0.14500,52.7500,90,53,0.46129
10221200,-0.31500,52.4375,90,53,0.43370
10221210,-0.29000,52.2500,90,53,0.42076
10221220,-0.25500,52.0625,90,53,0.40806
10221230,-0.24500,51.8750,90,53,0.39731
10221240,-0.23000,51.5625,90,53,0.37778
10221250,-0.22500,51.3750,90,53,0.36777
10221260,-0.22000,51.1875,90,53,0.35824
10221270,-0.21000,51.0000,90,53,0.34945
10221280,-0.19500,50.5625,90,53,0.33431
10221290,-0.19000,50.3750,90,53,0.32772
10221300,-0.18000,50.1875,90,53,0.32210
10221310,-0.17000,50.0000,90,53,0.31673
10221320,-0.16000,49.6250,90,53,0.30794
10221330,-0.15500,49.4375,90,53,0.30501
10221340,-0.14000,49.2500,90,53,0.30208
10221350,-0.13000,49.1875,90,53,0.29915
10221360,-0.11500,49.2500,90,53,0.29304
10221370,-0.10000,49.5625,90,53,0.28987
10221380,-0.08500,50.3125,90,53,0.28694
10221390,-0.06500,51.6875,90,53,0.28400
10221400,-0.04500,56.0000,90,53,0.27961
10221410,-0.02500,58.7500,90,53,0.27766
10221420,0.00000,61.7500,90,53,0.27643
10221430,0.03000,64.9375,90,53,0.27570
10221440,0.03000,64.9375,90,53,0.27570
10221450,0.10000,74.1250,90,53,0.27033
10221460,0.13000,76.6875,90,53,0.26838
10221470,0.16500,78.8125,90,53,0.26618
10221480,0.20500,81.9375,90,53,0.26203
10221490,0.24500,82.9375,90,53,0.25983
10221500,0.26000,83.6250,90,53,0.25763
10221510,0.23500,84.0625,90,53,0.25543
10221520,0.17500,84.1875,90,53,0.25250
10221530,0.09000,84.0000,90,53,0.25177
10221540,0.01500,83.5625,90,53,0.25031
10221550,-0.04500,83.0000,90,53,0.24860
10221560,-0.08000,81.5000,90,53,0.24420
10221570,-0.10500,80.5625,90,53,0.24200
10221580,-0.11500,79.6250,90,53,0.23980
10221590,-0.12500,78.5625,90,53,0.23736
10221600,-0.12500,76.1875,90,53,0.23297
10221610,-0.12500,74.9375,90,53,0.23077
10221620,-0.12500,73.6250,90,53,0.22979
10221630,-0.12500,72.3125,90,53,0.22930
10221640,-0.12500,69.5625,90,53,0.22882
10221650,-0.12500,68.2500,90,53,0.23028
10221660,-0.12000,66.9375,90,53,0.23394
10221670,-0.12000,65.6250,90,53,0.24054
10221680,-0.12000,63.3125,90,53,0.26471
10221690,-0.12500,62.2500,90,53,0.28254
10221700,-0.12500,61.3125,90,53,0.30427
10221710,-0.12500,60.3750,90,53,0.32918
10221720,-0.12000,58.7500,90,53,0.38242
10221730,-0.11500,58.1250,90,53,0.40757
10221740,-0.10000,57.5625,90,53,0.43614
10221750,-0.07500,57.0000,90,53,0.46569
10221760,-0.06500,56.1250,90,53,0.52308
10221770,-0.05500,55.8125,90,53,0.54872
10221780,-0.03500,55.5625,90,53,0.57143
10221790,-0.02000,55.3125,90,53,0.59096
10221800,-0.03500,54.8750,90,53,0.62051
10221810,-0.06000,54.6875,90,53,0.63077
10221820,-0.08500,54.5625,90,53,0.63736
10221830,-0.12000,54.4375,90,53,0.64103
10221840,-0.15500,54.2500,90,53,0.64493
10221850,-0.17500,54.1875,90,53,0.64444
10221860,-0.17500,54.1250,90,53,0.64249
10221870,-0.17000,54.0000,90,53,0.63907
10221880,-0.16000,53.8750,90,53,0.62662
10221890,-0.15000,53.7500,90,53,0.61856
10221900,-0.14500,53.6250,90,53,0.60952
10221910,-0.19000,53.5000,90,53,0.59927
10221920,-0.20500,53.2500,90,53,0.57705
10221930,0.09500,53.1250,90,53,0.56581
10221940,0.83500,53.0000,90,53,0.55311
10221950,1.53000,52.9375,90,53,0.53944
10221960,1.31000,52.6250,90,53,0.51111
10221970,0.40000,52.5000,90,53,0.49695
10221980,-0.20000,52.3125,90,53,0.48327
10221990,-0.32500,52.1875,90,53,0.46984
10222000,-0.29500,51.8750,90,53,0.44371
10222010,-0.29500,51.8750,90,53,0.44371
10222020,-0.26000,51.5625,90,53,0.42149
10222030,-0.25000,51.3750,90,53,0.41245
10222040,-0.24000,51.0000,90,53,0.39267
10222050,-0.23000,50.8125,90,53,0.38339
10222060,-0.22000,50.5625,90,53,0.37436
10222070,-0.21500,50.3750,90,53,0.36606
10222080,-0.21000,50.0000,90,53,0.35214
10222090,-0.20000,49.8125,90,53,0.34579
10222100,-0.19000,49.6875,90,53,0.34017
10222110,-0.18000,49.5000,90,53,0.33529
10222120,-0.17000,49.1875,90,53,0.32723
10222130,-0.15500,49.0625,90,53,0.32454
10222140,-0.14500,49.0000,90,53,0.32161
10222150,-0.13000,49.1250,90,53,0.31893
10222160,-0.11000,49.1250,90,53,0.31355
10222170,-0.09500,51.3125,90,53,0.31087
10222180,-0.07500,53.1250,90,53,0.30818
10222190,-0.05500,55.5000,90,53,0.30549
10222200,-0.03000,61.3125,90,53,0.30037
10222210,-0.00500,64.5625,90,53,0.29792
10222220,0.02000,67.9375,90,53,0.29646
10222230,0.05500,71.1875,90,53,0.29499
10222240,0.08500,76.9375,90,53,0.29109
10222250,0.12000,79.3125,90,53,0.28889
10222260,0.15000,81.2500,90,53,0.28669
10222270,0.18500,82.7500,90,53,0.28474
10222280,0.22500,84.8125,90,53,0.28034
10222290,0.23500,85.3750,90,53,0.27790
10222300,0.21000,85.6875,90,53,0.27546
10222310,0.14500,85.8125,90,53,0.27277
10222320,0.07000,85.5000,90,53,0.26886
10222330,-0.00500,85.1250,90,53,0.26813
10222340,-0.06500,84.5625,90,53,0.26642
10222350,-0.10000,83.8125,90,53,0.26422
10222360,-0.12000,82.0625,90,53,0.25934
10222370,-0.13500,81.0625,90,53,0.25665
10222380,-0.13500,80.0000,90,53,0.25397
10222390,-0.14000,78.8750,90,53,0.25128
10222400,-0.14500,76.5000,90,53,0.24615
10222410,-0.14500,75.2500,90,53,0.24420
10222420,-0.14500,74.0000,90,53,0.24347
10222430,-0.14500,72.6875,90,53,0.24396
10222440,-0.14500,72.6875,90,53,0.24396
10222450,-0.14500,68.6875,90,53,0.25275
10222460,-0.14500,67.4375,90,53,0.26129
10222470,-0.14500,66.2500,90,53,0.27375
10222480,-0.14500,64.0000,90,53,0.31087
10222490,-0.14500,63.0000,90,53,0.33529
10222500,-0.14500,63.0000,90,53,0.33529
10222510,-0.13500,61.2500,90,53,0.39292
10222520,-0.12500,59.8125,90,53,0.45250
10222530,-0.11000,59.1875,90,53,0.47814
10222540,-0.09000,58.6250,90,53,0.50574
10222550,-0.08500,58.1875,90,53,0.53333
10222560,-0.06500,57.4375,90,53,0.64274
10222570,-0.04500,57.1250,90,53,0.68352
10222580,-0.05000,56.8750,90,53,0.71331
10222590,-0.07500,56.6250,90,53,0.73626
10222600,-0.09500,56.2500,90,53,0.76703
10222610,-0.12500,56.1250,90,53,0.77656
10222620,-0.16000,56.0625,90,53,0.78144
10222630,-0.18000,55.9375,90,53,0.78291
10222640,-0.19000,55.7500,90,53,0.78242
10222650,-0.19000,55.6875,90,53,0.77949
10222660,-0.18000,55.5625,90,53,0.77460
10222670,-0.17000,55.5000,90,53,0.76801
10222680,-0.15500,55.3125,90,53,0.75043
10222690,-0.18500,55.2500,90,53,0.73968
10222700,-0.23500,55.1250,90,53,0.72796
10222710,-0.06000,55.0625,90,53,0.71502
10222720,0.57000,54.8125,90,53,0.68694
10222730,1.41500,54.6875,90,53,0.67326
10222740,1.59000,54.5625,90,53,0.65812
10222750,0.77500,54.4375,90,53,0.64200
10222760,-0.04000,54.1250,90,53,0.60781
10222770,-0.31500,54.0000,90,53,0.59048
10222780,-0.31500,53.8125,90,53,0.57314
10222790,-0.29000,53.6250,90,53,0.55604
10222800,-0.27500,53.2500,90,53,0.52357
10222810,-0.26000,53.0625,90,53,0.50842
10222820,-0.25000,52.8750,90,53,0.49573
10222830,-0.25000,52.6875,90,53,0.48474
10222840,-0.23500,52.3125,90,53,0.46203
10222850,-0.23000,52.1250,90,53,0.45153
10222860,-0.22000,51.9375,90,53,0.44176
10222870,-0.21000,51.7500,90,53,0.43297
10222880,-0.20000,51.3750,90,53,0.41758
10222890,-0.19000,51.1875,90,53,0.41099
10222900,-0.18000,51.0625,90,53,0.40488
10222910,-0.17000,50.8750,90,53,0.39951
10222920,-0.15500,50.8125,90,53,0.39048
10222930,-0.14000,51.0000,90,53,0.38730
10222940,-0.12500,51.5000,90,53,0.38364
10222950,-0.12500,51.5000,90,53,0.38364
10222960,-0.08500,56.2500,90,53,0.37216
10222970,-0.06500,59.0000,90,53,0.36874
10222980,-0.04500,62.0625,90,53,0.36532
10222990,-0.02000,65.5000,90,53,0.36239
10223000,0.01000,72.5625,90,53,0.35751
10223010,0.04000,75.9375,90,53,0.35531
10223020,0.07000,79.0000,90,53,0.35409
10223030,0.10000,81.6250,90,53,0.35311
10223040,0.10000,81.6250,90,53,0.35311
10223050,0.17000,87.0625,90,53,0.34579
10223060,0.20500,88.1250,90,53,0.34286
10223070,0.22000,88.8750,90,53,0.34017
10223080,0.21500,89.5625,90,53,0.33578
10223090,0.16500,89.5625,90,53,0.33333
10223100,0.10000,89.3125,90,53,0.33089
10223110,0.02000,88.8750,90,53,0.32845
10223120,-0.04000,87.5625,90,53,0.32503
10223130,-0.08500,86.7500,90,53,0.32405
10223140,-0.11000,85.8750,90,53,0.32234
10223150,-0.12500,84.8750,90,53,0.32039
10223160,-0.13500,82.6875,90,53,0.31648
10223170,-0.13500,81.5000,90,53,0.31453
10223180,-0.13500,80.3125,90,53,0.31233
10223190,-0.14000,79.0625,90,53,0.31038
10223200,-0.14000,76.5000,90,53,0.30769
10223210,-0.14000,75.1875,90,53,0.30867
10223220,-0.14000,73.8750,90,53,0.31184
10223230,-0.14000,72.5000,90,53,0.31746
10223240,-0.13500,69.8750,90,53,0.34090
10223250,-0.13500,68.6250,90,53,0.35995
10223260,-0.13500,67.4375,90,53,0.38413
10223270,-0.13500,66.3750,90,53,0.41294
10223280,-0.14000,64.3750,90,53,0.48132
10223290,-0.13500,63.5000,90,53,0.51893
10223300,-0.13500,62.7500,90,53,0.55775
10223310,-0.12500,62.0625,90,53,0.59658
10223320,-0.09500,60.8750,90,53,0.65836
10223330,-0.07500,60.3750,90,53,0.68889
10223340,-0.07500,60.3750,90,53,0.68889
10223350,-0.05500,59.5625,90,53,0.74603
10223360,-0.04000,58.9375,90,53,0.79267
10223370,-0.05500,58.6875,90,53,0.81050
10223380,-0.07500,58.5000,90,53,0.82466
10223390,-0.09500,58.3125,90,53,0.83516
10223400,-0.13000,58.0625,90,53,0.84664
10223410,-0.16500,58.0000,90,53,0.84835
10223420,-0.16500,58.0000,90,53,0.84835
10223430,-0.18000,57.7500,90,53,0.84347
10223440,-0.18000,57.7500,90,53,0.84347
10223450,-0.16500,57.4375,90,53,0.82662
10223460,-0.15500,57.3750,90,53,0.81856
10223470,-0.15500,57.2500,90,53,0.80904
10223480,-0.20000,57.0625,90,53,0.78559
10223490,-0.15000,56.9375,90,53,0.77216
10223500,0.28500,56.8125,90,53,0.75751
10223510,1.13000,56.6875,90,53,0.74188
10223520,1.73500,56.3750,90,53,0.71258
10223530,1.28500,56.2500,90,53,0.69670
10223540,0.30500,56.0625,90,53,0.68010
10223550,-0.23500,55.8750,90,53,0.66276
10223560,-0.32500,55.5000,90,53,0.62808
10223570,-0.29500,55.3125,90,53,0.61123
10223580,-0.28000,55.1250,90,53,0.59512
10223590,-0.27000,54.9375,90,53,0.57924
10223600,-0.26000,54.5000,90,53,0.54945
10223610,-0.25000,54.3125,90,53,0.53602
10223620,-0.24000,54.1250,90,53,0.52479
10223630,-0.23500,53.9375,90,53,0.51502
10223640,-0.22500,53.5625,90,53,0.49475
10223650,-0.22000,53.3750,90,53,0.48547
10223660,-0.20500,53.1875,90,53,0.47692
10223670,-0.20000,53.0000,90,53,0.46862
10223680,-0.18500,52.6250,90,53,0.45421
10223690,-0.18000,52.4375,90,53,0.44811
10223700,-0.17000,52.3125,90,53,0.44274
10223710,-0.15500,52.2500,90,53,0.43785
10223720,-0.14000,53.0000,90,53,0.43053
10223730,-0.12500,54.0625,90,53,0.42662
10223740,-0.10500,55.6875,90,53,0.42247
10223750,-0.08500,58.0000,90,53,0.41832
10223760,-0.05500,63.9375,90,53,0.41050
10223770,-0.03000,67.3750,90,53,0.40659
10223780,-0.00500,70.8750,90,53,0.40317
10223790,0.02000,74.4375,90,53,0.40024
10223800,0.05000,80.7500,90,53,0.39585
10223810,0.08000,83.3125,90,53,0.39390
10223820,0.11000,85.4375,90,53,0.39243
10223830,0.14000,87.1250,90,53,0.39121
10223840,0.17500,89.3125,90,53,0.38657
10223850,0.20000,89.8750,90,53,0.38364
10223860,0.19000,90.2500,90,53,0.38095
10223870,0.06500,90.3125,90,53,0.37827
10223880,-0.10000,89.8750,90,53,0.37314
10223890,-0.16500,89.3125,90,53,0.37070
10223900,-0.12500,88.6250,90,53,0.36801
10223910,-0.03500,87.8125,90,53,0.36557
10223920,0.01500,85.8125,90,53,0.36239
10223930,0.00000,84.7500,90,53,0.36068
10223940,-0.03000,83.5625,90,53,0.35897
10223950,-0.05500,82.3125,90,53,0.35678
10223960,-0.10000,79.8125,90,53,0.35214
10223970,-0.14500,78.5625,90,53,0.34994
10223980,-0.16500,77.2500,90,53,0.34799
10223990,-0.19000,75.8750,90,53,0.34725
10224000,-0.20000,73.1250,89,52,0.35263
10224010,-0.20500,71.6875,89,52,0.36020
10224020,-0.22000,70.3750,89,52,0.37021
10224030,-0.19000,69.0000,89,52,0.38266
10224040,-0.14000,66.5625,89,52,0.42369
10224050,-0.11500,65.4375,89,52,0.45153
10224060,-0.11500,65.4375,89,52,0.45153
10224070,-0.10000,63.4375,89,52,0.51844
10224080,-0.09000,61.8750,89,52,0.59365
10224090,-0.08500,61.1875,89,52,0.63175
10224100,-0.07000,60.5625,89,52,0.66838
10224110,-0.04000,60.0625,89,52,0.70305
10224120,-0.04000,60.0625,89,52,0.70305
10224130,-0.02000,58.6875,89,52,0.77607
10224140,-0.01500,58.3750,89,52,0.79731
10224150,0.00000,58.0625,89,52,0.81587
10224160,0.00000,57.6250,89,52,0.84322
10224170,-0.01500,57.4375,89,52,0.85177
10224180,-0.03500,57.2500,89,52,0.85739
10224190,-0.06500,57.0625,89,52,0.86032
10224200,-0.11000,56.8125,89,52,0.85934
10224210,-0.13500,56.6250,89,52,0.85568
10224220,-0.14000,56.5625,89,52,0.84957
10224230,-0.13000,56.4375,89,52,0.84176
10224240,-0.12500,56.1875,89,52,0.82271
10224250,-0.11500,56.0000,89,52,0.81148
10224260,-0.10500,55.8750,89,52,0.79902
10224270,-0.14000,55.6875,89,52,0.78559
10224280,-0.15500,55.3125,89,52,0.75556
10224290,0.12000,55.1250,89,52,0.73919
10224300,0.85000,55.0000,89,52,0.72210
10224310,1.61500,54.8125,89,52,0.70452
10224320,1.49500,54.3750,89,52,0.67228
10224330,0.58500,54.2500,89,52,0.65495
10224340,-0.11500,54.0625,89,52,0.63736
10224350,-0.29000,53.8125,89,52,0.61954
10224360,-0.26000,53.3750,89,52,0.58462
10224370,-0.23000,53.1875,89,52,0.56801
10224380,-0.22000,53.0000,89,52,0.55214
10224390,-0.21000,52.7500,89,52,0.53700
10224400,-0.20000,52.3125,89,52,0.50916
10224410,-0.19000,52.0625,89,52,0.49646
10224420,-0.18500,51.8750,89,52,0.48596
10224430,-0.17500,51.6875,89,52,0.47668
10224440,-0.17500,51.2500,89,52,0.45739
10224450,-0.16500,51.0625,89,52,0.44835
10224460,-0.15500,50.8125,89,52,0.43980
10224470,-0.14500,50.6250,89,52,0.43199
10224480,-0.14000,50.2500,89,52,0.41783
10224490,-0.13000,50.1250,89,52,0.41123
10224500,-0.11500,50.0625,89,52,0.40537
10224510,-0.09500,50.1250,89,52,0.39976
10224520,-0.08000,51.0625,89,52,0.39170
10224530,-0.05500,52.3125,89,52,0.38755
10224540,-0.04000,54.1250,89,52,0.38291
10224550,-0.02000,56.5000,89,52,0.37827
10224560,0.00000,62.3750,89,52,0.36947
10224570,0.02500,65.6250,89,52,0.36532
10224580,0.02500,65.6250,89,52,0.36532
10224590,0.08000,72.3125,89,52,0.35726
10224600,0.11000,78.0000,89,52,0.33480
10224610,0.14500,80.3125,89,52,0.30842
10224620,0.17500,82.1250,89,52,0.29451
10224630,0.22000,83.5625,89,52,0.28669
10224640,0.25500,85.3125,89,52,0.27643
10224650,0.27000,85.7500,89,52,0.27228
10224660,0.24500,85.9375,89,52,0.26789
10224670,0.19500,85.9375,89,52,0.26349
10224680,0.12000,85.3125,89,52,0.25543
10224690,0.04000,84.6875,89,52,0.25128
10224700,-0.01500,83.9375,89,52,0.24737
10224710,-0.05500,83.0625,89,52,0.24371
10224720,-0.08500,81.0000,89,52,0.24005
10224730,-0.10000,79.8750,89,52,0.23785
10224740,-0.11000,78.6875,89,52,0.23516
10224750,-0.11500,77.5000,89,52,0.23199
10224760,-0.11500,74.9375,89,52,0.22589
10224770,-0.11500,73.6250,89,52,0.22271
10224780,-0.11500,72.2500,89,52,0.22002
10224790,-0.12000,70.8750,89,52,0.21832
10224800,-0.12500,68.1250,89,52,0.22100
10224810,-0.12000,66.8125,89,52,0.22662
10224820,-0.12000,65.5625,89,52,0.23468
10224830,-0.12500,64.4375,89,52,0.24567
10224840,-0.12500,62.2500,89,52,0.28156
10224850,-0.12000,61.3125,89,52,0.30574
10224860,-0.12500,60.4375,89,52,0.33358
10224870,-0.12500,59.6250,89,52,0.36386
10224880,-0.11500,58.2500,89,52,0.42882
10224890,-0.10500,57.6875,89,52,0.46178
10224900,-0.09500,57.1875,89,52,0.49377
10224910,-0.06500,56.7500,89,52,0.52381
10224920,-0.05500,56.0625,89,52,0.56728
10224930,-0.04500,55.7500,89,52,0.58681
10224940,-0.02500,55.5000,89,52,0.60440
10224950,-0.00500,55.3125,89,52,0.61929
10224960,-0.02500,55.0000,89,52,0.64029
10224970,-0.04500,54.8750,89,52,0.64664
10224980,-0.07500,54.7500,89,52,0.65031
10224990,-0.11000,54.6250,89,52,0.65153
10225000,-0.14500,54.4375,89,52,0.64762
10225010,-0.16000,54.3125,89,52,0.64298
10225020,-0.16000,54.2500,89,52,0.63687
10225030,-0.15000,54.1250,89,52,0.62955
10225040,-0.14000,53.9375,89,52,0.61099
10225050,-0.13000,53.8125,89,52,0.60024
10225060,-0.12500,53.6875,89,52,0.58852
10225070,-0.17000,53.5625,89,52,0.57607
10225080,-0.15000,53.3125,89,52,0.54847
10225090,-0.15000,53.3125,89,52,0.54847
10225100,1.02000,53.0000,89,52,0.51795
10225110,1.62000,52.8125,89,52,0.50208
10225120,1.19000,52.5000,89,52,0.47473
10225130,0.27500,52.3125,89,52,0.46007
10225140,-0.22000,52.1250,89,52,0.44493
10225150,-0.30500,52.0000,89,52,0.43004
10225160,-0.26000,51.6250,89,52,0.40171
10225170,-0.23500,51.3750,89,52,0.38852
10225180,-0.22500,51.1875,89,52,0.37607
10225190,-0.21500,50.9375,89,52,0.36410
10225200,-0.20500,50.5625,89,52,0.34261
10225210,-0.20000,50.3125,89,52,0.33455
10225220,-0.19000,50.1250,89,52,0.32772
10225230,-0.18500,49.8750,89,52,0.32063
10225240,-0.17500,49.5000,89,52,0.30672
10225250,-0.16500,49.2500,89,52,0.30061
10225260,-0.15500,49.1250,89,52,0.29499
10225270,-0.14500,48.9375,89,52,0.29011
10225280,-0.13500,48.5625,89,52,0.28156
10225290,-0.12000,48.4375,89,52,0.27766
10225300,-0.11000,48.3750,89,52,0.27375
10225310,-0.09500,48.4375,89,52,0.27009
10225320,-0.07500,49.3750,89,52,0.26545
10225330,-0.05500,50.5625,89,52,0.26300
10225340,-0.03500,52.3125,89,52,0.26032
10225350,-0.01500,54.5625,89,52,0.25788
10225360,0.00000,60.1875,89,52,0.25250
10225370,0.03000,63.3125,89,52,0.24982
10225380,0.06000,66.5000,89,52,0.24737
10225390,0.06000,66.5000,89,52,0.24737
10225400,0.12000,75.0625,89,52,0.24029
10225410,0.16000,77.3125,89,52,0.23907
10225420,0.20000,79.1250,89,52,0.23834
10225430,0.24500,80.5000,89,52,0.23663
10225440,0.27500,82.2500,89,52,0.23272
10225450,0.28500,82.6875,89,52,0.23053
10225460,0.24000,82.8750,89,52,0.22808
10225470,0.17000,82.9375,89,52,0.22564
10225480,0.08500,82.2500,89,52,0.22002
10225490,0.01000,81.6875,89,52,0.21734
10225500,-0.04500,81.0000,89,52,0.21416
10225510,-0.08500,80.1875,89,52,0.21074
10225520,-0.10500,78.1875,89,52,0.20708
10225530,-0.11500,77.0625,89,52,0.20464
10225540,-0.11500,75.9375,89,52,0.20171
10225550,-0.12000,74.7500,89,52,0.19853
10225560,-0.12500,72.1875,89,52,0.19267
10225570,-0.12500,70.9375,89,52,0.19023
10225580,-0.12000,69.5625,89,52,0.18852
10225590,-0.12000,68.2500,89,52,0.18803
10225600,-0.12000,65.5625,89,52,0.19267
10225610,-0.12500,64.3750,89,52,0.19805
10225620,-0.12500,63.1875,89,52,0.20635
10225630,-0.12500,62.0625,89,52,0.21807
10225640,-0.12500,60.0625,89,52,0.25397
10225650,-0.12500,59.1875,89,52,0.27790
10225660,-0.12500,58.3750,89,52,0.30501
10225670,-0.12000,57.6875,89,52,0.33529
10225680,-0.11500,56.5000,89,52,0.40098
10225690,-0.10000,55.9375,89,52,0.43419
10225700,-0.08000,55.5000,89,52,0.46642
10225710,-0.06500,55.1250,89,52,0.49670
10225720,-0.05500,54.5000,89,52,0.54188
10225730,-0.03500,54.2500,89,52,0.56239
10225740,-0.02000,54.0625,89,52,0.58095
10225750,-0.03000,53.8750,89,52,0.59683
10225760,-0.06000,53.5625,89,52,0.61978
10225770,-0.08500,53.4375,89,52,0.62662
10225780,-0.12500,53.3125,89,52,0.63077
10225790,-0.15500,53.2500,89,52,0.63223
10225800,-0.17000,53.1250,89,52,0.62857
10225810,-0.17000,53.0625,89,52,0.62393
10225820,-0.16500,53.0000,89,52,0.61807
10225830,-0.16000,52.9375,89,52,0.61050
10225840,-0.15000,52.7500,89,52,0.59096
10225850,-0.14500,52.6250,89,52,0.57949
10225860,-0.15500,52.5625,89,52,0.56679
10225870,0.02000,52.4375,89,52,0.55311
10225880,0.40000,52.1875,89,52,0.52405
10225890,1.00000,52.0625,89,52,0.50891
10225900,1.60000,51.9375,89,52,0.49353
10225910,1.34500,51.7500,89,52,0.47814
10225920,0.40000,51.4375,89,52,0.45153
10225930,-0.21000,51.3125,89,52,0.43785
10225940,-0.32500,51.1250,89,52,0.42369
10225950,-0.28000,51.0000,89,52,0.40928
10225960,-0.25000,50.6250,89,52,0.38169
10225970,-0.23500,50.3750,89,52,0.36850
10225980,-0.23000,50.1875,89,52,0.35580
10225990,-0.23500,50.0000,89,52,0.34408
10226000,-0.23000,49.6250,88,52,0.32308
10226010,-0.22500,49.5000,88,52,0.31526
10226020,-0.22000,49.3125,88,52,0.30891
10226030,-0.21000,49.1250,88,52,0.30208
10226040,-0.21000,48.6875,88,52,0.28913
10226050,-0.20000,48.5000,88,52,0.28376
10226060,-0.19000,48.3125,88,52,0.27863
10226070,-0.17000,48.1250,88,52,0.27375
10226080,-0.16000,47.9375,88,52,0.26569
10226090,-0.14500,47.9375,88,52,0.26227
10226100,-0.12500,48.0625,88,52,0.25910
10226110,-0.09500,48.3750,88,52,0.25592
10226120,-0.09500,48.3750,88,52,0.25592
10226130,0.15000,52.3750,88,52,0.25055
10226140,0.18500,54.8125,88,52,0.24811
10226150,0.15500,57.6250,88,52,0.24591
10226160,0.14000,63.8750,88,52,0.24225
10226170,0.14000,63.8750,88,52,0.24225
10226180,0.14500,70.3125,88,52,0.23858
10226190,0.15500,73.1875,88,52,0.23663
10226200,0.15500,73.1875,88,52,0.23663
10226210,0.20000,79.6250,88,52,0.23150
10226220,0.23500,81.0000,88,52,0.23077
10226230,0.26500,81.9375,88,52,0.22930
10226240,0.26500,83.0625,88,52,0.22491
10226250,0.23000,83.3125,88,52,0.22222
10226260,0.15500,83.3750,88,52,0.21954
10226270,0.07000,83.1875,88,52,0.21661
10226280,-0.00500,82.3125,88,52,0.21123
10226290,-0.06500,81.6250,88,52,0.20855
10226300,-0.10500,80.8125,88,52,0.20586
10226310,-0.13000,79.9375,88,52,0.20342
10226320,-0.14500,77.8750,88,52,0.20073
10226330,-0.15500,76.7500,88,52,0.19902
10226340,-0.15500,75.6250,88,52,0.19658
10226350,-0.15500,74.4375,88,52,0.19414
10226360,-0.16000,71.8750,88,52,0.18974
10226370,-0.16000,70.5625,88,52,0.18828
10226380,-0.16000,69.2500,88,52,0.18803
10226390,-0.16000,67.9375,88,52,0.18926
10226400,-0.16000,65.3750,88,52,0.19853
10226410,-0.15500,64.1875,88,52,0.20708
10226420,-0.15500,63.0625,88,52,0.21880
10226430,-0.15500,62.0000,88,52,0.23492
10226440,-0.16000,60.0625,88,52,0.28059
10226450,-0.16500,59.2500,88,52,0.30940
10226460,-0.17000,58.5000,88,52,0.34115
10226470,-0.15500,57.8125,88,52,0.37460
10226480,-0.13500,56.6875,88,52,0.44274
10226490,-0.12000,56.2500,88,52,0.47570
10226500,-0.09000,55.8125,88,52,0.50720
10226510,-0.07500,55.5000,88,52,0.53626
10226520,-0.06500,54.9375,88,52,0.57753
10226530,-0.05500,54.6875,88,52,0.59609
10226540,-0.05500,54.4375,88,52,0.61245
10226550,-0.07000,54.3125,88,52,0.62637
10226560,-0.09500,54.0625,88,52,0.64420
10226570,-0.12500,54.0000,88,52,0.64860
10226580,-0.16000,53.8750,88,52,0.65079
10226590,-0.19000,53.8125,88,52,0.65104
10226600,-0.20000,53.6250,88,52,0.64591
10226610,-0.19000,53.5625,88,52,0.64103
10226620,-0.19000,53.5625,88,52,0.64103
10226630,-0.17500,53.4375,88,52,0.62759
10226640,-0.16500,53.3125,88,52,0.60928
10226650,-0.17000,53.1875,88,52,0.62100
10226660,-0.22000,53.0625,88,52,0.64249
10226670,-0.15500,52.9375,88,52,0.64542
10226680,0.33000,52.6875,88,52,0.62735
10226690,1.15500,52.5625,88,52,0.61343
10226700,1.54000,52.4375,88,52,0.59805
10226710,0.97000,52.3125,88,52,0.58169
10226720,0.12000,52.0625,88,52,0.55336
10226730,-0.28000,51.9375,88,52,0.53895
10226740,-0.31500,51.8125,88,52,0.52405
10226750,-0.28500,51.6875,88,52,0.50916
10226760,-0.27000,51.3750,88,52,0.48107
10226770,-0.26000,51.1875,88,52,0.46789
10226780,-0.25000,51.0625,88,52,0.45543
10226790,-0.24000,50.9375,88,52,0.44371
10226800,-0.23500,50.5625,88,52,0.42320
10226810,-0.22500,50.3750,88,52,0.41538
10226820,-0.21000,50.1875,88,52,0.40879
10226830,-0.19500,50.0625,88,52,0.40195
10226840,-0.19000,49.6875,88,52,0.38901
10226850,-0.18500,49.5000,88,52,0.38315
10226860,-0.17500,49.3125,88,52,0.37778
10226870,-0.16000,49.1875,88,52,0.37289
10226880,-0.15000,49.0625,88,52,0.36508
10226890,-0.13500,49.1250,88,52,0.36190
10226900,-0.13500,49.1250,88,52,0.36190
10226910,-0.10500,50.3125,88,52,0.35653
10226920,-0.08500,53.7500,88,52,0.35238
10226930,-0.06500,56.3750,88,52,0.34994
10226940,-0.04500,59.3125,88,52,0.34750
10226950,-0.02000,62.5000,88,52,0.34505
10226960,0.01000,69.2500,88,52,0.34066
10226970,0.04000,72.6250,88,52,0.33822
10226980,0.06500,75.6875,88,52,0.33578
10226990,0.10000,78.3750,88,52,0.33333
10227000,0.13500,82.5625,89,52,0.32845
10227010,0.16500,84.0625,89,52,0.32698
10227020,0.20000,85.1875,89,52,0.32576
10227030,0.23000,85.9375,89,52,0.32381
10227040,0.23500,86.8125,89,52,0.31844
10227050,0.19500,86.8750,89,52,0.31551
10227060,0.19500,86.8750,89,52,0.31551
10227070,0.05000,86.5000,89,52,0.31013
10227080,-0.02500,85.3125,89,52,0.30598
10227090,-0.07500,84.5625,89,52,0.30379
10227100,-0.11000,83.6250,89,52,0.30134
10227110,-0.13000,82.6250,89,52,0.29988
10227120,-0.14000,80.4375,89,52,0.29744
10227130,-0.14500,79.3125,89,52,0.29499
10227140,-0.15500,78.1250,89,52,0.29231
10227150,-0.15500,76.8750,89,52,0.28962
10227160,-0.15000,74.3750,89,52,0.28523
10227170,-0.15000,74.3750,89,52,0.28523
10227180,-0.14500,71.6875,89,52,0.28571
10227190,-0.14500,70.3750,89,52,0.28962
10227200,-0.14500,67.8125,89,52,0.30842
10227210,-0.15000,66.6250,89,52,0.32234
10227220,-0.15500,65.5000,89,52,0.33919
10227230,-0.15500,65.5000,89,52,0.33919
10227240,-0.14500,62.5000,89,52,0.42100
10227250,-0.14500,61.6250,89,52,0.45592
10227260,-0.14500,60.9375,89,52,0.49304
10227270,-0.13500,60.2500,89,52,0.53138
10227280,-0.12500,59.1250,89,52,0.60635
10227290,-0.10000,58.6250,89,52,0.64127
10227300,-0.09000,58.2500,89,52,0.67375
10227310,-0.08500,57.8750,89,52,0.69939
10227320,-0.06000,57.3125,89,52,0.74139
10227330,-0.04000,57.1250,89,52,0.76093
10227340,-0.06000,56.9375,89,52,0.77802
10227350,-0.08500,56.7500,89,52,0.79194
10227360,-0.10500,56.5000,89,52,0.81123
10227370,-0.13500,56.3750,89,52,0.81612
10227380,-0.17000,56.2500,89,52,0.81832
10227390,-0.18500,56.1875,89,52,0.81783
10227400,-0.18500,56.1250,89,52,0.81148
10227410,-0.17500,56.0625,89,52,0.80562
10227420,-0.17000,55.9375,89,52,0.79878
10227430,-0.15500,55.8750,89,52,0.79096
10227440,-0.15500,55.8750,89,52,0.79096
10227450,-0.21000,55.5000,89,52,0.76044
10227460,-0.13500,55.3750,89,52,0.74774
10227470,0.32000,55.2500,89,52,0.73407
10227480,1.17500,55.0000,89,52,0.70427
10227490,1.70500,54.8125,89,52,0.68889
10227500,1.15500,54.6250,89,52,0.67302
10227510,0.20000,54.4375,89,52,0.65836
10227520,-0.27000,54.0625,89,52,0.62979
10227530,-0.27000,54.0625,89,52,0.62979
10227540,-0.30000,53.7500,89,52,0.59951
10227550,-0.28000,53.5625,89,52,0.58413
10227560,-0.26000,53.1875,89,52,0.55482
10227570,-0.25000,52.9375,89,52,0.54115
10227580,-0.24500,52.7500,89,52,0.52821
10227590,-0.23500,52.5625,89,52,0.51624
10227600,-0.23000,52.1875,89,52,0.49451
10227610,-0.22500,52.0000,89,52,0.48620
10227620,-0.22000,51.8125,89,52,0.47912
10227630,-0.20500,51.6250,89,52,0.47179
10227640,-0.20000,51.3125,89,52,0.45788
10227650,-0.19000,51.1250,89,52,0.45153
10227660,-0.18500,50.9375,89,52,0.44542
10227670,-0.17000,50.8750,89,52,0.43980
10227680,-0.16500,51.1250,89,52,0.43028
10227690,-0.15000,51.6250,89,52,0.42613
10227700,-0.13000,52.6875,89,52,0.42222
10227710,-0.10500,54.4375,89,52,0.41929
10227720,-0.08500,59.6250,89,52,0.41343
10227730,-0.06000,62.8750,89,52,0.41001
10227740,-0.03500,66.3750,89,52,0.40684
10227750,-0.01000,70.0000,89,52,0.40366
10227760,0.02000,76.8750,89,52,0.39756
10227770,0.05000,79.9375,89,52,0.39438
10227780,0.08000,82.5000,89,52,0.39145
10227790,0.11000,84.6875,89,52,0.38852
10227800,0.14000,87.6875,89,52,0.38339
10227810,0.17000,88.6250,89,52,0.38169
10227820,0.20000,89.3125,89,52,0.38022
10227830,0.21000,89.6875,89,52,0.37851
10227840,0.18000,89.7500,89,52,0.37436
10227850,0.18000,89.7500,89,52,0.37436
10227860,0.04500,89.0000,89,52,0.36996
10227870,0.04500,89.0000,89,52,0.36996
10227880,-0.07000,86.8125,89,52,0.36410
10227890,-0.10000,85.8750,89,52,0.36215
10227900,-0.11500,84.8750,89,52,0.36044
10227910,-0.12500,83.7500,89,52,0.35946
10227920,-0.13500,81.4375,89,52,0.35702
10227930,-0.13500,80.2500,89,52,0.35531
10227940,-0.14000,79.0000,89,52,0.35360
10227950,-0.13500,77.7500,89,52,0.35214
10227960,-0.13500,75.1250,89,52,0.35263
10227970,-0.13500,73.8125,89,52,0.35556
10227980,-0.13000,72.4375,89,52,0.36142
10227990,-0.13000,71.1250,89,52,0.37094
10228000,-0.13000,68.6250,88,52,0.40317
10228010,-0.13000,67.4375,88,52,0.42295
10228020,-0.13000,66.3125,88,52,0.44469
10228030,-0.13000,65.3125,88,52,0.47277
10228040,-0.13000,63.4375,88,52,0.54090
10228050,-0.12500,62.6875,88,52,0.57827
10228060,-0.11500,61.9375,88,52,0.61612
10228070,-0.09000,61.3125,88,52,0.65324
10228080,-0.06000,60.1875,88,52,0.72186
10228090,-0.04500,59.6875,88,52,0.75214
10228100,-0.05000,59.2500,88,52,0.77900
10228110,-0.03500,58.8750,88,52,0.79902
10228120,-0.01500,58.3125,88,52,0.82930
10228130,-0.03000,58.0625,88,52,0.84225
10228140,-0.05500,57.8125,88,52,0.85275
10228150,-0.08000,57.6250,88,52,0.86081
10228160,-0.11500,57.2500,88,52,0.86935
10228170,-0.13500,57.1250,88,52,0.86960
10228180,-0.13500,57.0000,88,52,0.86764
10228190,-0.14500,56.8750,88,52,0.86349
10228200,-0.14000,56.6250,88,52,0.84982
10228210,-0.13500,56.5000,88,52,0.84103
10228220,-0.13500,56.5000,88,52,0.84103
10228230,-0.13500,56.1875,88,52,0.82100
10228240,-0.18000,55.8125,88,52,0.79707
10228250,-0.07500,55.6250,88,52,0.78339
10228260,0.46500,55.4375,88,52,0.76850
10228270,1.31500,55.2500,88,52,0.75263
10228280,1.68500,54.8750,88,52,0.71941
10228290,1.05500,54.6875,88,52,0.70232
10228300,0.14000,54.4375,88,52,0.68547
10228310,-0.26500,54.2500,88,52,0.66984
10228320,-0.28500,53.8750,88,52,0.63907
10228330,-0.25000,53.6250,88,52,0.62295
10228340,-0.24000,53.4375,88,52,0.60708
10228350,-0.23000,53.1875,88,52,0.59145
10228360,-0.22500,52.8125,88,52,0.56142
10228370,-0.21500,52.5625,88,52,0.54774
10228380,-0.20500,52.3750,88,52,0.53504
10228390,-0.20000,52.1250,88,52,0.52332
10228400,-0.19500,51.6875,88,52,0.50256
10228410,-0.18500,51.5000,88,52,0.49451
10228420,-0.18000,51.3125,88,52,0.48742
10228430,-0.17000,51.1250,88,52,0.48010
10228440,-0.16000,50.6875,88,52,0.46520
10228450,-0.15500,50.5000,88,52,0.45836
10228460,-0.14500,50.3750,88,52,0.45201
10228470,-0.14500,50.3750,88,52,0.45201
10228480,-0.11500,51.0000,88,52,0.43443
10228490,-0.09500,51.9375,88,52,0.42930
10228500,-0.08000,53.5000,88,52,0.42442
10228510,-0.06000,55.6250,88,52,0.42051
10228520,-0.03500,61.3125,88,52,0.41368
10228530,-0.00500,64.5625,88,52,0.40977
10228540,0.02000,68.0000,88,52,0.40610
10228550,0.05000,71.3750,88,52,0.40244
10228560,0.08000,77.5625,88,52,0.39512
10228570,0.11000,80.0625,88,52,0.39145
10228580,0.14000,82.1250,88,52,0.38803
10228590,0.17500,83.8125,88,52,0.38462
10228600,0.21000,86.0000,88,52,0.37753
10228610,0.24000,86.5625,88,52,0.37485
10228620,0.24000,86.9375,88,52,0.37265
10228630,0.20500,87.0000,88,52,0.36972
10228640,0.14000,86.6250,88,52,0.36239
10228650,0.06500,86.1250,88,52,0.35849
10228660,0.00000,85.4375,88,52,0.35482
10228670,-0.04500,84.6250,88,52,0.35140
10228680,-0.08000,82.5625,88,52,0.34505
10228690,-0.10000,81.4375,88,52,0.34188
10228700,-0.11000,80.2500,88,52,0.32845
10228710,-0.11500,79.0625,88,52,0.31062
10228720,-0.11500,79.0625,88,52,0.31062
10228730,-0.12000,75.1875,88,52,0.29084
10228740,-0.12000,73.8750,88,52,0.28767
10228750,-0.12000,73.8750,88,52,0.28767
10228760,-0.12000,69.8125,88,52,0.28523
10228770,-0.11500,68.4375,88,52,0.28840
10228780,-0.11500,67.1250,88,52,0.29475
10228790,-0.12000,65.9375,88,52,0.30452
10228800,-0.12000,63.6250,88,52,0.33309
10228810,-0.12000,62.5625,88,52,0.35018
10228820,-0.12000,61.6250,88,52,0.37241
10228830,-0.12000,60.7500,88,52,0.39829
10228840,-0.11500,59.2500,88,52,0.45617
10228850,-0.10500,58.6250,88,52,0.48645
10228860,-0.09500,58.0625,88,52,0.51648
10228870,-0.06500,57.5625,88,52,0.54579
10228880,-0.04500,56.8125,88,52,0.59829
10228890,-0.04500,56.5000,88,52,0.62100
10228900,-0.03000,56.1875,88,52,0.64078
10228910,-0.01500,55.9375,88,52,0.65519
10228920,-0.02000,55.5000,88,52,0.67546
10228930,-0.04500,55.3125,88,52,0.68352
10228940,-0.07000,55.1875,88,52,0.68962
10228950,-0.10500,55.0000,88,52,0.69353
10228960,-0.14000,54.7500,88,52,0.69426
10228970,-0.15500,54.6250,88,52,0.69182
10228980,-0.15500,54.5000,88,52,0.68791
10228990,-0.15500,54.3750,88,52,0.68230
10229000,-0.14500,54.2500,88,51,0.66764
10229010,-0.14000,54.1875,88,51,0.65885
10229020,-0.13000,54.0625,88,51,0.64884
10229030,-0.16500,53.9375,88,51,0.63785
10229040,-0.18000,53.6250,88,51,0.61319
10229050,0.12000,53.4375,88,51,0.59976
10229060,0.84000,53.3125,88,51,0.58559
10229070,1.52000,53.1250,88,51,0.57094
10229080,1.52000,53.1250,88,51,0.57094
10229090,0.44500,52.6875,88,51,0.52503
10229100,-0.18000,52.5000,88,51,0.50989
10229110,-0.31000,52.3750,88,51,0.49695
10229120,-0.27500,52.0000,88,51,0.47155
10229130,-0.24500,51.8125,88,51,0.45836
10229140,-0.23500,51.6250,88,51,0.44567
10229150,-0.23000,51.4375,88,51,0.43346
10229160,-0.22000,51.0625,88,51,0.41123
10229170,-0.21500,50.8750,88,51,0.40098
10229180,-0.21000,50.6875,88,51,0.39145
10229190,-0.20000,50.5000,88,51,0.38291
10229200,-0.19000,50.0625,88,51,0.36825
10229210,-0.18000,49.8750,88,51,0.36264
10229220,-0.17000,49.6875,88,51,0.35678
10229230,-0.16000,49.5625,88,51,0.35116
10229240,-0.15500,49.2500,88,51,0.34115
10229250,-0.14500,49.1250,88,51,0.33675
10229260,-0.13500,49.0625,88,51,0.33236
10229270,-0.13500,49.0625,88,51,0.33236
10229280,-0.10000,50.1250,88,51,0.32039
10229290,-0.08000,51.3125,88,51,0.31673
10229300,-0.05500,53.1250,88,51,0.31331
10229310,-0.03500,55.4375,88,51,0.31111
10229320,-0.01000,61.0625,88,51,0.30745
10229330,0.01500,64.1875,88,51,0.30549
10229340,0.05000,67.3750,88,51,0.30330
10229350,0.08000,70.4375,88,51,0.30085
10229360,0.11500,75.8750,88,51,0.29548
10229370,0.15000,78.0625,88,51,0.29255
10229380,0.19500,79.7500,88,51,0.28987
10229390,0.23000,81.1250,88,51,0.28694
10229400,0.27000,82.8125,88,51,0.28205
10229410,0.28500,83.2500,88,51,0.28059
10229420,0.25500,83.3750,88,51,0.27863
10229430,0.19000,83.3750,88,51,0.27643
10229440,0.11000,82.6875,88,51,0.27204
10229450,0.02000,82.1250,88,51,0.27009
10229460,-0.04000,81.4375,88,51,0.26813
10229470,-0.08000,80.5625,88,51,0.26593
10229480,-0.10500,78.5625,88,51,0.26178
10229490,-0.12000,77.5000,88,51,0.25958
10229500,-0.12500,76.3125,88,51,0.25739
10229510,-0.13000,75.0625,88,51,0.25617
10229520,-0.13000,72.5625,88,51,0.25397
10229530,-0.13000,71.3125,88,51,0.25201
10229540,-0.13000,71.3125,88,51,0.25201
10229550,-0.12500,68.6250,88,51,0.24884
10229560,-0.12500,66.0000,88,51,0.25006
10229570,-0.12500,64.6875,88,51,0.25397
10229580,-0.12500,63.5000,88,51,0.26081
10229590,-0.12500,62.3750,88,51,0.27106
10229600,-0.12500,60.3750,88,51,0.30061
10229610,-0.12500,59.5000,88,51,0.31819
10229620,-0.12500,58.7500,88,51,0.34042
10229630,-0.11500,58.0000,88,51,0.36606
10229640,-0.10500,56.7500,88,51,0.42271
10229650,-0.09000,56.2500,88,51,0.45177
10229660,-0.07000,55.8125,88,51,0.48010
10229670,-0.05500,55.4375,88,51,0.50745
10229680,-0.05000,54.8750,88,51,0.55556
10229690,-0.02500,54.5625,88,51,0.57582
10229700,-0.01000,54.3125,88,51,0.59341
10229710,-0.03000,54.1250,88,51,0.60586
10229720,-0.05500,53.8125,88,51,0.62247
10229730,-0.08500,53.7500,88,51,0.62833
10229740,-0.12000,53.6250,88,51,0.63223
10229750,-0.15500,53.5625,88,51,0.63419
10229760,-0.17000,53.3750,88,51,0.63223
10229770,-0.17000,53.3750,88,51,0.63223
10229780,-0.16000,53.1875,88,51,0.62320
10229790,-0.15000,53.0625,88,51,0.61661
10229800,-0.14000,52.8750,88,51,0.60122
10229810,-0.13500,52.7500,88,51,0.59292
10229820,-0.17500,52.6875,88,51,0.58315
10229830,-0.17500,52.5625,88,51,0.57265
10229840,0.12500,52.3125,88,51,0.54896
10229850,0.87500,52.2500,88,51,0.53602
10229860,1.56500,52.1250,88,51,0.52259
10229870,1.27500,52.0000,88,51,0.50891
10229880,0.37000,51.6875,88,51,0.48181
10229890,-0.19500,51.5000,88,51,0.46838
10229900,-0.31500,51.3750,88,51,0.45470
10229910,-0.28000,51.1875,88,51,0.44298
10229920,-0.25000,50.8750,88,51,0.42173
10229930,-0.24000,50.6875,88,51,0.41050
10229940,-0.22500,50.5000,88,51,0.39951
10229950,-0.22000,50.3125,88,51,0.38926
10229960,-0.21000,50.0000,88,51,0.37021
10229970,-0.20000,49.8125,88,51,0.36166
10229980,-0.18000,49.6250,88,51,0.35409
10229990,-0.17500,49.4375,88,51,0.34701
10230000,-0.17000,49.1250,87,51,0.33529
10230010,-0.16500,48.9375,87,51,0.33114
10230020,-0.15500,48.7500,87,51,0.32674
10230030,-0.14500,48.5625,87,51,0.32234
10230040,-0.13500,48.3125,87,51,0.31477
10230050,-0.12500,48.3125,87,51,0.31111
10230060,-0.11000,48.4375,87,51,0.30745
10230070,-0.09500,48.8125,87,51,0.30427
10230080,-0.07500,51.0000,87,51,0.29768
10230090,-0.07500,51.0000,87,51,0.29768
10230100,-0.04000,55.3750,87,51,0.29133
10230110,-0.01500,58.1875,87,51,0.28938
10230120,0.01000,64.3125,87,51,0.28620
10230130,0.04000,67.5000,87,51,0.28400
10230140,0.07500,70.5000,87,51,0.28156
