RelativeTimeMilliseconds,ECG,ART,ART (Sys),ART (Dia),PPG
11424980,-0.10500,57.7500,103,57,0.33284
11424990,-0.09000,59.0000,103,57,0.33016
11425000,-0.07500,63.3750,104,57,0.32430
11425010,-0.05500,66.3125,104,57,0.32137
11425020,-0.03000,69.6250,104,57,0.31868
11425030,-0.00500,73.2500,104,57,0.31600
11425040,-0.00500,73.2500,104,57,0.31600
11425050,0.04500,84.5625,104,57,0.30794
11425060,0.08000,88.0000,104,57,0.30525
11425070,0.11000,91.1250,104,57,0.30256
11425080,0.14500,96.1875,104,57,0.29988
11425090,0.17500,98.1250,104,57,0.29817
11425100,0.21500,99.6250,104,57,0.29621
11425110,0.24500,100.8125,104,57,0.29402
11425120,0.27500,102.0625,104,57,0.28962
11425130,0.26500,102.2500,104,57,0.28767
11425140,0.21500,102.1875,104,57,0.28547
11425150,0.13500,101.8750,104,57,0.28352
11425160,0.05000,100.8750,104,57,0.27937
11425170,-0.02500,100.1250,104,57,0.27790
11425180,-0.09000,99.3125,104,57,0.27692
11425190,-0.11500,98.3750,104,57,0.27521
11425200,-0.12000,96.3750,104,57,0.27082
11425210,-0.12500,95.3125,104,57,0.26813
11425220,-0.12500,94.1875,104,57,0.26569
11425230,-0.12500,93.0000,104,57,0.26325
11425240,-0.12500,90.5000,104,57,0.25934
11425250,-0.13000,89.1250,104,57,0.25861
11425260,-0.15000,87.5625,104,57,0.25958
11425270,-0.14500,86.0000,104,57,0.26300
11425280,-0.12000,82.7500,104,57,0.27619
11425290,-0.12000,81.1875,104,57,0.28742
11425300,-0.12000,79.6875,104,57,0.30281
11425310,-0.12000,78.2500,104,57,0.32234
11425320,-0.12000,75.6875,104,57,0.37192
11425330,-0.12500,74.5625,104,57,0.40049
11425340,-0.12500,73.5625,104,57,0.43028
11425350,-0.12000,72.6250,104,57,0.46032
11425360,-0.12000,71.1250,104,57,0.51819
11425370,-0.12500,70.5625,104,57,0.54139
11425380,-0.12500,70.0625,104,57,0.56068
11425390,-0.12000,69.6250,104,57,0.58046
11425400,-0.10500,68.9375,104,57,0.61612
11425410,-0.18000,68.7500,104,57,0.63053
11425420,-0.21500,68.5000,104,57,0.64249
11425430,-0.15500,68.3750,104,57,0.65226
11425440,-0.15500,68.3750,104,57,0.65226
11425450,-0.11500,67.9375,104,57,0.66813
11425460,-0.11500,67.9375,104,57,0.66813
11425470,-0.26500,67.6875,104,57,0.67033
11425480,-0.27000,67.3750,104,57,0.66593
11425490,-0.26500,67.1875,104,57,0.66252
11425500,-0.27000,67.0000,104,57,0.65836
11425510,-0.28000,66.8125,104,57,0.65324
11425520,-0.27000,66.4375,104,57,0.64054
11425530,-0.25500,66.2500,104,57,0.63297
11425540,-0.23000,66.0000,104,57,0.62418
11425550,-0.20500,65.6875,104,57,0.61416
11425560,-0.17500,65.1250,104,57,0.59170
11425570,-0.16000,64.8750,104,57,0.58046
11425580,-0.18000,64.5625,104,57,0.56947
11425590,-0.21000,64.3125,104,57,0.55751
11425600,-0.01500,63.8125,104,57,0.53309
11425610,0.62500,63.5625,104,57,0.52112
11425620,0.62500,63.5625,104,57,0.52112
11425630,1.58000,63.0625,104,57,0.49768
11425640,0.81000,62.5625,104,57,0.47570
11425650,0.01500,62.3125,104,57,0.46545
11425660,-0.27000,62.0625,104,57,0.45543
11425670,-0.25000,61.8750,104,57,0.44615
11425680,-0.22000,61.4375,104,57,0.43175
11425690,-0.20500,61.1875,104,57,0.42491
11425700,-0.19000,60.9375,104,57,0.41856
11425710,-0.18000,60.7500,104,57,0.41270
11425720,-0.17000,60.2500,104,57,0.40269
11425730,-0.16000,60.0000,104,57,0.39829
11425740,-0.14500,59.7500,104,57,0.39414
11425750,-0.13500,59.5625,104,57,0.39023
11425760,-0.12000,59.0625,104,57,0.38266
11425770,-0.10500,58.8125,104,57,0.37973
11425780,-0.08500,58.5625,104,57,0.37729
11425790,-0.07500,58.3750,104,57,0.37436
11425800,-0.08000,58.1250,104,57,0.36801
11425810,-0.08500,58.1875,104,57,0.36459
11425820,-0.07500,58.5000,104,57,0.36093
11425830,-0.06500,59.2500,104,57,0.35726
11425840,-0.05000,62.6250,104,57,0.35043
11425850,-0.03000,65.2500,104,57,0.34750
11425860,-0.00500,68.3750,104,57,0.34457
11425870,0.01000,71.8750,104,57,0.34164
11425880,0.02500,79.6250,104,57,0.33846
11425890,0.06000,83.5625,104,57,0.33651
11425900,0.09000,87.3750,104,57,0.33431
11425910,0.12500,90.9375,104,57,0.33162
11425920,0.16000,96.9375,104,57,0.32650
11425930,0.18500,99.3750,104,57,0.32405
11425940,0.21000,101.3125,104,57,0.32161
11425950,0.23500,102.8750,104,57,0.31917
11425960,0.27000,104.9375,104,57,0.31429
11425970,0.29000,105.5000,104,57,0.31282
11425980,0.29000,105.6875,104,57,0.31209
11425990,0.25000,105.6875,104,57,0.31062
11426000,0.18000,105.0625,104,58,0.30696
11426010,0.10000,104.5000,104,58,0.30501
11426020,0.10000,104.5000,104,58,0.30501
11426030,-0.02000,103.0625,104,58,0.30134
11426040,-0.05500,101.1875,104,58,0.29792
11426050,-0.07500,100.1875,104,58,0.29621
11426060,-0.08500,99.1250,104,58,0.29451
11426070,-0.09000,98.0625,104,58,0.29304
11426080,-0.09500,95.6875,104,58,0.29182
11426090,-0.09500,94.4375,104,58,0.29133
11426100,-0.09000,93.0625,104,58,0.29133
11426110,-0.09500,91.5625,104,58,0.29255
11426120,-0.09500,88.3750,104,58,0.30183
11426130,-0.09000,86.7500,104,58,0.31136
11426140,-0.09000,85.1250,104,58,0.32479
11426150,-0.09500,83.5000,104,58,0.34261
11426160,-0.08500,80.5000,104,58,0.38950
11426170,-0.09000,79.1875,104,58,0.41343
11426180,-0.09500,77.8750,104,58,0.43712
11426190,-0.11500,76.7500,104,58,0.46471
11426200,-0.11000,74.8750,104,58,0.52357
11426210,-0.09500,74.1250,104,58,0.55214
11426220,-0.09500,73.4375,104,58,0.57924
11426230,-0.11000,72.8750,104,58,0.60391
11426240,-0.11500,71.9375,104,58,0.64542
11426250,-0.10500,71.6250,104,58,0.66227
11426260,-0.08500,71.3125,104,58,0.67643
11426270,-0.06500,71.0000,104,58,0.68840
11426280,-0.04500,70.6250,104,58,0.70134
11426290,-0.04000,70.5000,104,58,0.70623
11426300,-0.02000,70.3125,104,58,0.71038
11426310,-0.00500,70.1250,104,58,0.71331
11426320,-0.01500,69.8125,104,58,0.71526
11426330,-0.02500,69.6250,104,58,0.71453
11426340,-0.04500,69.5000,104,58,0.71258
11426350,-0.08500,69.3125,104,58,0.70940
11426360,-0.12500,68.9375,104,58,0.69988
11426370,-0.14500,68.6875,104,58,0.69377
11426380,-0.14500,68.4375,104,58,0.68694
11426390,-0.13500,68.1875,104,58,0.67937
11426400,-0.12500,67.6875,104,58,0.66129
11426410,-0.12000,67.4375,104,58,0.65104
11426420,-0.10500,67.1250,104,58,0.64029
11426430,-0.12500,66.8125,104,58,0.62906
11426440,-0.15500,66.3125,104,58,0.60513
11426450,0.05000,66.0625,104,58,0.59292
11426460,0.65000,65.8125,104,58,0.58046
11426470,1.45000,65.5000,104,58,0.56899
11426480,1.68000,65.0000,104,58,0.54652
11426490,0.92000,64.6875,104,58,0.53504
11426500,0.05500,64.4375,104,58,0.52381
11426510,-0.25000,64.1875,104,58,0.51306
11426520,-0.25500,63.6250,104,58,0.49377
11426530,-0.23000,63.3750,104,58,0.48547
11426540,-0.22000,63.1250,104,58,0.47766
11426550,-0.21000,62.8125,104,58,0.47033
11426560,-0.20000,62.3125,104,58,0.45714
11426570,-0.19500,62.0625,104,58,0.45201
11426580,-0.19000,61.8750,104,58,0.44737
11426590,-0.18000,61.6250,104,58,0.44274
11426600,-0.17500,61.1250,104,58,0.43468
11426610,-0.17000,60.8750,104,58,0.43077
11426620,-0.16500,60.5625,104,58,0.42711
11426630,-0.16000,60.3125,104,58,0.42344
11426640,-0.15500,59.8750,104,58,0.41563
11426650,-0.14500,59.7500,104,58,0.41197
11426660,-0.13500,59.8125,104,58,0.40830
11426670,-0.12000,60.1875,104,58,0.40513
11426680,-0.10500,62.3750,104,58,0.40269
11426690,-0.09500,64.4375,104,58,0.40024
11426700,-0.07500,67.1250,104,58,0.39731
11426710,-0.06000,70.3750,104,58,0.39414
11426720,-0.04000,77.8750,104,58,0.38803
11426730,-0.01500,81.9375,104,58,0.38462
11426740,0.01000,86.0000,104,58,0.38095
11426750,0.04000,89.9375,104,58,0.37753
11426760,0.07000,96.6875,104,58,0.37167
11426770,0.10000,99.4375,104,58,0.36972
11426780,0.10000,99.4375,104,58,0.36972
11426790,0.15500,103.6875,104,58,0.36581
11426800,0.19000,106.2500,104,58,0.36044
11426810,0.22000,106.9375,104,58,0.35751
11426820,0.24500,107.3125,104,58,0.35458
11426830,0.24500,107.3750,104,58,0.35165
11426840,0.20500,106.8125,104,58,0.34652
11426850,0.14000,106.2500,104,58,0.34432
11426860,0.06000,105.5625,104,58,0.34237
11426870,-0.00500,104.8125,104,58,0.34115
11426880,-0.05500,103.0000,104,58,0.33919
11426890,-0.09000,102.0000,104,58,0.33797
11426900,-0.11000,100.9375,104,58,0.33651
11426910,-0.12500,99.8125,104,58,0.33480
11426920,-0.13500,97.4375,104,58,0.33089
11426930,-0.14000,96.2500,104,58,0.32918
11426940,-0.14000,94.9375,104,58,0.32796
11426950,-0.14500,93.5625,104,58,0.32772
11426960,-0.14500,90.4375,104,58,0.33358
11426970,-0.14000,88.7500,104,58,0.33968
11426980,-0.14500,87.1250,104,58,0.34872
11426990,-0.14500,85.5000,104,58,0.36215
11427000,-0.14000,82.3125,104,58,0.40317
11427010,-0.13500,80.8125,104,58,0.43004
11427020,-0.13000,79.5000,104,58,0.46032
11427030,-0.12500,78.2500,104,58,0.49255
11427040,-0.12500,78.2500,104,58,0.49255
11427050,-0.12500,75.0625,104,58,0.59170
11427060,-0.12500,74.2500,104,58,0.62222
11427070,-0.12500,73.5000,104,58,0.64640
11427080,-0.13500,72.3750,104,58,0.68645
11427090,-0.13500,72.3750,104,58,0.68645
11427100,-0.12500,71.6250,104,58,0.72186
11427110,-0.12000,71.1875,104,58,0.73915
11427120,-0.11000,70.8750,104,58,0.74774
11427130,-0.08500,70.5000,104,58,0.75702
11427140,-0.06500,70.1875,104,58,0.76435
11427150,-0.05000,69.8750,104,58,0.76972
11427160,-0.02500,69.3125,104,58,0.77460
11427170,-0.01000,69.0625,104,58,0.77485
11427180,-0.03000,68.8125,104,58,0.77265
11427190,-0.05000,68.5625,104,58,0.76899
11427200,-0.07500,68.1250,104,58,0.75946
11427210,-0.11500,67.8750,104,58,0.75336
11427220,-0.14500,67.6875,104,58,0.74628
11427230,-0.15500,67.5000,104,58,0.73822
11427240,-0.15500,67.1250,104,58,0.71941
11427250,-0.14500,66.9375,104,58,0.70891
11427260,-0.13500,66.7500,104,58,0.69768
11427270,-0.12500,66.5000,104,58,0.68571
11427280,-0.12500,65.9375,104,58,0.66276
11427290,-0.16500,65.6250,104,58,0.65031
11427300,-0.15500,65.2500,104,58,0.63785
11427310,0.15500,64.9375,104,58,0.62540
11427320,0.90000,64.3750,104,58,0.60122
11427330,1.60500,64.0625,104,58,0.58950
11427340,1.36500,63.8125,104,58,0.57802
11427350,0.43500,63.5625,104,58,0.56703
11427360,-0.19000,62.9375,104,58,0.54676
11427370,-0.32500,62.6875,104,58,0.53773
11427380,-0.29000,62.4375,104,58,0.52991
11427390,-0.26000,62.1875,104,58,0.52308
11427400,-0.24000,61.5625,104,58,0.50940
11427410,-0.23000,61.3125,104,58,0.50305
11427420,-0.22000,61.0000,104,58,0.49670
11427430,-0.21000,60.6875,104,58,0.49035
11427440,-0.20000,60.1250,104,58,0.47741
11427450,-0.19500,59.8125,104,58,0.47082
11427460,-0.19000,59.5000,104,58,0.46422
11427470,-0.18500,59.1875,104,58,0.45739
11427480,-0.18000,58.6250,104,58,0.44591
11427490,-0.17000,58.3750,104,58,0.43932
11427500,-0.16000,58.1250,104,58,0.43199
11427510,-0.15000,57.9375,104,58,0.42442
11427520,-0.15000,57.8125,104,58,0.40904
11427530,-0.15000,58.0000,104,58,0.40147
11427540,-0.15000,58.0000,104,58,0.40147
11427550,-0.12000,59.5625,104,58,0.38755
11427560,-0.10500,63.5625,104,58,0.37485
11427570,-0.08500,66.3750,104,58,0.36923
11427580,-0.06000,69.6250,104,58,0.36484
11427590,-0.03500,73.1250,104,58,0.36117
11427600,-0.00500,80.7500,104,58,0.35165
11427610,0.03000,84.5625,104,58,0.34652
11427620,0.06500,88.1250,104,58,0.34115
11427630,0.10000,91.3750,104,58,0.33578
11427640,0.13000,96.6250,104,58,0.32576
11427650,0.15500,98.6875,104,58,0.32088
11427660,0.18000,100.2500,104,58,0.31624
11427670,0.21000,101.3750,104,58,0.31160
11427680,0.22500,102.7500,104,58,0.30574
11427690,0.21500,102.9375,104,58,0.30208
11427700,0.16500,102.8750,104,58,0.29841
11427710,0.09500,102.5000,104,58,0.29475
11427720,0.02000,101.1875,104,58,0.28669
11427730,-0.03500,100.3750,104,58,0.28278
11427740,-0.08500,99.5000,104,58,0.27888
11427750,-0.10500,98.5625,104,58,0.27497
11427760,-0.12500,96.4375,104,58,0.26764
11427770,-0.14000,95.3125,104,58,0.26374
11427780,-0.14500,94.1250,104,58,0.26081
11427790,-0.15000,93.0000,104,58,0.25885
11427800,-0.14500,90.5000,104,58,0.25348
11427810,-0.14500,90.5000,104,58,0.25348
11427820,-0.14500,87.5625,104,58,0.25031
11427830,-0.14500,85.9375,104,58,0.25153
11427840,-0.14500,82.7500,104,58,0.26325
11427850,-0.14500,81.2500,104,58,0.27473
11427860,-0.14500,79.7500,104,58,0.29084
11427870,-0.14000,78.3750,104,58,0.31111
11427880,-0.14000,75.9375,104,58,0.35458
11427890,-0.14000,74.8750,104,58,0.38193
11427900,-0.14000,73.8750,104,58,0.41245
11427910,-0.13500,73.0625,104,58,0.44444
11427920,-0.13500,71.6250,104,58,0.50769
11427930,-0.13500,71.0000,104,58,0.53724
11427940,-0.13500,70.4375,104,58,0.56435
11427950,-0.13500,70.0000,104,58,0.58852
11427960,-0.12500,69.1250,104,58,0.62784
11427970,-0.11500,68.8125,104,58,0.64274
11427980,-0.11500,68.8125,104,58,0.64274
11427990,-0.07000,68.2500,104,58,0.65983
11428000,-0.06500,67.8750,103,58,0.67057
11428010,-0.04500,67.7500,103,58,0.67350
11428020,-0.02500,67.5625,103,58,0.67424
11428030,-0.02500,67.5625,103,58,0.67424
11428040,-0.05500,67.0000,103,58,0.66691
11428050,-0.07500,66.8125,103,58,0.66154
11428060,-0.11000,66.5625,103,58,0.65543
11428070,-0.14500,66.3750,103,58,0.64835
11428080,-0.16500,65.9375,103,58,0.63346
11428090,-0.16000,65.6875,103,58,0.62515
11428100,-0.15500,65.4375,103,58,0.61563
11428110,-0.15500,65.1875,103,58,0.60513
11428120,-0.14500,64.6250,103,58,0.58144
11428130,-0.13000,64.3750,103,58,0.56850
11428140,-0.14000,64.1250,103,58,0.55507
11428150,-0.19500,63.8750,103,58,0.54115
11428160,-0.11000,63.3750,103,58,0.51282
11428170,0.36000,63.1250,103,58,0.49890
11428180,1.16500,62.8125,103,58,0.48694
11428190,1.59000,62.5625,103,58,0.47619
11428200,1.02000,62.1250,103,58,0.45348
11428210,0.14500,61.8750,103,58,0.44298
11428220,-0.26000,61.6250,103,58,0.43321
11428230,-0.29000,61.3125,103,58,0.42442
11428240,-0.29000,61.3125,103,58,0.42442
11428250,-0.22500,60.5000,103,58,0.40366
11428260,-0.21000,60.2500,103,58,0.39805
11428270,-0.19500,59.9375,103,58,0.39292
11428280,-0.19000,59.3750,103,58,0.38510
11428290,-0.20000,59.0000,103,58,0.38120
11428300,-0.20000,58.6875,103,58,0.37753
11428310,-0.20000,58.3125,103,58,0.37387
11428320,-0.19500,57.8750,103,58,0.36752
11428330,-0.19000,57.7500,103,58,0.36508
11428340,-0.18500,57.6250,103,58,0.36337
11428350,-0.18000,57.3750,103,58,0.36190
11428360,-0.17000,56.8750,103,58,0.35800
11428370,-0.16000,56.6250,103,58,0.35702
11428380,-0.16000,56.4375,103,58,0.35556
11428390,-0.15000,56.3125,103,58,0.35287
11428400,-0.13500,57.2500,103,58,0.34945
11428410,-0.12000,58.5625,103,58,0.34774
11428420,-0.09500,60.5000,103,58,0.34579
11428430,-0.07500,63.1875,103,58,0.34359
11428440,-0.05500,69.6875,103,58,0.33919
11428450,-0.02500,73.2500,103,58,0.33700
11428460,0.00000,77.0000,103,58,0.33480
11428470,0.03000,80.8125,103,58,0.33358
11428480,0.07000,87.9375,103,58,0.33114
11428490,0.10500,91.0000,103,58,0.32943
11428500,0.14000,93.6250,103,58,0.32796
11428510,0.17500,95.8125,103,58,0.32674
11428520,0.21000,99.0000,103,58,0.32503
11428530,0.24500,100.0000,103,58,0.32430
11428540,0.25500,100.6250,103,58,0.32308
11428550,0.23000,100.8750,103,58,0.32137
11428560,0.16000,100.4375,103,58,0.31526
11428570,0.08000,99.9375,103,58,0.31136
11428580,0.00000,99.2500,103,58,0.30525
11428590,-0.05500,98.4375,103,58,0.29768
11428600,-0.09500,96.5625,103,58,0.28059
11428610,-0.12000,95.5625,103,58,0.27253
11428620,-0.13500,94.5625,103,58,0.26545
11428630,-0.14500,93.5000,103,58,0.25958
11428640,-0.15000,91.1250,103,58,0.25104
11428650,-0.15000,89.8750,103,58,0.24737
11428660,-0.14500,88.5000,103,58,0.24420
11428670,-0.14500,87.0625,103,58,0.24249
11428680,-0.14500,83.8750,103,58,0.24225
11428690,-0.15000,82.1875,103,58,0.24396
11428700,-0.15000,80.5625,103,58,0.24860
11428710,-0.15000,79.0625,103,58,0.25739
11428720,-0.15000,76.2500,103,58,0.29035
11428730,-0.15000,74.9375,103,58,0.31477
11428740,-0.15000,73.7500,103,58,0.34164
11428750,-0.15500,72.6875,103,58,0.37070
11428760,-0.15000,70.9375,103,58,0.42882
11428770,-0.14500,70.1875,103,58,0.45421
11428780,-0.14500,69.5000,103,58,0.48181
11428790,-0.14000,68.9375,103,58,0.50891
11428800,-0.13000,68.0000,103,58,0.56801
11428810,-0.12500,67.6250,103,58,0.58681
11428820,-0.11000,67.3125,103,58,0.60269
11428830,-0.09000,67.0000,103,58,0.62466
11428840,-0.08500,66.6250,103,58,0.63590
11428850,-0.07000,66.5000,103,58,0.63785
11428860,-0.04500,66.3750,103,58,0.63639
11428870,-0.03500,66.2500,103,58,0.63443
11428880,-0.05500,65.9375,103,58,0.62564
11428890,-0.08500,65.7500,103,58,0.62076
11428900,-0.11500,65.6250,103,58,0.61538
11428910,-0.15500,65.5000,103,58,0.60952
11428920,-0.18000,65.1875,103,58,0.59487
11428930,-0.18500,65.0625,103,58,0.58608
11428940,-0.18000,64.8750,103,58,0.57729
11428950,-0.17500,64.6875,103,58,0.56801
11428960,-0.17000,64.3125,103,58,0.54579
11428970,-0.16000,64.1250,103,58,0.53382
11428980,-0.15500,63.9375,103,58,0.52161
11428990,-0.19000,63.6875,103,58,0.50940
11429000,-0.19000,63.1875,104,58,0.48596
11429010,0.11000,62.8750,104,58,0.47424
11429020,0.84500,62.6250,104,58,0.46276
11429030,1.56000,62.3750,104,58,0.45177
11429040,1.34500,61.8750,104,58,0.43223
11429050,0.45000,61.6875,104,58,0.42442
11429060,-0.16000,61.4375,104,58,0.41661
11429070,-0.31000,61.1875,104,58,0.40879
11429080,-0.28000,60.6250,104,58,0.39560
11429090,-0.25000,60.3750,104,58,0.38974
11429100,-0.23500,60.0625,104,58,0.38437
11429110,-0.22000,59.7500,104,58,0.37924
11429120,-0.21000,59.1875,104,58,0.36923
11429130,-0.20000,58.9375,104,58,0.36459
11429140,-0.19500,58.6875,104,58,0.36093
11429150,-0.19000,58.3750,104,58,0.35824
11429160,-0.18500,57.8750,104,58,0.35189
11429170,-0.18000,57.5625,104,58,0.34872
11429180,-0.17500,57.3750,104,58,0.34554
11429190,-0.17000,57.1250,104,58,0.34261
11429200,-0.16000,56.8750,104,58,0.33675
11429210,-0.15000,56.7500,104,58,0.33382
11429220,-0.14000,56.6250,104,58,0.33089
11429230,-0.12500,56.6875,104,58,0.32772
11429240,-0.11000,57.7500,104,58,0.32161
11429250,-0.09500,59.0625,104,58,0.31893
11429260,-0.08500,60.8750,104,58,0.31551
11429270,-0.07000,63.1875,104,58,0.31160
11429280,-0.05000,69.0000,104,58,0.30403
11429290,-0.02000,72.3750,104,58,0.30061
11429300,0.00000,76.0625,104,58,0.29744
11429310,0.03000,79.8125,104,58,0.29475
11429320,0.06000,86.8125,104,58,0.29035
11429330,0.08500,89.8125,104,58,0.28840
11429340,0.12000,92.4375,104,58,0.28718
11429350,0.15500,94.6875,104,58,0.28645
11429360,0.19500,98.1250,104,58,0.28181
11429370,0.23000,99.3125,104,58,0.27912
11429380,0.24500,100.1875,104,58,0.27643
11429390,0.23000,100.7500,104,58,0.27399
11429400,0.17000,101.1250,104,58,0.27009
11429410,0.09000,100.9375,104,58,0.26813
11429420,0.01000,100.6250,104,58,0.26545
11429430,-0.05000,100.0625,104,58,0.26154
11429440,-0.05000,100.0625,104,58,0.26154
11429450,-0.12500,97.6250,104,58,0.24737
11429460,-0.14500,96.5625,104,58,0.24151
11429470,-0.15500,95.4375,104,58,0.23590
11429480,-0.15500,95.4375,104,58,0.23590
11429490,-0.15000,91.8750,104,58,0.22979
11429500,-0.15000,90.5625,104,58,0.23370
11429510,-0.14500,89.1875,104,58,0.24078
11429520,-0.14500,86.2500,104,58,0.26618
11429530,-0.14000,84.6875,104,58,0.28474
11429540,-0.14000,84.6875,104,58,0.28474
11429550,-0.14000,81.5625,104,58,0.32405
11429560,-0.13500,78.6250,104,58,0.37582
11429570,-0.14000,77.2500,104,58,0.40464
11429580,-0.14000,75.9375,104,58,0.43394
11429590,-0.13500,74.7500,104,58,0.46325
11429600,-0.13000,72.7500,104,58,0.51844
11429610,-0.13500,71.8750,104,58,0.54310
11429620,-0.13500,71.1250,104,58,0.56532
11429630,-0.13000,70.5000,104,58,0.58486
11429640,-0.12500,69.5000,104,58,0.61465
11429650,-0.11500,69.0625,104,58,0.62466
11429660,-0.09500,68.6875,104,58,0.63419
11429670,-0.07500,68.4375,104,58,0.64249
11429680,-0.06500,68.0625,104,58,0.65470
11429690,-0.04500,67.8750,104,58,0.65836
11429700,-0.02500,67.7500,104,58,0.66032
11429710,-0.02500,67.6250,104,58,0.66056
11429720,-0.04500,67.3750,104,58,0.65665
11429730,-0.06500,67.2500,104,58,0.65226
11429740,-0.10500,67.1250,104,58,0.64664
11429750,-0.14000,67.0000,104,58,0.63980
11429760,-0.16000,66.6875,104,58,0.62271
11429770,-0.16000,66.5000,104,58,0.61270
11429780,-0.16000,66.3125,104,58,0.60195
11429790,-0.15000,66.1875,104,58,0.59072
11429800,-0.14000,65.7500,104,58,0.56728
11429810,-0.13000,65.5625,104,58,0.55531
11429820,-0.13500,65.3750,104,58,0.54335
11429830,-0.19000,65.1250,104,58,0.53138
11429840,-0.12500,64.6250,104,58,0.50916
11429850,0.29000,64.3750,104,58,0.49963
11429860,1.11000,64.1250,104,58,0.48913
11429870,1.68500,63.8750,104,58,0.47863
11429880,1.22000,63.3125,104,58,0.45836
11429890,0.28500,63.0625,104,58,0.44908
11429900,-0.22000,62.7500,104,58,0.44054
11429910,-0.29000,62.5000,104,58,0.43248
11429920,-0.25500,61.9375,104,58,0.41856
11429930,-0.23500,61.6875,104,58,0.41270
11429940,-0.23000,61.4375,104,58,0.40806
11429950,-0.22000,61.1875,104,58,0.40440
11429960,-0.21000,60.6250,104,58,0.39658
11429970,-0.20000,60.3750,104,58,0.39292
11429980,-0.19000,60.1250,104,58,0.38926
11429990,-0.19000,59.8750,104,58,0.38584
11430000,-0.18000,59.3125,104,58,0.37949
11430010,-0.17500,59.0625,104,58,0.37680
11430020,-0.17000,58.8125,104,58,0.37411
11430030,-0.16000,58.5625,104,58,0.37143
11430040,-0.15500,58.2500,104,58,0.36801
11430050,-0.14000,58.1250,104,58,0.36630
11430060,-0.13000,58.0625,104,58,0.36435
11430070,-0.11500,58.1875,104,58,0.36215
11430080,-0.10500,59.8125,104,58,0.35702
11430090,-0.09000,61.5000,104,58,0.35458
11430100,-0.07500,63.8750,104,58,0.35238
11430110,-0.05500,66.7500,104,58,0.35018
11430120,-0.03500,73.6875,104,58,0.34579
11430130,-0.00500,77.5000,104,58,0.34335
11430140,0.01500,81.4375,104,58,0.34188
11430150,0.05000,85.3125,104,58,0.34090
11430160,0.08500,92.3125,104,58,0.33773
11430170,0.12000,95.2500,104,58,0.33578
11430180,0.15000,97.8125,104,58,0.33358
11430190,0.18500,99.9375,104,58,0.33138
11430200,0.22500,103.0000,104,58,0.32698
11430210,0.25500,103.9375,104,58,0.32503
11430220,0.25500,104.5625,104,58,0.32308
11430230,0.25500,104.5625,104,58,0.32308
11430240,0.16000,104.6875,104,58,0.31917
11430250,0.08500,104.2500,104,58,0.31770
11430260,0.01000,103.6875,104,58,0.31624
11430270,-0.05000,103.0625,104,58,0.31453
11430280,-0.09500,101.3750,104,58,0.31136
11430290,-0.11500,100.5000,104,58,0.30989
11430300,-0.12500,99.5000,104,58,0.30867
11430310,-0.13000,98.5000,104,58,0.30769
11430320,-0.13000,96.3125,104,58,0.30842
11430330,-0.13000,95.1250,104,58,0.31111
11430340,-0.12500,93.8125,104,58,0.31551
11430350,-0.12000,92.4375,104,58,0.32234
11430360,-0.11500,89.4375,104,58,0.34774
11430370,-0.11500,87.8125,104,58,0.36679
11430380,-0.11500,86.1875,104,58,0.38999
11430390,-0.11000,84.5000,104,58,0.41661
11430400,-0.11000,81.4375,104,58,0.47814
11430410,-0.10500,80.0625,104,58,0.51062
11430420,-0.10500,78.6875,104,58,0.54286
11430430,-0.10500,77.4375,104,58,0.57411
11430440,-0.11500,75.3125,104,58,0.62125
11430450,-0.11000,74.4375,104,58,0.64396
11430460,-0.10500,73.6250,104,58,0.66545
11430470,-0.11000,73.0000,104,58,0.68523
11430480,-0.10500,71.9375,104,58,0.71697
11430490,-0.10000,71.5000,104,58,0.72918
11430500,-0.09500,71.1250,104,58,0.73919
11430510,-0.07500,70.8125,104,58,0.74725
11430520,-0.05000,70.3750,104,58,0.75775
11430530,-0.03500,70.1875,104,58,0.76044
11430540,-0.02500,70.0625,104,58,0.76068
11430550,0.00000,69.8750,104,58,0.75922
11430560,0.00000,69.6250,104,58,0.75482
11430570,-0.01500,69.5000,104,58,0.75140
11430580,-0.04500,69.3750,104,58,0.74676
11430590,-0.07500,69.1875,104,58,0.74115
11430600,-0.11000,68.8125,104,58,0.72698
11430610,-0.14000,68.6250,104,58,0.71844
11430620,-0.14500,68.3750,104,58,0.70916
11430630,-0.13500,68.1250,104,58,0.69890
11430640,-0.12500,67.6250,104,58,0.67790
11430650,-0.11500,67.3125,104,58,0.66618
11430660,-0.11000,67.0625,104,58,0.65372
11430670,-0.10500,66.8125,104,58,0.64103
11430680,-0.15000,66.2500,104,58,0.61514
11430690,-0.11500,66.0000,104,58,0.60244
11430700,0.28000,65.7500,104,58,0.58999
11430710,1.05500,65.5000,104,58,0.57827
11430720,1.69000,65.0000,104,58,0.55629
11430730,1.41000,64.7500,104,58,0.54628
11430740,0.45000,64.5000,104,58,0.53748
11430750,-0.17000,64.3125,104,58,0.53065
11430760,-0.27500,63.8125,104,58,0.51746
11430770,-0.24000,63.5625,104,58,0.51087
11430780,-0.23000,63.3125,104,58,0.50452
11430790,-0.22000,63.0000,104,58,0.49841
11430800,-0.21000,62.5000,104,58,0.48718
11430810,-0.20500,62.2500,104,58,0.48205
11430820,-0.20000,62.0000,104,58,0.47717
11430830,-0.19000,61.7500,104,58,0.47253
11430840,-0.19000,61.2500,104,58,0.46520
11430850,-0.19000,61.2500,104,58,0.46520
11430860,-0.18000,60.7500,104,58,0.45763
11430870,-0.17000,60.5625,104,58,0.45372
11430880,-0.16500,60.0000,104,58,0.44591
11430890,-0.16000,59.7500,104,58,0.44200
11430900,-0.15500,59.6250,104,58,0.43810
11430910,-0.13500,59.6250,104,58,0.43419
11430920,-0.12500,60.3125,104,58,0.42686
11430930,-0.11000,61.3750,104,58,0.42320
11430940,-0.09500,63.1250,104,58,0.42002
11430950,-0.07500,65.5625,104,58,0.41734
11430960,-0.06000,72.0000,104,58,0.41074
11430970,-0.03500,75.7500,104,58,0.40733
11430980,-0.03500,75.7500,104,58,0.40733
11430990,0.01500,83.8125,104,58,0.40073
11431000,0.04500,91.5625,104,58,0.39463
11431010,0.07500,95.0000,104,58,0.39194
11431020,0.11000,98.0000,104,58,0.38926
11431030,0.14500,100.5625,104,58,0.38681
11431040,0.17500,104.2500,104,58,0.38339
11431050,0.20500,105.5000,104,58,0.38144
11431060,0.23000,106.3750,104,58,0.37900
11431070,0.24500,106.9375,104,58,0.37656
11431080,0.22500,107.0000,104,58,0.37118
11431090,0.17000,106.6250,104,58,0.36825
11431100,0.10000,106.1250,104,58,0.36532
11431110,0.02500,105.5000,104,58,0.36215
11431120,-0.03500,104.0000,104,58,0.35629
11431130,-0.07500,103.1250,104,58,0.35336
11431140,-0.07500,103.1250,104,58,0.35336
11431150,-0.11500,101.1875,104,58,0.34994
11431160,-0.12500,99.1250,104,58,0.34652
11431170,-0.12500,98.0000,104,58,0.34603
11431180,-0.12500,96.8125,104,58,0.34725
11431190,-0.12500,95.5625,104,58,0.35067
11431200,-0.12500,92.7500,104,58,0.36679
11431210,-0.12500,91.1875,104,58,0.38046
11431220,-0.12000,89.5625,104,58,0.39829
11431230,-0.12000,87.8750,104,58,0.41954
11431240,-0.12000,84.5000,104,58,0.46178
11431250,-0.12000,82.9375,104,58,0.48742
11431260,-0.12000,82.9375,104,58,0.48742
11431270,-0.11500,80.1250,104,58,0.54383
11431280,-0.12000,77.6875,104,58,0.59853
11431290,-0.11500,76.6250,104,58,0.62320
11431300,-0.11500,75.6875,104,58,0.64542
11431310,-0.12000,74.8125,104,58,0.66496
11431320,-0.12500,73.4375,104,58,0.69573
11431330,-0.12500,72.9375,104,58,0.70745
11431340,-0.12000,72.4375,104,58,0.71526
11431350,-0.11500,71.9375,104,58,0.72039
11431360,-0.10500,71.1875,104,58,0.72991
11431370,-0.09000,70.8125,104,58,0.73333
11431380,-0.06500,70.5000,104,58,0.73529
11431390,-0.05500,70.1875,104,58,0.73578
11431400,-0.04500,69.6250,104,58,0.73333
11431410,-0.01500,69.3750,104,58,0.73065
11431420,-0.01500,69.1250,104,58,0.72698
11431430,-0.04000,68.8125,104,58,0.72234
11431440,-0.04000,68.8125,104,58,0.72234
11431450,-0.09000,67.9375,104,58,0.70305
11431460,-0.13500,67.6875,104,58,0.69524
11431470,-0.15500,67.3750,104,58,0.68645
11431480,-0.16000,66.8125,104,58,0.66618
11431490,-0.16000,66.5625,104,58,0.65495
11431500,-0.16000,66.2500,104,58,0.64347
11431510,-0.15000,66.0000,104,58,0.63175
11431520,-0.13500,65.3750,104,58,0.60806
11431530,-0.13500,65.1250,104,58,0.59609
11431540,-0.17000,64.8750,104,58,0.58510
11431550,-0.14500,64.6250,104,58,0.57460
11431560,0.22500,64.1250,104,58,0.55287
11431570,1.00000,63.9375,104,58,0.54237
11431580,1.64500,63.6875,104,58,0.53260
11431590,1.32500,63.5000,104,58,0.52357
11431600,0.40000,63.0625,104,58,0.50745
11431610,-0.18500,62.8750,104,58,0.49988
11431620,-0.30000,62.6875,104,58,0.49255
11431630,-0.26000,62.4375,104,58,0.48596
11431640,-0.24000,62.0000,104,58,0.47546
11431650,-0.23500,61.8125,104,58,0.47033
11431660,-0.22000,61.5625,104,58,0.46545
11431670,-0.21500,61.3125,104,58,0.46056
11431680,-0.20000,60.8750,104,58,0.45079
11431690,-0.19500,60.6875,104,58,0.44591
11431700,-0.19000,60.4375,104,58,0.44103
11431710,-0.19000,60.1875,104,58,0.43590
11431720,-0.18000,59.6875,104,58,0.42515
11431730,-0.17500,59.4375,104,58,0.41954
11431740,-0.17500,59.4375,104,58,0.41954
11431750,-0.16500,59.0625,104,58,0.41099
11431760,-0.15500,58.6250,104,58,0.40098
11431770,-0.15000,58.5625,104,58,0.39560
11431780,-0.14000,58.6875,104,58,0.39023
11431790,-0.12500,59.1250,104,58,0.38486
11431800,-0.11000,61.7500,104,58,0.37460
11431810,-0.08500,64.0625,104,58,0.36972
11431820,-0.07000,66.8750,104,58,0.36508
11431830,-0.05000,70.0625,104,58,0.36044
11431840,-0.02500,77.2500,104,58,0.35458
11431850,0.00000,81.0625,104,58,0.35140
11431860,0.03000,84.8125,104,58,0.34823
11431870,0.07000,88.3125,104,58,0.34505
11431880,0.10500,94.3125,104,58,0.33895
11431890,0.14000,96.7500,104,58,0.33602
11431900,0.17500,98.6875,104,58,0.33358
11431910,0.20500,100.2500,104,58,0.33138
11431920,0.23500,102.0000,104,58,0.32747
11431930,0.24500,102.3750,104,58,0.32625
11431940,0.23000,102.5000,104,58,0.32552
11431950,0.18000,102.3750,104,58,0.32405
11431960,0.11000,101.5625,104,58,0.32161
11431970,0.03000,101.0000,104,58,0.32063
11431980,-0.02500,100.2500,104,58,0.31966
11431990,-0.07500,99.4375,104,58,0.31868
11432000,-0.10000,97.5625,103,58,0.31697
11432010,-0.12500,96.5000,103,58,0.31600
11432020,-0.14500,95.4375,103,58,0.31526
11432030,-0.14500,94.3750,103,58,0.31502
11432040,-0.13500,92.0625,103,58,0.31844
11432050,-0.13500,90.7500,103,58,0.32210
11432060,-0.13500,89.3125,103,58,0.32796
11432070,-0.13500,87.8125,103,58,0.33700
11432080,-0.13500,84.5000,103,58,0.36484
11432090,-0.13000,82.8750,103,58,0.38388
11432100,-0.12500,81.3125,103,58,0.40610
11432110,-0.12000,79.8125,103,58,0.43077
11432120,-0.12000,77.0625,103,58,0.48425
11432130,-0.12500,75.8750,103,58,0.50794
11432140,-0.12500,74.7500,103,58,0.52918
11432150,-0.12500,73.7500,103,58,0.55165
11432160,-0.13000,72.1250,103,58,0.59316
11432170,-0.13000,71.4375,103,58,0.61026
11432180,-0.12500,70.8125,103,58,0.62442
11432190,-0.12500,70.3125,103,58,0.63590
11432200,-0.12500,69.5000,103,58,0.65079
11432210,-0.12500,69.1250,103,58,0.65470
11432220,-0.11000,68.8750,103,58,0.65665
11432230,-0.10500,68.6250,103,58,0.65690
11432240,-0.08500,68.1875,103,58,0.65275
11432250,-0.06500,68.0000,103,58,0.64933
11432260,-0.05000,67.8125,103,58,0.64493
11432270,-0.03500,67.6250,103,58,0.63980
11432280,-0.00500,67.1875,103,58,0.62711
11432290,-0.00500,67.0000,103,58,0.61929
11432300,-0.03500,66.8125,103,58,0.61074
11432310,-0.05500,66.5625,103,58,0.60147
11432320,-0.08500,66.1250,103,58,0.58022
11432330,-0.12500,65.8125,103,58,0.56947
11432340,-0.15500,65.5625,103,58,0.55873
11432350,-0.15500,65.3125,103,58,0.54652
11432360,-0.14500,64.7500,103,58,0.52039
11432370,-0.14000,64.4375,103,58,0.50720
11432380,-0.13500,64.1250,103,58,0.49402
11432390,-0.12000,63.8750,103,58,0.48156
11432400,-0.11500,63.3125,103,58,0.45788
11432410,-0.16500,63.0625,103,58,0.44689
11432420,-0.13500,62.8125,103,58,0.43639
11432430,0.26500,62.5625,103,58,0.42637
11432440,1.04500,62.0625,103,58,0.41148
11432450,1.59500,61.8125,103,58,0.40391
11432460,1.21000,61.5625,103,58,0.39658
11432470,0.29500,61.3750,103,58,0.38950
11432480,-0.22000,60.8750,103,58,0.37680
11432490,-0.29000,60.6875,103,58,0.37118
11432500,-0.24500,60.4375,103,58,0.36606
11432510,-0.22500,60.1875,103,58,0.36117
11432520,-0.22000,59.7500,103,58,0.35214
11432530,-0.21000,59.5000,103,58,0.34896
11432540,-0.20000,59.2500,103,58,0.34652
11432550,-0.19500,59.0625,103,58,0.34335
11432560,-0.20000,58.5625,103,58,0.33626
11432570,-0.20000,58.3125,103,58,0.33260
11432580,-0.18000,58.0625,103,58,0.32894
11432590,-0.17000,57.8125,103,58,0.32552
11432600,-0.15500,57.3750,103,58,0.31844
11432610,-0.14500,57.1875,103,58,0.31477
11432620,-0.13500,57.0000,103,58,0.31136
11432630,-0.12500,56.8750,103,58,0.30769
11432640,-0.11500,56.7500,103,58,0.30305
11432650,-0.10500,57.0000,103,58,0.29988
11432660,-0.08500,57.6250,103,58,0.29670
11432670,-0.07500,58.8125,103,58,0.29328
11432680,-0.05500,63.0000,103,58,0.28694
11432690,-0.04000,65.8125,103,58,0.28400
11432700,-0.01500,69.0000,103,58,0.28132
11432710,0.00000,72.5625,103,58,0.27863
11432720,0.03000,80.0000,103,58,0.27350
11432730,0.06000,83.6875,103,58,0.27228
11432740,0.09000,87.1250,103,58,0.27155
11432750,0.12500,90.2500,103,58,0.26984
11432760,0.16000,95.2500,103,58,0.26569
11432770,0.19500,97.0625,103,58,0.26349
11432780,0.22500,98.5625,103,58,0.26154
11432790,0.25500,99.6875,103,58,0.25958
11432800,0.27000,100.8750,103,58,0.25153
11432810,0.24500,101.0000,103,58,0.24835
11432820,0.19000,100.8125,103,58,0.24567
11432830,0.11000,100.4375,103,58,0.24371
11432840,0.03000,99.1875,103,58,0.24274
11432850,-0.03500,98.4375,103,58,0.24176
11432860,-0.08000,97.5000,103,58,0.24029
11432870,-0.11000,96.5625,103,58,0.23883
11432880,-0.12500,94.4375,103,58,0.23565
11432890,-0.13500,93.3125,103,58,0.23443
11432900,-0.13500,92.1250,103,58,0.23394
11432910,-0.13500,90.8750,103,58,0.23443
11432920,-0.13500,88.2500,103,58,0.24176
11432930,-0.13000,86.7500,103,58,0.24835
11432940,-0.12000,85.1875,103,58,0.25739
11432950,-0.12000,83.5625,103,58,0.27033
11432960,-0.11500,80.3750,103,58,0.30794
11432970,-0.11500,78.9375,103,58,0.33211
11432980,-0.11500,77.5625,103,58,0.35922
11432990,-0.11500,76.2500,103,58,0.38803
11433000,-0.12000,73.9375,103,58,0.44664
11433010,-0.12000,72.9375,103,58,0.47497
11433020,-0.12000,72.0000,103,58,0.50134
11433030,-0.12000,71.2500,103,58,0.52576
11433040,-0.12000,69.9375,103,58,0.56117
11433050,-0.12500,69.4375,103,58,0.57705
11433060,-0.12500,68.9375,103,58,0.59145
11433070,-0.11500,68.5625,103,58,0.60391
11433080,-0.10500,67.8750,103,58,0.62173
11433090,-0.10000,67.6250,103,58,0.62759
11433100,-0.08000,67.4375,103,58,0.63175
11433110,-0.06500,67.2500,103,58,0.63443
11433120,-0.05000,67.0000,103,58,0.63541
11433130,-0.02500,66.8125,103,58,0.63346
11433140,-0.00500,66.6875,103,58,0.63053
11433150,-0.01500,66.5625,103,58,0.62662
11433160,-0.03500,66.1875,103,58,0.61636
11433170,-0.06000,66.0000,103,58,0.60977
11433180,-0.09500,65.8125,103,58,0.60220
11433190,-0.09500,65.8125,103,58,0.60220
11433200,-0.15500,65.3125,103,58,0.57387
11433210,-0.16000,65.0625,103,58,0.56313
11433220,-0.15500,64.8750,103,58,0.55189
11433230,-0.14500,64.6250,103,58,0.54042
11433240,-0.13500,64.1250,103,58,0.51990
11433250,-0.13500,63.8125,103,58,0.50891
11433260,-0.13500,63.6250,103,58,0.49744
11433270,-0.19000,63.3750,103,58,0.48596
11433280,-0.12500,62.9375,103,58,0.46422
11433290,0.32500,62.6875,103,58,0.45421
11433300,1.13500,62.3750,103,58,0.44469
11433310,1.60500,62.1875,103,58,0.43565
11433320,1.09500,61.6875,103,58,0.41978
11433330,0.18500,61.5000,103,58,0.41368
11433340,-0.26000,61.2500,103,58,0.40830
11433350,-0.30000,61.0000,103,58,0.40293
11433360,-0.26000,60.5625,103,58,0.39243
11433370,-0.23500,60.3750,103,58,0.38755
11433380,-0.22000,60.1250,103,58,0.38291
11433390,-0.21500,59.9375,103,58,0.37851
11433400,-0.21000,59.4375,103,58,0.37021
11433410,-0.20000,59.1875,103,58,0.36654
11433420,-0.19000,58.9375,103,58,0.36313
11433430,-0.18500,58.6875,103,58,0.35995
11433440,-0.18000,58.1875,103,58,0.35604
11433450,-0.17000,57.8750,103,58,0.35385
11433460,-0.17000,57.8750,103,58,0.35385
11433470,-0.16000,57.4375,103,58,0.34896
11433480,-0.15500,57.1250,103,58,0.34383
11433490,-0.14500,57.0000,103,58,0.34139
11433500,-0.13500,56.9375,103,58,0.33895
11433510,-0.12500,57.0625,103,58,0.33651
11433520,-0.10500,58.5625,103,58,0.33187
11433530,-0.08500,60.1875,103,58,0.33040
11433540,-0.06500,62.3750,103,58,0.32967
11433550,-0.05000,65.1250,103,58,0.32869
11433560,-0.03000,71.6875,103,58,0.32650
11433570,-0.00500,75.4375,103,58,0.32527
11433580,0.02000,79.1875,103,58,0.32405
11433590,0.05000,82.9375,103,58,0.32308
11433600,0.08500,89.8125,103,58,0.32088
11433610,0.11500,92.7500,103,58,0.31966
11433620,0.14500,95.2500,103,58,0.31868
11433630,0.18000,97.3125,103,58,0.31770
11433640,0.21500,100.3125,103,58,0.31746
11433650,0.24500,101.2500,103,58,0.31697
11433660,0.25000,101.8750,103,58,0.31624
11433670,0.22500,102.1250,103,58,0.31551
11433680,0.15500,101.9375,103,58,0.31404
11433690,0.07000,101.5625,103,58,0.31355
11433700,-0.00500,101.0000,103,58,0.31282
11433710,-0.06500,100.3125,103,58,0.31209
11433720,-0.10500,98.6250,103,58,0.31062
11433730,-0.12500,97.6875,103,58,0.31038
11433740,-0.12500,97.6875,103,58,0.31038
11433750,-0.14000,95.5625,103,58,0.31087
11433760,-0.14500,93.3125,103,58,0.31184
11433770,-0.14500,92.0625,103,58,0.31380
11433780,-0.14000,90.8125,103,58,0.31746
11433790,-0.13500,89.4375,103,58,0.32357
11433800,-0.13000,86.3750,103,58,0.34652
11433810,-0.12500,84.8125,103,58,0.36361
11433820,-0.12000,83.2500,103,58,0.38462
11433830,-0.12500,81.7500,103,58,0.40537
11433840,-0.12500,81.7500,103,58,0.40537
11433850,-0.12000,77.6250,103,58,0.48083
11433860,-0.11500,76.3125,103,58,0.51013
11433870,-0.11500,75.1250,103,58,0.53919
11433880,-0.11500,73.1250,103,58,0.59316
11433890,-0.12000,72.3125,103,58,0.61709
11433900,-0.12000,71.5625,103,58,0.63834
11433910,-0.12000,70.8750,103,58,0.65714
11433920,-0.12000,69.8750,103,58,0.68669
11433930,-0.11500,69.5000,103,58,0.69573
11433940,-0.10500,69.1875,103,58,0.70208
11433950,-0.09500,68.9375,103,58,0.70794
11433960,-0.07500,68.5000,103,58,0.71648
11433970,-0.06000,68.3750,103,58,0.71893
11433980,-0.05500,68.2500,103,58,0.71966
11433990,-0.03500,68.1250,103,58,0.71893
11434000,-0.01000,67.9375,104,58,0.71429
11434010,-0.01000,67.8125,104,58,0.71013
11434020,-0.03000,67.6250,104,58,0.70452
11434030,-0.06000,67.4375,104,58,0.69792
11434040,-0.09500,67.1875,104,58,0.68156
11434050,-0.13500,67.0000,104,58,0.67155
11434060,-0.15500,66.7500,104,58,0.66056
11434070,-0.15500,66.5625,104,58,0.64884
11434080,-0.14500,66.1250,104,58,0.62369
11434090,-0.13500,65.8750,104,58,0.61123
11434100,-0.12500,65.6250,104,58,0.59878
11434110,-0.12000,65.3750,104,58,0.58632
11434120,-0.11500,64.8750,104,58,0.56215
11434130,-0.17000,64.6250,104,58,0.55165
11434140,-0.14000,64.3750,104,58,0.54164
11434150,0.26500,64.1250,104,58,0.53089
11434160,1.05500,63.5625,104,58,0.50916
11434170,1.64500,63.3125,104,58,0.49866
11434180,1.30500,63.0625,104,58,0.48889
11434190,0.38000,62.7500,104,58,0.47961
11434200,-0.18500,62.3125,104,58,0.46276
11434210,-0.27500,62.0625,104,58,0.45519
11434220,-0.24000,61.8125,104,58,0.44835
11434230,-0.22000,61.5625,104,58,0.44298
11434240,-0.21000,61.1250,104,58,0.43370
11434250,-0.20000,60.8750,104,58,0.42930
11434260,-0.19000,60.6875,104,58,0.42540
11434270,-0.18500,60.4375,104,58,0.42173
11434280,-0.18000,59.9375,104,58,0.41416
11434290,-0.17000,59.7500,104,58,0.41026
11434300,-0.16500,59.5000,104,58,0.40659
11434310,-0.16000,59.3125,104,58,0.40293
11434320,-0.15000,58.8750,104,58,0.39560
11434330,-0.14500,58.6875,104,58,0.39267
11434340,-0.13500,58.5000,104,58,0.38999
11434350,-0.12500,58.4375,104,58,0.38681
11434360,-0.11500,58.6250,104,58,0.37949
11434370,-0.10000,59.1875,104,58,0.37607
11434380,-0.08500,60.3125,104,58,0.37241
11434390,-0.06500,62.0000,104,58,0.36899
11434400,-0.05000,67.2500,104,58,0.36288
11434410,-0.03000,70.6250,104,58,0.35971
11434420,-0.00500,74.3125,104,58,0.35678
11434430,0.02000,78.1875,104,58,0.35458
11434440,0.05000,86.1250,104,58,0.35067
11434450,0.08000,89.8750,104,58,0.34799
11434460,0.11000,93.2500,104,58,0.34505
11434470,0.09000,96.3125,104,58,0.34237
11434480,0.08000,101.0000,104,58,0.33675
11434490,0.12500,102.7500,104,58,0.33407
11434500,0.19000,104.1250,104,58,0.33138
11434510,0.25000,105.0625,104,58,0.32869
11434520,0.27500,106.0625,104,58,0.32357
11434530,0.25500,106.1250,104,58,0.32210
11434540,0.20000,106.0000,104,58,0.32112
11434550,0.12000,105.6250,104,58,0.31966
11434560,0.04000,104.4375,104,58,0.31648
11434570,-0.02000,103.6875,104,58,0.31477
11434580,-0.06500,102.8125,104,58,0.31331
11434590,-0.09500,101.9375,104,58,0.31160
11434600,-0.12000,100.0000,104,58,0.30916
11434610,-0.12500,98.9375,104,58,0.30867
11434620,-0.12500,97.8750,104,58,0.30916
11434630,-0.12500,96.7500,104,58,0.31136
11434640,-0.12500,94.2500,104,58,0.32137
11434650,-0.13000,92.8750,104,58,0.33089
11434660,-0.12500,91.3750,104,58,0.34408
11434670,-0.11500,89.8125,104,58,0.36117
11434680,-0.10500,86.5625,104,58,0.40733
11434690,-0.10500,85.0000,104,58,0.43516
11434700,-0.11000,83.5000,104,58,0.46496
11434710,-0.11000,82.0625,104,58,0.49573
11434720,-0.11000,82.0625,104,58,0.49573
11434730,-0.09500,78.1875,104,58,0.58193
11434740,-0.10000,77.1875,104,58,0.60293
11434750,-0.10000,76.2500,104,58,0.62491
11434760,-0.09500,74.6875,104,58,0.66496
11434770,-0.09500,74.0625,104,58,0.68181
11434780,-0.09000,73.5000,104,58,0.69646
11434790,-0.09000,73.0000,104,58,0.70891
11434800,-0.08000,72.3125,104,58,0.72674
11434810,-0.07000,72.0000,104,58,0.73260
11434820,-0.05500,71.7500,104,58,0.73651
11434830,-0.03000,71.5000,104,58,0.73773
11434840,-0.03000,71.5000,104,58,0.73773
11434850,-0.00500,71.0625,104,58,0.74066
11434860,0.01000,70.9375,104,58,0.74017
11434870,0.01500,70.7500,104,58,0.73797
11434880,0.00000,70.5000,104,58,0.72991
11434890,-0.02500,70.3125,104,58,0.72430
11434900,-0.05000,70.1250,104,58,0.71770
11434910,-0.08500,70.0000,104,58,0.71038
11434920,-0.11000,69.6250,104,58,0.69280
11434930,-0.12500,69.3750,104,58,0.68327
11434940,-0.12000,69.1250,104,58,0.67326
11434950,-0.12500,68.8750,104,58,0.66227
11434960,-0.14000,68.3125,104,58,0.63907
11434970,-0.15000,68.0625,104,58,0.62711
11434980,-0.13500,67.8125,104,58,0.61514
11434990,-0.16000,67.5000,104,58,0.60317
11435000,-0.13500,66.9375,104,58,0.58046
11435010,0.21000,66.6250,104,58,0.56996
11435020,0.95000,66.3125,104,58,0.55971
11435030,1.65500,66.0625,104,58,0.55092
11435040,1.49000,65.5000,104,58,0.53480
11435050,0.55500,65.1875,104,58,0.52698
11435060,-0.13000,64.9375,104,58,0.51966
11435070,-0.28000,64.6250,104,58,0.51282
11435080,-0.25000,64.0625,104,58,0.49988
11435090,-0.23000,63.8125,104,58,0.49402
11435100,-0.22000,63.5000,104,58,0.48864
11435110,-0.21500,63.2500,104,58,0.48352
11435120,-0.20000,62.6875,104,58,0.47448
11435130,-0.19500,62.5000,104,58,0.47082
11435140,-0.18500,62.2500,104,58,0.46764
11435150,-0.18000,62.0000,104,58,0.46447
11435160,-0.17500,61.5000,104,58,0.45763
11435170,-0.17000,61.3125,104,58,0.45446
11435180,-0.16500,61.0625,104,58,0.45153
11435190,-0.16000,60.8125,104,58,0.44884
11435200,-0.15000,60.4375,104,58,0.44371
11435210,-0.14500,60.3750,104,58,0.44151
11435220,-0.13500,60.5000,104,58,0.43956
11435230,-0.12000,60.9375,104,58,0.43785
11435240,-0.10500,63.3125,104,58,0.43492
11435250,-0.08500,65.4375,104,58,0.43321
11435260,-0.07000,68.2500,104,58,0.43126
11435270,-0.05000,71.5625,104,58,0.42930
11435280,-0.03000,79.3125,104,58,0.42564
11435290,-0.01000,83.3750,104,58,0.42393
11435300,0.02000,87.5000,104,58,0.42247
11435310,0.05000,91.4375,104,58,0.42076
11435320,0.08000,98.2500,104,58,0.41734
11435330,0.11500,101.0000,104,58,0.41587
11435340,0.15000,103.2500,104,58,0.41465
11435350,0.18000,105.0625,104,58,0.41319
11435360,0.21500,107.5000,104,58,0.40904
11435370,0.24000,108.1875,104,58,0.40684
11435380,0.25500,108.5000,104,58,0.40440
11435390,0.24500,108.5625,104,58,0.40195
11435400,0.19500,108.0625,104,58,0.39731
11435410,0.12000,107.5625,104,58,0.39512
11435420,0.04000,106.8750,104,58,0.39341
11435430,-0.02000,106.1250,104,58,0.39219
11435440,-0.06500,104.3125,104,58,0.38950
11435450,-0.10000,103.3750,104,58,0.38755
11435460,-0.12500,102.3750,104,58,0.38559
11435470,-0.13500,101.3125,104,58,0.38388
11435480,-0.14000,99.1250,104,58,0.38291
11435490,-0.14000,98.0000,104,58,0.38535
11435500,-0.14500,96.7500,104,58,0.39048
11435510,-0.14500,95.3750,104,58,0.39902
11435520,-0.14500,92.2500,104,58,0.42466
11435530,-0.14500,90.5000,104,58,0.44005
11435540,-0.14500,88.8125,104,58,0.46081
11435550,-0.14500,87.0625,104,58,0.48547
11435560,-0.14500,83.8750,104,58,0.54164
11435570,-0.14500,82.3750,104,58,0.57118
11435580,-0.14000,80.9375,104,58,0.60024
11435590,-0.14500,79.6250,104,58,0.62833
11435600,-0.14500,77.3750,104,58,0.67839
11435610,-0.14000,76.3750,104,58,0.69939
11435620,-0.13500,75.5625,104,58,0.71770
11435630,-0.14000,74.8125,104,58,0.73089
11435640,-0.14000,73.5625,104,58,0.75018
11435650,-0.14000,73.5625,104,58,0.75018
11435660,-0.13000,72.5625,104,58,0.76557
11435670,-0.12500,72.1875,104,58,0.77118
11435680,-0.11500,71.6250,104,58,0.77827
11435690,-0.09500,71.3750,104,58,0.77973
11435700,-0.08500,71.1250,104,58,0.77998
11435710,-0.08500,70.9375,104,58,0.77924
11435720,-0.06000,70.5000,104,58,0.77387
11435730,-0.04500,70.3125,104,58,0.76923
11435740,-0.05500,70.1250,104,58,0.76459
11435750,-0.07500,69.8750,104,58,0.75971
11435760,-0.07500,69.8750,104,58,0.75971
11435770,-0.14000,69.1875,104,58,0.73993
11435780,-0.17000,69.0000,104,58,0.73162
11435790,-0.19000,68.7500,104,58,0.72210
11435800,-0.18000,68.1875,104,58,0.70110
11435810,-0.17500,67.8750,104,58,0.68987
11435820,-0.17500,67.8750,104,58,0.68987
11435830,-0.16000,67.2500,104,58,0.66716
11435840,-0.15000,66.6875,104,58,0.64469
11435850,-0.18000,66.3750,104,58,0.63248
11435860,-0.21000,66.0000,104,58,0.62027
11435870,0.04000,65.7500,104,58,0.60806
11435880,0.71000,65.1875,104,58,0.58486
11435890,1.47000,64.8750,104,58,0.57436
11435900,1.52500,64.5625,104,58,0.56435
11435910,0.66500,64.2500,104,58,0.55507
11435920,-0.10500,63.6875,104,58,0.53797
11435930,-0.31500,63.4375,104,58,0.53065
11435940,-0.29500,63.1250,104,58,0.52308
11435950,-0.26500,62.8750,104,58,0.51575
11435960,-0.25000,62.3750,104,58,0.50159
11435970,-0.25500,62.0625,104,58,0.49524
11435980,-0.25500,61.8125,104,58,0.48913
11435990,-0.23000,61.5000,104,58,0.48303
11436000,-0.21500,60.9375,103,58,0.47204
11436010,-0.20500,60.6875,103,58,0.46667
11436020,-0.20000,60.4375,103,58,0.46154
11436030,-0.19000,60.1875,103,58,0.45739
11436040,-0.18000,59.6250,103,58,0.44884
11436050,-0.17000,59.4375,103,58,0.44420
11436060,-0.16000,59.1875,103,58,0.43932
11436070,-0.15500,59.0000,103,58,0.43443
11436080,-0.15000,58.8750,103,58,0.42491
11436090,-0.14500,59.1250,103,58,0.42027
11436100,-0.12500,59.7500,103,58,0.41587
11436110,-0.10500,60.8750,103,58,0.41148
11436120,-0.08500,65.1250,103,58,0.40366
11436130,-0.06500,68.0625,103,58,0.40049
11436140,-0.05000,71.3750,103,58,0.39658
11436150,-0.03000,75.0625,103,58,0.39267
11436160,-0.00500,82.9375,103,58,0.38437
11436170,0.03000,86.8125,103,58,0.38046
11436180,0.06000,90.4375,103,58,0.37656
11436190,0.09000,93.7500,103,58,0.37265
11436200,0.12000,99.0625,103,58,0.36532
11436210,0.15000,101.0625,103,58,0.36190
11436220,0.14500,102.6250,103,58,0.35873
11436230,0.16000,103.8125,103,58,0.35653
11436240,0.21500,105.0000,103,58,0.35238
11436250,0.23500,105.1875,103,58,0.34969
11436260,0.20500,105.0625,103,58,0.34701
11436270,0.14500,104.7500,103,58,0.34432
11436280,0.06500,103.5625,103,58,0.33846
11436290,-0.00500,102.8125,103,58,0.33553
11436300,-0.05500,102.0000,103,58,0.33260
11436310,-0.09500,101.0625,103,58,0.32967
11436320,-0.11000,99.0000,103,58,0.32479
11436330,-0.12500,97.8750,103,58,0.32357
11436340,-0.13000,96.7500,103,58,0.32210
11436350,-0.15500,95.5625,103,58,0.32137
11436360,-0.18000,93.0000,103,58,0.32381
11436370,-0.18000,91.5625,103,58,0.32869
11436380,-0.18000,90.0625,103,58,0.33675
11436390,-0.15500,88.4375,103,58,0.34896
11436400,-0.14500,85.1250,103,58,0.38510
11436410,-0.13500,83.5000,103,58,0.40830
11436420,-0.13000,82.0000,103,58,0.43419
11436430,-0.13000,80.5000,103,58,0.45788
11436440,-0.13000,80.5000,103,58,0.45788
11436450,-0.13500,76.6875,103,58,0.53187
11436460,-0.13500,75.6875,103,58,0.55727
11436470,-0.12500,74.7500,103,58,0.58095
11436480,-0.12000,73.2500,103,58,0.62173
11436490,-0.12000,72.6250,103,58,0.63834
11436500,-0.12500,72.0625,103,58,0.65226
11436510,-0.12500,71.5625,103,58,0.66398
11436520,-0.12500,70.8125,103,58,0.67937
11436530,-0.12000,70.5000,103,58,0.68303
11436540,-0.11500,70.1875,103,58,0.68620
11436550,-0.10000,69.9375,103,58,0.68840
11436560,-0.08000,69.5000,103,58,0.68962
11436570,-0.06500,69.3125,103,58,0.68816
11436580,-0.05000,69.1250,103,58,0.68547
11436590,-0.02500,68.9375,103,58,0.68181
11436600,-0.01500,68.5625,103,58,0.67155
11436610,-0.03000,68.3750,103,58,0.66496
11436620,-0.05500,68.1875,103,58,0.65763
11436630,-0.08000,68.0000,103,58,0.65006
11436640,-0.11500,67.5000,103,58,0.63248
11436650,-0.15000,67.2500,103,58,0.62247
11436660,-0.16000,67.0000,103,58,0.61148
11436670,-0.16000,66.6875,103,58,0.59976
11436680,-0.16500,66.1250,103,58,0.57534
11436690,-0.16000,65.8125,103,58,0.56288
11436700,-0.13500,65.5000,103,58,0.55043
11436710,-0.12000,65.2500,103,58,0.53822
11436720,-0.15000,64.6875,103,58,0.51624
11436730,-0.15000,64.6875,103,58,0.51624
11436740,0.05000,64.1250,103,58,0.49573
11436750,0.69500,63.8125,103,58,0.48498
11436760,1.45500,63.3750,103,58,0.46496
11436770,1.49500,63.1250,103,58,0.45617
11436780,0.65000,62.8750,103,58,0.44811
11436790,-0.08000,62.5625,103,58,0.44054
11436800,-0.08000,62.5625,103,58,0.44054
11436810,-0.26000,61.7500,103,58,0.42198
11436820,-0.23000,61.5000,103,58,0.41661
11436830,-0.21500,61.2500,103,58,0.41221
11436840,-0.21500,61.2500,103,58,0.41221
11436850,-0.19000,60.4375,103,58,0.39951
11436860,-0.19000,60.1250,103,58,0.39512
11436870,-0.18000,59.8750,103,58,0.39072
11436880,-0.17500,59.1875,103,58,0.38266
11436890,-0.17000,58.9375,103,58,0.36264
11436900,-0.16000,58.6250,103,58,0.33455
11436910,-0.15500,58.3750,103,58,0.31868
11436920,-0.15000,57.8750,103,58,0.30330
11436930,-0.14500,57.6250,103,58,0.29939
11436940,-0.13500,57.3750,103,58,0.29548
11436950,-0.13500,57.2500,103,58,0.29133
11436960,-0.12500,57.5000,103,58,0.28303
11436970,-0.11500,58.1875,103,58,0.27888
11436980,-0.10500,59.4375,103,58,0.27497
11436990,-0.08500,61.3125,103,58,0.27106
11437000,-0.07000,66.8125,103,58,0.26374
11437010,-0.05500,70.1875,103,58,0.26056
11437020,-0.03000,73.8750,103,58,0.25739
11437030,0.00000,77.6875,103,58,0.25519
11437040,0.03000,85.3750,103,58,0.25079
11437050,0.05500,88.8750,103,58,0.24737
11437060,0.08000,92.0625,103,58,0.24371
11437070,0.12000,94.8125,103,58,0.24005
11437080,0.16000,99.0625,103,58,0.23297
11437090,0.20500,100.5625,103,58,0.22955
11437100,0.24000,101.6875,103,58,0.22637
11437110,0.26500,102.4375,103,58,0.22344
11437120,0.24500,102.9375,103,58,0.21880
11437130,0.20000,102.7500,103,58,0.21758
11437140,0.13500,102.3125,103,58,0.21563
11437150,0.06000,101.7500,103,58,0.21319
11437160,-0.01000,100.2500,103,58,0.20879
11437170,-0.06000,99.3750,103,58,0.20684
11437180,-0.09500,98.3750,103,58,0.20464
11437190,-0.12000,97.3750,103,58,0.20244
11437200,-0.13500,95.2500,103,58,0.19829
11437210,-0.13500,94.0625,103,58,0.19707
11437220,-0.13500,92.8750,103,58,0.19683
11437230,-0.13500,91.6250,103,58,0.19829
11437240,-0.13500,88.8125,103,58,0.20855
11437250,-0.13500,87.2500,103,58,0.21856
11437260,-0.14000,85.6875,103,58,0.23248
11437270,-0.13500,84.0625,103,58,0.25031
11437280,-0.13500,80.8750,103,58,0.29866
11437290,-0.14000,79.4375,103,58,0.32772
11437300,-0.14500,78.0625,103,58,0.35897
11437310,-0.14500,76.7500,103,58,0.39096
11437320,-0.14000,74.5000,103,58,0.44957
11437330,-0.14000,73.5000,103,58,0.47326
11437340,-0.14000,72.6250,103,58,0.49817
11437350,-0.14500,71.8750,103,58,0.52210
11437360,-0.14500,70.6250,103,58,0.56313
11437370,-0.15000,70.1250,103,58,0.57973
11437380,-0.14500,69.7500,103,58,0.59341
11437390,-0.14500,69.4375,103,58,0.60440
11437400,-0.13500,68.8750,103,58,0.61954
11437410,-0.12000,68.6875,103,58,0.62442
11437420,-0.10500,68.5000,103,58,0.62662
11437430,-0.09500,68.3750,103,58,0.62686
11437440,-0.08000,68.0625,103,58,0.62491
11437450,-0.05500,67.9375,103,58,0.62271
11437460,-0.05000,67.8125,103,58,0.61954
11437470,-0.07000,67.6250,103,58,0.61538
11437480,-0.09000,67.2500,103,58,0.60366
11437490,-0.11000,67.1250,103,58,0.59609
11437500,-0.14500,66.8750,103,58,0.58779
11437510,-0.16500,66.6875,103,58,0.57851
11437520,-0.17000,66.2500,103,58,0.55849
11437530,-0.16000,65.9375,103,58,0.54847
11437540,-0.15500,65.6875,103,58,0.53724
11437550,-0.14500,65.3750,103,58,0.52527
11437560,-0.13500,64.8750,103,58,0.49963
11437570,-0.12500,64.6250,103,58,0.48645
11437580,-0.16000,64.3750,103,58,0.47326
11437590,-0.18000,64.0625,103,58,0.46032
11437600,0.09500,63.4375,103,58,0.43590
11437610,0.79500,63.1250,103,58,0.42442
11437620,1.53500,62.8750,103,58,0.41490
11437630,1.45500,62.6250,103,58,0.40659
11437640,0.57500,62.1250,103,58,0.38877
11437650,-0.10500,61.8125,103,58,0.38022
11437660,-0.27000,61.5625,103,58,0.37241
11437670,-0.25000,61.3125,103,58,0.36532
11437680,-0.22500,60.8125,103,58,0.35263
11437690,-0.21000,60.5625,103,58,0.34725
11437700,-0.20500,60.3125,103,58,0.34261
11437710,-0.19500,60.0000,103,58,0.33822
11437720,-0.18500,59.5000,103,58,0.33162
11437730,-0.17500,59.2500,103,58,0.32943
11437740,-0.17500,59.0000,103,58,0.32674
11437750,-0.17000,58.7500,103,58,0.32381
11437760,-0.17000,58.2500,103,58,0.31795
11437770,-0.16500,58.0000,103,58,0.31502
11437780,-0.16000,57.8125,103,58,0.31209
11437790,-0.15000,57.5625,103,58,0.30891
11437800,-0.14500,57.3125,103,58,0.30256
11437810,-0.13500,57.3125,103,58,0.29939
11437820,-0.12000,57.5000,103,58,0.29719
11437830,-0.10500,58.1250,103,58,0.29548
11437840,-0.09500,61.0625,103,58,0.29035
11437850,-0.07500,63.5000,103,58,0.28742
11437860,-0.06000,66.4375,103,58,0.28425
11437870,-0.04500,69.7500,103,58,0.28107
11437880,-0.02500,77.1875,103,58,0.27521
11437890,0.00500,81.0625,103,58,0.27277
11437900,0.03000,84.9375,103,58,0.27033
11437910,0.06000,88.5625,103,58,0.26789
11437920,0.10000,94.6875,103,58,0.26398
11437930,0.14000,97.1875,103,58,0.26276
11437940,0.17000,99.2500,103,58,0.26105
11437950,0.20500,100.9375,103,58,0.25885
11437960,0.24000,103.1250,103,58,0.25397
11437970,0.26000,103.7500,103,58,0.25104
11437980,0.25000,104.0000,103,58,0.24835
11437990,0.20000,104.0625,103,58,0.24567
11438000,0.12000,103.3750,104,58,0.24078
11438010,0.04000,102.8125,104,58,0.23858
11438020,-0.02500,102.0625,104,58,0.23761
11438030,-0.07000,101.2500,104,58,0.23687
11438040,-0.10500,99.3750,104,58,0.23419
11438050,-0.12500,98.3125,104,58,0.23248
11438060,-0.13000,97.3125,104,58,0.23077
11438070,-0.13000,96.2500,104,58,0.22930
11438080,-0.12500,94.0000,104,58,0.23004
11438090,-0.12500,92.7500,104,58,0.23346
11438100,-0.12500,91.4375,104,58,0.23932
11438110,-0.12000,89.9375,104,58,0.24884
11438120,-0.11500,86.7500,104,58,0.27766
11438130,-0.11500,85.1250,104,58,0.29524
11438140,-0.11500,83.5000,104,58,0.31795
11438150,-0.11000,81.9375,104,58,0.34457
11438160,-0.11500,79.1250,104,58,0.40488
11438170,-0.12500,77.8750,104,58,0.43663
11438180,-0.12500,76.6875,104,58,0.46813
11438190,-0.13500,75.6250,104,58,0.49841
11438200,-0.17500,73.7500,104,58,0.55263
11438210,-0.19500,73.0000,104,58,0.57582
11438220,-0.16000,72.3750,104,58,0.59316
11438230,-0.14000,71.8125,104,58,0.60659
11438240,-0.13000,70.8750,104,58,0.63101
11438250,-0.12500,70.5000,104,58,0.64054
11438260,-0.12500,70.1875,104,58,0.64811
11438270,-0.10000,69.9375,104,58,0.65397
11438280,-0.07500,69.5000,104,58,0.66032
11438290,-0.06500,69.3750,104,58,0.66105
11438300,-0.04500,69.1875,104,58,0.66032
11438310,-0.02000,69.0000,104,58,0.65836
11438320,-0.01500,68.6875,104,58,0.65128
11438330,-0.03500,68.5000,104,58,0.64615
11438340,-0.06500,68.3125,104,58,0.64054
11438350,-0.09000,68.1250,104,58,0.63394
11438360,-0.14500,67.6875,104,58,0.61807
11438370,-0.18500,67.5000,104,58,0.60855
11438380,-0.18500,67.3125,104,58,0.59780
11438390,-0.16500,67.1250,104,58,0.58632
11438400,-0.15500,66.6250,104,58,0.56117
11438410,-0.14500,66.3750,104,58,0.54774
11438420,-0.13500,66.1250,104,58,0.53529
11438430,-0.14500,65.8750,104,58,0.52357
11438440,-0.20000,65.3750,104,58,0.49841
11438450,-0.17000,65.1875,104,58,0.48596
11438460,0.20000,64.9375,104,58,0.47399
11438470,0.96500,64.6875,104,58,0.46276
11438480,1.62000,64.2500,104,58,0.44200
11438490,1.38000,64.0625,104,58,0.43248
11438500,0.45500,63.8125,104,58,0.42344
11438510,-0.17000,63.5625,104,58,0.41490
11438520,-0.29500,63.1250,104,58,0.40000
11438530,-0.26500,62.8750,104,58,0.39414
11438540,-0.24000,62.6250,104,58,0.38828
11438550,-0.22500,62.4375,104,58,0.38242
11438560,-0.21500,62.0000,104,58,0.37167
11438570,-0.20000,61.7500,104,58,0.36679
11438580,-0.20000,61.5000,104,58,0.36215
11438590,-0.19000,61.2500,104,58,0.35751
11438600,-0.18000,60.7500,104,58,0.34823
11438610,-0.17500,60.5000,104,58,0.34408
11438620,-0.16500,60.2500,104,58,0.34090
11438630,-0.15500,60.0000,104,58,0.33797
11438640,-0.15000,59.5000,104,58,0.33089
11438650,-0.14500,59.3125,104,58,0.32698
11438660,-0.14000,59.1875,104,58,0.32308
11438670,-0.13000,59.1875,104,58,0.31941
11438680,-0.12000,60.1875,104,58,0.31233
11438690,-0.10000,61.5000,104,58,0.30867
11438700,-0.08500,63.5000,104,58,0.30501
11438710,-0.06500,66.0625,104,58,0.30159
11438720,-0.05500,72.6875,104,58,0.29621
11438730,-0.03500,76.5625,104,58,0.29451
11438740,-0.03500,76.5625,104,58,0.29451
11438750,0.02000,84.7500,104,58,0.28962
11438760,0.05000,92.3750,104,58,0.28474
11438770,0.09000,95.7500,104,58,0.28205
11438780,0.12500,98.6875,104,58,0.27961
11438790,0.15500,101.1875,104,58,0.27766
11438800,0.18500,104.8750,104,58,0.27448
11438810,0.22500,106.1875,104,58,0.27302
11438820,0.25000,107.0625,104,58,0.27253
11438830,0.25500,107.6250,104,58,0.27228
11438840,0.22000,107.8750,104,58,0.27033
11438850,0.17000,107.6875,104,58,0.26862
11438860,0.11000,107.2500,104,58,0.26667
11438870,0.03000,106.7500,104,58,0.26471
11438880,0.03000,106.7500,104,58,0.26471
11438890,-0.07500,104.4375,104,58,0.25910
11438900,-0.11500,103.5000,104,58,0.25690
11438910,-0.13500,102.5000,104,58,0.25495
11438920,-0.15000,100.5000,104,58,0.25324
11438930,-0.15500,99.4375,104,58,0.25421
11438940,-0.14000,98.3125,104,58,0.27082
11438950,-0.14500,97.1250,104,58,0.29719
11438960,-0.14500,94.4375,104,58,0.33211
11438970,-0.12500,92.8750,104,58,0.35067
11438980,-0.11500,91.1875,104,58,0.37241
11438990,-0.10500,89.5000,104,58,0.39780
11439000,-0.09500,86.1250,104,58,0.45885
11439010,-0.13000,84.5000,104,58,0.49304
11439020,-0.14000,83.0000,104,58,0.52357
11439030,-0.11500,81.6250,104,58,0.55165
11439040,-0.10000,79.1250,104,58,0.61392
11439050,-0.09500,78.0625,104,58,0.64420
11439060,-0.09500,77.0625,104,58,0.67228
11439070,-0.09500,76.2500,104,58,0.69744
11439080,-0.09500,74.8750,104,58,0.73846
11439090,-0.09000,74.3750,104,58,0.75458
11439100,-0.09000,73.8750,104,58,0.76801
11439110,-0.08500,73.5000,104,58,0.77875
11439120,-0.07500,72.8750,104,58,0.79170
11439130,-0.05500,72.6250,104,58,0.79390
11439140,-0.03500,72.4375,104,58,0.79560
11439150,-0.02500,72.2500,104,58,0.79634
11439160,-0.01500,71.9375,104,58,0.79438
11439170,0.01000,71.7500,104,58,0.79170
11439180,0.01000,71.6250,104,58,0.78779
11439190,-0.01000,71.4375,104,58,0.78291
11439200,-0.03500,71.0625,104,58,0.77021
11439210,-0.06500,70.8750,104,58,0.76239
11439220,-0.11500,70.6875,104,58,0.75385
11439230,-0.14500,70.4375,104,58,0.74457
11439240,-0.15500,70.0000,104,58,0.72234
11439250,-0.14500,69.7500,104,58,0.70989
11439260,-0.13500,69.5000,104,58,0.69670
11439270,-0.12000,69.2500,104,58,0.68278
11439280,-0.11000,68.6250,104,58,0.65421
11439290,-0.10500,68.3750,104,58,0.63956
11439300,-0.15500,68.0625,104,58,0.62540
11439310,-0.12500,67.7500,104,58,0.61123
11439320,0.27500,67.0625,104,58,0.58779
11439330,1.07000,66.6875,104,58,0.57631
11439340,1.68500,66.3125,104,58,0.56484
11439350,1.37000,65.9375,104,58,0.55385
11439360,0.42000,65.3125,104,58,0.53333
11439370,-0.17500,65.0000,104,58,0.52430
11439380,-0.28000,64.6250,104,58,0.51624
11439390,-0.25500,64.3125,104,58,0.50867
11439400,-0.24000,63.6875,104,58,0.49499
11439410,-0.23000,63.3750,104,58,0.48889
11439420,-0.23000,63.1250,104,58,0.48376
11439430,-0.22000,62.8750,104,58,0.47961
11439440,-0.22000,62.8750,104,58,0.47961
11439450,-0.20500,62.1250,104,58,0.46740
11439460,-0.20000,61.8750,104,58,0.46349
11439470,-0.19000,61.6875,104,58,0.45983
11439480,-0.19000,61.1875,104,58,0.45250
11439490,-0.18000,61.0000,104,58,0.44908
11439500,-0.17000,60.7500,104,58,0.44591
11439510,-0.16500,60.5625,104,58,0.44249
11439520,-0.16000,60.5000,104,58,0.43687
11439530,-0.15000,60.8750,104,58,0.43370
11439540,-0.14500,61.6250,104,58,0.43028
11439550,-0.12500,62.9375,104,58,0.42711
11439560,-0.10500,67.6250,104,58,0.42125
11439570,-0.09000,70.8750,104,58,0.41856
11439580,-0.07000,74.5625,104,58,0.41587
11439590,-0.04500,78.5625,104,58,0.41294
11439600,-0.02000,86.9375,104,58,0.40708
11439610,0.00500,91.0000,104,58,0.40415
11439620,0.03000,94.6875,104,58,0.40171
11439630,0.07000,98.0625,104,58,0.39951
11439640,0.10500,103.4375,104,58,0.39390
11439650,0.13500,105.4375,104,58,0.39072
11439660,0.16000,107.0000,104,58,0.38779
11439670,0.19000,108.1250,104,58,0.38486
11439680,0.21500,109.3125,104,58,0.37973
11439690,0.22000,109.4375,104,58,0.37729
11439700,0.19500,109.3125,104,58,0.37509
11439710,0.15000,109.0000,104,58,0.37314
11439720,0.08000,107.9375,104,58,0.37045
11439730,0.00500,107.1875,104,58,0.36899
11439740,-0.05500,106.4375,104,58,0.36703
11439750,-0.09500,105.6250,104,58,0.36508
11439760,-0.12000,103.7500,104,58,0.36117
11439770,-0.13500,102.7500,104,58,0.35971
11439780,-0.13500,101.6250,104,58,0.35873
11439790,-0.13500,100.5625,104,58,0.35897
11439800,-0.14000,98.1875,104,58,0.36606
11439810,-0.13500,96.8750,104,58,0.37460
11439820,-0.12500,95.3750,104,58,0.38510
11439830,-0.12000,93.7500,104,58,0.39853
11439840,-0.12000,93.7500,104,58,0.39853
11439850,-0.12500,88.5625,104,58,0.46984
11439860,-0.12500,86.8750,104,58,0.50134
11439870,-0.13500,85.2500,104,58,0.53504
11439880,-0.16500,82.1875,104,58,0.60464
11439890,-0.18500,80.8125,104,58,0.63810
11439900,-0.16000,79.5625,104,58,0.66960
11439910,-0.13500,78.5000,104,58,0.69866
11439920,-0.12000,76.6250,104,58,0.73895
11439930,-0.11500,75.8125,104,58,0.75702
11439940,-0.12500,75.1875,104,58,0.77363
11439950,-0.12000,74.5625,104,58,0.78803
11439960,-0.11000,73.6250,104,58,0.80928
11439970,-0.09500,73.2500,104,58,0.81636
11439980,-0.09500,72.8750,104,58,0.82173
11439990,-0.09500,72.5625,104,58,0.82564
11440000,-0.07500,72.0625,104,58,0.82808
11440010,-0.04500,71.8125,104,58,0.82735
11440020,-0.04500,71.8125,104,58,0.82735
11440030,-0.04500,71.3125,104,58,0.82027
11440040,-0.05000,70.8750,104,58,0.81026
11440050,-0.06500,70.6250,104,58,0.80391
11440060,-0.08000,70.3750,104,58,0.79683
11440070,-0.09500,70.1250,104,58,0.78877
11440080,-0.13000,69.5625,104,58,0.76850
11440090,-0.15500,69.3125,104,58,0.75653
11440100,-0.16000,69.0000,104,58,0.74359
11440110,-0.16000,68.6875,104,58,0.72991
11440120,-0.15000,68.0625,104,58,0.70330
11440130,-0.13500,67.7500,104,58,0.68889
11440140,-0.12500,67.4375,104,58,0.67375
11440150,-0.11500,67.1250,104,58,0.65836
11440160,-0.15000,66.5000,104,58,0.62808
11440170,-0.15500,66.1875,104,58,0.61368
11440180,0.15500,65.8750,104,58,0.59976
11440190,0.87000,65.5625,104,58,0.58657
11440200,1.59000,64.9375,104,58,0.56239
11440210,1.48000,64.6875,104,58,0.55092
11440220,0.56500,64.3750,104,58,0.54115
11440230,-0.12500,64.1250,104,58,0.53211
11440240,-0.28000,63.5625,104,58,0.51404
11440250,-0.25000,63.2500,104,58,0.50549
11440260,-0.22500,63.0000,104,58,0.49768
11440270,-0.21500,62.6875,104,58,0.49060
11440280,-0.21000,62.1250,104,58,0.47766
11440290,-0.20000,61.8750,104,58,0.47179
11440300,-0.19500,61.5625,104,58,0.46593
11440310,-0.18500,61.3125,104,58,0.46007
11440320,-0.18000,60.7500,104,58,0.45055
11440330,-0.17000,60.5000,104,58,0.44518
11440340,-0.16500,60.1875,104,58,0.43980
11440350,-0.16000,59.9375,104,58,0.43419
11440360,-0.16000,59.4375,104,58,0.42271
11440370,-0.15500,59.2500,104,58,0.41685
11440380,-0.14500,59.1250,104,58,0.41123
11440390,-0.13500,59.0625,104,58,0.40586
11440400,-0.12500,59.6875,104,58,0.39536
11440410,-0.10500,60.6875,104,58,0.39023
11440420,-0.09500,62.3750,104,58,0.38632
11440430,-0.08500,64.6250,104,58,0.38291
11440440,-0.06500,70.7500,104,58,0.37485
11440450,-0.04500,74.3125,104,58,0.37045
11440460,-0.02500,78.1875,104,58,0.36630
11440470,-0.00500,82.1875,104,58,0.36215
11440480,0.02000,89.8750,104,58,0.35385
11440490,0.03500,93.3125,104,58,0.34969
11440500,0.07500,96.3125,104,58,0.34554
11440510,0.12000,98.9375,104,58,0.34139
11440520,0.16000,102.8125,104,58,0.33626
11440530,0.19500,104.0625,104,58,0.33333
11440540,0.23500,105.0000,104,58,0.32991
11440550,0.25000,105.6250,104,58,0.32650
11440560,0.24500,105.9375,104,58,0.31990
11440570,0.20500,105.6875,104,58,0.31624
11440580,0.14000,105.2500,104,58,0.31282
11440590,0.06000,104.6875,104,58,0.30940
11440600,-0.01000,103.0625,104,58,0.30256
11440610,-0.06500,102.1250,104,58,0.29939
11440620,-0.09500,101.1875,104,58,0.29719
11440630,-0.11500,100.1875,104,58,0.29573
11440640,-0.13000,98.0000,104,58,0.29158
11440650,-0.13500,96.8125,104,58,0.29011
11440660,-0.13500,95.6250,104,58,0.28987
11440670,-0.14500,94.3125,104,58,0.29158
11440680,-0.14500,91.3750,104,58,0.30403
11440690,-0.14500,89.7500,104,58,0.31624
11440700,-0.14500,88.0625,104,58,0.33284
11440710,-0.15000,86.3125,104,58,0.35409
11440720,-0.15000,83.0000,104,58,0.39902
11440730,-0.15000,81.4375,104,58,0.42711
11440740,-0.15000,79.9375,104,58,0.45788
11440750,-0.15000,78.5625,104,58,0.48987
11440760,-0.15000,76.2500,104,58,0.55311
11440770,-0.15000,75.1875,104,58,0.58266
11440780,-0.15000,74.3125,104,58,0.60977
11440790,-0.15000,73.5625,104,58,0.63394
11440800,-0.15000,72.2500,104,58,0.67302
11440810,-0.14500,71.8125,104,58,0.68791
11440820,-0.14500,71.3750,104,58,0.69817
11440830,-0.14000,70.9375,104,58,0.70525
11440840,-0.13000,70.3125,104,58,0.71648
11440850,-0.12500,70.0625,104,58,0.71990
11440860,-0.11500,69.8750,104,58,0.72210
11440870,-0.09000,69.6875,104,58,0.72259
11440880,-0.07500,69.3750,104,58,0.71966
11440890,-0.06500,69.1875,104,58,0.71624
11440900,-0.03500,69.0000,104,58,0.71184
11440910,-0.02500,68.8125,104,58,0.70623
11440920,-0.03500,68.3750,104,58,0.69206
11440930,-0.06500,68.1875,104,58,0.68352
11440940,-0.09000,67.9375,104,58,0.67399
11440950,-0.13000,67.6875,104,58,0.66349
11440960,-0.16000,67.2500,104,58,0.63907
11440970,-0.17500,67.0000,104,58,0.62564
11440980,-0.17000,66.6875,104,58,0.61148
11440990,-0.17000,66.4375,104,58,0.58193
11441000,-0.15500,65.8750,104,58,0.51941
11441010,-0.14500,65.5625,104,58,0.50159
11441020,-0.13500,65.2500,104,58,0.48767
11441030,-0.15000,64.9375,104,58,0.47448
11441040,-0.19000,64.3750,104,58,0.44982
11441050,-0.04500,64.1250,104,58,0.43858
11441060,0.48500,63.8750,104,58,0.42759
11441070,1.29500,63.6250,104,58,0.41734
11441080,1.58000,63.1250,104,58,0.39853
11441090,0.85500,62.8125,104,58,0.38999
11441100,0.02000,62.5625,104,58,0.38242
11441110,-0.27500,62.3125,104,58,0.37534
11441120,-0.27500,61.7500,104,58,0.36508
11441130,-0.24000,61.5000,104,58,0.35971
11441140,-0.22000,61.3125,104,58,0.35458
11441150,-0.20500,61.0625,104,58,0.34945
11441160,-0.19500,60.5625,104,58,0.33993
11441170,-0.18500,60.3125,104,58,0.33553
11441180,-0.17500,60.0625,104,58,0.33162
11441190,-0.17000,59.8125,104,58,0.32747
11441200,-0.16000,59.3125,104,58,0.31966
11441210,-0.15500,59.0625,104,58,0.31673
11441220,-0.15000,58.7500,104,58,0.31429
11441230,-0.14500,58.5000,104,58,0.31136
11441240,-0.14000,58.1250,104,58,0.30501
11441250,-0.13500,58.0000,104,58,0.30159
11441260,-0.13000,57.9375,104,58,0.29841
11441270,-0.12000,58.0625,104,58,0.29524
11441280,-0.11000,59.3125,104,58,0.28791
11441290,-0.10000,60.7500,104,58,0.28425
11441300,-0.08500,62.8125,104,58,0.28083
11441310,-0.07500,65.4375,104,58,0.27766
11441320,-0.05500,72.0000,104,58,0.27448
11441330,-0.03000,75.7500,104,58,0.27253
11441340,0.00000,79.6250,104,58,0.27033
11441350,0.02500,83.5000,104,58,0.26813
11441360,0.05500,90.6250,104,58,0.26325
11441370,0.09000,93.6875,104,58,0.26081
11441380,0.13000,96.3125,104,58,0.25812
11441390,0.17500,100.2500,104,58,0.25299
11441400,0.20500,101.5625,104,58,0.25055
11441410,0.23500,102.5625,104,58,0.24908
11441420,0.26500,103.1875,104,58,0.24786
11441430,0.27000,103.5625,104,58,0.24591
11441440,0.23500,103.3750,104,58,0.24103
11441450,0.16500,103.0000,104,58,0.23883
11441460,0.08500,102.4375,104,58,0.23687
11441470,0.01000,101.7500,104,58,0.23516
11441480,-0.04500,100.0625,104,58,0.23150
11441490,-0.08500,99.1250,104,58,0.22955
11441500,-0.10500,98.1250,104,58,0.22784
11441510,-0.11000,97.1250,104,58,0.22613
11441520,-0.11500,94.9375,104,58,0.22613
11441530,-0.11500,93.8125,104,58,0.22662
11441540,-0.11500,92.5625,104,58,0.22833
11441550,-0.11500,91.1875,104,58,0.23199
11441560,-0.10500,88.0000,104,58,0.24908
11441570,-0.10500,86.3125,104,58,0.26325
11441580,-0.10500,84.6250,104,58,0.28156
11441590,-0.10500,83.0625,104,58,0.30379
11441600,-0.11000,80.0625,104,58,0.35800
11441610,-0.11500,78.6875,104,58,0.38413
11441620,-0.11500,77.3125,104,58,0.40928
11441630,-0.12000,76.1250,104,58,0.43712
11441640,-0.12500,74.1250,104,58,0.49353
11441650,-0.13000,73.2500,104,58,0.51941
11441660,-0.13000,72.5000,104,58,0.54286
11441670,-0.13000,71.8125,104,58,0.56386
11441680,-0.13000,70.6875,104,58,0.59756
11441690,-0.13000,70.3125,104,58,0.61074
11441700,-0.13000,69.9375,104,58,0.62125
11441710,-0.13500,69.6250,104,58,0.62930
11441720,-0.13000,69.1875,104,58,0.63663
11441730,-0.11500,68.9375,104,58,0.63883
11441740,-0.09500,68.6875,104,58,0.64029
11441750,-0.08500,68.5000,104,58,0.64029
11441760,-0.06500,68.1250,104,58,0.63663
11441770,-0.03000,67.9375,104,58,0.63346
11441780,-0.02000,67.7500,104,58,0.62930
11441790,-0.04000,67.5625,104,58,0.62393
11441800,-0.06500,67.1250,104,58,0.61026
11441810,-0.09000,66.9375,104,58,0.60244
11441820,-0.12500,66.6875,104,58,0.59414
11441830,-0.15500,66.4375,104,58,0.58462
11441840,-0.17500,65.9375,104,58,0.56215
11441850,-0.18000,65.6875,104,58,0.54945
11441860,-0.15500,65.3750,104,58,0.53651
11441870,-0.15000,65.1250,104,58,0.52332
11441880,-0.13500,64.5625,104,58,0.49719
11441890,-0.12500,64.3125,104,58,0.48449
11441900,-0.14500,64.0625,104,58,0.47204
11441910,-0.18500,63.8125,104,58,0.46032
11441920,-0.00500,63.2500,104,58,0.44151
11441930,0.61000,63.0000,104,58,0.43248
11441940,0.61000,63.0000,104,58,0.43248
11441950,0.61000,63.0000,104,58,0.43248
11441960,0.74000,62.0000,104,58,0.39902
11441970,-0.02500,61.7500,104,58,0.39170
11441980,-0.29000,61.5625,104,58,0.38510
11441990,-0.27500,61.3125,104,58,0.37875
11442000,-0.25000,60.8125,104,58,0.36801
11442010,-0.25000,60.5625,104,58,0.36386
11442020,-0.24500,60.3125,104,58,0.36020
11442030,-0.23000,60.0625,104,58,0.35629
11442040,-0.20500,59.5625,104,58,0.34774
11442050,-0.19500,59.3750,104,58,0.34383
11442060,-0.19000,59.1250,104,58,0.33993
11442070,-0.18500,58.8750,104,58,0.33602
11442080,-0.17500,58.4375,104,58,0.32845
11442090,-0.17000,58.1875,104,58,0.32479
11442100,-0.16000,57.9375,104,58,0.32137
11442110,-0.15500,57.6875,104,58,0.31770
11442120,-0.15500,57.3750,104,58,0.31258
11442130,-0.14500,57.3750,104,58,0.30965
11442140,-0.13500,57.5625,104,58,0.30647
11442150,-0.12500,58.1875,104,58,0.30354
11442160,-0.11500,61.2500,104,58,0.29817
11442170,-0.10000,63.6875,104,58,0.29548
11442180,-0.08500,66.6250,104,58,0.29304
11442190,-0.06500,69.9375,104,58,0.29084
11442200,-0.04000,77.3750,104,58,0.28596
11442210,-0.01500,81.2500,104,58,0.28449
11442220,0.00500,85.0625,104,58,0.28352
11442230,0.03500,88.6875,104,58,0.28205
11442240,0.07500,94.9375,104,58,0.27814
11442250,0.11500,97.4375,104,58,0.27595
11442260,0.15500,99.5000,104,58,0.27350
11442270,0.19000,101.1875,104,58,0.27106
11442280,0.22500,103.3750,104,58,0.26667
11442290,0.26000,104.0000,104,58,0.26447
11442300,0.26500,104.2500,104,58,0.26227
11442310,0.22500,104.3125,104,58,0.26032
11442320,0.15500,103.7500,104,58,0.25836
11442330,0.07000,103.2500,104,58,0.25714
11442340,-0.00500,102.5625,104,58,0.25568
11442350,-0.06000,101.8125,104,58,0.25446
11442360,-0.09500,100.0625,104,58,0.25153
11442370,-0.12500,99.0625,104,58,0.25031
11442380,-0.13500,98.0625,104,58,0.24908
11442390,-0.14500,96.9375,104,58,0.24811
11442400,-0.15500,94.6250,104,58,0.24908
11442410,-0.15500,93.3750,104,58,0.25226
11442420,-0.15000,92.0000,104,58,0.25763
11442430,-0.13500,90.5625,104,58,0.26569
11442440,-0.12500,87.3125,104,58,0.29328
11442450,-0.11500,85.6250,104,58,0.31331
11442460,-0.11500,85.6250,104,58,0.31331
11442470,-0.11500,82.5000,104,58,0.36435
11442480,-0.11000,79.5625,104,58,0.42491
11442490,-0.11000,78.2500,104,58,0.45641
11442500,-0.11000,77.0000,104,58,0.48742
11442510,-0.11500,75.8750,104,58,0.51722
11442520,-0.11500,74.0000,104,58,0.56190
11442530,-0.12000,73.2500,104,58,0.58291
11442540,-0.12000,72.5625,104,58,0.60269
11442550,-0.12500,72.0000,104,58,0.62051
11442560,-0.13000,71.0625,104,58,0.64884
11442570,-0.12500,70.6875,104,58,0.65934
11442580,-0.11500,70.3750,104,58,0.66764
11442590,-0.10500,70.1250,104,58,0.67375
11442600,-0.07500,69.6875,104,58,0.68083
11442610,-0.06000,69.5625,104,58,0.68083
11442620,-0.04500,69.4375,104,58,0.67937
11442630,-0.02000,69.3125,104,58,0.67717
11442640,-0.00500,69.0000,104,58,0.67033
11442650,-0.02000,68.8125,104,58,0.66545
11442660,-0.04000,68.6250,104,58,0.65983
11442670,-0.06500,68.5000,104,58,0.65348
11442680,-0.09500,68.0625,104,58,0.63785
11442690,-0.13500,67.8125,104,58,0.62833
11442700,-0.15000,67.5625,104,58,0.61807
11442710,-0.15000,67.3125,104,58,0.60684
11442720,-0.14000,66.7500,104,58,0.58462
11442730,-0.13000,66.5625,104,58,0.57241
11442740,-0.12000,66.3125,104,58,0.55946
11442750,-0.11000,66.0625,104,58,0.54603
11442760,-0.12000,65.5000,104,58,0.51893
11442770,-0.18000,65.1875,104,58,0.50623
11442780,-0.10500,64.8750,104,58,0.49402
11442790,0.37000,64.6250,104,58,0.48230
11442800,1.19000,64.0625,104,58,0.46081
11442810,1.66500,63.7500,104,58,0.45226
11442820,1.17000,63.5000,104,58,0.44493
11442830,0.25000,63.1875,104,58,0.43736
11442840,0.25000,63.1875,104,58,0.43736
11442850,-0.28000,62.3750,104,58,0.41563
11442860,-0.25000,62.1250,104,58,0.40904
11442870,-0.24000,61.9375,104,58,0.40269
11442880,-0.23000,61.5000,104,58,0.39145
11442890,-0.21500,61.3750,104,58,0.38657
11442900,-0.20000,61.1875,104,58,0.38217
11442910,-0.19500,61.0000,104,58,0.37900
11442920,-0.19000,60.5000,104,58,0.37387
11442930,-0.18000,60.3125,104,58,0.37143
11442940,-0.17000,60.0625,104,58,0.36874
11442950,-0.16000,59.8125,104,58,0.36581
11442960,-0.15500,59.3750,104,58,0.35995
11442970,-0.15000,59.1875,104,58,0.35653
11442980,-0.13500,59.0000,104,58,0.35263
11442990,-0.13000,58.8750,104,58,0.34823
11443000,-0.11500,59.3125,105,59,0.33944
11443010,-0.10500,60.1875,105,59,0.33602
11443020,-0.09000,61.6875,105,59,0.33333
11443030,-0.07500,63.8750,105,59,0.33016
11443040,-0.06500,69.8750,105,59,0.34554
11443050,-0.04500,73.5000,105,59,0.34896
11443060,-0.02000,77.4375,105,59,0.34896
11443070,0.00500,81.5000,105,59,0.34750
11443080,0.03500,89.5000,105,59,0.34310
11443090,0.07000,93.0625,105,59,0.34066
11443100,0.10000,96.3125,105,59,0.33797
11443110,0.13000,99.1250,105,59,0.33626
11443120,0.16500,103.5000,105,59,0.33284
11443130,0.19500,105.0625,105,59,0.33016
11443140,0.23000,106.1875,105,59,0.32723
11443150,0.25500,107.0625,105,59,0.32430
11443160,0.26500,107.7500,105,59,0.31819
11443170,0.23500,107.7500,105,59,0.31526
11443180,0.17500,107.5000,105,59,0.31233
11443190,0.09500,107.0625,105,59,0.30940
11443200,0.02000,105.7500,105,59,0.30403
11443210,-0.04000,105.0000,105,59,0.30232
11443220,-0.08000,104.1875,105,59,0.30110
11443230,-0.11000,103.2500,105,59,0.29915
11443240,-0.12500,101.2500,105,59,0.29524
11443250,-0.12500,100.1250,105,59,0.29402
11443260,-0.13000,99.0625,105,59,0.29402
11443270,-0.13500,97.9375,105,59,0.29597
11443280,-0.13500,95.3125,105,59,0.30916
11443290,-0.13000,93.7500,105,59,0.32112
11443300,-0.13000,92.1250,105,59,0.33748
11443310,-0.13000,90.5000,105,59,0.35531
11443320,-0.12500,87.2500,105,59,0.40073
11443330,-0.12500,85.6250,105,59,0.43004
11443340,-0.12500,84.0625,105,59,0.46227
11443350,-0.12000,82.5625,105,59,0.49621
11443360,-0.12000,79.8750,105,59,0.56435
11443370,-0.12500,78.6875,105,59,0.59683
11443380,-0.12000,77.6875,105,59,0.62735
11443390,-0.12000,77.6875,105,59,0.62735
11443400,-0.12000,75.1875,105,59,0.70159
11443410,-0.11500,74.5625,105,59,0.71746
11443420,-0.11500,74.0625,105,59,0.72918
11443430,-0.12000,73.6250,105,59,0.74042
11443440,-0.12000,73.6250,105,59,0.74042
11443450,-0.12000,72.8750,105,59,0.75800
11443460,-0.11000,72.3125,105,59,0.76752
11443470,-0.09500,72.1250,105,59,0.76972
11443480,-0.07000,71.8125,105,59,0.76948
11443490,-0.06000,71.6250,105,59,0.76752
11443500,-0.04500,71.4375,105,59,0.76484
11443510,-0.02000,71.2500,105,59,0.76068
11443520,-0.01000,70.8750,105,59,0.75018
11443530,-0.03500,70.6250,105,59,0.74408
11443540,-0.05500,70.4375,105,59,0.73675
11443550,-0.08000,70.1875,105,59,0.72845
11443560,-0.11500,69.7500,105,59,0.70891
11443570,-0.13500,69.5000,105,59,0.69768
11443580,-0.14000,69.2500,105,59,0.68571
11443590,-0.13500,69.0000,105,59,0.67302
11443600,-0.12500,68.5000,105,59,0.64615
11443610,-0.12000,68.1875,105,59,0.63346
11443620,-0.11000,67.9375,105,59,0.62173
11443630,-0.10500,67.6250,105,59,0.60928
11443640,-0.14500,67.0625,105,59,0.58413
11443650,-0.11500,66.7500,105,59,0.57192
11443660,0.23500,66.4375,105,59,0.55995
11443670,1.00000,66.1250,105,59,0.54847
11443680,1.71000,65.6250,105,59,0.52674
11443690,1.48500,65.3750,105,59,0.51697
11443700,0.55500,65.0625,105,59,0.50818
11443710,-0.09500,64.8125,105,59,0.50085
11443720,-0.24500,64.3750,105,59,0.48816
11443730,-0.22000,64.1250,105,59,0.48181
11443740,-0.20000,63.8750,105,59,0.47595
11443750,-0.19500,63.6250,105,59,0.47057
11443760,-0.19000,63.1875,105,59,0.46032
11443770,-0.19000,62.9375,105,59,0.45568
11443780,-0.18000,62.6875,105,59,0.45128
11443790,-0.17000,62.4375,105,59,0.44689
11443800,-0.16000,61.9375,105,59,0.43858
11443810,-0.16000,61.6875,105,59,0.43516
11443820,-0.15500,61.5000,105,59,0.43199
11443830,-0.15500,61.2500,105,59,0.42857
11443840,-0.14500,60.8750,105,59,0.42125
11443850,-0.14000,60.8125,105,59,0.41758
11443860,-0.13000,60.7500,105,59,0.41368
11443870,-0.12000,60.8750,105,59,0.40977
11443880,-0.10500,62.3750,105,59,0.40220
11443890,-0.10000,64.0625,105,59,0.39902
11443900,-0.09000,66.4375,105,59,0.39609
11443910,-0.07000,69.3750,105,59,0.39390
11443920,-0.05000,76.5625,105,59,0.38974
11443930,-0.03500,80.6250,105,59,0.38706
11443940,-0.01500,84.7500,105,59,0.38413
11443950,0.00500,88.8125,105,59,0.38120
11443960,0.03000,96.1250,105,59,0.37509
11443970,0.06000,99.1875,105,59,0.37216
11443980,0.09500,101.8125,105,59,0.36947
11443990,0.12000,104.0625,105,59,0.36654
11444000,0.15000,107.1875,105,59,0.36117
11444010,0.18500,108.1250,105,59,0.35922
11444020,0.21500,108.8125,105,59,0.35800
11444030,0.22500,109.1250,105,59,0.35653
11444040,0.22000,109.0000,105,59,0.35360
11444050,0.17500,108.6250,105,59,0.35214
11444060,0.11500,108.1250,105,59,0.35092
11444070,0.04000,107.4375,105,59,0.34969
11444080,-0.02500,105.7500,105,59,0.34725
11444090,-0.07000,104.8125,105,59,0.34579
11444100,-0.10000,103.8125,105,59,0.34432
11444110,-0.12000,102.7500,105,59,0.34383
11444120,-0.13000,100.5000,105,59,0.34408
11444130,-0.13000,99.3125,105,59,0.34505
11444140,-0.13000,98.0000,105,59,0.34774
11444150,-0.13500,96.6875,105,59,0.35311
11444160,-0.12500,93.6875,105,59,0.37485
11444170,-0.12500,92.0625,105,59,0.39219
11444180,-0.12500,90.3125,105,59,0.41416
11444190,-0.12000,88.5000,105,59,0.44054
11444200,-0.12500,85.1250,105,59,0.50403
11444210,-0.12500,83.5625,105,59,0.53407
11444220,-0.12000,82.0625,105,59,0.56239
11444230,-0.12000,80.6250,105,59,0.59389
11444240,-0.12000,78.2500,105,59,0.65714
11444250,-0.12000,77.2500,105,59,0.68571
11444260,-0.12000,76.3750,105,59,0.71160
11444270,-0.12500,75.6250,105,59,0.73455
11444280,-0.12500,74.2500,105,59,0.77094
11444290,-0.12000,73.7500,105,59,0.78462
11444300,-0.12000,73.3125,105,59,0.79560
11444310,-0.11500,72.9375,105,59,0.80220
11444320,-0.11500,72.3125,105,59,0.81001
11444330,-0.11500,72.0625,105,59,0.81319
11444340,-0.11500,71.8125,105,59,0.81514
11444350,-0.11500,71.6250,105,59,0.81563
11444360,-0.10000,71.1250,105,59,0.81221
11444370,-0.09000,70.9375,105,59,0.80855
11444380,-0.07500,70.6875,105,59,0.80342
11444390,-0.05500,70.4375,105,59,0.79707
11444400,-0.04500,69.8750,105,59,0.78144
11444410,-0.02500,69.5625,105,59,0.77241
11444420,0.00000,69.3125,105,59,0.76264
11444430,-0.00500,69.0000,105,59,0.75214
11444440,-0.00500,69.0000,105,59,0.75214
11444450,-0.05000,68.0625,105,59,0.71477
11444460,-0.07500,67.7500,105,59,0.70085
11444470,-0.11500,67.4375,105,59,0.68645
11444480,-0.13500,66.6875,105,59,0.65665
11444490,-0.14000,66.3125,105,59,0.64176
11444500,-0.14000,66.3125,105,59,0.64176
11444510,-0.13500,65.6875,105,59,0.61416
11444520,-0.12500,65.0625,105,59,0.58999
11444530,-0.11000,64.7500,105,59,0.57778
11444540,-0.11000,64.4375,105,59,0.56581
11444550,-0.15500,64.1250,105,59,0.55433
11444560,-0.11500,63.5625,105,59,0.53333
11444570,0.29000,63.3125,105,59,0.52381
11444580,1.06500,63.0000,105,59,0.51502
11444590,1.62500,62.7500,105,59,0.50696
11444600,1.26500,62.2500,105,59,0.49304
11444610,0.34000,62.0000,105,59,0.48742
11444620,-0.20500,61.7500,105,59,0.48132
11444630,-0.28000,61.5000,105,59,0.47546
11444640,-0.24500,61.0625,105,59,0.46374
11444650,-0.22500,60.7500,105,59,0.45788
11444660,-0.22000,60.5000,105,59,0.45226
11444670,-0.21000,60.2500,105,59,0.44689
11444680,-0.20000,59.7500,105,59,0.43639
11444690,-0.19500,59.5000,105,59,0.43150
11444700,-0.18500,59.2500,105,59,0.42637
11444710,-0.18000,59.0000,105,59,0.42198
11444720,-0.17500,58.5625,105,59,0.41343
11444730,-0.17000,58.2500,105,59,0.40830
11444740,-0.16500,58.0625,105,59,0.40269
11444750,-0.16000,57.8125,105,59,0.39731
11444760,-0.15500,57.5000,105,59,0.38632
11444770,-0.14500,57.3750,105,59,0.38120
11444780,-0.14500,57.5000,105,59,0.37607
11444790,-0.12500,57.8750,105,59,0.37143
11444800,-0.11000,60.3125,105,59,0.36337
11444810,-0.09000,62.4375,105,59,0.36044
11444820,-0.07500,65.1875,105,59,0.35702
11444830,-0.05500,68.3750,105,59,0.35336
11444840,-0.05500,68.3750,105,59,0.35336
11444850,-0.01500,79.6875,105,59,0.34188
11444860,0.01000,83.6875,105,59,0.33822
11444870,0.04000,87.5000,105,59,0.33455
11444880,0.07500,94.1250,105,59,0.32796
11444890,0.10500,96.8750,105,59,0.32479
11444900,0.13500,99.1875,105,59,0.32186
11444910,0.16500,101.0625,105,59,0.31990
11444920,0.20500,103.5625,105,59,0.31600
11444930,0.23500,104.2500,105,59,0.31355
11444940,0.25000,104.6875,105,59,0.31111
11444950,0.24000,104.8125,105,59,0.30867
11444960,0.24000,104.8125,105,59,0.30867
11444970,0.12000,103.7500,105,59,0.30085
11444980,0.04000,103.0625,105,59,0.29841
11444990,-0.02500,102.3125,105,59,0.29597
11445000,-0.07000,100.5000,105,59,0.29182
11445010,-0.10000,99.5000,105,59,0.29060
11445020,-0.11500,98.4375,105,59,0.28864
11445030,-0.13500,97.3125,105,59,0.28669
11445040,-0.14000,96.1875,105,59,0.28498
11445050,-0.14500,95.0000,105,59,0.28425
11445060,-0.14500,95.0000,105,59,0.28425
11445070,-0.14500,92.3750,105,59,0.28816
11445080,-0.14500,89.3750,105,59,0.30476
11445090,-0.14500,87.7500,105,59,0.31038
11445100,-0.14500,86.0625,105,59,0.31526
11445110,-0.14000,84.3750,105,59,0.33065
11445120,-0.14000,81.1875,105,59,0.37094
11445130,-0.13500,79.6875,105,59,0.39756
11445140,-0.13500,78.3125,105,59,0.42686
11445150,-0.13500,77.0000,105,59,0.45714
11445160,-0.13500,74.8125,105,59,0.51575
11445170,-0.13500,73.9375,105,59,0.54261
11445180,-0.14000,73.1250,105,59,0.56728
11445190,-0.14500,72.3750,105,59,0.58901
11445200,-0.14500,71.1875,105,59,0.62369
11445210,-0.14000,70.7500,105,59,0.63468
11445220,-0.13500,70.3750,105,59,0.64225
11445230,-0.11500,70.0625,105,59,0.64957
11445240,-0.11500,70.0625,105,59,0.64957
11445250,-0.08000,69.3750,105,59,0.66276
11445260,-0.06500,69.1875,105,59,0.66398
11445270,-0.05000,69.0000,105,59,0.66398
11445280,-0.02500,68.6875,105,59,0.65983
11445290,-0.01500,68.5000,105,59,0.65617
11445300,-0.03500,68.3750,105,59,0.65128
11445310,-0.06500,68.2500,105,59,0.64542
11445320,-0.09500,67.8750,105,59,0.63150
11445330,-0.13500,67.6250,105,59,0.62344
11445340,-0.16000,67.4375,105,59,0.61441
11445350,-0.17000,67.1875,105,59,0.60440
11445360,-0.16500,66.6875,105,59,0.58144
11445370,-0.15500,66.4375,105,59,0.56899
11445380,-0.14500,66.1875,105,59,0.55580
11445390,-0.13500,65.9375,105,59,0.54261
11445400,-0.13500,65.3125,105,59,0.51575
11445410,-0.16000,65.0625,105,59,0.50379
11445420,-0.18500,64.7500,105,59,0.49304
11445430,0.02500,64.4375,105,59,0.48132
11445440,0.02500,64.4375,105,59,0.48132
11445450,1.46500,63.5000,105,59,0.44762
11445460,1.45000,63.2500,105,59,0.43736
11445470,0.61000,62.9375,105,59,0.42784
11445480,-0.10500,62.3750,105,59,0.41026
11445490,-0.32000,62.0625,105,59,0.40244
11445500,-0.29500,61.8125,105,59,0.39512
11445510,-0.26000,61.5000,105,59,0.38828
11445520,-0.24000,61.0000,105,59,0.37827
11445530,-0.22500,60.6875,105,59,0.37314
11445540,-0.21500,60.4375,105,59,0.36801
11445550,-0.20500,60.1875,105,59,0.36337
11445560,-0.20000,59.6250,105,59,0.35482
11445570,-0.19000,59.3750,105,59,0.35092
11445580,-0.18000,59.0625,105,59,0.34725
11445590,-0.17000,58.8125,105,59,0.34359
11445600,-0.17000,58.3125,105,59,0.33602
11445610,-0.15500,58.0625,105,59,0.33309
11445620,-0.15500,57.8750,105,59,0.33065
11445630,-0.14500,57.7500,105,59,0.32772
11445640,-0.13500,57.5625,105,59,0.32015
11445650,-0.12500,57.5625,105,59,0.31648
11445660,-0.11000,57.8750,105,59,0.31282
11445670,-0.09500,58.5625,105,59,0.30916
11445680,-0.07500,61.6250,105,59,0.30232
11445690,-0.06000,64.0000,105,59,0.29890
11445700,-0.04000,66.8750,105,59,0.29548
11445710,-0.01500,70.0625,105,59,0.29231
11445720,0.01000,77.3125,105,59,0.28840
11445730,0.04000,81.0625,105,59,0.28547
11445740,0.07000,84.6875,105,59,0.28230
11445750,0.10000,88.1250,105,59,0.27888
11445760,0.13000,94.0000,105,59,0.27204
11445770,0.16500,96.3125,105,59,0.26862
11445780,0.20500,98.2500,105,59,0.26520
11445790,0.24000,99.7500,105,59,0.26178
11445800,0.25500,101.6875,105,59,0.25543
11445810,0.25500,102.1875,105,59,0.25348
11445820,0.20500,102.3750,105,59,0.25201
11445830,0.13000,102.3125,105,59,0.25006
11445840,0.13000,102.3125,105,59,0.25006
11445850,-0.02000,100.9375,105,59,0.24127
11445860,-0.07500,100.2500,105,59,0.23810
11445870,-0.11000,99.4375,105,59,0.23492
11445880,-0.13000,97.5625,105,59,0.22882
11445890,-0.14000,96.5625,105,59,0.22589
11445900,-0.14500,95.4375,105,59,0.22320
11445910,-0.14500,94.3125,105,59,0.22076
11445920,-0.14000,91.8125,105,59,0.22100
11445930,-0.14000,90.4375,105,59,0.22271
11445940,-0.13500,88.9375,105,59,0.22637
11445950,-0.13500,87.3750,105,59,0.23321
11445960,-0.13500,84.1250,105,59,0.25788
11445970,-0.13000,82.5625,105,59,0.27643
11445980,-0.13000,81.0000,105,59,0.29890
11445990,-0.13500,79.5000,105,59,0.32454
11446000,-0.14000,76.6875,105,59,0.38217
11446010,-0.14000,75.5000,105,59,0.40855
11446020,-0.13500,74.3750,105,59,0.43297
11446030,-0.13500,73.3750,105,59,0.45983
11446040,-0.13500,71.6875,105,59,0.51233
11446050,-0.13500,71.0000,105,59,0.53578
11446060,-0.13500,70.4375,105,59,0.55678
11446070,-0.13500,69.9375,105,59,0.57485
11446080,-0.13000,69.1875,105,59,0.60244
11446090,-0.12500,68.9375,105,59,0.61270
11446100,-0.12000,68.6875,105,59,0.62051
11446110,-0.11000,68.4375,105,59,0.62637
11446120,-0.10000,68.0625,105,59,0.63077
11446130,-0.08000,67.9375,105,59,0.63150
11446140,-0.07000,67.8125,105,59,0.63101
11446150,-0.05500,67.6875,105,59,0.62955
11446160,-0.02500,67.4375,105,59,0.62320
11446170,-0.02000,67.3125,105,59,0.61880
11446180,-0.04500,67.1875,105,59,0.61343
11446190,-0.06500,67.0000,105,59,0.60708
11446200,-0.09000,66.6250,105,59,0.59145
11446210,-0.12500,66.4375,105,59,0.58266
11446220,-0.15500,66.2500,105,59,0.57314
11446230,-0.16000,66.0000,105,59,0.56239
11446240,-0.15500,65.4375,105,59,0.53822
11446250,-0.14500,65.1875,105,59,0.52552
11446260,-0.13500,64.9375,105,59,0.51258
11446270,-0.12500,64.6250,105,59,0.49963
11446280,-0.12500,64.0625,105,59,0.47424
11446290,-0.15500,63.7500,105,59,0.46227
11446300,-0.18000,63.3750,105,59,0.45128
11446310,0.02000,63.0625,105,59,0.44054
11446320,0.66000,62.5000,105,59,0.42418
11446330,1.45000,62.2500,105,59,0.41612
11446340,1.51000,62.0000,105,59,0.40830
11446350,0.71500,61.7500,105,59,0.40073
11446360,-0.03500,61.1875,105,59,0.38657
11446370,-0.28000,60.9375,105,59,0.38046
11446380,-0.26500,60.6875,105,59,0.37485
11446390,-0.23000,60.4375,105,59,0.36972
11446400,-0.22000,60.0000,105,59,0.36068
11446410,-0.20500,59.7500,105,59,0.35751
11446420,-0.19500,59.4375,105,59,0.35507
11446430,-0.19000,59.1875,105,59,0.35214
11446440,-0.19000,59.1875,105,59,0.35214
11446450,-0.17500,58.5000,105,59,0.34261
11446460,-0.17000,58.3125,105,59,0.33944
11446470,-0.17000,58.3125,105,59,0.33944
11446480,-0.16000,57.6250,105,59,0.32991
11446490,-0.15500,57.3750,105,59,0.32698
11446500,-0.15000,57.1875,105,59,0.32381
11446510,-0.13500,57.0625,105,59,0.32137
11446520,-0.12500,56.8750,105,59,0.31697
11446530,-0.11000,57.0000,105,59,0.31404
11446540,-0.09500,57.4375,105,59,0.31111
11446550,-0.08000,58.3750,105,59,0.30818
11446560,-0.06500,62.1250,105,59,0.30256
11446570,-0.04500,64.8125,105,59,0.29988
11446580,-0.02500,68.0000,105,59,0.29744
11446590,-0.00500,75.2500,105,59,0.29231
11446600,0.01000,79.1875,105,59,0.29011
11446610,0.04500,83.0625,105,59,0.28864
11446620,0.07500,86.7500,105,59,0.28767
11446630,0.11000,90.1875,105,59,0.28571
11446640,0.14500,95.8750,105,59,0.28059
11446650,0.18000,98.0625,105,59,0.27814
11446660,0.21000,99.9375,105,59,0.27546
11446670,0.24500,101.3750,105,59,0.27277
11446680,0.27500,103.1875,105,59,0.26764
11446690,0.28000,103.5625,105,59,0.26520
11446700,0.23500,103.6875,105,59,0.26300
11446710,0.16500,103.5625,105,59,0.26178
11446720,0.08000,102.8125,105,59,0.25983
11446730,0.00500,102.1875,105,59,0.25836
11446740,-0.05000,101.5000,105,59,0.25665
11446750,-0.09000,100.6875,105,59,0.25470
11446760,-0.11000,98.8750,105,59,0.25128
11446770,-0.12500,97.8750,105,59,0.24957
11446780,-0.13000,96.8125,105,59,0.24786
11446790,-0.13000,96.8125,105,59,0.24786
11446800,-0.13000,93.3750,105,59,0.24762
11446810,-0.13000,92.0625,105,59,0.25079
11446820,-0.13000,90.6250,105,59,0.25641
11446830,-0.12500,89.1250,105,59,0.26545
11446840,-0.12500,85.8125,105,59,0.29573
11446850,-0.12500,84.1875,105,59,0.31722
11446860,-0.12000,82.6250,105,59,0.34261
11446870,-0.11500,81.0625,105,59,0.37118
11446880,-0.12000,78.2500,105,59,0.43394
11446890,-0.12000,76.9375,105,59,0.46618
11446900,-0.12000,75.8125,105,59,0.49744
11446910,-0.12000,74.8125,105,59,0.52332
11446920,-0.12000,73.0625,105,59,0.56874
11446930,-0.12000,72.3750,105,59,0.59096
11446940,-0.12000,71.7500,105,59,0.61123
11446950,-0.12000,71.2500,105,59,0.62906
11446960,-0.12500,70.4375,105,59,0.65690
11446970,-0.11500,70.1250,105,59,0.66691
11446980,-0.11000,69.8750,105,59,0.67448
11446990,-0.11000,69.8750,105,59,0.67448
11447000,-0.07500,69.3125,105,59,0.68547
11447010,-0.06500,69.1875,105,59,0.68498
11447020,-0.05000,69.0625,105,59,0.68303
11447030,-0.02500,68.9375,105,59,0.68034
11447040,-0.01500,68.6875,105,59,0.67228
11447050,-0.02500,68.5000,105,59,0.66716
11447060,-0.05500,68.3750,105,59,0.66105
11447070,-0.08500,68.1875,105,59,0.65397
11447080,-0.12500,67.7500,105,59,0.63687
11447090,-0.15000,67.5625,105,59,0.62662
11447100,-0.15500,67.3750,105,59,0.61514
11447110,-0.15000,67.1250,105,59,0.60391
11447120,-0.14000,66.5625,105,59,0.58071
11447130,-0.13500,66.3125,105,59,0.56752
11447140,-0.13500,66.3125,105,59,0.56752
11447150,-0.11500,65.7500,105,59,0.57265
11447160,-0.15500,65.1875,105,59,0.55873
11447170,-0.18500,64.9375,105,59,0.54725
11447180,0.06500,64.6250,105,59,0.53529
11447190,0.73000,64.3125,105,59,0.52332
11447200,1.51000,63.8125,105,59,0.50085
11447210,1.57500,63.5000,105,59,0.49206
11447220,0.72000,63.2500,105,59,0.48425
11447230,-0.05500,63.0000,105,59,0.47643
11447240,-0.28500,62.5000,105,59,0.46154
11447250,-0.27000,62.2500,105,59,0.45470
11447260,-0.25000,62.0000,105,59,0.44835
11447270,-0.24000,61.7500,105,59,0.44249
11447280,-0.23000,61.2500,105,59,0.43199
11447290,-0.22000,61.0000,105,59,0.42711
11447300,-0.21000,60.7500,105,59,0.42271
11447310,-0.20000,60.5625,105,59,0.41929
11447320,-0.19500,60.0625,105,59,0.41319
11447330,-0.18500,59.8125,105,59,0.40977
11447340,-0.18000,59.5625,105,59,0.40586
11447350,-0.17000,59.3750,105,59,0.40195
11447360,-0.16000,58.9375,105,59,0.39438
11447370,-0.15500,58.7500,105,59,0.39048
11447380,-0.14500,58.6250,105,59,0.38632
11447390,-0.13500,58.5000,105,59,0.38217
11447400,-0.12500,58.9375,105,59,0.37436
11447410,-0.11500,59.6875,105,59,0.37192
11447420,-0.10000,61.0000,105,59,0.36996
11447430,-0.08000,63.0625,105,59,0.36777
11447440,-0.06500,68.8125,105,59,0.36215
11447450,-0.04000,72.3750,105,59,0.35897
11447460,-0.01500,76.1875,105,59,0.35580
11447470,0.01000,80.1875,105,59,0.35238
11447480,0.04000,88.1250,105,59,0.34579
11447490,0.07000,91.7500,105,59,0.34286
11447500,0.10500,95.0625,105,59,0.34017
11447510,0.14500,97.9375,105,59,0.33846
11447520,0.17500,102.4375,105,59,0.33553
11447530,0.20500,104.0000,105,59,0.33333
11447540,0.24000,105.2500,105,59,0.33114
11447550,0.26000,106.1250,105,59,0.32918
11447560,0.25000,106.8750,105,59,0.32527
11447570,0.21500,106.9375,105,59,0.32308
11447580,0.14000,106.7500,105,59,0.32088
11447590,0.05500,106.3750,105,59,0.31893
11447600,-0.01500,105.1875,105,59,0.31502
11447610,-0.01500,105.1875,105,59,0.31502
11447620,-0.10000,103.6875,105,59,0.31331
11447630,-0.12500,102.8125,105,59,0.31209
11447640,-0.13500,100.8750,105,59,0.30916
11447650,-0.13500,99.8750,105,59,0.30818
11447660,-0.13500,98.8125,105,59,0.30794
11447670,-0.13500,97.6875,105,59,0.30916
11447680,-0.14000,95.1250,105,59,0.31844
11447690,-0.14000,93.6875,105,59,0.32845
11447700,-0.13500,92.1875,105,59,0.34310
11447710,-0.13500,90.5000,105,59,0.35946
11447720,-0.13000,87.1875,105,59,0.40317
11447730,-0.12500,85.6250,105,59,0.43199
11447740,-0.13000,84.0625,105,59,0.46398
11447750,-0.13000,82.5625,105,59,0.49768
11447760,-0.12500,79.9375,105,59,0.56581
11447770,-0.12500,78.7500,105,59,0.59829
11447780,-0.12500,77.6875,105,59,0.62882
11447790,-0.12500,76.7500,105,59,0.65690
11447800,-0.12000,75.1875,105,59,0.70476
11447810,-0.12000,74.5625,105,59,0.72137
11447820,-0.12000,74.5625,105,59,0.72137
11447830,-0.12000,73.5625,105,59,0.74628
11447840,-0.11500,72.8750,105,59,0.76679
11447850,-0.11500,72.5625,105,59,0.77387
11447860,-0.11000,72.3125,105,59,0.77900
11447870,-0.09500,72.1250,105,59,0.78242
11447880,-0.07500,71.6875,105,59,0.78437
11447890,-0.05500,71.5000,105,59,0.78315
11447900,-0.04500,71.3750,105,59,0.78071
11447910,-0.03000,71.1875,105,59,0.77656
11447920,-0.01000,70.8125,105,59,0.76581
11447930,-0.01500,70.6250,105,59,0.75946
11447940,-0.04000,70.3750,105,59,0.75238
11447950,-0.06000,70.1875,105,59,0.74432
11447960,-0.09500,69.7500,105,59,0.72601
11447970,-0.13000,69.5000,105,59,0.71526
11447980,-0.14000,69.2500,105,59,0.70379
11447990,-0.14000,68.9375,105,59,0.69158
11448000,-0.13500,68.3750,105,59,0.66569
11448010,-0.12500,68.1250,105,59,0.65324
11448020,-0.12000,67.8125,105,59,0.64127
11448030,-0.10500,67.5000,105,59,0.62857
11448040,-0.10500,67.5000,105,59,0.62857
11448050,-0.16000,66.6250,105,59,0.59072
11448060,0.04000,66.3750,105,59,0.57900
11448070,0.65000,66.1250,105,59,0.56777
11448080,1.45500,65.5625,105,59,0.54750
11448090,1.67000,65.3125,105,59,0.53822
11448100,0.90500,65.0000,105,59,0.52943
11448110,0.05000,64.7500,105,59,0.52186
11448120,-0.26000,64.1875,105,59,0.50867
11448130,-0.26500,63.9375,105,59,0.50232
11448140,-0.24000,63.6250,105,59,0.49621
11448150,-0.23000,63.3750,105,59,0.49035
11448160,-0.22500,62.8750,105,59,0.47961
11448170,-0.21000,62.6250,105,59,0.47473
11448180,-0.20500,62.3750,105,59,0.47009
11448190,-0.20000,62.0625,105,59,0.46569
11448200,-0.19500,61.5625,105,59,0.45690
11448210,-0.19000,61.2500,105,59,0.45324
11448220,-0.18000,61.0000,105,59,0.45006
11448230,-0.17500,60.6875,105,59,0.44640
11448240,-0.17000,60.1250,105,59,0.43907
11448250,-0.16000,59.8125,105,59,0.43541
11448260,-0.15500,59.6250,105,59,0.43175
11448270,-0.14500,59.4375,105,59,0.42784
11448280,-0.13500,59.6875,105,59,0.42051
11448290,-0.12500,60.3750,105,59,0.41685
11448300,-0.11500,61.6875,105,59,0.41343
11448310,-0.09500,63.6875,105,59,0.41099
11448320,-0.07500,69.3750,105,59,0.40610
11448330,-0.05000,72.9375,105,59,0.40342
11448340,-0.02500,76.8125,105,59,0.40073
11448350,0.00000,80.9375,105,59,0.39805
11448360,0.03000,89.0625,105,59,0.39267
11448370,0.06500,92.7500,105,59,0.39023
11448380,0.10000,96.0625,105,59,0.38779
11448390,0.13000,99.0000,105,59,0.38559
11448400,0.15500,103.5000,105,59,0.38242
11448410,0.19000,105.0625,105,59,0.38169
11448420,0.21500,106.2500,105,59,0.38046
11448430,0.24500,107.0625,105,59,0.37875
11448440,0.24500,107.7500,105,59,0.37534
11448450,0.22500,107.6875,105,59,0.37314
11448460,0.16000,107.4375,105,59,0.37118
11448470,0.08500,106.9375,105,59,0.36923
11448480,0.01000,105.6875,105,59,0.36557
11448490,-0.04500,104.8750,105,59,0.36361
11448500,-0.08000,103.9375,105,59,0.36190
11448510,-0.10000,103.0000,105,59,0.36068
11448520,-0.11500,100.9375,105,59,0.35824
11448530,-0.12500,99.8125,105,59,0.35678
11448540,-0.13500,98.6875,105,59,0.35604
11448550,-0.13000,97.5000,105,59,0.35653
11448560,-0.13500,94.7500,105,59,0.36386
11448570,-0.13000,93.2500,105,59,0.37241
11448580,-0.13000,91.6250,105,59,0.38510
11448590,-0.13000,89.8750,105,59,0.40244
11448600,-0.13000,86.3750,105,59,0.44615
11448610,-0.13000,84.6875,105,59,0.46935
11448620,-0.12500,83.1250,105,59,0.49817
11448630,-0.12500,81.5625,105,59,0.53040
11448640,-0.12500,78.8750,105,59,0.59756
11448650,-0.12500,77.6875,105,59,0.62979
11448660,-0.12500,76.6250,105,59,0.66007
11448670,-0.12500,75.6875,105,59,0.68767
11448680,-0.12500,74.1875,105,59,0.73382
11448690,-0.12000,73.5625,105,59,0.75238
11448700,-0.12500,73.0000,105,59,0.76825
11448710,-0.12500,72.5000,105,59,0.77900
11448720,-0.12500,71.7500,105,59,0.79316
11448730,-0.12000,71.5000,105,59,0.79878
11448740,-0.11000,71.3125,105,59,0.80293
11448750,-0.09500,71.0625,105,59,0.80562
11448760,-0.08500,70.6875,105,59,0.80684
11448770,-0.06000,70.5000,105,59,0.80562
11448780,-0.05500,70.3125,105,59,0.80317
11448790,-0.04000,70.1250,105,59,0.79927
11448800,-0.01500,69.6250,105,59,0.78779
11448810,-0.01500,69.4375,105,59,0.78022
11448820,-0.03500,69.1875,105,59,0.77143
11448830,-0.06000,68.8750,105,59,0.76190
11448840,-0.09000,68.3125,105,59,0.74042
11448850,-0.13000,68.0000,105,59,0.72821
11448860,-0.15500,67.6875,105,59,0.71502
11448870,-0.16000,67.3125,105,59,0.70110
11448880,-0.15500,66.6875,105,59,0.67179
11448890,-0.14500,66.3125,105,59,0.65641
11448900,-0.13500,65.9375,105,59,0.64103
11448910,-0.12500,65.6250,105,59,0.62711
11448920,-0.12500,65.0000,105,59,0.60024
11448930,-0.16500,64.6875,105,59,0.58657
11448940,-0.12500,64.3750,105,59,0.57289
11448950,0.24000,64.0625,105,59,0.55971
11448960,1.01000,63.4375,105,59,0.53553
11448970,1.62500,63.1875,105,59,0.52454
11448980,1.26000,62.9375,105,59,0.51453
11448990,0.33500,62.7500,105,59,0.50501
11449000,-0.20000,62.2500,105,59,0.48816
11449010,-0.29000,62.0000,105,59,0.48156
11449020,-0.25000,61.7500,105,59,0.47473
11449030,-0.23000,61.5000,105,59,0.46813
11449040,-0.22000,60.9375,105,59,0.45617
11449050,-0.21000,60.6875,105,59,0.45031
11449060,-0.20500,60.4375,105,59,0.44420
11449070,-0.20000,60.1250,105,59,0.43810
11449080,-0.20000,59.6250,105,59,0.42589
11449090,-0.19000,59.3750,105,59,0.42002
11449100,-0.18500,59.1250,105,59,0.41416
11449110,-0.17500,58.8750,105,59,0.40928
11449120,-0.17000,58.3750,105,59,0.40049
11449130,-0.16000,58.1250,105,59,0.39560
11449140,-0.15500,57.9375,105,59,0.39048
11449150,-0.14500,57.7500,105,59,0.38535
11449160,-0.14000,57.6250,105,59,0.37534
11449170,-0.12500,57.7500,105,59,0.37070
11449180,-0.11000,58.3125,105,59,0.36581
11449190,-0.09500,59.3125,105,59,0.34676
11449200,-0.07500,63.3125,105,59,0.30623
11449210,-0.06500,66.1250,105,59,0.29792
11449220,-0.04500,69.3750,105,59,0.29158
11449230,-0.02000,72.9375,105,59,0.28620
11449240,0.00500,80.6875,105,59,0.27668
11449250,0.03000,84.5000,105,59,0.27253
11449260,0.06500,88.0625,105,59,0.26862
11449270,0.10000,91.3125,105,59,0.26496
11449280,0.13500,96.6250,105,59,0.25788
11449290,0.16500,98.7500,105,59,0.25470
11449300,0.20500,100.3750,105,59,0.25153
11449310,0.23500,101.6250,105,59,0.24908
11449320,0.25500,102.9375,105,59,0.24493
11449330,0.24000,103.1250,105,59,0.24225
11449340,0.18500,103.0625,105,59,0.23956
11449350,0.11000,102.8125,105,59,0.23687
11449360,0.03000,101.6875,105,59,0.23101
11449370,-0.03500,101.0000,105,59,0.22784
11449380,-0.08500,100.1250,105,59,0.22466
11449390,-0.11500,99.1875,105,59,0.22149
11449400,-0.13000,97.1250,105,59,0.21685
11449410,-0.15000,96.0625,105,59,0.21587
11449420,-0.16000,94.9375,105,59,0.21416
11449430,-0.16000,93.8125,105,59,0.21270
11449440,-0.15000,91.1875,105,59,0.21270
11449450,-0.15000,89.7500,105,59,0.21563
11449460,-0.14500,88.1875,105,59,0.22173
11449470,-0.14500,86.5625,105,59,0.23199
11449480,-0.14500,83.2500,105,59,0.26520
11449490,1.24500,62.3125,105,59,0.40415
11449500,1.24500,62.3125,105,59,0.40415
11449510,1.24500,62.3125,105,59,0.40415
11449520,1.24500,62.3125,105,59,0.40415
11449530,1.24500,62.3125,105,59,0.40415
11449540,1.24500,62.3125,105,59,0.40415
11449550,1.24500,62.3125,105,59,0.40415
11449560,1.24500,62.3125,105,59,0.40415
11449570,1.24500,62.3125,105,59,0.40415
11449580,1.24500,62.3125,105,59,0.40415
11449590,1.24500,62.3125,105,59,0.40415
11449600,1.24500,62.3125,105,59,0.40415
11449610,1.24500,62.3125,105,59,0.40415
11449620,1.24500,62.3125,105,59,0.40415
11449630,1.24500,62.3125,105,59,0.40415
11449640,1.24500,62.3125,105,59,0.40415
11449650,-0.24000,60.2500,105,59,0.34750
11449660,-0.24000,60.2500,105,59,0.34750
11449670,-0.24000,60.2500,105,59,0.34750
11449680,-0.24000,60.2500,105,59,0.34750
11449690,-0.24000,60.2500,105,59,0.34750
11449700,-0.24000,60.2500,105,59,0.34750
11449710,-0.24000,60.2500,105,59,0.34750
11449720,-0.24000,60.2500,105,59,0.34750
11449730,-0.24000,60.2500,105,59,0.34750
11449740,-0.24000,60.2500,105,59,0.34750
11449750,-0.24000,60.2500,105,59,0.34750
11449760,-0.24000,60.2500,105,59,0.34750
11449770,-0.24000,60.2500,105,59,0.34750
11449780,-0.24000,60.2500,105,59,0.34750
11449790,-0.24000,60.2500,105,59,0.34750
11449800,-0.24000,60.2500,105,59,0.34750
11449810,-0.24000,60.2500,105,59,0.34750
11449820,-0.24000,60.2500,105,59,0.34750
11449830,-0.24000,60.2500,105,59,0.34750
11449840,-0.24000,60.2500,105,59,0.34750
11449850,-0.24000,60.2500,105,59,0.34750
11449860,-0.24000,60.2500,105,59,0.34750
11449870,-0.24000,60.2500,105,59,0.34750
11449880,-0.24000,60.2500,105,59,0.34750
11449890,-0.24000,60.2500,105,59,0.34750
11449900,-0.24000,60.2500,105,59,0.34750
11449910,-0.24000,60.2500,105,59,0.34750
11449920,-0.22500,59.7500,105,59,0.33993
11449930,-0.21500,59.4375,105,59,0.33626
11449940,-0.20000,59.1875,105,59,0.33260
11449950,-0.19500,59.0000,105,59,0.32894
11449960,-0.18500,58.5000,105,59,0.32234
11449970,-0.18000,58.2500,105,59,0.31917
11449980,-0.17000,58.0000,105,59,0.31600
11449990,-0.17000,57.8125,105,59,0.31258
11450000,-0.16500,57.4375,105,59,0.30720
11450010,-0.16000,57.3125,105,59,0.30525
11450020,-0.14500,57.1875,105,59,0.30305
11450030,-0.14000,57.0625,105,59,0.30061
11450040,-0.12500,57.0000,105,59,0.29499
11450050,-0.11500,57.3125,105,59,0.29206
11450060,-0.09500,58.0625,105,59,0.28889
11450070,-0.08000,59.3750,105,59,0.28571
11450080,-0.06500,63.6875,105,59,0.27888
11450090,-0.06500,63.6875,105,59,0.27888
11450100,-0.02500,69.9375,105,59,0.27302
11450110,0.00000,73.5000,105,59,0.27131
11450120,0.03000,80.9375,105,59,0.26716
11450130,0.06000,84.5000,105,59,0.26496
11450140,0.09000,87.8750,105,59,0.26276
11450150,0.12500,90.9375,105,59,0.26056
11450160,0.16000,95.8750,105,59,0.25641
11450170,0.19500,97.6875,105,59,0.25446
11450180,0.22500,99.1250,105,59,0.25226
11450190,0.22500,99.1250,105,59,0.25226
11450200,0.26500,101.3750,105,59,0.24542
11450210,0.22500,101.5000,105,59,0.24420
11450220,0.16000,101.3750,105,59,0.24200
11450230,0.08000,101.1250,105,59,0.23956
11450240,0.00000,100.0000,105,59,0.23468
11450250,-0.06000,99.2500,105,59,0.23223
11450260,-0.10500,98.4375,105,59,0.23004
11450270,-0.13000,97.5000,105,59,0.22808
11450280,-0.14500,95.5000,105,59,0.22540
11450290,-0.15000,94.4375,105,59,0.22442
11450300,-0.15500,93.3125,105,59,0.22442
11450310,-0.15000,92.1875,105,59,0.22540
11450320,-0.14500,89.5625,105,59,0.22882
11450330,-0.14500,88.0625,105,59,0.23346
11450340,-0.14000,86.5000,105,59,0.24127
11450350,-0.13500,84.8125,105,59,0.25275
11450360,-0.13500,81.5625,105,59,0.28816
11450370,-0.13000,80.0625,105,59,0.31209
11450380,-0.13000,78.6250,105,59,0.33944
11450390,-0.13000,77.2500,105,59,0.36923
11450400,-0.13000,74.7500,105,59,0.42833
11450410,-0.13500,73.6875,105,59,0.45397
11450420,-0.13500,73.6875,105,59,0.45397
11450430,-0.14000,71.9375,105,59,0.50965
11450440,-0.13500,70.5625,105,59,0.56020
11450450,-0.15500,70.0000,105,59,0.58193
11450460,-0.17500,69.5625,105,59,0.60073
11450470,-0.15500,69.1250,105,59,0.61661
11450480,-0.13500,68.5000,105,59,0.64029
11450490,-0.12500,68.3125,105,59,0.64811
11450500,-0.11000,68.0625,105,59,0.65226
11450510,-0.08500,67.8750,105,59,0.65397
11450520,-0.07000,67.4375,105,59,0.65446
11450530,-0.05500,67.3125,105,59,0.65299
11450540,-0.02500,67.1250,105,59,0.65031
11450550,-0.03500,66.9375,105,59,0.64664
11450560,-0.05500,66.6250,105,59,0.63712
11450570,-0.07000,66.4375,105,59,0.63126
11450580,-0.09500,66.2500,105,59,0.62442
11450590,-0.13500,66.1250,105,59,0.61661
11450600,-0.15500,65.6875,105,59,0.59853
11450610,-0.16000,65.4375,105,59,0.58852
11450620,-0.16000,65.1875,105,59,0.57705
11450630,-0.15500,64.8750,105,59,0.56459
11450640,-0.14500,64.3125,105,59,0.53724
11450650,-0.14000,64.0000,105,59,0.52283
11450660,-0.15500,63.6875,105,59,0.50867
11450670,-0.18500,63.4375,105,59,0.49451
11450680,-0.19000,62.9375,105,59,0.46764
11450690,0.05500,62.6250,105,59,0.45495
11450700,0.71500,62.3750,105,59,0.44420
11450710,1.48000,62.1875,105,59,0.43468
11450720,1.49000,61.6875,105,59,0.41587
11450730,0.62500,61.5000,105,59,0.40757
11450740,-0.09000,61.2500,105,59,0.40024
11450750,-0.28000,61.0625,105,59,0.39365
11450760,-0.28000,61.0625,105,59,0.39365
11450770,-0.23000,60.2500,105,59,0.37802
11450780,-0.21000,60.0000,105,59,0.37338
11450790,-0.21000,60.0000,105,59,0.37338
11450800,-0.20000,59.2500,105,59,0.36044
11450810,-0.18500,58.9375,105,59,0.35702
11450820,-0.17500,58.6875,105,59,0.35287
11450830,-0.17000,58.5000,105,59,0.34823
11450840,-0.16000,58.0625,105,59,0.33919
11450850,-0.15500,57.8125,105,59,0.33504
11450860,-0.15000,57.5625,105,59,0.33138
11450870,-0.14500,57.3125,105,59,0.32796
11450880,-0.14000,56.9375,105,59,0.32137
11450890,-0.13000,56.8125,105,59,0.31844
11450900,-0.11500,56.6875,105,59,0.31624
11450910,-0.10500,56.7500,105,59,0.31429
11450920,-0.09000,57.8125,105,59,0.30891
11450930,-0.07500,59.1250,105,59,0.30574
11450940,-0.05500,61.0625,105,59,0.30232
11450950,-0.04000,63.5625,105,59,0.29915
11450960,-0.01500,69.8125,105,59,0.29231
11450970,-0.05500,73.4375,105,59,0.28913
11450980,-0.06500,77.3125,105,59,0.28596
11450990,0.02000,81.1875,105,59,0.28303
11451000,0.08500,88.5000,105,59,0.27888
11451010,0.12000,91.6875,105,59,0.27790
11451020,0.15500,94.4375,105,59,0.27668
11451030,0.18500,96.8750,105,59,0.27521
11451040,0.22500,100.3750,105,59,0.27179
11451050,0.26000,101.5625,105,59,0.26984
11451060,0.28500,102.4375,105,59,0.26764
11451070,0.27500,103.0000,105,59,0.26545
11451080,0.23500,103.2500,105,59,0.26007
11451090,0.16000,103.0625,105,59,0.25739
11451100,0.07500,102.6875,105,59,0.25568
11451110,0.00000,102.1250,105,59,0.25421
11451120,-0.05500,100.6875,105,59,0.24933
11451130,-0.09500,99.8125,105,59,0.24640
11451140,-0.11000,98.8750,105,59,0.24371
11451150,-0.12000,97.8750,105,59,0.24103
11451160,-0.12500,95.8125,105,59,0.23639
11451170,-0.12500,94.6875,105,59,0.23516
11451180,-0.12000,93.5000,105,59,0.23492
11451190,-0.12000,92.1875,105,59,0.23663
11451200,-0.12500,89.3750,105,59,0.24762
11451210,-0.11500,87.8125,105,59,0.25714
11451220,-0.11500,86.1875,105,59,0.27082
11451230,-0.11500,84.6250,105,59,0.28864
11451240,-0.10500,81.6250,105,59,0.37265
11451250,-0.11000,80.1875,105,59,0.41416
11451260,-0.11500,78.8750,105,59,0.45324
11451270,-0.11500,78.8750,105,59,0.45324
11451280,-0.11500,75.3125,105,59,0.56337
11451290,-0.11500,74.3750,105,59,0.59634
11451300,-0.11500,73.5625,105,59,0.62271
11451310,-0.11000,72.8125,105,59,0.64469
11451320,-0.11000,71.6250,105,59,0.68816
11451330,-0.11000,71.1250,105,59,0.70696
11451340,-0.11000,70.7500,105,59,0.72283
11451350,-0.10500,70.3750,105,59,0.73578
11451360,-0.10000,69.8125,105,59,0.75336
11451370,-0.08500,69.6250,105,59,0.75824
11451380,-0.06500,69.5000,105,59,0.76093
11451390,-0.05000,69.3125,105,59,0.76190
11451400,-0.03500,68.9375,105,59,0.75824
11451410,-0.01000,68.8125,105,59,0.75385
11451420,-0.00500,68.6875,105,59,0.74872
11451430,-0.00500,68.6875,105,59,0.74872
11451440,-0.06500,68.1875,105,59,0.72821
11451450,-0.08500,68.0625,105,59,0.71966
11451460,-0.12500,67.8750,105,59,0.71013
11451470,-0.14500,67.6875,105,59,0.69939
11451480,-0.14500,67.2500,105,59,0.67448
11451490,-0.14500,67.0000,105,59,0.66056
11451500,-0.13500,66.7500,105,59,0.64713
11451510,-0.12500,66.4375,105,59,0.63394
11451520,-0.11500,65.8125,105,59,0.60440
11451530,-0.11500,65.4375,105,59,0.58877
11451540,-0.15500,65.1250,105,59,0.57338
11451550,-0.15500,64.8750,105,59,0.55824
11451560,0.13500,64.2500,105,59,0.52943
11451570,0.13500,64.2500,105,59,0.52943
11451580,1.62500,63.6875,105,59,0.50305
11451590,1.49000,63.4375,105,59,0.49060
11451600,0.59000,62.8750,105,59,0.46960
11451610,-0.09500,62.5625,105,59,0.46105
11451620,-0.28500,62.3125,105,59,0.45226
11451630,-0.26000,62.0625,105,59,0.44371
11451640,-0.23000,61.6250,105,59,0.42906
11451650,-0.22000,61.3750,105,59,0.42320
11451660,-0.20500,61.1250,105,59,0.41783
11451670,-0.20000,60.8750,105,59,0.41319
11451680,-0.19000,60.4375,105,59,0.40488
11451690,-0.19000,60.2500,105,59,0.40073
11451700,-0.18000,60.0625,105,59,0.39756
11451710,-0.18000,59.8125,105,59,0.39463
11451720,-0.17000,59.3750,105,59,0.38755
11451730,-0.16500,59.1250,105,59,0.38364
11451740,-0.15500,58.9375,105,59,0.37998
11451750,-0.15500,58.6875,105,59,0.37607
11451760,-0.14500,58.4375,105,59,0.36850
11451770,-0.13500,58.5000,105,59,0.36508
11451780,-0.12000,58.8750,105,59,0.36166
11451790,-0.12000,58.8750,105,59,0.36166
11451800,-0.09000,63.0000,105,59,0.35287
11451810,-0.07500,65.6250,105,59,0.35116
11451820,-0.05500,68.7500,105,59,0.34921
11451830,-0.03500,72.2500,105,59,0.34725
11451840,-0.03500,72.2500,105,59,0.34725
11451850,0.02000,84.0000,105,59,0.34286
11451860,0.04500,87.8750,105,59,0.34164
11451870,0.07500,91.5000,105,59,0.34017
11451880,0.11000,97.6875,105,59,0.33700
11451890,0.14500,100.1875,105,59,0.33504
11451900,0.18000,102.2500,105,59,0.33382
11451910,0.21000,103.8750,105,59,0.33284
11451920,0.24000,106.0625,105,59,0.32943
11451930,0.25500,106.6875,105,59,0.32723
11451940,0.25500,107.0000,105,59,0.32479
11451950,0.20500,107.0625,105,59,0.32210
11451960,0.14000,106.5000,105,59,0.31746
11451970,0.06000,106.0000,105,59,0.31502
11451980,-0.01000,105.3750,105,59,0.31258
11451990,-0.06000,104.6250,105,59,0.31038
11452000,-0.09000,102.9375,105,59,0.30794
11452010,-0.11000,102.0000,105,59,0.30598
11452020,-0.11500,101.0000,105,59,0.30403
11452030,-0.12000,99.9375,105,59,0.30232
11452040,-0.12000,97.6875,105,59,0.30183
11452050,-0.12500,96.5000,105,59,0.30427
11452060,-0.12500,95.1875,105,59,0.30989
11452070,-0.12500,93.7500,105,59,0.31893
11452080,-0.11500,90.4375,105,59,0.35067
11452090,-0.11000,88.6875,105,59,0.37387
11452100,-0.11500,87.0000,105,59,0.39731
11452110,-0.11000,85.3750,105,59,0.42247
11452120,-0.11000,82.3125,105,59,0.48864
11452130,-0.10500,80.8750,105,59,0.52552
11452140,-0.10500,79.5625,105,59,0.56264
11452150,-0.10500,78.3750,105,59,0.59902
11452160,-0.10500,76.4375,105,59,0.66545
11452170,-0.10500,75.6250,105,59,0.69426
11452180,-0.10500,74.9375,105,59,0.72015
11452190,-0.10500,74.3750,105,59,0.74261
11452200,-0.10500,73.3750,105,59,0.77143
11452210,-0.10500,73.0625,105,59,0.78364
11452220,-0.09500,72.7500,105,59,0.79438
11452230,-0.09500,72.5000,105,59,0.80317
11452240,-0.09500,72.0625,105,59,0.81490
11452250,-0.09500,71.8750,105,59,0.81734
11452260,-0.09000,71.7500,105,59,0.81783
11452270,-0.08500,71.5625,105,59,0.81661
11452280,-0.07000,71.2500,105,59,0.80928
11452290,-0.04500,71.1250,105,59,0.80342
11452300,-0.02500,70.9375,105,59,0.79634
11452310,-0.02000,70.6875,105,59,0.78828
11452320,0.00000,70.1875,105,59,0.76972
11452330,0.01000,69.9375,105,59,0.75873
11452340,0.00500,69.6875,105,59,0.74652
11452350,-0.01500,69.4375,105,59,0.73309
11452360,-0.03000,68.8125,105,59,0.70305
11452370,-0.06500,68.5000,105,59,0.68694
11452380,-0.10000,68.1875,105,59,0.67057
11452390,-0.11500,67.8750,105,59,0.65421
11452400,-0.12000,67.2500,105,59,0.62466
11452410,-0.12500,66.9375,105,59,0.60904
11452420,-0.12000,66.6250,105,59,0.59341
11452430,-0.10500,66.3125,105,59,0.57802
11452440,-0.09000,65.6875,105,59,0.54896
11452450,-0.12000,65.4375,105,59,0.53578
11452460,-0.14500,65.1250,105,59,0.52357
11452470,0.10000,64.8125,105,59,0.51184
11452480,0.74000,64.2500,105,59,0.49133
11452490,1.52000,63.9375,105,59,0.48278
11452500,1.64500,63.6875,105,59,0.47570
11452510,0.82000,63.3750,105,59,0.46960
11452520,0.00000,62.8125,105,59,0.45739
11452530,-0.25000,62.5000,105,59,0.45153
11452540,-0.24000,62.2500,105,59,0.44615
11452550,-0.22500,62.0000,105,59,0.44127
11452560,-0.21500,61.4375,105,59,0.43175
11452570,-0.21000,61.1250,105,59,0.42735
11452580,-0.20000,60.8750,105,59,0.42247
11452590,-0.19500,60.5625,105,59,0.41758
11452600,-0.19000,60.0000,105,59,0.41050
11452610,-0.18000,59.6875,105,59,0.40659
11452620,-0.17500,59.3750,105,59,0.40220
11452630,-0.17000,59.1250,105,59,0.39756
11452640,-0.16000,58.5625,105,59,0.38803
11452650,-0.15000,58.2500,105,59,0.38315
11452660,-0.14500,58.0000,105,59,0.37851
11452670,-0.14500,57.8125,105,59,0.37387
11452680,-0.13500,57.8125,105,59,0.36508
11452690,-0.12500,58.1875,105,59,0.36093
11452700,-0.11000,59.0625,105,59,0.35775
11452710,-0.09500,60.6250,105,59,0.35507
11452720,-0.08000,65.6250,105,59,0.34847
11452730,-0.07000,69.0000,105,59,0.34505
11452740,-0.05000,72.6875,105,59,0.34139
11452750,-0.02500,76.6875,105,59,0.33797
11452760,-0.00500,84.9375,105,59,0.33138
11452770,0.02000,88.9375,105,59,0.32845
11452780,0.06000,92.5625,105,59,0.32601
11452790,0.06000,92.5625,105,59,0.32601
11452800,0.13000,100.9375,105,59,0.32186
11452810,0.16000,102.8750,105,59,0.32015
11452820,0.19500,104.3750,105,59,0.31819
11452830,0.22500,105.5000,105,59,0.31624
11452840,0.22500,105.5000,105,59,0.31624
11452850,0.25000,106.7500,105,59,0.30794
11452860,0.22500,106.6250,105,59,0.30501
11452870,0.16500,106.3125,105,59,0.30208
11452880,0.10000,105.1250,105,59,0.29646
11452890,0.03000,104.3750,105,59,0.29402
11452900,-0.03000,103.5625,105,59,0.29231
11452910,-0.07500,102.6875,105,59,0.29133
11452920,-0.10000,100.7500,105,59,0.28889
11452930,-0.11500,99.6875,105,59,0.28742
11452940,-0.12000,98.6250,105,59,0.28596
11452950,-0.12500,97.5000,105,59,0.28523
11452960,-0.13000,95.0625,105,59,0.29182
11452970,-0.13000,93.7500,105,59,0.29963
11452980,-0.12500,92.2500,105,59,0.30794
11452990,-0.12500,90.6250,105,59,0.32234
11453000,-0.12500,87.3125,105,59,0.36044
11453010,-0.13000,85.6250,105,59,0.39829
11453020,-0.12500,84.0625,105,59,0.43663
11453030,-0.12500,82.5000,105,59,0.46618
11453040,-0.12500,79.7500,105,59,0.54090
11453050,-0.12500,78.5000,105,59,0.58046
11453060,-0.12000,77.3750,105,59,0.62711
11453070,-0.11500,76.3125,105,59,0.66764
11453080,-0.11500,74.6250,105,59,0.72186
11453090,-0.11500,73.8750,105,59,0.74652
11453100,-0.11500,73.2500,105,59,0.76484
11453110,-0.11500,72.7500,105,59,0.77900
11453120,-0.11500,71.8125,105,59,0.80488
11453130,-0.12000,71.5000,105,59,0.81465
11453140,-0.12500,71.1250,105,59,0.82222
11453150,-0.12500,71.1250,105,59,0.82222
11453160,-0.11000,70.3750,105,59,0.83150
11453170,-0.10500,70.1250,105,59,0.83077
11453180,-0.09500,69.8750,105,59,0.82833
11453190,-0.09000,69.6250,105,59,0.82466
11453200,-0.08000,69.2500,105,59,0.81270
11453210,-0.06500,69.0625,105,59,0.80537
11453220,-0.04500,68.8125,105,59,0.79463
11453230,-0.02500,68.6250,105,59,0.78437
11453240,0.00000,68.1250,105,59,0.76630
11453250,-0.00500,67.8750,105,59,0.75507
11453260,-0.03000,67.6250,105,59,0.74261
11453270,-0.05000,67.3125,105,59,0.72943
11453280,-0.08500,66.7500,105,59,0.67961
11453290,-0.12000,66.4375,105,59,0.63687
11453300,-0.14000,66.1875,105,59,0.61294
11453310,-0.14500,65.8750,105,59,0.59487
11453320,-0.14500,65.3125,105,59,0.55849
11453330,-0.13500,65.0625,105,59,0.54701
11453340,-0.12500,64.7500,105,59,0.53504
11453350,-0.10500,64.5000,105,59,0.52015
11453360,-0.10500,63.9375,105,59,0.49499
11453370,-0.15000,63.6250,105,59,0.48352
11453380,-0.08000,63.3125,105,59,0.47546
11453390,0.36000,63.0625,105,59,0.46691
11453400,1.15500,62.5000,105,59,0.45226
11453410,1.62500,62.2500,105,59,0.44298
11453420,1.14000,62.0000,105,59,0.43468
11453430,0.23000,61.7500,105,59,0.42882
11453440,-0.23000,61.2500,105,59,0.41465
11453450,-0.27000,61.0000,105,59,0.40757
11453460,-0.23000,60.7500,105,59,0.40244
11453470,-0.21000,60.5625,105,59,0.39683
11453480,-0.20000,60.0625,105,59,0.38217
11453490,-0.19500,59.8125,105,59,0.37705
11453500,-0.18500,59.5000,105,59,0.37289
11453510,-0.18000,59.3125,105,59,0.36777
11453520,-0.18000,58.8125,105,59,0.35873
11453530,-0.17500,58.5000,105,59,0.35556
11453540,-0.16000,58.3125,105,59,0.35043
11453550,-0.15000,58.0625,105,59,0.34432
11453560,-0.14500,57.6250,105,59,0.33651
11453570,-0.14000,57.4375,105,59,0.33211
11453580,-0.13500,57.2500,105,59,0.32625
11453590,-0.13500,57.0625,105,59,0.32112
11453600,-0.13000,57.0000,105,59,0.31282
11453610,-0.10500,57.2500,105,59,0.30867
11453620,-0.08500,57.8750,105,59,0.30549
11453630,-0.08000,59.1250,105,59,0.30208
11453640,-0.07000,63.3750,105,59,0.29328
11453650,-0.05000,66.2500,105,59,0.29035
11453660,-0.02000,69.4375,105,59,0.28694
11453670,0.00000,73.0000,105,59,0.28254
11453680,0.03000,80.5000,105,59,0.27570
11453690,0.06000,84.1875,105,59,0.27399
11453700,0.09000,87.6250,105,59,0.27277
11453710,0.13000,90.6875,105,59,0.27106
11453720,0.16000,95.8125,105,59,0.26716
11453730,0.19000,97.7500,105,59,0.26520
11453740,0.22500,99.3125,105,59,0.26325
11453750,0.25000,100.4375,105,59,0.26105
11453760,0.27500,101.7500,105,59,0.25617
11453770,0.26500,102.0000,105,59,0.25421
11453780,0.22000,101.9375,105,59,0.25226
11453790,0.14500,101.6875,105,59,0.25153
11453800,0.06500,100.5625,105,59,0.25055
11453810,-0.00500,99.8750,105,59,0.24908
11453820,-0.06000,99.0625,105,59,0.24713
11453830,-0.09500,98.1250,105,59,0.24518
11453840,-0.11500,96.1250,105,59,0.24176
11453850,-0.13000,95.0000,105,59,0.24029
11453860,-0.14000,93.8750,105,59,0.23932
11453870,-0.14000,92.6875,105,59,0.23980
11453880,-0.14000,90.0000,105,59,0.24615
11453890,-0.14500,88.5000,105,59,0.25299
11453900,-0.14500,86.9375,105,59,0.26300
11453910,-0.14500,85.3125,105,59,0.27692
11453920,-0.14000,82.1250,105,59,0.31819
11453930,-0.14000,80.6250,105,59,0.34530
11453940,-0.14000,79.1250,105,59,0.37534
11453950,-0.14000,77.6875,105,59,0.40781
11453960,-0.14000,75.1250,105,59,0.47546
11453970,-0.14000,74.0625,105,59,0.50867
11453980,-0.14500,73.0625,105,59,0.53993
11453990,-0.14500,72.2500,105,59,0.56508
11454000,-0.15000,70.7500,104,58,0.60733
11454010,-0.14500,70.1875,104,58,0.62686
11454020,-0.14500,69.6875,104,58,0.64420
11454030,-0.14000,69.2500,104,58,0.65910
11454040,-0.14500,68.5625,104,58,0.68132
11454050,-0.14500,68.3125,104,58,0.68840
11454060,-0.13500,68.1250,104,58,0.69328
11454070,-0.12000,67.9375,104,58,0.69621
11454080,-0.10000,67.6875,104,58,0.69573
11454090,-0.08000,67.5625,104,58,0.69280
11454100,-0.07000,67.3750,104,58,0.68913
11454110,-0.04500,67.2500,104,58,0.68474
11454120,-0.02500,66.9375,104,58,0.67326
11454130,-0.04000,66.7500,104,58,0.66569
11454140,-0.07000,66.5625,104,58,0.65665
11454150,-0.11000,66.3750,104,58,0.64640
11454160,-0.15000,66.0000,104,58,0.62295
11454170,-0.22500,65.8125,104,58,0.61001
11454180,-0.29000,65.5625,104,58,0.59609
11454190,-0.24000,65.2500,104,58,0.58315
11454200,-0.18000,64.6875,104,58,0.55678
11454210,-0.16000,64.4375,104,58,0.54261
11454220,-0.15500,64.1875,104,58,0.52821
11454230,-0.13500,63.9375,104,58,0.51404
11454240,-0.13000,63.3125,104,58,0.48645
11454250,-0.17000,63.0625,104,58,0.47302
11454260,-0.14500,62.7500,104,58,0.46007
11454270,0.19500,62.5000,104,58,0.44786
11454280,0.93000,61.9375,104,58,0.42735
11454290,1.50000,61.6875,104,58,0.41929
