RelativeTimeMilliseconds;ECG;ART;ART (Sys);ART (Dia);PPG
12000000;-0.12500;73.0625;107;61;0.53260
12000010;-0.12500;72.5000;107;61;0.55458
12000020;-0.12500;72.0625;107;61;0.57387
12000030;-0.12500;71.6250;107;61;0.59072
12000040;-0.12000;70.9375;107;61;0.61490
12000050;-0.11000;70.6875;107;61;0.61661
12000060;-0.10500;70.5000;107;61;0.61465
12000070;-0.09000;70.3125;107;61;0.61563
12000080;-0.07000;69.8750;107;61;0.61880
12000090;-0.05500;69.6875;107;61;0.61954
12000100;-0.04500;69.5000;107;61;0.61954
12000110;-0.02000;69.2500;107;61;0.61880
12000120;-0.00500;68.8750;107;61;0.61465
12000130;-0.01500;68.6875;107;61;0.61123
12000140;-0.04000;68.5000;107;61;0.60684
12000150;-0.06500;68.2500;107;61;0.60171
12000160;-0.09500;67.6875;107;61;0.58877
12000170;-0.13000;67.4375;107;61;0.58046
12000180;-0.14500;67.1250;107;61;0.57118
12000190;-0.14000;66.8125;107;61;0.56142
12000200;-0.13500;66.1875;107;61;0.54066
12000210;-0.12500;65.8750;107;61;0.53016
12000220;-0.12000;65.5625;107;61;0.51990
12000230;-0.11000;65.2500;107;61;0.50940
12000240;-0.11500;64.6250;107;61;0.49060
12000250;-0.16000;64.3125;107;61;0.48278
12000260;-0.10000;64.0625;107;61;0.47448
12000270;0.30000;63.7500;107;61;0.46618
12000280;1.08500;63.2500;107;61;0.44982
12000290;1.62000;63.0000;107;61;0.44200
12000300;1.14500;62.7500;107;61;0.43468
12000310;0.25000;62.4375;107;61;0.42784
12000320;-0.20500;62.0000;107;61;0.41612
12000330;-0.27500;61.7500;107;61;0.41074
12000340;-0.23500;61.5000;107;61;0.40586
12000350;-0.21500;61.2500;107;61;0.40171
12000360;-0.21000;60.8125;107;61;0.39390
12000370;-0.19500;60.6250;107;61;0.38950
12000380;-0.18500;60.3750;107;61;0.38486
12000390;-0.18000;60.1250;107;61;0.38046
12000400;-0.17000;59.5625;107;61;0.37289
12000410;-0.16000;59.3125;107;61;0.36996
12000420;-0.16000;59.0625;107;61;0.36728
12000430;-0.15500;58.8750;107;61;0.36459
12000440;-0.15500;58.8750;107;61;0.36459
12000450;-0.14000;58.0625;107;61;0.35824
12000460;-0.13500;57.8750;107;61;0.35604
12000470;-0.12500;57.6875;107;61;0.35311
12000480;-0.11500;57.5625;107;61;0.34676
12000490;-0.11500;57.5625;107;61;0.34676
12000500;-0.09500;58.3125;107;61;0.33968
12000510;-0.07500;59.3750;107;61;0.33626
12000520;-0.05500;63.5000;107;61;0.32967
12000530;-0.03500;66.3125;107;61;0.32674
12000540;-0.01500;69.6250;107;61;0.32405
12000550;0.00500;73.1875;107;61;0.32234
12000560;0.03000;80.8125;107;61;0.31917
12000570;0.06000;84.6250;107;61;0.31722
12000580;0.08500;88.1875;107;61;0.31526
12000590;0.12000;91.5000;107;61;0.31306
12000600;0.15500;96.8125;107;61;0.30867
12000610;0.18500;98.8750;107;61;0.30647
12000620;0.21500;100.5625;107;61;0.30403
12000630;0.24500;101.9375;107;61;0.30183
12000640;0.26000;103.5625;107;61;0.29841
12000650;0.24000;104.0000;107;61;0.29768
12000660;0.18000;104.1250;107;61;0.29621
12000670;0.10000;104.0625;107;61;0.29451
12000680;0.02000;103.3750;107;61;0.29060
12000690;-0.04500;102.8125;107;61;0.28864
12000700;-0.08500;102.2500;107;61;0.28669
12000710;-0.12000;101.5000;107;61;0.28474
12000720;-0.14500;99.8750;107;61;0.28107
12000730;-0.15500;99.0000;107;61;0.27961
12000740;-0.15500;98.0000;107;61;0.27839
12000750;-0.15500;97.0000;107;61;0.27839
12000760;-0.15500;94.6875;107;61;0.28034
12000770;-0.14500;93.3125;107;61;0.28278
12000780;-0.14500;91.8750;107;61;0.28694
12000790;-0.14500;90.3125;107;61;0.29377
12000800;-0.13500;87.0000;107;61;0.31722
12000810;-0.13500;85.3125;107;61;0.33431
12000820;-0.13500;83.7500;107;61;0.35458
12000830;-0.13500;83.7500;107;61;0.35458
12000840;-0.12500;79.5000;107;61;0.42711
12000850;-0.12500;78.2500;107;61;0.44957
12000860;-0.12500;78.2500;107;61;0.44957
12000870;-0.12500;76.1250;107;61;0.50012
12000880;-0.13000;74.4375;107;61;0.54945
12000890;-0.13500;73.7500;107;61;0.57143
12000900;-0.13500;73.1250;107;61;0.59096
12000910;-0.12500;72.6250;107;61;0.60830
12000920;-0.13000;71.8750;107;61;0.63590
12000930;-0.12500;71.5625;107;61;0.64664
12000940;-0.11500;71.3750;107;61;0.65519
12000950;-0.10500;71.1250;107;61;0.66056
12000960;-0.10000;70.7500;107;61;0.66691
12000970;-0.08000;70.6250;107;61;0.66911
12000980;-0.08000;70.6250;107;61;0.66911
12000990;-0.05500;70.3125;107;61;0.67057
12001000;-0.02500;69.9375;107;60;0.66789
12001010;-0.00500;69.7500;107;60;0.66520
12001020;-0.02000;69.5000;107;60;0.66129
12001030;-0.04500;69.3125;107;60;0.65665
12001040;-0.07500;68.8750;107;60;0.64420
12001050;-0.10000;68.6250;107;60;0.63687
12001060;-0.13500;68.3125;107;60;0.62833
12001070;-0.15000;68.0000;107;60;0.61880
12001080;-0.15500;67.4375;107;60;0.59756
12001090;-0.14500;67.1875;107;60;0.58632
12001100;-0.13500;66.9375;107;60;0.57485
12001110;-0.12500;66.6250;107;60;0.56313
12001120;-0.11500;65.9375;107;60;0.54066
12001130;-0.12000;65.6250;107;60;0.52991
12001140;-0.17000;65.3750;107;60;0.51966
12001150;-0.10500;65.0625;107;60;0.51087
12001160;0.33000;64.5625;107;60;0.49475
12001170;1.12500;64.2500;107;60;0.48620
12001180;1.63500;64.0000;107;60;0.47814
12001190;1.19000;63.7500;107;60;0.47057
12001200;0.27500;63.3125;107;60;0.45665
12001210;-0.22000;63.0625;107;60;0.45055
12001220;-0.28000;62.8125;107;60;0.44493
12001230;-0.24500;62.6250;107;60;0.43980
12001240;-0.22500;62.1875;107;60;0.43101
12001250;-0.21000;61.9375;107;60;0.42759
12001260;-0.20500;61.6875;107;60;0.42393
12001270;-0.20000;61.5000;107;60;0.42027
12001280;-0.19000;61.0000;107;60;0.41294
12001290;-0.18000;60.8125;107;60;0.40952
12001300;-0.18000;60.6250;107;60;0.40586
12001310;-0.17000;60.3750;107;60;0.40220
12001320;-0.16500;59.9375;107;60;0.39512
12001330;-0.15500;59.6875;107;60;0.39170
12001340;-0.15000;59.4375;107;60;0.38828
12001350;-0.14500;59.2500;107;60;0.38559
12001360;-0.13500;59.0000;107;60;0.38095
12001370;-0.12500;59.0625;107;60;0.37778
12001380;-0.11500;59.3750;107;60;0.37460
12001390;-0.10000;60.1250;107;60;0.37143
12001400;-0.09000;63.3750;107;60;0.36508
12001410;-0.07500;65.9375;107;60;0.36215
12001420;-0.05500;69.0000;107;60;0.35922
12001430;-0.03500;72.4375;107;60;0.35629
12001440;-0.01500;80.2500;107;60;0.35116
12001450;-0.01500;80.2500;107;60;0.35116
12001460;0.04000;88.1250;107;60;0.34774
12001470;0.08000;91.7500;107;60;0.34554
12001480;0.11000;97.8125;107;60;0.34115
12001490;0.14500;100.2500;107;60;0.33895
12001500;0.17500;102.3125;107;60;0.33675
12001510;0.21000;104.0000;107;60;0.33480
12001520;0.23500;106.2500;107;60;0.33065
12001530;0.25000;106.9375;107;60;0.32845
12001540;0.25000;106.9375;107;60;0.32845
12001550;0.16500;107.5000;107;60;0.32552
12001560;0.08500;107.2500;107;60;0.32405
12001570;0.00500;106.9375;107;60;0.32308
12001580;-0.06000;106.5000;107;60;0.32186
12001590;-0.11000;105.9375;107;60;0.32088
12001600;-0.11000;105.9375;107;60;0.32088
12001610;-0.15500;103.7500;107;60;0.31746
12001620;-0.15500;102.9375;107;60;0.31624
12001630;-0.15500;102.0000;107;60;0.31526
12001640;-0.15500;99.9375;107;60;0.31502
12001650;-0.15000;98.7500;107;60;0.31697
12001660;-0.14500;97.5000;107;60;0.32039
12001670;-0.14500;96.1250;107;60;0.32576
12001680;-0.14000;92.8750;107;60;0.34481
12001690;-0.13500;91.1875;107;60;0.35971
12001700;-0.13500;89.4375;107;60;0.37827
12001710;-0.13500;87.7500;107;60;0.40000
12001720;-0.13500;84.6250;107;60;0.45104
12001730;-0.13000;83.1875;107;60;0.47863
12001740;-0.12500;81.8125;107;60;0.50281
12001750;-0.12500;80.6250;107;60;0.52503
12001760;-0.12500;78.5625;107;60;0.57363
12001770;-0.12500;77.6875;107;60;0.59683
12001780;-0.13000;76.9375;107;60;0.61832
12001790;-0.12500;76.3125;107;60;0.63785
12001800;-0.12500;75.2500;107;60;0.67082
12001810;-0.12500;74.8750;107;60;0.68376
12001820;-0.13000;74.5000;107;60;0.69475
12001830;-0.12500;74.2500;107;60;0.70403
12001840;-0.11500;73.7500;107;60;0.71575
12001850;-0.10500;73.5625;107;60;0.71844
12001860;-0.09000;73.3750;107;60;0.72088
12001870;-0.06500;73.1875;107;60;0.72259
12001880;-0.05500;72.7500;107;60;0.72332
12001890;-0.04500;72.5625;107;60;0.72210
12001900;-0.01500;72.3750;107;60;0.71990
12001910;-0.00500;72.1250;107;60;0.71697
12001920;-0.02000;71.6250;107;60;0.70769
12001930;-0.04500;71.3750;107;60;0.70159
12001940;-0.06500;71.1250;107;60;0.69451
12001950;-0.10500;70.8125;107;60;0.68669
12001960;-0.13500;70.3125;107;60;0.66886
12001970;-0.14500;70.0000;107;60;0.65885
12001980;-0.13500;69.6875;107;60;0.64835
12001990;-0.13000;69.3750;107;60;0.63736
12002000;-0.12500;68.7500;107;61;0.61490
12002010;-0.11500;68.4375;107;61;0.60366
12002020;-0.10500;68.1875;107;61;0.59243
12002030;-0.10500;68.1875;107;61;0.59243
12002040;-0.16000;67.2500;107;61;0.56239
12002050;0.04000;66.9375;107;61;0.55409
12002060;0.64000;66.6875;107;61;0.54579
12002070;1.44500;66.4375;107;61;0.53773
12002080;1.67500;65.9375;107;61;0.52210
12002090;0.93500;65.6875;107;61;0.51502
12002100;0.08000;65.4375;107;61;0.50794
12002110;-0.23000;65.1875;107;61;0.50110
12002120;-0.23000;64.6250;107;61;0.48913
12002130;-0.20000;64.3750;107;61;0.48376
12002140;-0.19000;64.1250;107;61;0.47937
12002150;-0.18000;63.8750;107;61;0.47521
12002160;-0.17500;63.3125;107;61;0.46618
12002170;-0.17000;63.0625;107;61;0.46154
12002180;-0.17000;62.7500;107;61;0.45714
12002190;-0.16000;62.5000;107;61;0.45275
12002200;-0.16000;62.0000;107;61;0.44444
12002210;-0.16000;61.7500;107;61;0.44029
12002220;-0.15500;61.5000;107;61;0.43614
12002230;-0.14500;61.2500;107;61;0.43223
12002240;-0.14500;60.8125;107;61;0.42540
12002250;-0.14000;60.6875;107;61;0.42271
12002260;-0.13500;60.6875;107;61;0.41978
12002270;-0.13000;60.8125;107;61;0.41661
12002280;-0.12000;62.3750;107;61;0.41026
12002290;-0.10500;64.0625;107;61;0.40708
12002300;-0.09500;66.4375;107;61;0.40415
12002310;-0.07500;69.3750;107;61;0.40098
12002320;-0.06000;76.6250;107;61;0.39512
12002330;-0.04500;80.6875;107;61;0.39243
12002340;-0.03000;84.8125;107;61;0.39048
12002350;-0.01500;88.8125;107;61;0.38877
12002360;0.01000;96.1250;107;61;0.38413
12002370;0.03000;99.1875;107;61;0.38169
12002380;0.06500;101.8750;107;61;0.37949
12002390;0.10000;104.0625;107;61;0.37753
12002400;0.13000;107.3125;107;61;0.37411
12002410;0.16000;108.3750;107;61;0.37216
12002420;0.19000;109.1250;107;61;0.37021
12002430;0.19000;109.6250;107;61;0.36825
12002440;0.16500;109.8125;107;61;0.36532
12002450;0.10500;109.6250;107;61;0.36459
12002460;0.03000;109.2500;107;61;0.36313
12002470;-0.03500;108.8125;107;61;0.36117
12002480;-0.08500;107.5625;107;61;0.35653
12002490;-0.11500;106.8125;107;61;0.35433
12002500;-0.13500;106.0000;107;61;0.35214
12002510;-0.14500;105.1250;107;61;0.34994
12002520;-0.14500;103.2500;107;61;0.34603
12002530;-0.15000;102.1875;107;61;0.34505
12002540;-0.15000;102.1875;107;61;0.34505
12002550;-0.14500;99.8125;107;61;0.34774
12002560;-0.14500;97.0000;107;61;0.35849
12002570;-0.14500;95.3125;107;61;0.36874
12002580;-0.14500;95.3125;107;61;0.36874
12002590;-0.13000;91.7500;107;61;0.40098
12002600;-0.13500;88.2500;107;61;0.44737
12002610;-0.13000;86.6250;107;61;0.47521
12002620;-0.12500;85.0000;107;61;0.50501
12002630;-0.12500;83.5000;107;61;0.53553
12002640;-0.12500;80.8750;107;61;0.59072
12002650;-0.12500;79.7500;107;61;0.61270
12002660;-0.12500;78.7500;107;61;0.63590
12002670;-0.12000;77.8750;107;61;0.65861
12002680;-0.12000;76.4375;107;61;0.69817
12002690;-0.12500;75.8750;107;61;0.71453
12002700;-0.12500;75.3125;107;61;0.72869
12002710;-0.12500;74.8750;107;61;0.74066
12002720;-0.12500;74.1250;107;61;0.75897
12002730;-0.12500;73.8125;107;61;0.76557
12002740;-0.12000;73.5000;107;61;0.76899
12002750;-0.11500;73.2500;107;61;0.77070
12002760;-0.10500;72.7500;107;61;0.77338
12002770;-0.09500;72.5000;107;61;0.77338
12002780;-0.07500;72.2500;107;61;0.77241
12002790;-0.05500;72.0000;107;61;0.77021
12002800;-0.04000;71.5625;107;61;0.76264
12002810;-0.02500;71.3125;107;61;0.75726
12002820;0.00000;71.0625;107;61;0.75067
12002830;0.01000;70.7500;107;61;0.74286
12002840;0.00000;70.1875;107;61;0.72479
12002850;-0.02500;69.8750;107;61;0.71453
12002860;-0.04500;69.5625;107;61;0.70305
12002870;-0.08500;69.2500;107;61;0.69109
12002880;-0.11500;68.5625;107;61;0.66569
12002890;-0.12000;68.2500;107;61;0.65275
12002900;-0.11500;67.9375;107;61;0.63956
12002910;-0.10500;67.6250;107;61;0.62637
12002920;-0.09500;66.8750;107;61;0.60024
12002930;-0.09500;66.5625;107;61;0.58755
12002940;-0.09000;66.2500;107;61;0.57656
12002950;-0.12500;65.8750;107;61;0.56654
12002960;-0.16000;65.3125;107;61;0.54554
12002970;0.08000;65.0000;107;61;0.53529
12002980;0.71500;64.6875;107;61;0.52552
12002990;1.45500;64.3750;107;61;0.51648
12003000;1.50000;63.8125;107;61;0.49988
12003010;0.66000;63.5625;107;61;0.49206
12003020;-0.10500;63.2500;107;61;0.48474
12003030;-0.33000;63.0000;107;61;0.47766
12003040;-0.30500;62.5000;107;61;0.46447
12003050;-0.28000;62.1875;107;61;0.45885
12003060;-0.27500;61.9375;107;61;0.45275
12003070;-0.27500;61.9375;107;61;0.45275
12003080;-0.26000;61.2500;107;61;0.43468
12003090;-0.26000;61.0000;107;61;0.42857
12003100;-0.25000;60.7500;107;61;0.42247
12003110;-0.24500;60.4375;107;61;0.41661
12003120;-0.24000;60.0000;107;61;0.40537
12003130;-0.23500;59.7500;107;61;0.40000
12003140;-0.23000;59.5000;107;61;0.39560
12003150;-0.22500;59.2500;107;61;0.39194
12003160;-0.22000;58.9375;107;61;0.38291
12003170;-0.21000;58.8125;107;61;0.37827
12003180;-0.20000;58.6875;107;61;0.37338
12003190;-0.19500;58.7500;107;61;0.36850
12003200;-0.18000;59.8125;107;61;0.35922
12003210;-0.17000;61.1250;107;61;0.35458
12003220;-0.15500;63.1250;107;61;0.35018
12003230;-0.13500;65.7500;107;61;0.34579
12003240;-0.11500;72.3750;107;61;0.33822
12003250;-0.09500;76.1875;107;61;0.33553
12003260;-0.06500;80.1250;107;61;0.33236
12003270;-0.03500;84.0625;107;61;0.32894
12003280;-0.00500;91.5000;107;61;0.32161
12003290;0.02000;94.6875;107;61;0.31795
12003300;0.06500;97.5000;107;61;0.31429
12003310;0.10000;99.8750;107;61;0.31062
12003320;0.13500;103.3750;107;61;0.30354
12003330;0.17000;104.5625;107;61;0.30037
12003340;0.20000;105.3750;107;61;0.29817
12003350;0.20500;105.9375;107;61;0.29670
12003360;0.17500;106.1250;107;61;0.29231
12003370;0.10500;105.9375;107;61;0.28938
12003380;0.02500;105.6250;107;61;0.28645
12003390;-0.04500;105.1250;107;61;0.28327
12003400;-0.10500;103.9375;107;61;0.27717
12003410;-0.14500;103.1250;107;61;0.27424
12003420;-0.16500;102.3125;107;61;0.27131
12003430;-0.17500;101.4375;107;61;0.26838
12003440;-0.17500;99.5000;107;61;0.26593
12003450;-0.17500;98.4375;107;61;0.26471
12003460;-0.17500;97.3125;107;61;0.26398
12003470;-0.17500;96.0000;107;61;0.26422
12003480;-0.17000;93.1250;107;61;0.27082
12003490;-0.16500;91.5000;107;61;0.27863
12003500;-0.16500;89.8125;107;61;0.29011
12003510;-0.16500;88.1250;107;61;0.30574
12003520;-0.17000;84.7500;107;61;0.34872
12003530;-0.17000;83.1875;107;61;0.37509
12003540;-0.16000;81.6875;107;61;0.39976
12003550;-0.16000;80.3125;107;61;0.42369
12003560;-0.15500;78.0000;107;61;0.47912
12003570;-0.15500;76.9375;107;61;0.50720
12003580;-0.15000;76.0625;107;61;0.53407
12003590;-0.15500;75.1875;107;61;0.55922
12003600;-0.15500;75.1875;107;61;0.55922
12003610;-0.14500;73.3750;107;61;0.61978
12003620;-0.14000;72.9375;107;61;0.63492
12003630;-0.13500;72.5625;107;61;0.64762
12003640;-0.12500;71.9375;107;61;0.66300
12003650;-0.11000;71.6875;107;61;0.66911
12003660;-0.08500;71.4375;107;61;0.67448
12003670;-0.07500;71.1875;107;61;0.67888
12003680;-0.06000;70.7500;107;61;0.68352
12003690;-0.03500;70.5000;107;61;0.68376
12003700;-0.01500;70.3125;107;61;0.68303
12003710;-0.04000;70.1250;107;61;0.68107
12003720;-0.06500;69.6875;107;61;0.67375
12003730;-0.09000;69.4375;107;61;0.66838
12003740;-0.12500;69.2500;107;61;0.66203
12003750;-0.15500;69.0000;107;61;0.65495
12003760;-0.16000;68.4375;107;61;0.63736
12003770;-0.16000;68.1875;107;61;0.62686
12003780;-0.15500;67.8750;107;61;0.61538
12003790;-0.14500;67.6250;107;61;0.60317
12003800;-0.13500;67.0000;107;61;0.57705
12003810;-0.12500;66.7500;107;61;0.56386
12003820;-0.14500;66.4375;107;61;0.55092
12003830;-0.19000;66.1250;107;61;0.53822
12003840;-0.05500;65.5625;107;61;0.51673
12003850;0.49500;65.2500;107;61;0.50574
12003860;1.29000;64.9375;107;61;0.49475
12003870;1.53500;64.6875;107;61;0.48425
12003880;0.86500;64.0625;107;61;0.46422
12003890;0.05000;63.8125;107;61;0.45519
12003900;-0.29000;63.5625;107;61;0.44664
12003910;-0.29000;63.3125;107;61;0.43858
12003920;-0.25000;62.7500;107;61;0.42442
12003930;-0.23000;62.5000;107;61;0.41807
12003940;-0.22000;62.2500;107;61;0.41294
12003950;-0.21000;61.9375;107;61;0.40855
12003960;-0.20000;61.4375;107;61;0.39853
12003970;-0.19000;61.1250;107;61;0.39365
12003980;-0.19000;60.8750;107;61;0.38877
12003990;-0.19000;60.5625;107;61;0.38388
12004000;-0.18000;60.0625;107;60;0.37460
12004010;-0.17000;59.8125;107;60;0.36996
12004020;-0.16500;59.5625;107;60;0.36557
12004030;-0.16000;59.3125;107;60;0.36142
12004040;-0.15000;58.9375;107;60;0.35531
12004050;-0.14500;58.8125;107;60;0.35189
12004060;-0.13500;58.7500;107;60;0.34823
12004070;-0.12500;58.8750;107;60;0.34432
12004080;-0.11000;60.2500;107;60;0.33626
12004090;-0.09500;61.7500;107;60;0.33260
12004100;-0.09500;61.7500;107;60;0.33260
12004110;-0.06000;66.5625;107;60;0.32527
12004120;-0.03500;73.0625;107;60;0.31844
12004130;-0.01000;76.6875;107;60;0.31526
12004140;0.01500;80.4375;107;60;0.31306
12004150;0.04500;84.1875;107;60;0.30769
12004160;0.08000;90.9375;107;60;0.29451
12004170;0.12000;93.8750;107;60;0.29035
12004180;0.15000;96.3750;107;60;0.28694
12004190;0.18500;98.5000;107;60;0.28376
12004200;0.21500;101.5625;107;60;0.27814
12004210;0.23500;102.5625;107;60;0.27546
12004220;0.23500;103.2500;107;60;0.27302
12004230;0.19500;103.6875;107;60;0.27057
12004240;0.12500;103.8125;107;60;0.26813
12004250;0.04000;103.6250;107;60;0.26618
12004260;-0.03500;103.1875;107;60;0.26374
12004270;-0.09000;102.6875;107;60;0.26105
12004280;-0.13000;101.3125;107;60;0.25592
12004290;-0.15000;100.5625;107;60;0.25348
12004300;-0.15500;99.7500;107;60;0.25128
12004310;-0.15500;98.8750;107;60;0.24908
12004320;-0.15500;96.8750;107;60;0.24542
12004330;-0.15000;95.6875;107;60;0.24444
12004340;-0.14500;94.4375;107;60;0.24493
12004350;-0.14500;93.1250;107;60;0.24689
12004360;-0.14500;90.0000;107;60;0.25592
12004370;-0.13500;88.2500;107;60;0.26447
12004380;-0.13000;86.5625;107;60;0.27643
12004390;-0.13000;86.5625;107;60;0.27643
12004400;-0.12500;81.7500;107;60;0.33382
12004410;-0.12000;80.2500;107;60;0.35897
12004420;-0.11500;78.8750;107;60;0.38584
12004430;-0.11500;77.6250;107;60;0.41368
12004440;-0.11500;77.6250;107;60;0.41368
12004450;-0.11500;74.6875;107;60;0.48498
12004460;-0.11500;73.9375;107;60;0.50916
12004470;-0.11500;73.2500;107;60;0.53187
12004480;-0.11500;72.1250;107;60;0.57167
12004490;-0.12000;71.7500;107;60;0.58803
12004500;-0.11500;71.3750;107;60;0.60220
12004510;-0.11000;71.0625;107;60;0.61416
12004520;-0.10000;70.5625;107;60;0.63199
12004530;-0.09500;70.3750;107;60;0.63785
12004540;-0.08000;70.1875;107;60;0.64103
12004550;-0.06000;70.0000;107;60;0.64249
12004560;-0.05000;69.6250;107;60;0.64371
12004570;-0.02500;69.4375;107;60;0.64298
12004580;-0.00500;69.2500;107;60;0.64127
12004590;-0.01500;69.0625;107;60;0.63834
12004600;-0.03500;68.5625;107;60;0.62930
12004610;-0.05500;68.3125;107;60;0.62320
12004620;-0.08500;68.1250;107;60;0.61587
12004630;-0.08500;68.1250;107;60;0.61587
12004640;-0.14000;67.2500;107;60;0.58999
12004650;-0.14500;66.9375;107;60;0.57924
12004660;-0.13500;66.6875;107;60;0.56777
12004670;-0.13000;66.3750;107;60;0.55556
12004680;-0.12000;65.7500;107;60;0.53040
12004690;-0.11500;65.4375;107;60;0.51795
12004700;-0.10500;65.1250;107;60;0.50574
12004710;-0.15500;64.8125;107;60;0.49377
12004720;-0.15500;64.3125;107;60;0.47106
12004730;0.14500;64.0625;107;60;0.46056
12004740;0.86000;63.8125;107;60;0.45177
12004750;1.55000;63.5625;107;60;0.44420
12004760;1.39500;63.0000;107;60;0.42833
12004770;0.51000;62.7500;107;60;0.42051
12004780;-0.12500;62.5000;107;60;0.41270
12004790;-0.26500;62.2500;107;60;0.40537
12004800;-0.23000;61.7500;107;60;0.39219
12004810;-0.20500;61.5000;107;60;0.38657
12004820;-0.19000;61.2500;107;60;0.38120
12004830;-0.18000;61.0000;107;60;0.37631
12004840;-0.18000;61.0000;107;60;0.37631
12004850;-0.16000;60.3125;107;60;0.36581
12004860;-0.15500;60.0625;107;60;0.36215
12004870;-0.14500;59.8750;107;60;0.35849
12004880;-0.14500;59.3750;107;60;0.35067
12004890;-0.14000;59.1250;107;60;0.34676
12004900;-0.14000;59.1250;107;60;0.34676
12004910;-0.12500;58.6875;107;60;0.33895
12004920;-0.12000;58.3125;107;60;0.33162
12004930;-0.11500;58.1875;107;60;0.32821
12004940;-0.11000;58.0625;107;60;0.32576
12004950;-0.10000;58.1875;107;60;0.32381
12004960;-0.08500;59.3750;107;60;0.31795
12004970;-0.06500;60.8125;107;60;0.31477
12004980;-0.05000;62.8750;107;60;0.31160
12004990;-0.03500;65.4375;107;60;0.30867
12005000;-0.01500;72.0000;107;60;0.30256
12005010;0.01000;75.7500;107;60;0.29963
12005020;0.03500;79.6875;107;60;0.29646
12005030;0.06000;83.5625;107;60;0.29328
12005040;0.09000;90.7500;107;60;0.28938
12005050;0.12500;93.8125;107;60;0.28718
12005060;0.16000;96.5000;107;60;0.28474
12005070;0.19500;98.8125;107;60;0.28230
12005080;0.23000;102.2500;107;60;0.27766
12005090;0.26000;103.3750;107;60;0.27546
12005100;0.28000;104.2500;107;60;0.27326
12005110;0.26500;104.8750;107;60;0.27106
12005120;0.21500;105.3750;107;60;0.26667
12005130;0.14000;105.3125;107;60;0.26471
12005140;0.05500;105.0625;107;60;0.26374
12005150;-0.01500;104.6875;107;60;0.26325
12005160;-0.06500;103.6250;107;60;0.26007
12005170;-0.10000;102.8750;107;60;0.25812
12005180;-0.12000;102.1250;107;60;0.25617
12005190;-0.12500;101.2500;107;60;0.25421
12005200;-0.13000;99.3750;107;60;0.25055
12005210;-0.13000;98.3750;107;60;0.24933
12005220;-0.12500;97.1875;107;60;0.24908
12005230;-0.12500;95.9375;107;60;0.25031
12005240;-0.12500;93.1250;107;60;0.25885
12005250;-0.11500;91.5625;107;60;0.26691
12005260;-0.11000;89.8750;107;60;0.27863
12005270;-0.10500;88.1250;107;60;0.29402
12005280;-0.10500;84.8125;107;60;0.33626
12005290;-0.10500;83.2500;107;60;0.36239
12005300;-0.10500;81.8125;107;60;0.39072
12005310;-0.10500;80.4375;107;60;0.42027
12005320;-0.10500;78.0625;107;60;0.48034
12005330;-0.10500;77.0625;107;60;0.50549
12005340;-0.10500;76.1250;107;60;0.52772
12005350;-0.10500;75.3750;107;60;0.55116
12005360;-0.10500;74.0625;107;60;0.59512
12005370;-0.10500;73.5625;107;60;0.61416
12005380;-0.10500;73.5625;107;60;0.61416
12005390;-0.09500;72.6875;107;60;0.64518
12005400;-0.09000;72.0625;107;60;0.66740
12005410;-0.09000;72.0625;107;60;0.66740
12005420;-0.05500;71.6250;107;60;0.68181
12005430;-0.04000;71.4375;107;60;0.68645
12005440;-0.02000;71.1875;107;60;0.68816
12005450;0.01000;71.0000;107;60;0.68791
12005460;0.02000;70.8750;107;60;0.68718
12005470;0.00500;70.6875;107;60;0.68547
12005480;-0.01500;70.3125;107;60;0.67937
12005490;-0.03500;70.1250;107;60;0.67473
12005500;-0.07000;69.8750;107;60;0.66886
12005510;-0.10500;69.6875;107;60;0.66178
12005520;-0.11500;69.1875;107;60;0.64371
12005530;-0.10500;68.9375;107;60;0.63394
12005540;-0.09500;68.6875;107;60;0.62369
12005550;-0.08500;68.3750;107;60;0.61245
12005560;-0.07500;67.7500;107;60;0.58755
12005570;-0.06500;67.5000;107;60;0.57460
12005580;-0.08500;67.1875;107;60;0.56142
12005590;-0.13000;66.8750;107;60;0.54847
12005600;0.01000;66.3750;107;60;0.52381
12005610;0.57500;66.0625;107;60;0.51209
12005620;1.39500;65.8125;107;60;0.50110
12005630;1.69500;65.5625;107;60;0.49060
12005640;1.06000;65.0625;107;60;0.47375
12005650;0.19500;64.7500;107;60;0.46545
12005660;-0.19000;64.4375;107;60;0.45739
12005670;-0.20500;63.9375;107;60;0.44982
12005680;-0.17000;63.6875;107;60;0.43565
12005690;-0.15500;63.4375;107;60;0.42906
12005700;-0.14000;63.1875;107;60;0.42295
12005710;-0.13000;62.9375;107;60;0.41734
12005720;-0.12000;62.4375;107;60;0.40733
12005730;-0.11500;62.1875;107;60;0.40366
12005740;-0.10000;61.9375;107;60;0.40049
12005750;-0.09500;61.6875;107;60;0.39707
12005760;-0.08500;61.1875;107;60;0.38974
12005770;-0.08000;61.0000;107;60;0.38608
12005780;-0.06500;60.7500;107;60;0.38242
12005790;-0.05500;60.5625;107;60;0.37875
12005800;-0.04500;60.2500;107;60;0.37192
12005810;-0.04000;60.1875;107;60;0.36850
12005820;-0.04000;60.1875;107;60;0.36850
12005830;-0.02500;60.6875;107;60;0.36142
12005840;-0.01500;63.1250;107;60;0.35629
12005850;0.00000;65.3125;107;60;0.35360
12005860;0.02000;68.1250;107;60;0.35092
12005870;0.03500;71.4375;107;60;0.34823
12005880;0.05500;79.0000;107;60;0.34237
12005890;0.07500;83.0625;107;60;0.33944
12005900;0.10000;87.1250;107;60;0.33651
12005910;0.13000;90.9375;107;60;0.33382
12005920;0.16000;97.5625;107;60;0.32869
12005930;0.19500;100.2500;107;60;0.32698
12005940;0.22500;102.6250;107;60;0.32576
12005950;0.25500;104.5000;107;60;0.32405
12005960;0.28500;107.1875;107;60;0.32039
12005970;0.30000;108.0625;107;60;0.31819
12005980;0.31000;108.6250;107;60;0.31600
12005990;0.27000;109.0000;107;60;0.31380
12006000;0.20000;109.0625;107;60;0.30965
12006010;0.11500;108.8125;107;60;0.30745
12006020;0.04000;108.4375;107;60;0.30525
12006030;-0.02000;107.9375;107;60;0.30330
12006040;-0.06000;106.8125;107;60;0.30159
12006050;-0.08500;106.0625;107;60;0.30061
12006060;-0.10000;105.2500;107;60;0.29939
12006070;-0.11000;104.4375;107;60;0.29841
12006080;-0.11500;102.5000;107;60;0.29695
12006090;-0.11500;101.4375;107;60;0.29719
12006100;-0.10500;100.3125;107;60;0.29890
12006110;-0.10000;99.0000;107;60;0.30281
12006120;-0.09500;95.9375;107;60;0.31990
12006130;-0.10000;94.2500;107;60;0.33187
12006140;-0.10000;92.5625;107;60;0.34603
12006150;-0.10000;92.5625;107;60;0.34603
12006160;-0.09500;87.4375;107;60;0.41441
12006170;-0.09500;85.8125;107;60;0.44322
12006180;-0.09500;84.3125;107;60;0.47350
12006190;-0.09000;82.9375;107;60;0.50427
12006200;-0.09000;80.6250;107;60;0.59316
12006210;-0.09000;79.6875;107;60;0.63101
12006220;-0.08500;78.8125;107;60;0.66276
12006230;-0.08500;78.0000;107;60;0.69035
12006240;-0.08500;76.7500;107;60;0.72674
12006250;-0.07500;76.3125;107;60;0.74261
12006260;-0.07500;75.9375;107;60;0.75726
12006270;-0.07000;75.6250;107;60;0.77045
12006280;-0.06500;75.0000;107;60;0.79170
12006290;-0.05500;74.7500;107;60;0.79951
12006300;-0.04500;74.5000;107;60;0.80562
12006310;-0.02500;74.3125;107;60;0.81001
12006320;-0.01500;73.8750;107;60;0.81368
12006330;-0.00500;73.6250;107;60;0.81221
12006340;0.01000;73.4375;107;60;0.80928
12006350;0.01000;73.2500;107;60;0.80610
12006360;-0.01500;72.8125;107;60;0.79756
12006370;-0.03500;72.5625;107;60;0.79170
12006380;-0.06500;72.3125;107;60;0.78462
12006390;-0.09500;72.0000;107;60;0.77607
12006400;-0.12000;71.4375;107;60;0.75458
12006410;-0.12500;71.1875;107;60;0.74212
12006420;-0.12000;70.8750;107;60;0.72894
12006430;-0.11500;70.5000;107;60;0.71502
12006440;-0.10500;69.8750;107;60;0.68840
12006450;-0.09500;69.5625;107;60;0.67448
12006460;-0.10000;69.1875;107;60;0.66007
12006470;-0.14500;68.8750;107;60;0.64615
12006480;-0.08500;68.2500;107;60;0.61978
12006490;0.33000;67.9375;107;60;0.60733
12006500;1.11000;67.6250;107;60;0.59536
12006510;1.70500;67.3125;107;60;0.58388
12006520;1.32500;66.6875;107;60;0.56288
12006530;0.38500;66.4375;107;60;0.55385
12006540;-0.17000;66.1875;107;60;0.54579
12006550;-0.26000;65.8750;107;60;0.53773
12006560;-0.23500;65.2500;107;60;0.52210
12006570;-0.22000;64.9375;107;60;0.51502
12006580;-0.21500;64.6250;107;60;0.50842
12006590;-0.20500;64.3750;107;60;0.50232
12006600;-0.20000;63.8125;107;60;0.49109
12006610;-0.19000;63.5000;107;60;0.48620
12006620;-0.18500;63.2500;107;60;0.48156
12006630;-0.17500;62.9375;107;60;0.47692
12006640;-0.17000;62.3750;107;60;0.46935
12006650;-0.17000;62.0625;107;60;0.46569
12006660;-0.16000;61.7500;107;60;0.46178
12006670;-0.15500;61.4375;107;60;0.45788
12006680;-0.15500;61.0000;107;60;0.45055
12006690;-0.14500;60.8750;107;60;0.44664
12006700;-0.14500;60.8750;107;60;0.44664
12006710;-0.12500;61.3750;107;60;0.43858
12006720;-0.11500;63.8125;107;60;0.43077
12006730;-0.10500;66.0625;107;60;0.42759
12006740;-0.08500;68.9375;107;60;0.42466
12006750;-0.06500;72.3125;107;60;0.42125
12006760;-0.04000;80.0625;107;60;0.41441
12006770;-0.02000;84.1875;107;60;0.41099
12006780;0.00500;88.2500;107;60;0.40781
12006790;0.04000;92.1250;107;60;0.40488
12006800;0.07000;98.7500;107;60;0.39927
12006810;0.10500;101.4375;107;60;0.39658
12006820;0.14000;103.6875;107;60;0.39390
12006830;0.17000;105.5000;107;60;0.39096
12006840;0.17000;105.5000;107;60;0.39096
12006850;0.22500;108.8125;107;60;0.38364
12006860;0.24000;109.3125;107;60;0.38071
12006870;0.22500;109.5625;107;60;0.37753
12006880;0.17000;109.5000;107;60;0.37143
12006890;0.10000;109.1875;107;60;0.36874
12006900;0.02500;108.7500;107;60;0.36606
12006910;-0.03500;108.2500;107;60;0.36337
12006920;-0.08500;106.8750;107;60;0.35775
12006930;-0.08500;106.8750;107;60;0.35775
12006940;-0.13000;105.2500;107;60;0.35409
12006950;-0.13500;104.3125;107;60;0.35165
12006960;-0.14500;102.2500;107;60;0.34676
12006970;-0.14500;101.1250;107;60;0.34530
12006980;-0.14500;99.8750;107;60;0.34554
12006990;-0.14000;98.5000;107;60;0.34823
12007000;-0.14000;95.3125;107;60;0.36410
12007010;-0.14000;93.5000;107;60;0.37827
12007020;-0.14000;91.6250;107;60;0.39683
12007030;-0.14000;89.8125;107;60;0.41954
12007040;-0.14500;86.3750;107;60;0.46593
12007050;-0.14500;84.7500;107;60;0.49451
12007060;-0.14000;83.2500;107;60;0.52601
12007070;-0.13500;81.9375;107;60;0.55849
12007080;-0.13500;79.6250;107;60;0.62173
12007090;-0.13000;78.6875;107;60;0.65104
12007100;-0.13500;77.8125;107;60;0.67790
12007110;-0.14000;77.0625;107;60;0.70208
12007120;-0.14000;75.8750;107;60;0.74115
12007130;-0.14000;75.4375;107;60;0.75409
12007140;-0.14000;75.0000;107;60;0.76361
12007150;-0.14000;74.5625;107;60;0.77314
12007160;-0.13500;73.9375;107;60;0.78950
12007170;-0.13000;73.6875;107;60;0.79560
12007180;-0.12500;73.4375;107;60;0.80000
12007190;-0.11000;73.1875;107;60;0.80317
12007200;-0.09000;72.6875;107;60;0.80537
12007210;-0.07500;72.3750;107;60;0.80440
12007220;-0.06500;72.1250;107;60;0.80195
12007230;-0.03500;71.8750;107;60;0.79756
12007240;-0.01000;71.3125;107;60;0.78608
12007250;-0.01500;71.0000;107;60;0.77900
12007260;-0.04500;70.7500;107;60;0.77045
12007270;-0.06500;70.4375;107;60;0.76068
12007280;-0.09500;69.8125;107;60;0.73724
12007290;-0.13500;69.5000;107;60;0.72381
12007300;-0.15500;69.1250;107;60;0.70940
12007310;-0.16000;68.8125;107;60;0.69451
12007320;-0.15500;68.1875;107;60;0.66300
12007330;-0.15000;67.8750;107;60;0.64860
12007340;-0.14000;67.5625;107;60;0.63492
12007350;-0.12500;67.2500;107;60;0.62076
12007360;-0.12500;66.6250;107;60;0.59267
12007370;-0.16500;66.3125;107;60;0.57924
12007380;-0.12000;66.0000;107;60;0.56630
12007390;0.28000;65.6875;107;60;0.55385
12007400;1.05000;65.1875;107;60;0.53040
12007410;1.62000;64.8750;107;60;0.51966
12007420;1.22000;64.6250;107;60;0.50940
12007430;0.31000;64.3750;107;60;0.50085
12007440;-0.19500;63.8125;107;60;0.48498
12007450;-0.28000;63.5625;107;60;0.47717
12007460;-0.24000;63.2500;107;60;0.46960
12007470;-0.24000;63.2500;107;60;0.46960
12007480;-0.21000;62.4375;107;60;0.44762
12007490;-0.20000;62.1875;107;60;0.44078
12007500;-0.20000;61.9375;107;60;0.43394
12007510;-0.19000;61.6250;107;60;0.42759
12007520;-0.19000;61.1250;107;60;0.41490
12007530;-0.18000;60.8125;107;60;0.40977
12007540;-0.17000;60.5625;107;60;0.40537
12007550;-0.16000;60.2500;107;60;0.40000
12007560;-0.16000;59.7500;107;60;0.38877
12007570;-0.15500;59.5625;107;60;0.38315
12007580;-0.15000;59.3750;107;60;0.37753
12007590;-0.14000;59.1875;107;60;0.37192
12007600;-0.12500;59.1250;107;60;0.36117
12007610;-0.11500;59.4375;107;60;0.35604
12007620;-0.10500;60.2500;107;60;0.35116
12007630;-0.08500;61.6875;107;60;0.34725
12007640;-0.06500;66.3750;107;60;0.33993
12007650;-0.04500;69.5000;107;60;0.33578
12007660;-0.02000;73.0625;107;60;0.33138
12007670;0.00000;76.8750;107;60;0.32723
12007680;0.02500;84.8125;107;60;0.31917
12007690;0.05500;88.5625;107;60;0.31551
12007700;0.09000;92.0625;107;60;0.31160
12007710;0.12000;95.1250;107;60;0.30769
12007720;0.15000;100.1250;107;60;0.30037
12007730;0.18500;102.0000;107;60;0.29792
12007740;0.18500;102.0000;107;60;0.29792
12007750;0.24500;104.5625;107;60;0.29328
12007760;0.26500;105.8125;107;60;0.28645
12007770;0.24500;106.0000;107;60;0.28303
12007780;0.19000;106.0000;107;60;0.27937
12007790;0.11500;105.7500;107;60;0.27595
12007800;0.03000;104.8750;107;60;0.26960
12007810;-0.03500;104.2500;107;60;0.26642
12007820;-0.08500;103.5625;107;60;0.26349
12007830;-0.11500;102.8125;107;60;0.26154
12007840;-0.13000;101.1250;107;60;0.25836
12007850;-0.14000;100.1250;107;60;0.25617
12007860;-0.14500;99.1250;107;60;0.25372
12007870;-0.14500;98.0000;107;60;0.25153
12007880;-0.14500;95.5625;107;60;0.25006
12007890;-0.14500;94.0625;107;60;0.25226
12007900;-0.14500;92.5000;107;60;0.25739
12007910;-0.14500;90.8125;107;60;0.26618
12007920;-0.14500;90.8125;107;60;0.26618
12007930;-0.14500;85.7500;107;60;0.31429
12007940;-0.13500;84.1250;107;60;0.33480
12007950;-0.13500;82.5625;107;60;0.36044
12007960;-0.13500;79.7500;107;60;0.42051
12007970;-0.13500;78.5625;107;60;0.45226
12007980;-0.13500;77.5000;107;60;0.48425
12007990;-0.13500;76.5625;107;60;0.51526
12008000;-0.13500;74.8750;106;60;0.57143
12008010;-0.14000;74.2500;106;60;0.59560
12008020;-0.14000;73.6250;106;60;0.61734
12008030;-0.13500;73.1875;106;60;0.63370
12008040;-0.14000;72.3125;106;60;0.65958
12008050;-0.14500;72.0000;106;60;0.67131
12008060;-0.14500;71.6875;106;60;0.68107
12008070;-0.13500;71.3750;106;60;0.68913
12008080;-0.12000;71.0000;106;60;0.70012
12008090;-0.10500;70.7500;106;60;0.70281
12008100;-0.08500;70.5625;106;60;0.70379
12008110;-0.06500;70.3125;106;60;0.70305
12008120;-0.05500;69.8750;106;60;0.69841
12008130;-0.02500;69.6875;106;60;0.69426
12008140;-0.01500;69.4375;106;60;0.68913
12008150;-0.02500;69.1875;106;60;0.68303
12008160;-0.05000;68.6250;106;60;0.66740
12008170;-0.07500;68.3750;106;60;0.65788
12008180;-0.11000;68.1250;106;60;0.64737
12008190;-0.11000;68.1250;106;60;0.64737
12008200;-0.16000;67.2500;106;60;0.61148
12008210;-0.15500;66.9375;106;60;0.59805
12008220;-0.15000;66.6875;106;60;0.58437
12008230;-0.13500;66.0625;106;60;0.57192
12008240;-0.12500;65.8125;106;60;0.53968
12008250;-0.11500;65.5000;106;60;0.51526
12008260;-0.12500;65.1875;106;60;0.49744
12008270;-0.17000;64.8750;106;60;0.48303
12008280;-0.10000;64.3750;106;60;0.46007
12008290;0.33000;64.0625;106;60;0.45031
12008300;1.10500;63.8125;106;60;0.44151
12008310;1.59500;63.5625;106;60;0.43321
12008320;1.08500;63.0625;106;60;0.41734
12008330;0.19500;62.8125;106;60;0.41099
12008340;-0.24000;62.5625;106;60;0.40562
12008350;-0.29000;62.3125;106;60;0.40000
12008360;-0.24500;61.8125;106;60;0.38901
12008370;-0.22000;61.5000;106;60;0.38413
12008380;-0.21000;61.2500;106;60;0.37924
12008390;-0.19500;61.0625;106;60;0.37436
12008400;-0.18500;60.5000;106;60;0.36508
12008410;-0.18000;60.2500;106;60;0.36068
12008420;-0.17500;60.0000;106;60;0.35629
12008430;-0.17000;59.7500;106;60;0.35287
12008440;-0.17000;59.7500;106;60;0.35287
12008450;-0.16000;59.0625;106;60;0.34261
12008460;-0.15500;58.8125;106;60;0.33846
12008470;-0.15000;58.6250;106;60;0.33455
12008480;-0.14500;58.2500;106;60;0.32674
12008490;-0.13500;58.1250;106;60;0.32283
12008500;-0.13000;58.1250;106;60;0.31917
12008510;-0.12000;58.3125;106;60;0.31551
12008520;-0.11000;59.9375;106;60;0.30842
12008530;-0.09500;61.6250;106;60;0.30623
12008540;-0.07500;63.8750;106;60;0.30452
12008550;-0.05500;66.6875;106;60;0.30183
12008560;-0.03500;73.4375;106;60;0.29548
12008570;-0.01000;77.2500;106;60;0.29231
12008580;0.01000;81.1250;106;60;0.28913
12008590;0.04000;84.9375;106;60;0.28620
12008600;0.07000;91.6875;106;60;0.28059
12008610;0.10000;94.5625;106;60;0.27790
12008620;0.13000;97.0625;106;60;0.27546
12008630;0.16000;99.1250;106;60;0.27399
12008640;0.19500;102.1875;106;60;0.27106
12008650;0.22500;103.1875;106;60;0.26862
12008660;0.23500;103.8750;106;60;0.26618
12008670;0.21000;104.3125;106;60;0.26349
12008680;0.15500;104.3750;106;60;0.25836
12008690;0.08000;104.1250;106;60;0.25592
12008700;0.00000;103.7500;106;60;0.25348
12008710;-0.07000;103.1875;106;60;0.25104
12008720;-0.12000;101.8750;106;60;0.24664
12008730;-0.15000;101.0625;106;60;0.24567
12008740;-0.16500;100.2500;106;60;0.24542
12008750;-0.17000;99.3125;106;60;0.24420
12008760;-0.17500;97.2500;106;60;0.24103
12008770;-0.17000;96.1250;106;60;0.23956
12008780;-0.17000;96.1250;106;60;0.23956
12008790;-0.17000;94.9375;106;60;0.23932
12008800;-0.16000;90.5000;106;60;0.24933
12008810;-0.16000;88.7500;106;60;0.25836
12008820;-0.16000;87.0000;106;60;0.27082
12008830;-0.15000;85.3750;106;60;0.28498
12008840;-0.14500;82.2500;106;60;0.32186
12008850;-0.14500;80.8125;106;60;0.34603
12008860;-0.14500;79.4375;106;60;0.37265
12008870;-0.14500;78.1875;106;60;0.40073
12008880;-0.14500;76.0000;106;60;0.45836
12008890;-0.14500;75.1250;106;60;0.48645
12008900;-0.14500;74.3750;106;60;0.51306
12008910;-0.14000;73.6875;106;60;0.53773
12008920;-0.14500;72.5000;106;60;0.57705
12008930;-0.14500;72.0000;106;60;0.59072
12008940;-0.14500;72.0000;106;60;0.59072
12008950;-0.14500;71.3125;106;60;0.61636
12008960;-0.14500;70.8125;106;60;0.63516
12008970;-0.14500;70.5625;106;60;0.64200
12008980;-0.13000;70.3750;106;60;0.64689
12008990;-0.11500;70.1250;106;60;0.65031
12009000;-0.10000;69.7500;106;60;0.65324
12009010;-0.07500;69.5625;106;60;0.65275
12009020;-0.06500;69.3750;106;60;0.65128
12009030;-0.05500;69.2500;106;60;0.64835
12009040;-0.03000;68.8125;106;60;0.64005
12009050;-0.01500;68.5625;106;60;0.63468
12009060;-0.03500;68.2500;106;60;0.62833
12009070;-0.05500;68.0000;106;60;0.62100
12009080;-0.08500;67.4375;106;60;0.60317
12009090;-0.11500;67.1250;106;60;0.59267
12009100;-0.15000;66.8750;106;60;0.58144
12009110;-0.16000;66.5625;106;60;0.56972
12009120;-0.15500;65.9375;106;60;0.54579
12009130;-0.14500;65.6250;106;60;0.53504
12009140;-0.14000;65.3750;106;60;0.52357
12009150;-0.12500;65.0625;106;60;0.51209
12009160;-0.12000;64.4375;106;60;0.49011
12009170;-0.12500;64.1875;106;60;0.47961
12009180;-0.17500;63.8750;106;60;0.46960
12009190;-0.11500;63.6250;106;60;0.46032
12009200;0.32500;63.1250;106;60;0.44371
12009210;1.10000;62.8750;106;60;0.43614
12009220;1.58000;62.6250;106;60;0.42882
12009230;1.13500;62.3750;106;60;0.42271
12009240;0.24500;61.9375;106;60;0.41172
12009250;-0.22500;61.7500;106;60;0.40586
12009260;-0.27500;61.5000;106;60;0.40024
12009270;-0.23000;61.3125;106;60;0.39487
12009280;-0.21000;60.8750;106;60;0.38510
12009290;-0.19500;60.6250;106;60;0.38071
12009300;-0.19000;60.4375;106;60;0.37680
12009310;-0.18000;60.1875;106;60;0.37338
12009320;-0.17000;59.8125;106;60;0.36752
12009330;-0.17000;59.6250;106;60;0.36532
12009340;-0.16000;59.3750;106;60;0.36239
12009350;-0.16000;59.1250;106;60;0.35922
12009360;-0.15500;58.6875;106;60;0.35263
12009370;-0.14500;58.4375;106;60;0.34872
12009380;-0.13500;58.2500;106;60;0.34457
12009390;-0.13000;58.1250;106;60;0.34042
12009400;-0.12000;57.8750;106;60;0.33260
12009410;-0.11000;57.9375;106;60;0.32894
12009420;-0.10000;58.2500;106;60;0.32552
12009430;-0.09000;59.0000;106;60;0.32308
12009440;-0.07500;62.4375;106;60;0.31917
12009450;-0.05500;65.0625;106;60;0.31648
12009460;-0.03500;68.1875;106;60;0.31355
12009470;-0.02000;71.6250;106;60;0.31038
12009480;0.00000;79.3125;106;60;0.30379
12009490;0.03000;83.2500;106;60;0.30037
12009500;0.06000;87.0000;106;60;0.29719
12009510;0.09000;90.5000;106;60;0.29402
12009520;0.12000;96.3750;106;60;0.28889
12009530;0.15500;98.7500;106;60;0.28742
12009540;0.19000;100.7500;106;60;0.28547
12009550;0.22500;102.3125;106;60;0.28327
12009560;0.25500;104.5000;106;60;0.27888
12009570;0.27000;105.1875;106;60;0.27692
12009580;0.25000;105.5625;106;60;0.27497
12009590;0.18500;105.7500;106;60;0.27277
12009600;0.10500;105.5625;106;60;0.26886
12009610;0.02000;105.2500;106;60;0.26691
12009620;-0.04500;104.7500;106;60;0.26496
12009630;-0.09000;104.2500;106;60;0.26398
12009640;-0.12000;102.8125;106;60;0.26252
12009650;-0.13500;102.0000;106;60;0.26154
12009660;-0.15000;101.1250;106;60;0.26056
12009670;-0.15500;100.1875;106;60;0.25958
12009680;-0.15500;98.0625;106;60;0.25934
12009690;-0.15000;96.9375;106;60;0.26056
12009700;-0.15000;95.6250;106;60;0.26349
12009710;-0.14500;94.1875;106;60;0.26886
12009720;-0.14500;90.8750;106;60;0.28767
12009730;-0.13500;89.1875;106;60;0.30037
12009740;-0.13500;87.5000;106;60;0.31722
12009750;-0.13500;85.8125;106;60;0.33822
12009760;-0.13000;82.8125;106;60;0.39048
12009770;-0.12500;81.3750;106;60;0.41978
12009780;-0.13000;80.0625;106;60;0.45031
12009790;-0.13500;78.9375;106;60;0.48083
12009800;-0.13500;76.9375;106;60;0.53944
12009810;-0.13500;76.1250;106;60;0.56581
12009820;-0.13000;75.4375;106;60;0.58999
12009830;-0.13000;75.4375;106;60;0.58999
12009840;-0.12500;74.3125;106;60;0.60879
12009850;-0.12500;73.5000;106;60;0.65348
12009860;-0.12500;73.1250;106;60;0.66618
12009870;-0.12500;72.8750;106;60;0.67692
12009880;-0.11500;72.4375;106;60;0.69280
12009890;-0.10500;72.2500;106;60;0.69817
12009900;-0.08500;72.0625;106;60;0.70208
12009910;-0.06500;71.8750;106;60;0.70452
12009920;-0.06000;71.5625;106;60;0.70403
12009930;-0.04000;71.3750;106;60;0.70159
12009940;-0.02500;71.1250;106;60;0.69890
12009950;-0.03500;70.8750;106;60;0.69573
12009960;-0.05500;70.3750;106;60;0.68645
12009970;-0.07500;70.1250;106;60;0.68010
12009980;-0.11500;69.8125;106;60;0.67253
12009990;-0.15500;69.5625;106;60;0.66398
12010000;-0.17500;69.0625;107;60;0.64322
12010010;-0.17500;68.7500;107;60;0.63150
12010020;-0.17000;68.5000;107;60;0.61929
12010030;-0.16000;68.2500;107;60;0.60757
12010040;-0.16000;68.2500;107;60;0.60757
12010050;-0.14500;67.4375;107;60;0.57094
12010060;-0.14500;67.1250;107;60;0.55824
12010070;-0.19000;66.8750;107;60;0.54603
12010080;-0.14500;66.3125;107;60;0.52308
12010090;0.26000;66.0000;107;60;0.51258
12010100;1.04500;65.7500;107;60;0.50256
12010110;1.64500;65.5000;107;60;0.49328
12010120;1.27000;65.0000;107;60;0.47546
12010130;0.34500;64.7500;107;60;0.46789
12010140;-0.20500;64.5000;107;60;0.46252
12010150;-0.30000;64.2500;107;60;0.45665
12010160;-0.26000;63.7500;107;60;0.44518
12010170;-0.24000;63.5000;107;60;0.43980
12010180;-0.23000;63.2500;107;60;0.43468
12010190;-0.22000;62.9375;107;60;0.43004
12010200;-0.21000;62.4375;107;60;0.42149
12010210;-0.20500;62.2500;107;60;0.41783
12010220;-0.19500;62.0000;107;60;0.41416
12010230;-0.18500;61.7500;107;60;0.41099
12010240;-0.18000;61.2500;107;60;0.40488
12010250;-0.18000;61.0000;107;60;0.40122
12010260;-0.17000;60.6875;107;60;0.39756
12010270;-0.16000;60.5000;107;60;0.39390
12010280;-0.15500;60.1875;107;60;0.38681
12010290;-0.14500;60.1250;107;60;0.38852
12010300;-0.14000;60.2500;107;60;0.39292
12010310;-0.13000;60.6250;107;60;0.39341
12010320;-0.11500;63.0000;107;60;0.39072
12010330;-0.09500;65.1250;107;60;0.38950
12010340;-0.08000;67.8750;107;60;0.38730
12010350;-0.06000;71.1250;107;60;0.38486
12010360;-0.03500;78.6875;107;60;0.37924
12010370;-0.01500;82.7500;107;60;0.37631
12010380;0.01000;86.8125;107;60;0.37314
12010390;0.01000;86.8125;107;60;0.37314
12010400;0.07500;97.4375;107;60;0.36484
12010410;0.11000;100.2500;107;60;0.36264
12010420;0.11000;100.2500;107;60;0.36264
12010430;0.18000;104.6250;107;60;0.35897
12010440;0.18000;104.6250;107;60;0.35897
12010450;0.22500;107.3750;107;60;0.35629
12010460;0.25000;108.8750;107;60;0.35189
12010470;0.23500;109.2500;107;60;0.34994
12010480;0.18500;109.3750;107;60;0.34579
12010490;0.11000;109.1875;107;60;0.34383
12010500;0.03000;108.8750;107;60;0.34212
12010510;-0.03500;108.3750;107;60;0.34042
12010520;-0.08500;107.1875;107;60;0.33724
12010530;-0.11000;106.4375;107;60;0.33651
12010540;-0.12500;105.6250;107;60;0.33504
12010550;-0.13500;104.8125;107;60;0.33309
12010560;-0.13500;103.0000;107;60;0.32967
12010570;-0.13000;101.9375;107;60;0.32894
12010580;-0.12500;100.8125;107;60;0.32943
12010590;-0.12500;100.8125;107;60;0.32943
12010600;-0.12500;96.5625;107;60;0.34530
12010610;-0.12000;94.8750;107;60;0.36313
12010620;-0.11500;93.1250;107;60;0.38266
12010630;-0.11500;91.3750;107;60;0.39585
12010640;-0.12500;88.0000;107;60;0.43639
12010650;-0.12500;86.4375;107;60;0.46422
12010660;-0.12500;84.9375;107;60;0.49475
12010670;-0.13000;83.5625;107;60;0.52650
12010680;-0.13000;81.1250;107;60;0.58974
12010690;-0.13000;80.1250;107;60;0.61954
12010700;-0.13500;79.1875;107;60;0.64713
12010710;-0.13500;78.4375;107;60;0.67228
12010720;-0.12500;77.1250;107;60;0.71160
12010730;-0.11500;76.6250;107;60;0.72479
12010740;-0.11500;76.2500;107;60;0.73822
12010750;-0.11000;75.8750;107;60;0.75043
12010760;-0.10500;75.2500;107;60;0.77021
12010770;-0.10500;75.0000;107;60;0.77753
12010780;-0.10500;74.7500;107;60;0.78315
12010790;-0.10500;74.5625;107;60;0.78730
12010800;-0.10000;74.1875;107;60;0.79170
12010810;-0.09500;74.0000;107;60;0.79194
12010820;-0.09000;73.8125;107;60;0.79023
12010830;-0.08500;73.5625;107;60;0.78706
12010840;-0.06500;73.1250;107;60;0.77949
12010850;-0.04500;72.8125;107;60;0.77460
12010860;-0.03000;72.5625;107;60;0.76850
12010870;-0.03000;72.5625;107;60;0.76850
12010880;0.00000;71.6875;107;60;0.74286
12010890;0.00000;71.3750;107;60;0.73211
12010900;-0.01500;71.0625;107;60;0.72015
12010910;-0.04000;70.7500;107;60;0.70745
12010920;-0.06500;70.0000;107;60;0.68132
12010930;-0.10500;69.6250;107;60;0.66911
12010940;-0.12500;69.2500;107;60;0.65617
12010950;-0.13500;68.8750;107;60;0.64298
12010960;-0.12500;68.0625;107;60;0.61709
12010970;-0.12000;67.6875;107;60;0.60464
12010980;-0.10500;67.3125;107;60;0.59267
12010990;-0.10000;66.8750;107;60;0.57900
12011000;-0.10000;66.1250;107;60;0.55897
12011010;-0.14500;65.8125;107;60;0.55043
12011020;-0.12000;65.4375;107;60;0.54261
12011030;0.24500;65.1250;107;60;0.53578
12011040;0.24500;65.1250;107;60;0.53578
12011050;1.62000;64.1250;107;60;0.51526
12011060;1.43500;63.8125;107;60;0.50916
12011070;0.51500;63.5000;107;60;0.50305
12011080;-0.13500;62.8750;107;60;0.49158
12011090;-0.26000;62.6250;107;60;0.48645
12011100;-0.23500;62.3125;107;60;0.48156
12011110;-0.22000;62.0000;107;60;0.47692
12011120;-0.21000;61.5000;107;60;0.46813
12011130;-0.20000;61.1875;107;60;0.46520
12011140;-0.19000;60.9375;107;60;0.46081
12011150;-0.19000;60.6875;107;60;0.45543
12011160;-0.18000;60.1875;107;60;0.44737
12011170;-0.17000;59.9375;107;60;0.44469
12011180;-0.17000;59.6875;107;60;0.44151
12011190;-0.16500;59.4375;107;60;0.43810
12011200;-0.15500;58.9375;107;60;0.43004
12011210;-0.15000;58.6875;107;60;0.42613
12011220;-0.14000;58.5625;107;60;0.42393
12011230;-0.13000;58.4375;107;60;0.42173
12011240;-0.12000;58.7500;107;60;0.41416
12011250;-0.10500;59.4375;107;60;0.41123
12011260;-0.09000;60.7500;107;60;0.40806
12011270;-0.07500;62.6250;107;60;0.40366
12011280;-0.05000;68.2500;107;60;0.39585
12011290;-0.03500;71.7500;107;60;0.39267
12011300;-0.01000;75.6250;107;60;0.38877
12011310;0.01000;79.7500;107;60;0.38510
12011320;0.03500;87.9375;107;60;0.38022
12011330;0.06000;91.6875;107;60;0.37778
12011340;0.09000;95.1250;107;60;0.37607
12011350;0.12000;98.1250;107;60;0.37363
12011360;0.15000;102.8750;107;60;0.36752
12011370;0.15000;102.8750;107;60;0.36752
12011380;0.21000;106.0000;107;60;0.36215
12011390;0.24000;107.0625;107;60;0.35971
12011400;0.25500;108.2500;107;60;0.35507
12011410;0.25000;108.4375;107;60;0.35336
12011420;0.21000;108.5000;107;60;0.35238
12011430;0.14000;108.3125;107;60;0.35092
12011440;0.06500;107.5000;107;60;0.34701
12011450;-0.00500;106.9375;107;60;0.34505
12011460;-0.06000;106.1875;107;60;0.34286
12011470;-0.09500;105.4375;107;60;0.34042
12011480;-0.11500;103.7500;107;60;0.33578
12011490;-0.13500;102.8125;107;60;0.33358
12011500;-0.14000;101.8125;107;60;0.33211
12011510;-0.14500;100.7500;107;60;0.33187
12011520;-0.14500;98.2500;107;60;0.33724
12011530;-0.14500;96.8125;107;60;0.34335
12011540;-0.14500;95.2500;107;60;0.35263
12011550;-0.14500;93.5625;107;60;0.36581
12011560;-0.14000;89.9375;107;60;0.40513
12011570;-0.14000;88.1875;107;60;0.43053
12011580;-0.13500;86.4375;107;60;0.45861
12011590;-0.13500;86.4375;107;60;0.45861
12011600;-0.13000;81.8750;107;60;0.55214
12011610;-0.12500;80.5625;107;60;0.57900
12011620;-0.12000;79.4375;107;60;0.60269
12011630;-0.11500;78.4375;107;60;0.62808
12011640;-0.11500;76.6875;107;60;0.67619
12011650;-0.11500;76.0000;107;60;0.69744
12011660;-0.11500;75.4375;107;60;0.71624
12011670;-0.12000;74.9375;107;60;0.73260
12011680;-0.12000;74.0625;107;60;0.75800
12011690;-0.11500;73.6875;107;60;0.76728
12011700;-0.11500;73.3750;107;60;0.77460
12011710;-0.11500;73.1250;107;60;0.78022
12011720;-0.11500;72.5625;107;60;0.78315
12011730;-0.11000;72.3750;107;60;0.78364
12011740;-0.10500;72.1250;107;60;0.78339
12011750;-0.10000;71.8750;107;60;0.78242
12011760;-0.09500;71.3750;107;60;0.77656
12011770;-0.09500;71.1875;107;60;0.77167
12011780;-0.07500;70.9375;107;60;0.76532
12011790;-0.05500;70.6875;107;60;0.75800
12011800;-0.05500;70.0625;107;60;0.73944
12011810;-0.04000;69.7500;107;60;0.72894
12011820;-0.01500;69.5000;107;60;0.71795
12011830;-0.01500;69.1875;107;60;0.70574
12011840;-0.04000;68.5625;107;60;0.67839
12011850;-0.06500;68.2500;107;60;0.66374
12011860;-0.09000;67.8750;107;60;0.64884
12011870;-0.12500;67.5625;107;60;0.63394
12011880;-0.14000;66.8750;107;60;0.60464
12011890;-0.14500;66.5000;107;60;0.59048
12011900;-0.13500;66.1875;107;60;0.57705
12011910;-0.12500;65.8750;107;60;0.56410
12011920;-0.11500;65.2500;107;60;0.54237
12011930;-0.10500;64.9375;107;60;0.53162
12011940;-0.09500;64.6250;107;60;0.52112
12011950;-0.13500;64.3125;107;60;0.51111
12011960;-0.13500;63.6875;107;60;0.49255
12011970;0.15500;63.4375;107;60;0.48376
12011980;0.85500;63.1875;107;60;0.47546
12011990;1.53500;62.9375;107;60;0.46740
12012000;1.39500;62.4375;107;60;0.45226
12012010;0.51500;62.1875;107;60;0.44615
12012020;-0.13500;61.9375;107;60;0.44103
12012030;-0.28000;61.6250;107;60;0.43541
12012040;-0.24000;61.1875;107;60;0.42369
12012050;-0.21500;60.9375;107;60;0.41807
12012060;-0.20500;60.6875;107;60;0.41245
12012070;-0.19500;60.4375;107;60;0.40659
12012080;-0.18000;59.9375;107;60;0.39536
12012090;-0.17000;59.6875;107;60;0.39023
12012100;-0.16000;59.4375;107;60;0.38486
12012110;-0.15500;59.1875;107;60;0.37949
12012120;-0.15500;58.7500;107;60;0.37167
12012130;-0.14500;58.5625;107;60;0.36752
12012140;-0.14000;58.3750;107;60;0.36264
12012150;-0.14000;58.1875;107;60;0.35751
12012160;-0.13500;57.8125;107;60;0.34774
12012170;-0.12500;57.6875;107;60;0.34310
12012180;-0.12000;57.6250;107;60;0.33846
12012190;-0.11000;57.6875;107;60;0.33407
12012200;-0.11000;57.6875;107;60;0.33407
12012210;-0.08500;60.5000;107;60;0.32210
12012220;-0.07000;62.6250;107;60;0.31966
12012230;-0.05500;65.2500;107;60;0.31648
12012240;-0.03500;71.7500;107;60;0.30940
12012250;-0.01000;75.5000;107;60;0.30574
12012260;0.01500;79.3750;107;60;0.30208
12012270;0.04000;83.1875;107;60;0.29841
12012280;0.07500;90.1250;107;60;0.29182
12012290;0.11000;93.0625;107;60;0.28864
12012300;0.14500;95.6875;107;60;0.28547
12012310;0.17500;97.8125;107;60;0.28254
12012320;0.21000;101.0000;107;60;0.27937
12012330;0.23500;102.0625;107;60;0.27033
12012340;0.26500;102.8750;107;60;0.25763
12012350;0.26500;103.3750;107;60;0.24982
12012360;0.22500;103.6250;107;60;0.24029
12012370;0.15500;103.3750;107;60;0.23663
12012380;0.07000;103.0625;107;60;0.23370
12012390;-0.01000;102.5625;107;60;0.23101
12012400;-0.07000;101.3125;107;60;0.22662
12012410;-0.11500;100.5000;107;60;0.22564
12012420;-0.14000;99.6875;107;60;0.22515
12012430;-0.16000;98.7500;107;60;0.22393
12012440;-0.16500;96.7500;107;60;0.22100
12012450;-0.16500;95.6875;107;60;0.22027
12012460;-0.16500;94.5000;107;60;0.22051
12012470;-0.16000;93.1875;107;60;0.22247
12012480;-0.16000;90.1250;107;60;0.23370
12012490;-0.16000;88.5000;107;60;0.24420
12012500;-0.15500;86.8125;107;60;0.25861
12012510;-0.15500;85.1875;107;60;0.27692
12012520;-0.15500;82.0625;107;60;0.31624
12012530;-0.15500;80.5625;107;60;0.34115
12012540;-0.15000;79.1875;107;60;0.36874
12012550;-0.15500;77.9375;107;60;0.39756
12012560;-0.15000;75.7500;107;60;0.45519
12012570;-0.15000;74.8750;107;60;0.48254
12012580;-0.15500;74.0625;107;60;0.50818
12012590;-0.15000;73.3750;107;60;0.53162
12012600;-0.14500;72.2500;107;60;0.57094
12012610;-0.14500;71.8125;107;60;0.58462
12012620;-0.14500;71.4375;107;60;0.59536
12012630;-0.14000;71.0625;107;60;0.60586
12012640;-0.13500;70.5000;107;60;0.62320
12012650;-0.13500;70.2500;107;60;0.62955
12012660;-0.12500;70.0625;107;60;0.63419
12012670;-0.11000;69.8125;107;60;0.63712
12012680;-0.09500;69.4375;107;60;0.63810
12012690;-0.08000;69.1875;107;60;0.63663
12012700;-0.06500;69.0000;107;60;0.63419
12012710;-0.03500;68.8125;107;60;0.63053
12012720;-0.01500;68.4375;107;60;0.62100
12012730;-0.02500;68.1875;107;60;0.61514
12012740;-0.04500;67.9375;107;60;0.60806
12012750;-0.06500;67.6875;107;60;0.60000
12012760;-0.09500;67.1250;107;60;0.58046
12012770;-0.13000;66.8750;107;60;0.56923
12012780;-0.14500;66.5625;107;60;0.55727
12012790;-0.14500;66.2500;107;60;0.54505
12012800;-0.13500;65.6875;107;60;0.52015
12012810;-0.13500;65.3750;107;60;0.50891
12012820;-0.12000;65.0625;107;60;0.49866
12012830;-0.11500;64.7500;107;60;0.48767
12012840;-0.12000;64.1250;107;60;0.46496
12012850;-0.16500;63.8750;107;60;0.45397
12012860;-0.13000;63.5625;107;60;0.44347
12012870;0.26500;63.2500;107;60;0.43346
12012880;1.02500;62.6875;107;60;0.41538
12012890;1.57000;62.3750;107;60;0.40733
12012900;1.19000;62.1250;107;60;0.40000
12012910;0.29500;61.8750;107;60;0.39414
12012920;-0.22000;61.4375;107;60;0.38388
12012930;-0.29500;61.1875;107;60;0.37875
12012940;-0.25000;60.9375;107;60;0.37387
12012950;-0.22000;60.6875;107;60;0.36899
12012960;-0.22000;60.6875;107;60;0.36899
12012970;-0.20000;60.0000;107;60;0.35482
12012980;-0.19000;59.7500;107;60;0.35043
12012990;-0.18000;59.5000;107;60;0.34603
12013000;-0.17000;59.0625;107;60;0.33797
12013010;-0.16000;58.8750;107;60;0.33504
12013020;-0.15500;58.6250;107;60;0.33260
12013030;-0.15500;58.3750;107;60;0.32967
12013040;-0.14500;57.9375;107;60;0.32259
12013050;-0.14000;57.6875;107;60;0.31868
12013060;-0.13500;57.5000;107;60;0.31477
12013070;-0.12500;57.3750;107;60;0.31087
12013080;-0.12000;57.3125;107;60;0.30330
12013090;-0.11500;57.6250;107;60;0.30012
12013100;-0.10500;58.3125;107;60;0.29695
12013110;-0.09500;59.5625;107;60;0.29475
12013120;-0.08000;63.7500;107;60;0.29060
12013130;-0.06000;66.6250;107;60;0.28767
12013140;-0.04000;69.8750;107;60;0.28474
12013150;-0.01500;73.3750;107;60;0.28181
12013160;0.01500;80.8125;107;60;0.27546
12013170;0.04000;84.4375;107;60;0.27253
12013180;0.08000;87.8125;107;60;0.26960
12013190;0.11500;90.8750;107;60;0.26667
12013200;0.15000;95.8750;107;60;0.26056
12013210;0.18000;97.8125;107;60;0.25885
12013220;0.21000;99.3750;107;60;0.25763
12013230;0.23500;100.6250;107;60;0.25568
12013240;0.25000;102.1875;107;60;0.25128
12013250;0.22500;102.5625;107;60;0.24908
12013260;0.17500;102.6875;107;60;0.24689
12013270;0.09500;102.6250;107;60;0.24518
12013280;0.01000;101.9375;107;60;0.24127
12013290;-0.05500;101.4375;107;60;0.23932
12013300;-0.11000;100.8750;107;60;0.23712
12013310;-0.14500;100.1875;107;60;0.23590
12013320;-0.16000;98.6250;107;60;0.23394
12013330;-0.16500;97.8125;107;60;0.23272
12013340;-0.16000;96.8125;107;60;0.23175
12013350;-0.16000;95.7500;107;60;0.23101
12013360;-0.15500;93.3750;107;60;0.23248
12013370;-0.14500;92.0000;107;60;0.23590
12013380;-0.13500;90.5000;107;60;0.24200
12013390;-0.13500;88.8125;107;60;0.25128
12013400;-0.13500;85.4375;107;60;0.28107
12013410;-0.14000;83.8125;107;60;0.29866
12013420;-0.14500;82.2500;107;60;0.31795
12013430;-0.14000;80.8125;107;60;0.34164
12013440;-0.13500;78.0625;107;60;0.39707
12013450;-0.13500;76.8750;107;60;0.42637
12013460;-0.13500;76.8750;107;60;0.42637
12013470;-0.13500;74.8125;107;60;0.48352
12013480;-0.13500;73.2500;107;60;0.53455
12013490;-0.13500;72.6250;107;60;0.55702
12013500;-0.13500;72.0625;107;60;0.57705
12013510;-0.13500;71.5625;107;60;0.59243
12013520;-0.13500;70.8125;107;60;0.61636
12013530;-0.13000;70.5000;107;60;0.62711
12013540;-0.12500;70.2500;107;60;0.63639
12013550;-0.12500;69.9375;107;60;0.64396
12013560;-0.11000;69.5000;107;60;0.65397
12013570;-0.09500;69.3125;107;60;0.65665
12013580;-0.08500;69.0625;107;60;0.65788
12013590;-0.06500;68.8750;107;60;0.65788
12013600;-0.04000;68.5000;107;60;0.65372
12013610;-0.03000;68.3125;107;60;0.65006
12013620;-0.00500;68.1250;107;60;0.64518
12013630;0.01000;67.8750;107;60;0.63932
12013640;0.01000;67.8750;107;60;0.63932
12013650;-0.02000;67.1875;107;60;0.61636
12013660;-0.04500;66.9375;107;60;0.60635
12013670;-0.07500;66.6250;107;60;0.59536
12013680;-0.10500;66.0625;107;60;0.57021
12013690;-0.12500;65.8125;107;60;0.55678
12013700;-0.13500;65.5000;107;60;0.54335
12013710;-0.12500;65.2500;107;60;0.53138
12013720;-0.12500;65.2500;107;60;0.53138
12013730;-0.10500;64.3750;107;60;0.49670
12013740;-0.10500;64.3750;107;60;0.49670
12013750;-0.09500;63.8125;107;60;0.47424
12013760;-0.14500;63.2500;107;60;0.45348
12013770;-0.13000;63.0000;107;60;0.44420
12013780;0.18500;62.7500;107;60;0.43541
12013790;0.92500;62.5000;107;60;0.42711
12013800;1.60500;62.0000;107;60;0.41197
12013810;1.35500;61.7500;107;60;0.40586
12013820;0.46500;61.5625;107;60;0.40049
12013830;-0.13000;61.3125;107;60;0.39487
12013840;-0.27000;60.8750;107;60;0.38413
12013850;-0.24000;60.6875;107;60;0.37900
12013860;-0.21500;60.5000;107;60;0.37436
12013870;-0.20500;60.3125;107;60;0.36996
12013880;-0.20000;59.8750;107;60;0.36142
12013890;-0.19500;59.6875;107;60;0.35751
12013900;-0.19000;59.4375;107;60;0.35336
12013910;-0.19000;59.2500;107;60;0.35018
12013920;-0.18000;58.8125;107;60;0.34432
12013930;-0.17500;58.5625;107;60;0.34090
12013940;-0.16500;58.3750;107;60;0.33748
12013950;-0.15500;58.1875;107;60;0.33407
12013960;-0.14500;57.7500;107;60;0.32723
12013970;-0.14000;57.6250;107;60;0.32381
12013980;-0.13000;57.5000;107;60;0.32063
12013990;-0.12000;57.5000;107;60;0.31746
12014000;-0.11500;58.1875;106;60;0.31111
12014010;-0.09500;59.3125;106;60;0.30891
12014020;-0.08500;61.0000;106;60;0.30745
12014030;-0.06500;63.3750;106;60;0.30525
12014040;-0.04500;69.5625;106;60;0.30012
12014050;-0.02500;73.1875;106;60;0.29744
12014060;-0.00500;77.0000;106;60;0.29426
12014070;0.02000;81.0000;106;60;0.29133
12014080;0.05000;88.5625;106;60;0.28571
12014090;0.08000;91.8750;106;60;0.28327
12014100;0.12000;94.8750;106;60;0.28107
12014110;0.15000;97.4375;106;60;0.27985
12014120;0.17500;101.4375;106;60;0.27790
12014130;0.20500;102.8750;106;60;0.27619
12014140;0.24500;104.0000;106;60;0.27424
12014150;0.26500;104.8750;106;60;0.27228
12014160;0.25500;105.7500;106;60;0.26813
12014170;0.21000;105.8750;106;60;0.26569
12014180;0.13500;105.7500;106;60;0.26349
12014190;0.05000;105.4375;106;60;0.26154
12014200;-0.02500;104.5625;106;60;0.25739
12014210;-0.08500;103.9375;106;60;0.25641
12014220;-0.12000;103.2500;106;60;0.25592
12014230;-0.13500;102.5000;106;60;0.25495
12014240;-0.14000;100.8125;106;60;0.25250
12014250;-0.14500;99.9375;106;60;0.25153
12014260;-0.14500;98.8750;106;60;0.25128
12014270;-0.14000;97.7500;106;60;0.25226
12014280;-0.13500;95.1250;106;60;0.26081
12014290;-0.13000;93.6250;106;60;0.26960
12014300;-0.12500;92.0625;106;60;0.28205
12014310;-0.12500;90.3750;106;60;0.29621
12014320;-0.12500;86.9375;106;60;0.33407
12014330;-0.12500;85.3750;106;60;0.35946
12014340;-0.12500;83.8750;106;60;0.38779
12014350;-0.12500;82.4375;106;60;0.41783
12014360;-0.12500;79.8125;106;60;0.48010
12014370;-0.13500;78.7500;106;60;0.51062
12014380;-0.13500;77.7500;106;60;0.55971
12014390;-0.13500;76.8750;106;60;0.61783
12014400;-0.13500;75.3750;106;60;0.68889
12014410;-0.13500;74.8125;106;60;0.71038
12014420;-0.13000;74.3125;106;60;0.73040
12014430;-0.12500;73.8750;106;60;0.74823
12014440;-0.12500;73.1875;106;60;0.77680
12014450;-0.12500;72.9375;106;60;0.78755
12014460;-0.12000;72.6875;106;60;0.79609
12014470;-0.11500;72.5000;106;60;0.80269
12014480;-0.10500;72.1250;106;60;0.81026
12014490;-0.09000;71.9375;106;60;0.81172
12014500;-0.06500;71.7500;106;60;0.81172
12014510;-0.06000;71.5000;106;60;0.80977
12014520;-0.04000;71.0625;106;60;0.80220
12014530;-0.01500;70.8750;106;60;0.79731
12014540;-0.01500;70.6250;106;60;0.79145
12014550;-0.04500;70.3750;106;60;0.78437
12014560;-0.06500;69.8750;106;60;0.76581
12014570;-0.09500;69.5625;106;60;0.75482
12014580;-0.12500;69.3125;106;60;0.74286
12014590;-0.15000;69.0000;106;60;0.72991
12014600;-0.15500;68.4375;106;60;0.70305
12014610;-0.15000;68.1875;106;60;0.69011
12014620;-0.14500;67.8750;106;60;0.67619
12014630;-0.13500;67.6250;106;60;0.66178
12014640;-0.12500;67.0000;106;60;0.63297
12014650;-0.12500;66.6875;106;60;0.61954
12014660;-0.16500;66.3750;106;60;0.60684
12014670;-0.14500;66.0625;106;60;0.59463
12014680;0.20000;65.4375;106;60;0.57192
12014690;0.95000;65.1875;106;60;0.56142
12014700;1.63500;64.8750;106;60;0.55165
12014710;1.40500;64.6250;106;60;0.54359
12014720;0.49500;64.0625;106;60;0.52845
12014730;-0.15000;63.8125;106;60;0.52088
12014740;-0.29500;63.5625;106;60;0.51380
12014750;-0.26000;63.3750;106;60;0.50720
12014760;-0.24000;62.8750;106;60;0.49548
12014770;-0.23000;62.6875;106;60;0.49011
12014780;-0.22000;62.4375;106;60;0.48498
12014790;-0.21000;62.2500;106;60;0.48034
12014800;-0.20000;61.6875;106;60;0.47179
12014810;-0.20000;61.4375;106;60;0.46813
12014820;-0.19500;61.1875;106;60;0.46398
12014830;-0.19000;61.0000;106;60;0.45958
12014840;-0.18000;60.5625;106;60;0.45128
12014850;-0.18000;60.5625;106;60;0.45128
12014860;-0.16000;60.1250;106;60;0.44322
12014870;-0.15000;59.9375;106;60;0.43932
12014880;-0.14500;59.8125;106;60;0.43199
12014890;-0.14000;60.0000;106;60;0.42833
12014900;-0.12500;60.5000;106;60;0.42491
12014910;-0.10500;61.5625;106;60;0.42222
12014920;-0.09000;65.6875;106;60;0.41661
12014930;-0.07500;68.6250;106;60;0.41343
12014940;-0.05500;72.0625;106;60;0.41026
12014950;-0.03500;75.8125;106;60;0.40684
12014960;-0.01000;83.9375;106;60;0.40024
12014970;0.01500;87.9375;106;60;0.39683
12014980;0.04500;91.8125;106;60;0.39365
12014990;0.07500;95.2500;106;60;0.39072
12015000;0.11000;100.9375;107;60;0.38584
12015010;0.15000;103.1875;107;60;0.38413
12015020;0.19000;105.0000;107;60;0.38217
12015030;0.19000;105.0000;107;60;0.38217
12015040;0.25000;108.3750;107;60;0.37558
12015050;0.26500;108.8750;107;60;0.37338
12015060;0.25500;109.1875;107;60;0.37143
12015070;0.20500;109.2500;107;60;0.36947
12015080;0.13000;108.9375;107;60;0.36557
12015090;0.05000;108.5625;107;60;0.36361
12015100;-0.01500;108.1250;107;60;0.36190
12015110;-0.06500;107.5625;107;60;0.36093
12015120;-0.09500;106.2500;107;60;0.35873
12015130;-0.11500;105.5000;107;60;0.35702
12015140;-0.12500;104.6250;107;60;0.35531
12015150;-0.13167;103.7188;107;60;0.35401
12015160;-0.13500;102.7500;107;60;0.35360
12015170;-0.13500;101.6875;107;60;0.35458
12015180;-0.13500;100.4375;107;60;0.35800
12015190;-0.12500;99.1250;107;60;0.36435
12015200;-0.12500;96.0625;107;60;0.38852
12015210;-0.12500;94.3125;107;60;0.40440
12015220;-0.13000;92.5000;107;60;0.42271
12015230;-0.13000;90.6875;107;60;0.44713
12015240;-0.13000;87.3125;107;60;0.50842
12015250;-0.13500;85.7500;107;60;0.54286
12015260;-0.13500;84.2500;107;60;0.57827
12015270;-0.13500;82.8125;107;60;0.61368
12015280;-0.13000;80.4375;107;60;0.68010
12015290;-0.12500;79.3750;107;60;0.71013
12015300;-0.12500;79.3750;107;60;0.71013
12015310;-0.11500;77.6875;107;60;0.76264
12015320;-0.11500;76.3125;107;60;0.79634
12015330;-0.11000;75.8125;107;60;0.81148
12015340;-0.10500;75.3750;107;60;0.82540
12015350;-0.10500;75.0000;107;60;0.83761
12015360;-0.10500;74.3750;107;60;0.85617
12015370;-0.10500;74.0625;107;60;0.86276
12015380;-0.10500;73.7500;107;60;0.86764
12015390;-0.10500;73.4375;107;60;0.87082
12015400;-0.10500;72.8750;107;60;0.87277
12015410;-0.09500;72.5625;107;60;0.87082
12015420;-0.08500;72.3125;107;60;0.86716
12015430;-0.06500;72.0000;107;60;0.86349
12015440;-0.05500;71.3750;107;60;0.85372
12015450;-0.05500;71.0000;107;60;0.84689
12015460;-0.03500;70.6875;107;60;0.83883
12015470;-0.01500;70.3750;107;60;0.82930
12015480;-0.04000;69.7500;107;60;0.80586
12015490;-0.06000;69.4375;107;60;0.79243
12015500;-0.08500;69.1250;107;60;0.77802
12015510;-0.11500;68.8125;107;60;0.76288
12015520;-0.14000;68.1875;107;60;0.73480
12015530;-0.14000;68.1875;107;60;0.73480
12015540;-0.15000;67.5625;107;60;0.70525
12015550;-0.14000;67.2500;107;60;0.69035
12015560;-0.13000;66.5625;107;60;0.66154
12015570;-0.12000;66.2500;107;60;0.64811
12015580;-0.11500;65.8750;107;60;0.63516
12015590;-0.11500;65.8750;107;60;0.63516
12015600;0.15500;98.3125;107;60;0.36557
12015610;0.15500;98.3125;107;60;0.36557
12015620;0.15500;98.3125;107;60;0.36557
12015630;0.15500;98.3125;107;60;0.36557
12015640;0.15500;98.3125;107;60;0.36557
12015650;0.15500;98.3125;107;60;0.36557
12015660;0.15500;98.3125;107;60;0.36557
12015670;0.15500;98.3125;107;60;0.36557
12015680;0.15500;98.3125;107;60;0.36557
12015690;0.15500;98.3125;107;60;0.36557
12015700;0.15500;98.3125;107;60;0.36557
12015710;0.15500;98.3125;107;60;0.36557
12015720;0.15500;98.3125;107;60;0.36557
12015730;0.15500;98.3125;107;60;0.36557
12015740;0.15500;98.3125;107;60;0.36557
12015750;0.15500;98.3125;107;60;0.36557
12015760;0.15500;98.3125;107;60;0.36557
12015770;0.15500;98.3125;107;60;0.36557
12015780;0.25000;105.1250;107;60;0.35018
12015790;0.25000;105.1250;107;60;0.35018
12015800;0.25000;105.1250;107;60;0.35018
12015810;0.25000;105.1250;107;60;0.35018
12015820;0.25000;105.1250;107;60;0.35018
12015830;0.25000;105.1250;107;60;0.35018
12015840;0.25000;105.1250;107;60;0.35018
12015850;0.25000;105.1250;107;60;0.35018
12015860;0.25000;105.1250;107;60;0.35018
12015870;0.25000;105.1250;107;60;0.35018
12015880;0.25000;105.1250;107;60;0.35018
12015890;0.25000;105.1250;107;60;0.35018
12015900;0.25000;105.1250;107;60;0.35018
12015910;0.25000;105.1250;107;60;0.35018
12015920;0.25000;105.1250;107;60;0.35018
12015930;0.25000;105.1250;107;60;0.35018
12015940;0.25000;105.1250;107;60;0.35018
12015950;0.22500;105.7500;107;60;0.34481
12015960;0.22500;105.7500;107;60;0.34481
12015970;0.22500;105.7500;107;60;0.34481
12015980;0.22500;105.7500;107;60;0.34481
12015990;0.22500;105.7500;107;60;0.34481
12016000;0.22500;105.7500;106;59;0.34481
12016010;0.16500;105.6875;106;59;0.34286
12016020;0.09000;105.5000;106;59;0.34139
12016030;0.01500;105.1875;106;59;0.33944
12016040;-0.04500;104.1875;106;59;0.33431
12016050;-0.08500;103.5625;106;59;0.33162
12016060;-0.08500;103.5625;106;59;0.33162
12016070;-0.12500;102.0625;106;59;0.32601
12016080;-0.13500;100.3125;106;59;0.32039
12016090;-0.13500;99.3750;106;59;0.31795
12016100;-0.13500;98.3125;106;59;0.31648
12016110;-0.13500;97.1250;106;59;0.31673
12016120;-0.13500;94.4375;106;59;0.32357
12016130;-0.13000;92.8125;106;59;0.33138
12016140;-0.12500;91.1250;106;59;0.34310
12016150;-0.12500;89.3125;106;59;0.35946
12016160;-0.12500;85.8750;106;59;0.40513
12016170;-0.11500;84.2500;106;59;0.43419
12016180;-0.11500;82.7500;106;59;0.46569
12016190;-0.12000;81.2500;106;59;0.49890
12016200;-0.12500;78.7500;106;59;0.56581
12016210;-0.12500;77.6250;106;59;0.59365
12016220;-0.13000;76.6875;106;59;0.61758
12016230;-0.12500;75.8125;106;59;0.64298
12016240;-0.12500;74.4375;106;59;0.68987
12016250;-0.12500;73.8750;106;59;0.71013
12016260;-0.12000;73.3750;106;59;0.72796
12016270;-0.12500;72.8750;106;59;0.74310
12016280;-0.12500;72.1250;106;59;0.76679
12016290;-0.12500;71.8125;106;59;0.77534
12016300;-0.12500;71.5000;106;59;0.78193
12016310;-0.12000;71.2500;106;59;0.78535
12016320;-0.10500;70.7500;106;59;0.78755
12016330;-0.08500;70.5625;106;59;0.78730
12016340;-0.08000;70.3750;106;59;0.78608
12016350;-0.05500;70.1250;106;59;0.78388
12016360;-0.03500;69.6250;106;59;0.77631
12016370;-0.03500;69.3750;106;59;0.77070
12016380;-0.05500;69.1250;106;59;0.76361
12016390;-0.07500;68.8750;106;59;0.75482
12016400;-0.10000;68.3125;106;59;0.73309
12016410;-0.14000;68.0000;106;59;0.72161
12016420;-0.16000;67.6875;106;59;0.70965
12016430;-0.15500;67.3750;106;59;0.69646
12016440;-0.15000;66.7500;106;59;0.60488
12016450;-0.13500;66.4375;106;59;0.57216
12016460;-0.12500;66.1250;106;59;0.54896
12016470;-0.11500;65.8125;106;59;0.53040
12016480;-0.11000;65.1875;106;59;0.50012
12016490;-0.11000;65.1875;106;59;0.50012
12016500;-0.12500;64.6250;106;59;0.47375
12016510;0.18500;64.3125;106;59;0.46325
12016520;0.90500;63.8125;106;59;0.44396
12016530;1.58000;63.6250;106;59;0.43468
12016540;1.34000;63.3750;106;59;0.42589
12016550;0.44500;63.1250;106;59;0.41734
12016560;-0.16000;62.5625;106;59;0.40171
12016570;-0.29000;62.3125;106;59;0.39414
12016580;-0.25000;62.0625;106;59;0.38706
12016590;-0.22000;61.8125;106;59;0.38071
12016600;-0.21000;61.3125;106;59;0.36874
12016610;-0.20000;61.0000;106;59;0.36435
12016620;-0.19500;60.7500;106;59;0.36044
12016630;-0.18500;60.5000;106;59;0.35580
12016640;-0.18000;60.0000;106;59;0.34579
12016650;-0.17500;59.7500;106;59;0.34090
12016660;-0.17000;59.5000;106;59;0.33602
12016670;-0.16000;59.2500;106;59;0.33114
12016680;-0.15500;58.6875;106;59;0.32161
12016690;-0.15000;58.4375;106;59;0.31722
12016700;-0.14500;58.2500;106;59;0.31258
12016710;-0.13500;58.0625;106;59;0.30940
12016720;-0.11500;57.7500;106;59;0.30305
12016730;-0.10500;57.7500;106;59;0.29915
12016740;-0.09500;58.0000;106;59;0.29524
12016750;-0.08000;58.6875;106;59;0.29133
12016760;-0.06500;61.5625;106;59;0.28352
12016770;-0.05000;63.8750;106;59;0.27937
12016780;-0.03000;66.6250;106;59;0.27521
12016790;-0.00500;69.8125;106;59;0.27106
12016800;0.02000;77.0000;106;59;0.26300
12016810;0.02000;77.0000;106;59;0.26300
12016820;0.07500;84.3750;106;59;0.25836
12016830;0.11000;87.8125;106;59;0.25568
12016840;0.14000;93.6250;106;59;0.25006
12016850;0.16500;95.9375;106;59;0.24737
12016860;0.20500;97.8750;106;59;0.24469
12016870;0.23500;99.4375;106;59;0.24200
12016880;0.25500;101.5625;106;59;0.23614
12016890;0.24500;102.1875;106;59;0.23321
12016900;0.19500;102.5000;106;59;0.23028
12016910;0.11500;102.5000;106;59;0.22857
12016920;0.03000;102.0625;106;59;0.22540
12016930;-0.04500;101.6250;106;59;0.22295
12016940;-0.10000;101.0625;106;59;0.22051
12016950;-0.13500;100.4375;106;59;0.21807
12016960;-0.15000;98.8750;106;59;0.21245
12016970;-0.15500;98.0000;106;59;0.20977
12016980;-0.15500;97.0625;106;59;0.20733
12016990;-0.15500;96.1250;106;59;0.20513
12017000;-0.15500;93.8750;106;59;0.20269
12017010;-0.14500;92.6875;106;59;0.20366
12017020;-0.14500;91.2500;106;59;0.20611
12017030;-0.13500;89.7500;106;59;0.21050
12017040;-0.13500;86.3750;106;59;0.22808
12017050;-0.13000;84.6875;106;59;0.24225
12017060;-0.12500;83.1250;106;59;0.26032
12017070;-0.12000;81.6250;106;59;0.28205
12017080;-0.11500;78.7500;106;59;0.33407
12017090;-0.11500;77.5000;106;59;0.36239
12017100;-0.11500;76.3750;106;59;0.39145
12017110;-0.12500;75.3125;106;59;0.41685
12017120;-0.13000;73.5625;106;59;0.46422
12017130;-0.14000;72.8125;106;59;0.48840
12017140;-0.15000;72.1875;106;59;0.51111
12017150;-0.15000;71.5625;106;59;0.53162
12017160;-0.14500;70.6875;106;59;0.56581
12017170;-0.14000;70.3125;106;59;0.57900
12017180;-0.14000;70.0000;106;59;0.58999
12017190;-0.13500;69.6875;106;59;0.59878
12017200;-0.13500;69.2500;106;59;0.61074
12017210;-0.12500;69.0000;106;59;0.61368
12017220;-0.10500;68.8125;106;59;0.61465
12017230;-0.08000;68.5625;106;59;0.61490
12017240;-0.06500;68.1875;106;59;0.61294
12017250;-0.04000;67.9375;106;59;0.61050
12017260;-0.01500;67.6875;106;59;0.60684
12017270;-0.02000;67.5000;106;59;0.60195
12017280;-0.04500;67.0000;106;59;0.58901
12017290;-0.07000;66.7500;106;59;0.58071
12017300;-0.10500;66.5000;106;59;0.57143
12017310;-0.14000;66.1875;106;59;0.56215
12017320;-0.16000;65.6875;106;59;0.54139
12017330;-0.16000;65.3750;106;59;0.52967
12017340;-0.16000;65.1250;106;59;0.51722
12017350;-0.14500;64.8125;106;59;0.50452
12017360;-0.14000;64.2500;106;59;0.47937
12017370;-0.13500;64.0000;106;59;0.46740
12017380;-0.13500;63.7500;106;59;0.45543
12017390;-0.18000;63.5000;106;59;0.44396
12017400;-0.17000;62.9375;106;59;0.42295
12017410;0.12500;62.6875;106;59;0.41441
12017420;0.85000;62.5000;106;59;0.40659
12017430;1.54500;62.2500;106;59;0.39829
12017440;1.31500;61.8125;106;59;0.38217
12017450;0.43000;61.5625;106;59;0.37460
12017460;-0.16500;61.3125;106;59;0.36777
12017470;-0.30500;61.1250;106;59;0.36117
12017480;-0.26500;60.6250;106;59;0.34969
12017490;-0.23000;60.3750;106;59;0.34432
12017500;-0.21000;60.1250;106;59;0.33944
12017510;-0.20000;59.8750;106;59;0.33553
12017520;-0.19000;59.4375;106;59;0.32845
12017530;-0.18000;59.1875;106;59;0.32454
12017540;-0.18000;59.0000;106;59;0.32063
12017550;-0.17500;58.7500;106;59;0.31673
12017560;-0.17000;58.1875;106;59;0.30916
12017570;-0.17000;58.1875;106;59;0.30916
12017580;-0.15500;57.6875;106;59;0.30183
12017590;-0.14500;57.5000;106;59;0.29817
12017600;-0.14500;57.0625;106;59;0.29133
12017610;-0.14500;56.9375;106;59;0.28889
12017620;-0.14500;56.8125;106;59;0.28694
12017630;-0.13500;56.8125;106;59;0.28400
12017640;-0.12500;57.5625;106;59;0.27717
12017650;-0.10500;58.6875;106;59;0.27375
12017660;-0.08500;60.3125;106;59;0.27057
12017670;-0.06500;62.6250;106;59;0.26740
12017680;-0.04000;68.5000;106;59;0.26178
12017690;-0.01000;72.0000;106;59;0.25934
12017700;0.02500;75.6875;106;59;0.25714
12017710;0.06000;79.5000;106;59;0.25592
12017720;0.09500;86.8125;106;59;0.25372
12017730;0.13500;90.0000;106;59;0.25153
12017740;0.17000;92.8750;106;59;0.24908
12017750;0.20500;95.3750;106;59;0.24640
12017760;0.23500;99.2500;106;59;0.24151
12017770;0.26000;100.6250;106;59;0.23907
12017780;0.27500;101.6250;106;59;0.23663
12017790;0.26500;102.3125;106;59;0.23419
12017800;0.22000;102.9375;106;59;0.22955
12017810;0.14500;102.9375;106;59;0.22833
12017820;0.06000;102.7500;106;59;0.22759
12017830;-0.00500;102.3750;106;59;0.22589
12017840;-0.06500;101.2500;106;59;0.22198
12017850;-0.06500;101.2500;106;59;0.22198
12017860;-0.13000;99.7500;106;59;0.21758
12017870;-0.14500;98.8750;106;59;0.21538
12017880;-0.14500;97.0000;106;59;0.21099
12017890;-0.15000;96.0000;106;59;0.20904
12017900;-0.15500;94.8750;106;59;0.20806
12017910;-0.15500;94.8750;106;59;0.20806
12017920;-0.16000;90.9375;106;59;0.21490
12017930;-0.15500;89.4375;106;59;0.22125
12017940;-0.15500;87.7500;106;59;0.23101
12017950;-0.15500;86.1250;106;59;0.24469
12017960;-0.15500;82.8750;106;59;0.28425
12017970;-0.14500;81.3750;106;59;0.30940
12017980;-0.14500;79.9375;106;59;0.33748
12017990;-0.14500;78.6250;106;59;0.36728
12018000;-0.15000;76.3125;106;59;0.42491
12018010;-0.15000;75.2500;106;59;0.44957
12018020;-0.14500;74.3750;106;59;0.47595
12018030;-0.13500;73.5625;106;59;0.50183
12018040;-0.13500;72.3125;106;59;0.54896
12018050;-0.12500;71.8125;106;59;0.56923
12018060;-0.12000;71.3750;106;59;0.58730
12018070;-0.11500;71.0000;106;59;0.60293
12018080;-0.11500;70.3750;106;59;0.62711
12018090;-0.11500;70.1875;106;59;0.63590
12018100;-0.10500;69.9375;106;59;0.64274
12018110;-0.08500;69.7500;106;59;0.64640
12018120;-0.06500;69.4375;106;59;0.64982
12018130;-0.05000;69.2500;106;59;0.65031
12018140;-0.02500;69.0000;106;59;0.64982
12018150;-0.00500;68.7500;106;59;0.64835
12018160;-0.01000;68.3125;106;59;0.64176
12018170;-0.03500;68.1250;106;59;0.63687
12018180;-0.06000;67.8750;106;59;0.63077
12018190;-0.09000;67.6250;106;59;0.62344
12018200;-0.09000;67.6250;106;59;0.62344
12018210;-0.14000;66.8750;106;59;0.59658
12018220;-0.14500;66.6250;106;59;0.58584
12018230;-0.13500;66.3750;106;59;0.57411
12018240;-0.13000;65.8125;106;59;0.54896
12018250;-0.11500;65.5625;106;59;0.53602
12018260;-0.11000;65.3125;106;59;0.52283
12018270;-0.10500;65.0625;106;59;0.50989
12018280;-0.15500;64.5625;106;59;0.48498
12018290;-0.13500;64.3125;106;59;0.47350
12018300;0.22500;64.0625;106;59;0.46252
12018310;0.99000;63.8125;106;59;0.45324
12018320;1.63000;63.3125;106;59;0.43614
12018330;1.35500;63.0625;106;59;0.42735
12018340;0.43000;62.8125;106;59;0.41880
12018350;-0.17000;62.5625;106;59;0.41074
12018360;-0.28000;62.1250;106;59;0.39560
12018370;-0.25000;61.8750;106;59;0.38926
12018380;-0.22500;61.6250;106;59;0.38339
12018390;-0.21000;61.3750;106;59;0.37778
12018400;-0.21000;61.0000;106;59;0.36825
12018410;-0.20000;60.7500;106;59;0.36484
12018420;-0.19000;60.5000;106;59;0.36093
12018430;-0.18000;60.2500;106;59;0.35702
12018440;-0.17000;59.8125;106;59;0.34872
12018450;-0.16500;59.5625;106;59;0.34457
12018460;-0.16000;59.3750;106;59;0.34042
12018470;-0.15500;59.1250;106;59;0.33626
12018480;-0.15500;58.6875;106;59;0.34335
12018490;-0.15000;58.5000;106;59;0.36239
12018500;-0.14500;58.3750;106;59;0.36996
12018510;-0.14000;58.3125;106;59;0.37265
12018520;-0.13500;58.6875;106;59;0.37167
12018530;-0.12500;59.4375;106;59;0.36923
12018540;-0.11500;60.7500;106;59;0.36630
12018550;-0.09500;62.7500;106;59;0.36288
12018560;-0.07500;68.3750;106;59;0.35556
12018570;-0.05500;71.8125;106;59;0.35189
12018580;-0.02500;75.5625;106;59;0.34823
12018590;0.00000;79.5000;106;59;0.34481
12018600;0.03500;87.1875;106;59;0.33944
12018610;0.07000;90.6875;106;59;0.33773
12018620;0.10000;93.8750;106;59;0.33529
12018630;0.13500;96.6250;106;59;0.33260
12018640;0.17000;101.0000;106;59;0.32674
12018650;0.20500;102.6250;106;59;0.32405
12018660;0.22500;103.9375;106;59;0.32112
12018670;0.24000;104.8750;106;59;0.31819
12018680;0.22500;105.9375;106;59;0.31258
12018690;0.17500;106.1250;106;59;0.31013
12018700;0.10000;106.1250;106;59;0.30769
12018710;0.02000;106.0000;106;59;0.30647
12018720;-0.05500;105.3125;106;59;0.30427
12018730;-0.10500;104.7500;106;59;0.30256
12018740;-0.14000;104.1250;106;59;0.30061
12018750;-0.15500;103.4375;106;59;0.29890
12018760;-0.16000;101.8750;106;59;0.29524
12018770;-0.16500;100.9375;106;59;0.29353
12018780;-0.17000;100.0000;106;59;0.29255
12018790;-0.17000;99.0000;106;59;0.29255
12018800;-0.17000;96.6250;106;59;0.29768
12018810;-0.16500;95.2500;106;59;0.30354
12018820;-0.16500;93.7500;106;59;0.31258
12018830;-0.16000;92.1875;106;59;0.32576
12018840;-0.15500;88.8750;106;59;0.36581
12018850;-0.15500;87.2500;106;59;0.39243
12018860;-0.15500;85.7500;106;59;0.42295
12018870;-0.15000;84.2500;106;59;0.45617
12018880;-0.14500;81.5625;106;59;0.52698
12018890;-0.14500;80.3750;106;59;0.56239
12018900;-0.13500;79.3125;106;59;0.59634
12018910;-0.13500;78.4375;106;59;0.62418
12018920;-0.14000;76.8125;106;59;0.67253
12018930;-0.14000;76.1250;106;59;0.69621
12018940;-0.13500;75.6250;106;59;0.71795
12018950;-0.13500;75.1250;106;59;0.73773
12018960;-0.13000;74.4375;106;59;0.76972
12018970;-0.12500;74.1250;106;59;0.78193
12018980;-0.11500;73.8750;106;59;0.79170
12018990;-0.10500;73.6250;106;59;0.79951
12019000;-0.10500;73.1875;106;59;0.80781
12019010;-0.08000;73.0000;106;59;0.80830
12019020;-0.06000;72.8750;106;59;0.80855
12019030;-0.05000;72.6875;106;59;0.80830
12019040;-0.04000;72.1875;106;59;0.80464
12019050;-0.04000;72.1875;106;59;0.80464
12019060;-0.01500;71.6875;106;59;0.79585
12019070;-0.04000;71.4375;106;59;0.78950
12019080;-0.06500;70.8750;106;59;0.77338
12019090;-0.09500;70.6250;106;59;0.76337
12019100;-0.13500;70.3125;106;59;0.75263
12019110;-0.14500;70.0625;106;59;0.74139
12019120;-0.15000;69.4375;106;59;0.71673
12019130;-0.14500;69.1250;106;59;0.70305
12019140;-0.13500;68.8125;106;59;0.68889
12019150;-0.12500;68.4375;106;59;0.67448
12019160;-0.11000;67.8125;106;59;0.64591
12019170;-0.11500;67.5000;106;59;0.63248
12019180;-0.16000;67.1875;106;59;0.61954
12019190;-0.10000;66.8750;106;59;0.60733
12019200;0.35000;66.2500;106;59;0.58535
12019210;1.14000;65.9375;106;59;0.57607
12019220;1.67500;65.6250;106;59;0.56679
12019230;1.29500;65.3750;106;59;0.55751
12019240;0.37000;64.8125;106;59;0.53993
12019250;-0.18000;64.5000;106;59;0.53211
12019260;-0.26000;64.1875;106;59;0.52479
12019270;-0.23000;63.8750;106;59;0.51795
12019280;-0.21500;63.3750;106;59;0.50623
12019290;-0.21500;63.3750;106;59;0.50623
12019300;-0.20000;62.8750;106;59;0.49621
12019310;-0.19000;62.5625;106;59;0.49206
12019320;-0.18500;62.0625;106;59;0.48449
12019330;-0.18000;61.7500;106;59;0.48034
12019340;-0.17500;61.5625;106;59;0.47619
12019350;-0.17000;61.3125;106;59;0.47179
12019360;-0.16500;60.8750;106;59;0.46276
12019370;-0.15500;60.6250;106;59;0.45836
12019380;-0.15500;60.4375;106;59;0.45446
12019390;-0.15000;60.2500;106;59;0.45055
12019400;-0.15000;60.1250;106;59;0.44322
12019410;-0.14000;60.1875;106;59;0.44029
12019420;-0.12500;60.5625;106;59;0.43712
12019430;-0.11500;61.4375;106;59;0.43370
12019440;-0.10000;64.9375;106;59;0.42662
12019450;-0.08500;67.6875;106;59;0.42295
12019460;-0.06000;70.9375;106;59;0.41929
12019470;-0.04000;74.5625;106;59;0.41587
12019480;-0.02500;82.6250;106;59;0.40928
12019490;0.00500;86.6875;106;59;0.40610
12019500;0.03500;90.6250;106;59;0.40293
12019510;0.07000;94.1875;106;59;0.40049
12019520;0.10500;100.0625;106;59;0.39609
12019530;0.14000;102.3125;106;59;0.39341
12019540;0.17000;104.1875;106;59;0.39048
12019550;0.20500;105.6875;106;59;0.38755
12019560;0.23500;107.6875;106;59;0.38144
12019570;0.25000;108.1875;106;59;0.37827
12019580;0.23500;108.4375;106;59;0.37509
12019590;0.18500;108.5000;106;59;0.37216
12019600;0.11000;108.1875;106;59;0.36777
12019610;0.03000;107.8125;106;59;0.36654
12019620;-0.03500;107.3125;106;59;0.36484
12019630;-0.08000;106.7500;106;59;0.36288
12019640;-0.11000;105.3125;106;59;0.35849
12019650;-0.13000;104.5000;106;59;0.35629
12019660;-0.13500;103.6875;106;59;0.35433
12019670;-0.13500;103.6875;106;59;0.35433
12019680;-0.14000;100.7500;106;59;0.35214
12019690;-0.14000;99.5625;106;59;0.35433
12019700;-0.14000;98.2500;106;59;0.35897
12019710;-0.13500;96.8125;106;59;0.36557
12019720;-0.13500;93.6250;106;59;0.38803
12019730;-0.13500;91.8750;106;59;0.40635
12019740;-0.13500;90.1250;106;59;0.42955
12019750;-0.13500;88.4375;106;59;0.45665
12019760;-0.13000;85.2500;106;59;0.52039
12019770;-0.12500;83.7500;106;59;0.55482
12019780;-0.12500;82.4375;106;59;0.58950
12019790;-0.12500;81.1875;106;59;0.62369
12019800;-0.12500;79.0000;106;59;0.68278
12019810;-0.12500;78.1250;106;59;0.70476
12019820;-0.12500;77.3125;106;59;0.72772
12019830;-0.12000;76.6250;106;59;0.74969
12019840;-0.12000;75.4375;106;59;0.78730
12019850;-0.12000;75.0000;106;59;0.80220
12019860;-0.12500;74.5625;106;59;0.81490
12019870;-0.12500;74.1875;106;59;0.82564
12019880;-0.12500;73.6250;106;59;0.84151
12019890;-0.11500;73.3125;106;59;0.84664
12019900;-0.10500;73.0625;106;59;0.84860
12019910;-0.09500;72.8125;106;59;0.84860
12019920;-0.09500;72.8125;106;59;0.84860
12019930;-0.06500;72.0000;106;59;0.84518
12019940;-0.05500;71.7500;106;59;0.84200
12019950;-0.03500;71.5000;106;59;0.83785
12019960;-0.02500;70.9375;106;59;0.82613
12019970;-0.03500;70.6875;106;59;0.81856
12019980;-0.05000;70.3750;106;59;0.80928
12019990;-0.07000;70.0625;106;59;0.79878
12020000;-0.10500;69.4375;106;59;0.77509
12020010;-0.14000;69.1250;106;59;0.76264
12020020;-0.14500;68.7500;106;59;0.74896
12020030;-0.14000;68.4375;106;59;0.73431
12020040;-0.13000;67.7500;106;59;0.70379
12020050;-0.12500;67.4375;106;59;0.68864
12020060;-0.11500;67.0625;106;59;0.67399
12020070;-0.10500;66.7500;106;59;0.65958
12020080;-0.11500;66.0625;106;59;0.63223
12020090;-0.15500;65.7500;106;59;0.61905
12020100;-0.04000;65.3750;106;59;0.60757
12020110;0.48500;65.1250;106;59;0.59731
12020120;1.29000;64.5625;106;59;0.57582
12020130;1.62500;64.2500;106;59;0.56532
12020140;1.00500;63.9375;106;59;0.55531
12020150;0.13000;63.6250;106;59;0.54603
12020160;-0.25000;63.1250;106;59;0.52894
12020170;-0.26500;62.8750;106;59;0.52088
12020180;-0.22500;62.6250;106;59;0.51331
12020190;-0.21000;62.3125;106;59;0.50623
12020200;-0.20000;61.7500;106;59;0.49353
12020210;-0.20000;61.5000;106;59;0.48816
12020220;-0.18000;61.2500;106;59;0.48230
12020230;-0.17500;61.0000;106;59;0.47643
12020240;-0.16000;60.4375;106;59;0.46447
12020250;-0.15500;60.1875;106;59;0.45836
12020260;-0.14500;59.8750;106;59;0.45226
12020270;-0.13500;59.6250;106;59;0.44640
12020280;-0.10500;59.1250;106;59;0.43419
12020290;-0.10000;58.8750;106;59;0.42833
12020300;-0.09000;58.6875;106;59;0.42344
12020310;-0.08500;58.5625;106;59;0.41905
12020320;-0.07500;58.6250;106;59;0.40879
12020330;-0.06500;59.0000;106;59;0.40366
12020340;-0.05500;59.8125;106;59;0.39878
12020350;-0.04000;61.1875;106;59;0.39390
12020360;-0.02500;65.8750;106;59;0.38462
12020370;-0.01000;68.9375;106;59;0.37973
12020380;0.01000;72.4375;106;59;0.37485
12020390;0.03500;76.1875;106;59;0.37021
12020400;0.06000;83.9375;106;59;0.36190
12020410;0.09000;87.6250;106;59;0.35897
12020420;0.12000;91.0625;106;59;0.35556
12020430;0.14500;94.0625;106;59;0.35189
12020440;0.17500;98.9375;106;59;0.34359
12020450;0.20500;100.8125;106;59;0.33944
12020460;0.24000;102.2500;106;59;0.33553
12020470;0.26500;103.3125;106;59;0.33187
12020480;0.27500;104.6250;106;59;0.32454
12020490;0.25000;104.8125;106;59;0.32088
12020500;0.19500;104.8750;106;59;0.31844
12020510;0.12000;104.6875;106;59;0.31648
12020520;0.04000;103.8750;106;59;0.31087
12020530;-0.02500;103.3125;106;59;0.29695
12020540;-0.06500;102.6250;106;59;0.27790
12020550;-0.09500;101.8750;106;59;0.26691
12020560;-0.11500;100.1250;106;59;0.25495
12020570;-0.12500;99.1875;106;59;0.25128
12020580;-0.13000;98.1875;106;59;0.24835
12020590;-0.13500;97.1250;106;59;0.24591
12020600;-0.13500;94.6875;106;59;0.24542
12020610;-0.13000;93.2500;106;59;0.24786
12020620;-0.13000;91.7500;106;59;0.25250
12020630;-0.13000;90.1250;106;59;0.25983
12020640;-0.12500;86.6875;106;59;0.28523
12020650;-0.13000;85.0000;106;59;0.30403
12020660;-0.13500;83.3750;106;59;0.32625
12020670;-0.13500;81.8125;106;59;0.35165
12020680;-0.13500;81.8125;106;59;0.35165
12020690;-0.13500;77.9375;106;59;0.43663
12020700;-0.13500;76.8750;106;59;0.46178
12020710;-0.13000;75.8750;106;59;0.48449
12020720;-0.12500;74.3125;106;59;0.53211
12020730;-0.12500;73.6875;106;59;0.55385
12020740;-0.12500;73.0625;106;59;0.57338
12020750;-0.12500;72.6250;106;59;0.59096
12020760;-0.12500;71.8125;106;59;0.61905
12020770;-0.12000;71.5000;106;59;0.62955
12020780;-0.11500;71.1875;106;59;0.63810
12020790;-0.11000;70.9375;106;59;0.64444
12020800;-0.10000;70.5000;106;59;0.65153
12020810;-0.09000;70.2500;106;59;0.65201
12020820;-0.06500;70.0000;106;59;0.65201
12020830;-0.05000;69.8125;106;59;0.65128
12020840;-0.04500;69.4375;106;59;0.64689
12020850;-0.02500;69.1875;106;59;0.64322
12020860;-0.00500;68.8750;106;59;0.63810
12020870;-0.01500;68.5625;106;59;0.63199
12020880;-0.03500;67.9375;106;59;0.61661
12020890;-0.06000;67.6875;106;59;0.60757
12020900;-0.06000;67.6875;106;59;0.60757
12020910;-0.12500;67.0625;106;59;0.58877
12020920;-0.14500;66.4375;106;59;0.56630
12020930;-0.14500;66.1250;106;59;0.55385
12020940;-0.13500;65.8125;106;59;0.54066
12020950;-0.12500;65.5000;106;59;0.52747
12020960;-0.11500;64.8125;106;59;0.50183
12020970;-0.11500;64.8125;106;59;0.50183
12020980;-0.10500;64.1875;106;59;0.47741
12020990;-0.15500;63.8750;106;59;0.46618
12021000;-0.12500;63.3125;106;59;0.44615
12021010;0.26500;63.0625;106;59;0.43810
12021020;1.01500;62.8125;106;59;0.42979
12021030;1.58000;62.5000;106;59;0.42149
12021040;1.24000;62.0000;106;59;0.40610
12021050;0.33500;61.7500;106;59;0.39878
12021060;-0.20000;61.5625;106;59;0.39194
12021070;-0.28000;61.3125;106;59;0.38559
12021080;-0.23500;60.8750;106;59;0.37387
12021090;-0.21000;60.6250;106;59;0.36850
12021100;-0.20000;60.4375;106;59;0.36410
12021110;-0.19000;60.1875;106;59;0.36068
12021120;-0.18000;59.7500;106;59;0.35287
12021130;-0.17500;59.5000;106;59;0.34872
12021140;-0.17000;59.3125;106;59;0.34432
12021150;-0.17000;59.0625;106;59;0.33993
12021160;-0.15500;58.6250;106;59;0.33138
12021170;-0.15000;58.3750;106;59;0.32723
12021180;-0.14500;58.1875;106;59;0.32308
12021190;-0.14000;57.9375;106;59;0.31917
12021200;-0.12500;57.6250;106;59;0.31282
12021210;-0.11500;57.5000;106;59;0.31038
12021220;-0.11000;57.3750;106;59;0.30720
12021230;-0.10500;57.3750;106;59;0.30354
12021240;-0.09000;58.3750;106;59;0.29597
12021250;-0.07500;59.6250;106;59;0.29231
12021260;-0.06000;61.4375;106;59;0.28864
12021270;-0.04500;63.8125;106;59;0.28498
12021280;-0.02500;69.8750;106;59;0.27717
12021290;0.00000;73.3750;106;59;0.27326
12021300;0.02000;77.0625;106;59;0.27082
12021310;0.05000;80.8125;106;59;0.26886
12021320;0.08500;87.8125;106;59;0.26374
12021330;0.12000;90.8750;106;59;0.26105
12021340;0.14500;93.5000;106;59;0.25812
12021350;0.18000;95.7500;106;59;0.25519
12021360;0.21500;99.0625;106;59;0.24884
12021370;0.24500;100.2500;106;59;0.24567
12021380;0.26000;101.0625;106;59;0.24274
12021390;0.24500;101.6250;106;59;0.23956
12021400;0.20000;101.9375;106;59;0.23468
12021410;0.12500;101.7500;106;59;0.23346
12021420;0.04000;101.4375;106;59;0.23150
12021430;-0.02500;100.9375;106;59;0.22930
12021440;-0.02500;100.9375;106;59;0.22930
12021450;-0.11500;98.9375;106;59;0.22271
12021460;-0.13500;98.0625;106;59;0.22027
12021470;-0.14500;97.1875;106;59;0.21832
12021480;-0.14500;95.2500;106;59;0.21465
12021490;-0.14500;94.1875;106;59;0.21343
12021500;-0.14500;93.0625;106;59;0.21368
12021510;-0.14500;91.8750;106;59;0.21538
12021520;-0.14000;89.0000;106;59;0.22198
12021530;-0.14000;87.3750;106;59;0.22906
12021540;-0.14000;87.3750;106;59;0.22906
12021550;-0.13500;84.1250;106;59;0.25372
12021560;-0.13500;81.0625;106;59;0.29328
12021570;-0.13500;79.6250;106;59;0.31795
12021580;-0.13000;78.3125;106;59;0.34481
12021590;-0.13000;77.0625;106;59;0.37338
12021600;-0.13000;74.8125;106;59;0.42808
12021610;-0.13000;73.9375;106;59;0.45128
12021620;-0.12500;73.1250;106;59;0.47619
12021630;-0.13000;72.4375;106;59;0.50061
12021640;-0.13000;71.2500;106;59;0.54481
12021650;-0.13000;70.8125;106;59;0.56313
12021660;-0.12500;70.4375;106;59;0.57900
12021670;-0.12500;70.0625;106;59;0.59243
12021680;-0.11500;69.5000;106;59;0.61294
12021690;-0.11000;69.2500;106;59;0.62027
12021700;-0.10000;69.0625;106;59;0.62442
12021710;-0.08500;68.8125;106;59;0.62686
12021720;-0.06500;68.4375;106;59;0.63004
12021730;-0.06000;68.3125;106;59;0.63004
12021740;-0.04000;68.0625;106;59;0.62857
12021750;-0.01500;67.8750;106;59;0.62613
12021760;-0.01500;67.3750;106;59;0.61832
12021770;-0.04000;67.1875;106;59;0.61294
12021780;-0.06000;66.9375;106;59;0.60635
12021790;-0.08500;66.6875;106;59;0.59853
12021800;-0.11500;66.1250;106;59;0.58144
12021810;-0.11500;66.1250;106;59;0.57118
12021820;-0.14500;65.5625;106;59;0.56020
12021830;-0.13500;65.3125;106;59;0.54847
12021840;-0.13000;64.7500;106;59;0.52381
12021850;-0.12500;64.4375;106;59;0.51136
12021860;-0.11500;64.1875;106;59;0.49890
12021870;-0.11000;63.8125;106;59;0.48669
12021880;-0.14000;63.2500;106;59;0.46374
12021890;-0.15500;63.0000;106;59;0.45299
12021900;0.09000;62.7500;106;59;0.44396
12021910;0.75000;62.4375;106;59;0.43590
12021920;1.50000;61.9375;106;59;0.41929
12021930;1.46000;61.6875;106;59;0.41148
12021940;0.63000;61.4375;106;59;0.40391
12021950;-0.07000;61.1875;106;59;0.39683
12021960;-0.28000;60.7500;106;59;0.38437
12021970;-0.25000;60.5625;106;59;0.37851
12021980;-0.21500;60.3125;106;59;0.37289
12021990;-0.20500;60.1250;106;59;0.36752
12022000;-0.19500;59.6250;105;59;0.35922
12022010;-0.19000;59.3750;105;59;0.35531
12022020;-0.18000;59.1875;105;59;0.35140
12022030;-0.17500;58.9375;105;59;0.34750
12022040;-0.16000;58.4375;105;59;0.33993
12022050;-0.16000;58.1875;105;59;0.33626
12022060;-0.15500;57.9375;105;59;0.33260
12022070;-0.14500;57.6875;105;59;0.32869
12022080;-0.14000;57.2500;105;59;0.32088
12022090;-0.13500;57.0625;105;59;0.31722
12022100;-0.12500;56.8750;105;59;0.31453
12022110;-0.11500;56.7500;105;59;0.31209
12022120;-0.10500;56.8125;105;59;0.30598
12022130;-0.09500;57.3125;105;59;0.30281
12022140;-0.08000;58.2500;105;59;0.29963
12022150;-0.06500;59.7500;105;59;0.29646
12022160;-0.04000;64.5625;105;59;0.29011
12022170;-0.02500;67.6875;105;59;0.28694
12022180;-0.00500;71.1250;105;59;0.28376
12022190;0.01000;74.7500;105;59;0.28083
12022200;0.04000;82.3125;105;59;0.27741
12022210;0.07000;85.8125;105;59;0.27521
12022220;0.10500;89.0625;105;59;0.27253
12022230;0.13500;91.9375;105;59;0.26984
12022240;0.16500;96.6250;105;59;0.26471
12022250;0.20000;98.3750;105;59;0.26203
12022260;0.23500;99.8125;105;59;0.25934
12022270;0.25500;100.8750;105;59;0.25714
12022280;0.25500;102.0625;105;59;0.25250
12022290;0.21500;102.3125;105;59;0.25031
12022300;0.14500;102.3125;105;59;0.24908
12022310;0.06000;102.1875;105;59;0.24835
12022320;-0.01500;101.4375;105;59;0.24493
12022330;-0.07500;100.8750;105;59;0.24298
12022340;-0.11000;100.2500;105;59;0.24078
12022350;-0.13000;99.5625;105;59;0.23883
12022360;-0.14500;97.9375;105;59;0.23492
12022370;-0.15000;97.0000;105;59;0.23321
12022380;-0.14500;96.0625;105;59;0.23175
12022390;-0.14500;95.0000;105;59;0.23101
12022400;-0.14500;92.6875;105;59;0.23346
12022410;-0.14500;91.3125;105;59;0.23663
12022420;-0.14000;89.8125;105;59;0.24200
12022430;-0.13500;88.2500;105;59;0.25006
12022440;-0.13500;85.0000;105;59;0.27717
12022450;-0.13500;83.3750;105;59;0.29621
12022460;-0.12500;81.8125;105;59;0.31917
12022470;-0.12500;80.3750;105;59;0.34530
12022480;-0.12500;77.7500;105;59;0.40391
12022490;-0.13000;76.6250;105;59;0.43443
12022500;-0.12500;75.6250;105;59;0.46081
12022510;-0.13000;74.6875;105;59;0.48449
12022520;-0.13000;73.1250;105;59;0.53407
12022530;-0.13500;72.5000;105;59;0.55727
12022540;-0.13500;72.0000;105;59;0.57827
12022550;-0.12500;71.5000;105;59;0.59683
12022560;-0.12000;70.8125;105;59;0.62662
12022570;-0.11500;70.5000;105;59;0.63810
12022580;-0.11000;70.2500;105;59;0.67131
12022590;-0.10500;70.0625;105;59;0.71477
12022600;-0.09000;69.6875;105;59;0.74847
12022610;-0.07000;69.5000;105;59;0.75482
12022620;-0.05500;69.3125;105;59;0.75800
12022630;-0.03500;69.1250;105;59;0.75897
12022640;-0.01500;68.7500;105;59;0.75507
12022650;-0.02000;68.6250;105;59;0.75116
12022660;-0.04500;68.4375;105;59;0.74603
12022670;-0.06500;68.2500;105;59;0.73944
12022680;-0.09500;67.7500;105;59;0.72308
12022690;-0.13500;67.5000;105;59;0.71331
12022700;-0.15000;67.2500;105;59;0.70330
12022710;-0.15500;67.0000;105;59;0.69255
12022720;-0.14500;66.4375;105;59;0.66667
12022730;-0.13500;66.1875;105;59;0.65275
12022740;-0.12500;65.8750;105;59;0.63834
12022750;-0.12000;65.6250;105;59;0.62369
12022760;-0.11500;65.0000;105;59;0.59438
12022770;-0.16000;64.6875;105;59;0.57998
12022780;-0.15500;64.4375;105;59;0.56630
12022790;0.18500;64.1875;105;59;0.55336
12022800;0.92500;63.6250;105;59;0.53260
12022810;1.59500;63.3750;105;59;0.52283
12022820;1.41500;63.1250;105;59;0.51306
12022830;0.50500;62.8750;105;59;0.50354
12022840;-0.14500;62.3750;105;59;0.48645
12022850;-0.28000;62.1250;105;59;0.47863
12022860;-0.25000;61.8750;105;59;0.47106
12022870;-0.23000;61.6250;105;59;0.46398
12022880;-0.22000;61.2500;105;59;0.45153
12022890;-0.21000;61.0625;105;59;0.44591
12022900;-0.20000;60.8125;105;59;0.44151
12022910;-0.19000;60.5625;105;59;0.43785
12022920;-0.18000;60.1250;105;59;0.42955
12022930;-0.18000;59.8750;105;59;0.42540
12022940;-0.17000;59.6250;105;59;0.42125
12022950;-0.16000;59.3750;105;59;0.41709
12022960;-0.15500;58.9375;105;59;0.40879
12022970;-0.15000;58.6875;105;59;0.40464
12022980;-0.14000;58.5000;105;59;0.40073
12022990;-0.13500;58.3750;105;59;0.39683
12023000;-0.12500;58.3125;106;59;0.39096
12023010;-0.11500;58.6250;106;59;0.38755
12023020;-0.10500;59.3750;106;59;0.38413
12023030;-0.09000;60.7500;106;59;0.38046
12023040;-0.07500;65.3125;106;59;0.37314
12023050;-0.05500;68.3750;106;59;0.36972
12023060;-0.03500;71.8125;106;59;0.36654
12023070;-0.01500;75.6250;106;59;0.36337
12023080;0.01000;83.5625;106;59;0.35702
12023090;0.01000;83.5625;106;59;0.35702
12023100;0.07000;90.9375;106;59;0.35214
12023110;0.10500;94.1250;106;59;0.35067
12023120;0.14500;99.3125;106;59;0.34603
12023130;0.17500;101.2500;106;59;0.34359
12023140;0.20500;102.8750;106;59;0.34090
12023150;0.23500;104.0625;106;59;0.33822
12023160;0.25500;105.6250;106;59;0.33333
12023170;0.24500;106.0000;106;59;0.33114
12023180;0.20000;106.1875;106;59;0.32894
12023190;0.13000;106.1250;106;59;0.32698
12023200;0.04500;105.6250;106;59;0.32552
12023210;-0.02500;105.1250;106;59;0.32430
12023220;-0.08000;104.5625;106;59;0.32283
12023230;-0.11000;103.8750;106;59;0.32112
12023240;-0.13000;102.3750;106;59;0.31746
12023250;-0.14500;101.5000;106;59;0.31575
12023260;-0.14500;100.6250;106;59;0.31429
12023270;-0.14500;99.6250;106;59;0.31306
12023280;-0.14500;97.5000;106;59;0.31355
12023290;-0.14500;96.3125;106;59;0.31697
12023300;-0.14500;94.9375;106;59;0.32259
12023310;-0.14000;93.5000;106;59;0.33065
12023320;-0.13500;90.1875;106;59;0.35873
12023330;-0.13500;88.5625;106;59;0.37949
12023340;-0.13000;86.9375;106;59;0.40464
12023350;-0.12500;85.3750;106;59;0.43394
12023360;-0.12500;82.4375;106;59;0.50037
12023370;-0.12500;81.1250;106;59;0.53578
12023380;-0.12500;79.9375;106;59;0.57143
12023390;-0.12500;78.8750;106;59;0.60611
12023400;-0.12500;77.1250;106;59;0.65910
12023410;-0.12500;76.3750;106;59;0.68474
12023420;-0.12500;75.7500;106;59;0.70940
12023430;-0.12500;75.1875;106;59;0.73211
12023440;-0.12500;75.1875;106;59;0.73211
12023450;-0.11500;73.9375;106;59;0.78510
12023460;-0.11500;73.6250;106;59;0.79756
12023470;-0.11500;73.3750;106;59;0.80757
12023480;-0.10500;72.9375;106;59;0.82173
12023490;-0.10000;72.7500;106;59;0.82442
12023500;-0.08000;72.5625;106;59;0.82515
12023510;-0.06000;72.3125;106;59;0.82564
12023520;-0.05500;71.9375;106;59;0.82442
12023530;-0.03500;71.7500;106;59;0.82222
12023540;-0.03500;71.7500;106;59;0.82222
12023550;-0.01500;71.3125;106;59;0.81392
12023560;-0.03500;70.8125;106;59;0.80122
12023570;-0.06000;70.5000;106;59;0.79292
12023580;-0.08500;70.2500;106;59;0.78364
12023590;-0.12000;70.0000;106;59;0.77289
12023600;-0.14000;69.5000;106;59;0.74969
12023610;-0.14500;69.1875;106;59;0.73675
12023620;-0.13500;68.8750;106;59;0.72283
12023630;-0.13000;68.5000;106;59;0.70842
12023640;-0.12500;67.8750;106;59;0.67937
12023650;-0.11000;67.6250;106;59;0.66496
12023660;-0.11000;67.3125;106;59;0.65104
12023670;-0.15500;67.0625;106;59;0.63761
12023680;-0.08000;66.4375;106;59;0.61245
12023690;0.38000;66.1250;106;59;0.60171
12023700;1.17000;65.8125;106;59;0.59219
12023710;1.69500;65.5625;106;59;0.58242
12023720;1.28500;65.0000;106;59;0.56361
12023730;0.33000;64.6875;106;59;0.55507
12023740;-0.20500;64.3750;106;59;0.54725
12023750;-0.27000;64.1250;106;59;0.53993
12023760;-0.24000;63.5625;106;59;0.52674
12023770;-0.23000;63.3125;106;59;0.52088
12023780;-0.22000;63.0625;106;59;0.51551
12023790;-0.21000;62.8125;106;59;0.51038
12023800;-0.20000;62.3125;106;59;0.50159
12023810;-0.19500;62.0625;106;59;0.49719
12023820;-0.19000;61.7500;106;59;0.49280
12023830;-0.19000;61.7500;106;59;0.49280
12023840;-0.18000;61.2500;106;59;0.48425
12023850;-0.16500;60.7500;106;59;0.47595
12023860;-0.15000;60.4375;106;59;0.47155
12023870;-0.13000;60.1875;106;59;0.46716
12023880;-0.11500;59.7500;106;59;0.45836
12023890;-0.10000;59.6250;106;59;0.45495
12023900;-0.08500;59.6250;106;59;0.45201
12023910;-0.07500;59.8750;106;59;0.44884
12023920;-0.06500;61.8125;106;59;0.44249
12023930;-0.06500;61.8125;106;59;0.44249
12023940;-0.04500;66.3125;106;59;0.43590
12023950;-0.02500;69.3750;106;59;0.43248
12023960;-0.00500;76.6250;106;59;0.42637
12023970;0.01000;80.6250;106;59;0.42369
12023980;0.04000;84.6875;106;59;0.42076
12023990;0.06000;88.5625;106;59;0.41783
12024000;0.09500;95.3750;106;59;0.41368
12024010;0.13000;98.1250;106;59;0.41123
12024020;0.16500;100.5000;106;59;0.40879
12024030;0.19000;102.5000;106;59;0.40586
12024040;0.21500;105.3125;106;59;0.40000
12024050;0.24000;106.1875;106;59;0.39707
12024060;0.25500;106.8125;106;59;0.39414
12024070;0.23500;107.0625;106;59;0.39145
12024080;0.18500;107.0000;106;59;0.38608
12024090;0.11000;106.6875;106;59;0.38437
12024100;0.04000;106.2500;106;59;0.38315
12024110;-0.03000;105.7500;106;59;0.38144
12024120;-0.07500;104.4375;106;59;0.37778
12024130;-0.11000;103.6875;106;59;0.37558
12024140;-0.12500;102.8750;106;59;0.37314
12024150;-0.13500;102.0625;106;59;0.37070
12024160;-0.14500;100.0625;106;59;0.36630
12024170;-0.15500;99.0000;106;59;0.36459
12024180;-0.15500;97.8125;106;59;0.36410
12024190;-0.15000;96.5000;106;59;0.36581
12024200;-0.14500;93.5000;106;59;0.37607
12024210;-0.14500;91.8750;106;59;0.38657
12024220;-0.14500;90.1875;106;59;0.40147
12024230;-0.14500;90.1875;106;59;0.40147
12024240;-0.13500;85.1250;106;59;0.47326
12024250;-0.13500;83.6250;106;59;0.50452
12024260;-0.14000;82.1875;106;59;0.53797
12024270;-0.13500;80.8750;106;59;0.57265
12024280;-0.13500;78.6250;106;59;0.64078
12024290;-0.13500;77.6875;106;59;0.66813
12024300;-0.13500;76.8750;106;59;0.69133
12024310;-0.14000;76.1250;106;59;0.71551
12024320;-0.14500;75.0000;106;59;0.75922
12024330;-0.14500;74.5000;106;59;0.77753
12024340;-0.14500;74.0625;106;59;0.79341
12024350;-0.14500;73.6875;106;59;0.80684
12024360;-0.14500;73.1250;106;59;0.82662
12024370;-0.14500;72.8125;106;59;0.83346
12024380;-0.13500;72.5625;106;59;0.83834
12024390;-0.12000;72.2500;106;59;0.84151
12024400;-0.11000;71.7500;106;59;0.84054
12024410;-0.09000;71.4375;106;59;0.83907
12024420;-0.08000;71.1875;106;59;0.83687
12024430;-0.07500;70.8750;106;59;0.83370
12024440;-0.05000;70.3125;106;59;0.82369
12024450;-0.03500;70.0625;106;59;0.81685
12024460;-0.05500;69.7500;106;59;0.80855
12024470;-0.08000;69.4375;106;59;0.79902
12024480;-0.10500;68.8125;106;59;0.77558
12024490;-0.14000;68.4375;106;59;0.76313
12024500;-0.17000;68.1250;106;59;0.75043
12024510;-0.17500;67.8125;106;59;0.73651
12024520;-0.17500;67.1250;106;59;0.70623
12024530;-0.17000;66.8125;106;59;0.69084
12024540;-0.16000;66.5000;106;59;0.67546
12024550;-0.15500;66.1875;106;59;0.66032
12024560;-0.15500;66.1875;106;59;0.66032
12024570;-0.16500;65.1875;106;59;0.61709
12024580;-0.19500;64.8750;106;59;0.60342
12024590;0.00000;64.6250;106;59;0.59048
12024600;0.63000;64.0625;106;59;0.56923
12024610;1.41500;63.8125;106;59;0.55922
12024620;1.50000;63.5625;106;59;0.54921
12024630;0.72500;63.3125;106;59;0.52063
12024640;-0.03500;62.8125;106;59;0.46081
12024650;-0.30000;62.5625;106;59;0.44591
12024660;-0.28000;62.3125;106;59;0.43492
12024670;-0.23500;62.1250;106;59;0.42589
12024680;-0.22000;61.6875;106;59;0.41123
12024690;-0.21000;61.4375;106;59;0.40562
12024700;-0.19500;61.1875;106;59;0.40049
12024710;-0.18000;60.9375;106;59;0.39487
12024720;-0.17500;60.4375;106;59;0.38364
12024730;-0.16000;60.1875;106;59;0.37827
12024740;-0.15500;59.9375;106;59;0.37265
12024750;-0.14500;59.6875;106;59;0.36703
12024760;-0.14000;59.1875;106;59;0.35556
12024770;-0.12500;58.9375;106;59;0.34994
12024780;-0.12000;58.6875;106;59;0.34432
12024790;-0.11500;58.5000;106;59;0.33895
12024800;-0.10500;58.1875;106;59;0.33065
12024810;-0.09000;58.1875;106;59;0.32601
12024820;-0.07500;58.5000;106;59;0.32088
12024830;-0.06500;59.2500;106;59;0.31575
12024840;-0.05500;62.5625;106;59;0.30574
12024850;-0.04000;65.0000;106;59;0.30085
12024860;-0.03000;67.9375;106;59;0.29597
12024870;-0.01500;71.2500;106;59;0.29133
12024880;0.00000;78.5625;106;59;0.28230
12024890;0.02000;82.3750;106;59;0.27912
12024900;0.04000;85.9375;106;59;0.27643
12024910;0.07000;89.2500;106;59;0.27302
12024920;0.10000;94.7500;106;59;0.26593
12024930;0.13500;96.9375;106;59;0.26227
12024940;0.16500;98.7500;106;59;0.25836
12024950;0.19500;100.1875;106;59;0.25470
12024960;0.21500;101.9375;106;59;0.24737
12024970;0.21500;102.3750;106;59;0.24371
12024980;0.18000;102.5625;106;59;0.24029
12024990;0.11000;102.5000;106;59;0.23687
12025000;0.02500;101.8750;105;59;0.23370
12025010;-0.05500;101.3750;105;59;0.23199
12025020;-0.12500;100.8125;105;59;0.22979
12025030;-0.16000;100.1250;105;59;0.22735
12025040;-0.16000;100.1250;105;59;0.22735
12025050;-0.21000;97.6250;105;59;0.22076
12025060;-0.21500;96.6250;105;59;0.21856
12025070;-0.21500;95.6250;105;59;0.21636
12025080;-0.21000;93.3125;105;59;0.21294
12025090;-0.20500;91.9375;105;59;0.21343
12025100;-0.20000;90.5000;105;59;0.21563
12025110;-0.19000;88.9375;105;59;0.21954
12025120;-0.18000;85.6875;105;59;0.23590
12025130;-0.17000;84.0625;105;59;0.24957
12025140;-0.16500;82.4375;105;59;0.26740
12025150;-0.16000;80.9375;105;59;0.28913
12025160;-0.15500;78.1875;105;59;0.34261
12025170;-0.15500;77.0000;105;59;0.37241
12025180;-0.15500;75.8750;105;59;0.40269
12025190;-0.15000;74.8750;105;59;0.43297
12025200;-0.15000;73.1875;105;59;0.48132
12025210;-0.14500;72.5000;105;59;0.50476
12025220;-0.14500;71.8750;105;59;0.52747
12025230;-0.13500;71.3750;105;59;0.54872
12025240;-0.13500;70.5000;105;59;0.58413
12025250;-0.13500;70.1250;105;59;0.59805
12025260;-0.13500;69.8125;105;59;0.60952
12025270;-0.12500;69.5000;105;59;0.61880
12025280;-0.11500;69.0000;105;59;0.63175
12025290;-0.10500;68.7500;105;59;0.63468
12025300;-0.09500;68.5625;105;59;0.63541
12025310;-0.07500;68.3750;105;59;0.63590
12025320;-0.05500;68.0000;105;59;0.63419
12025330;-0.04000;67.8125;105;59;0.63175
12025340;-0.01000;67.6250;105;59;0.62833
12025350;0.01000;67.4375;105;59;0.62393
12025360;-0.00500;67.0000;105;59;0.61197
12025370;-0.02000;66.7500;105;59;0.60415
12025380;-0.04000;66.4375;105;59;0.59536
12025390;-0.04000;66.4375;105;59;0.59536
12025400;-0.11000;65.6250;105;59;0.56459
12025410;-0.12500;65.3750;105;59;0.55238
12025420;-0.13000;65.0625;105;59;0.53968
12025430;-0.12500;64.7500;105;59;0.52650
12025440;-0.11500;64.1250;105;59;0.50012
12025450;-0.10500;63.8125;105;59;0.48694
12025460;-0.10500;63.8125;105;59;0.48694
12025470;-0.10500;63.2500;105;59;0.46154
12025480;-0.14500;62.6875;105;59;0.43883
12025490;-0.08500;62.4375;105;59;0.42930
12025500;0.33500;62.1875;105;59;0.42100
12025510;1.11500;61.9375;105;59;0.41245
12025520;1.60000;61.4375;105;59;0.39634
12025530;1.12500;61.1875;105;59;0.38926
12025540;0.22000;61.0000;105;59;0.38242
12025550;-0.24000;60.7500;105;59;0.37582
12025560;-0.28500;60.3125;105;59;0.36337
12025570;-0.28500;60.3125;105;59;0.36337
12025580;-0.22000;59.8750;105;59;0.35189
12025590;-0.20500;59.6250;105;59;0.34774
12025600;-0.20000;59.1250;105;59;0.33968
12025610;-0.18500;58.8750;105;59;0.33529
12025620;-0.17500;58.6250;105;59;0.33089
12025630;-0.16500;58.4375;105;59;0.32625
12025640;-0.16000;58.0000;105;59;0.31746
12025650;-0.15000;57.7500;105;59;0.31331
12025660;-0.14500;57.5000;105;59;0.30940
12025670;-0.13500;57.2500;105;59;0.30549
12025680;-0.13000;56.8125;105;59;0.29768
12025690;-0.12500;56.6875;105;59;0.29475
12025700;-0.11500;56.5000;105;59;0.29206
12025710;-0.10500;56.3750;105;59;0.28864
12025720;-0.09000;56.6250;105;59;0.28083
12025730;-0.07500;57.3750;105;59;0.27692
12025740;-0.06000;58.6250;105;59;0.27302
12025750;-0.04500;60.4375;105;59;0.26935
12025760;-0.02500;65.6875;105;59;0.26325
12025770;-0.00500;68.9375;105;59;0.26032
12025780;0.02000;72.5000;105;59;0.25739
12025790;0.04500;76.1875;105;59;0.25543
12025800;0.08000;83.6250;105;59;0.25226
12025810;0.11000;87.0000;105;59;0.25006
12025820;0.14000;90.0000;105;59;0.24762
12025830;0.14000;90.0000;105;59;0.24762
12025840;0.20500;96.6875;105;59;0.24103
12025850;0.24500;98.1875;105;59;0.23883
12025860;0.27500;99.3125;105;59;0.23639
12025870;0.29000;100.1250;105;59;0.23419
12025880;0.28500;101.0000;105;59;0.22955
12025890;0.23500;101.0625;105;59;0.22808
12025900;0.15000;100.9375;105;59;0.22735
12025910;0.06500;100.6875;105;59;0.22613
12025920;-0.00500;99.6250;105;59;0.22247
12025930;-0.05500;99.0000;105;59;0.22027
12025940;-0.08500;98.1875;105;59;0.21807
12025950;-0.10500;97.3750;105;59;0.21612
12025960;-0.12500;95.5000;105;59;0.21221
12025970;-0.12500;94.5000;105;59;0.21026
12025980;-0.12500;93.3750;105;59;0.20855
12025990;-0.13000;92.1875;105;59;0.20830
12026000;-0.13000;89.5000;105;59;0.21074
12026010;-0.12500;87.9375;105;59;0.21392
12026020;-0.12500;86.3125;105;59;0.21954
12026030;-0.11500;84.6875;105;59;0.22857
12026040;-0.11500;81.5000;105;59;0.25788
12026050;-0.11500;80.0000;105;59;0.27863
12026060;-0.12000;78.6250;105;59;0.30305
12026070;-0.12000;77.3125;105;59;0.33040
12026080;-0.12500;74.9375;105;59;0.38999
12026090;-0.12500;73.9375;105;59;0.41661
12026100;-0.13000;73.0625;105;59;0.44103
12026110;-0.13500;72.3125;105;59;0.46740
12026120;-0.13500;71.0625;105;59;0.51819
12026130;-0.13000;70.5625;105;59;0.54066
12026140;-0.13000;70.1250;105;59;0.56068
12026150;-0.13000;69.8125;105;59;0.57827
12026160;-0.12500;69.2500;105;59;0.60537
12026170;-0.11500;69.0625;105;59;0.61514
12026180;-0.11500;68.8125;105;59;0.62271
12026190;-0.10500;68.6250;105;59;0.62686
12026200;-0.08500;68.2500;105;59;0.63077
12026210;-0.07500;68.0625;105;59;0.63126
12026220;-0.06500;67.8750;105;59;0.63077
12026230;-0.03500;67.6875;105;59;0.62906
12026240;-0.02500;67.3125;105;59;0.62271
12026250;-0.04000;67.0625;105;59;0.61832
12026260;-0.06500;66.8750;105;59;0.61294
12026270;-0.08500;66.6250;105;59;0.60635
12026280;-0.12000;66.1250;105;59;0.58999
12026290;-0.15000;65.8750;105;59;0.58095
12026300;-0.15500;65.5625;105;59;0.57118
12026310;-0.15500;65.3125;105;59;0.56020
12026320;-0.14500;64.6875;105;59;0.53529
12026330;-0.13500;64.4375;105;59;0.52210
12026340;-0.12500;64.1250;105;59;0.50867
12026350;-0.11500;63.8125;105;59;0.49548
12026360;-0.12500;63.3125;105;59;0.46984
12026370;-0.17000;63.0625;105;59;0.45788
12026380;-0.07000;62.8125;105;59;0.44640
12026390;0.39500;62.6250;105;59;0.43663
12026400;1.19000;62.1250;105;59;0.41954
12026410;1.63500;61.8750;105;59;0.41074
12026420;1.06500;61.6250;105;59;0.40195
12026430;0.18500;61.4375;105;59;0.39365
12026440;0.18500;61.4375;105;59;0.39365
12026450;-0.26000;60.8750;105;59;0.37192
12026460;-0.22000;60.6875;105;59;0.36581
12026470;-0.19500;60.5000;105;59;0.36020
12026480;-0.18500;60.0625;105;59;0.35043
12026490;-0.17000;59.8125;105;59;0.34676
12026500;-0.16000;59.5625;105;59;0.34359
12026510;-0.15500;59.3125;105;59;0.33968
12026520;-0.15000;58.8750;105;59;0.33138
12026530;-0.14000;58.6250;105;59;0.32698
12026540;-0.13500;58.3750;105;59;0.32283
12026550;-0.12500;58.1250;105;59;0.31893
12026560;-0.12000;57.6250;105;59;0.31111
12026570;-0.11000;57.3750;105;59;0.30720
12026580;-0.09500;57.1875;105;59;0.30330
12026590;-0.08500;57.0625;105;59;0.30037
12026600;-0.08000;57.0625;105;59;0.29475
12026610;-0.07000;57.3750;105;59;0.29158
12026620;-0.05500;58.1875;105;59;0.28816
12026630;-0.03500;59.6250;105;59;0.28474
12026640;-0.03500;59.6250;105;59;0.28474
12026650;0.00000;67.1250;105;59;0.27326
12026660;0.02500;70.5000;105;59;0.26960
12026670;0.04500;74.1250;105;59;0.26593
12026680;0.06500;81.6875;105;59;0.29109
12026690;0.06500;81.6875;105;59;0.29109
12026700;0.13000;88.6875;105;59;0.30159
12026710;0.15500;91.6875;105;59;0.30183
12026720;0.19000;96.5000;105;59;0.29866
12026730;0.22000;98.3750;105;59;0.29646
12026740;0.25500;99.8125;105;59;0.29377
12026750;0.28500;101.0000;105;59;0.29084
12026760;0.29500;102.4375;105;59;0.28547
12026770;0.27500;102.7500;105;59;0.28327
12026780;0.21000;102.8750;105;59;0.28107
12026790;0.13000;102.8125;105;59;0.27985
12026800;0.04000;102.1875;105;59;0.27814
12026810;-0.03000;101.6875;105;59;0.27643
12026820;-0.08000;101.1250;105;59;0.27448
12026830;-0.11000;100.4375;105;59;0.27253
12026840;-0.12500;98.8750;105;59;0.26862
12026850;-0.13500;98.0000;105;59;0.26667
12026860;-0.14000;97.0000;105;59;0.26496
12026870;-0.14000;96.0000;105;59;0.26349
12026880;-0.13500;93.6250;105;59;0.26349
12026890;-0.13500;92.2500;105;59;0.26642
12026900;-0.14000;90.8125;105;59;0.27155
12026910;-0.14000;89.1875;105;59;0.27985
12026920;-0.13500;85.8750;105;59;0.30891
12026930;-0.12500;84.2500;105;59;0.33040
12026940;-0.13000;82.6875;105;59;0.35653
12026950;-0.12500;81.2500;105;59;0.38706
12026960;-0.12500;78.5625;105;59;0.45690
12026970;-0.12500;77.3750;105;59;0.49426
12026980;-0.12500;76.2500;105;59;0.53187
12026990;-0.12500;75.3125;105;59;0.56410
12027000;-0.12500;73.7500;105;59;0.62320
12027010;-0.12000;73.1250;105;59;0.65299
12027020;-0.12000;72.5625;105;59;0.68059
12027030;-0.12000;72.0625;105;59;0.70549
12027040;-0.12000;71.3750;105;59;0.74603
12027050;-0.11500;71.0625;105;59;0.76215
12027060;-0.10000;70.8125;105;59;0.77558
12027070;-0.07500;70.6250;105;59;0.78632
12027080;-0.06500;70.2500;105;59;0.80147
12027090;-0.06500;70.2500;105;59;0.80147
12027100;-0.03000;69.9375;105;59;0.80537
12027110;-0.02000;69.7500;105;59;0.80537
12027120;-0.03500;69.4375;105;59;0.80220
12027130;-0.06500;69.2500;105;59;0.79902
12027140;-0.09000;69.0625;105;59;0.79463
12027150;-0.12000;68.8125;105;59;0.78901
12027160;-0.16000;68.3750;105;59;0.77338
12027170;-0.18000;68.1875;105;59;0.76337
12027180;-0.18500;67.9375;105;59;0.75214
12027190;-0.18000;67.6875;105;59;0.74042
12027200;-0.18000;67.6875;105;59;0.74042
12027210;-0.16000;66.9375;105;59;0.69939
12027220;-0.15500;66.6875;105;59;0.68400
12027230;-0.15500;66.4375;105;59;0.66813
12027240;-0.20500;65.9375;105;59;0.63687
12027250;-0.20500;65.9375;105;59;0.63687
12027260;0.32500;65.4375;105;59;0.60635
12027270;1.14500;65.1250;105;59;0.59170
12027280;1.66500;64.5625;105;59;0.56581
12027290;1.21000;64.3125;105;59;0.55507
12027300;0.26500;64.0625;105;59;0.54432
12027310;-0.25000;63.8125;105;59;0.53382
12027320;-0.30500;63.2500;105;59;0.51477
12027330;-0.27000;63.0000;105;59;0.50623
12027340;-0.26000;62.8125;105;59;0.49817
12027350;-0.25000;62.5625;105;59;0.49060
12027360;-0.25000;62.5625;105;59;0.49060
12027370;-0.23000;61.8750;105;59;0.47082
12027380;-0.22500;61.6250;105;59;0.46520
12027390;-0.21500;61.3750;105;59;0.46081
12027400;-0.21000;60.8750;105;59;0.45299
12027410;-0.21000;60.6250;105;59;0.44884
12027420;-0.20500;60.3750;105;59;0.44469
12027430;-0.20000;60.1250;105;59;0.44054
12027440;-0.20000;60.1250;105;59;0.44054
12027450;-0.18500;59.5000;105;59;0.42808
12027460;-0.18000;59.4375;105;59;0.42418
12027470;-0.17500;59.5000;105;59;0.42027
12027480;-0.16000;60.5625;105;59;0.41343
12027490;-0.16000;60.5625;105;59;0.41343
12027500;-0.13000;63.7500;105;59;0.40855
12027510;-0.11000;66.1875;105;59;0.40586
12027520;-0.09000;72.5625;105;59;0.40000
12027530;-0.07000;76.3125;105;59;0.39707
12027540;-0.04500;80.1875;105;59;0.39438
12027550;-0.01500;84.1875;105;59;0.39194
12027560;0.01000;91.5625;105;59;0.38657
12027570;0.05000;94.7500;105;59;0.38364
12027580;0.08000;97.5625;105;59;0.38071
12027590;0.11500;99.8750;105;59;0.37851
12027600;0.14500;103.2500;105;59;0.37387
12027610;0.18000;104.3750;105;59;0.37070
12027620;0.21000;105.1875;105;59;0.36752
12027630;0.22500;105.7500;105;59;0.36459
12027640;0.20000;106.1250;105;59;0.35946
12027650;0.14500;106.0625;105;59;0.35702
12027660;0.06000;105.8750;105;59;0.35458
12027670;-0.01500;105.5625;105;59;0.35214
12027680;-0.08000;104.6250;105;59;0.34872
12027690;-0.12500;104.1250;105;59;0.34774
12027700;-0.15500;103.4375;105;59;0.34579
12027710;-0.16500;102.6875;105;59;0.34335
12027720;-0.16500;100.8750;105;59;0.33773
12027730;-0.17000;99.8750;105;59;0.33578
12027740;-0.17000;98.8125;105;59;0.33504
12027750;-0.17000;97.6250;105;59;0.33626
12027760;-0.16500;95.0625;105;59;0.34725
12027770;-0.16000;93.5625;105;59;0.35800
12027780;-0.15500;92.0000;105;59;0.37216
12027790;-0.15500;90.3125;105;59;0.38755
12027800;-0.15500;86.9375;105;59;0.42759
12027810;-0.15000;85.3750;105;59;0.45397
12027820;-0.15000;83.8750;105;59;0.48352
12027830;-0.15000;82.5000;105;59;0.51551
12027840;-0.14500;80.0000;105;59;0.58413
12027850;-0.14500;78.9375;105;59;0.61929
12027860;-0.14500;78.0625;105;59;0.65421
12027870;-0.14500;77.2500;105;59;0.68791
12027880;-0.14500;75.9375;105;59;0.74505
12027890;-0.14500;75.3750;105;59;0.76581
12027900;-0.14500;74.9375;105;59;0.78730
12027910;-0.13500;74.5625;105;59;0.80733
12027920;-0.12500;73.9375;105;59;0.83932
12027930;-0.11000;73.7500;105;59;0.85055
12027940;-0.08500;73.5625;105;59;0.85910
12027950;-0.07000;73.3750;105;59;0.86520
12027960;-0.06000;73.0000;105;59;0.87155
12027970;-0.03500;72.8125;105;59;0.87204
12027980;-0.03500;72.5625;105;59;0.87082
12027990;-0.05000;72.3750;105;59;0.86740
12028000;-0.07500;71.9375;105;59;0.85739
12028010;-0.09500;71.6875;105;59;0.85177
12028020;-0.13500;71.5000;105;59;0.84518
12028030;-0.16000;71.2500;105;59;0.83810
12028040;-0.16500;70.7500;105;59;0.82076
12028050;-0.16000;70.4375;105;59;0.81001
12028060;-0.14500;70.1875;105;59;0.79805
12028070;-0.13500;69.8750;105;59;0.78486
12028080;-0.13000;69.2500;105;59;0.75629
12028090;-0.12500;68.9375;105;59;0.74188
12028100;-0.16000;68.6250;105;59;0.72625
12028110;-0.16000;68.2500;105;59;0.71038
12028120;0.16000;67.5625;105;59;0.67863
12028130;0.86500;67.1875;105;59;0.66349
12028140;1.57000;66.8125;105;59;0.64884
12028150;1.50500;66.5000;105;59;0.63468
12028160;0.61500;65.8125;105;59;0.60879
12028170;-0.10500;65.5000;105;59;0.59707
12028180;-0.28000;65.1875;105;59;0.58608
12028190;-0.26000;64.8750;105;59;0.57680
12028200;-0.24000;64.2500;105;59;0.56068
12028210;-0.23000;63.9375;105;59;0.55287
12028220;-0.22000;63.6250;105;59;0.54505
12028230;-0.21000;63.3125;105;59;0.53773
12028240;-0.20500;62.6875;105;59;0.52381
12028250;-0.20500;62.6875;105;59;0.52381
12028260;-0.19000;62.0625;105;59;0.51184
12028270;-0.19000;61.8125;105;59;0.50623
12028280;-0.18500;61.1875;105;59;0.49670
12028290;-0.17000;60.9375;105;59;0.49280
12028300;-0.16000;60.6250;105;59;0.48864
12028310;-0.15500;60.4375;105;59;0.48425
12028320;-0.15000;60.1250;105;59;0.47570
12028330;-0.13500;60.1875;105;59;0.47179
12028340;-0.13000;60.3750;105;59;0.46764
12028350;-0.11500;61.0625;105;59;0.46374
12028360;-0.10000;64.0625;105;59;0.45592
12028370;-0.08000;66.5625;105;59;0.45201
12028380;-0.06500;69.5625;105;59;0.44811
12028390;-0.04500;73.0000;105;59;0.44469
12028400;-0.04500;73.0000;105;59;0.44469
12028410;0.01000;84.6875;105;59;0.43492
12028420;0.04000;88.5625;105;59;0.43150
12028430;0.07000;92.1250;105;59;0.42784
12028440;0.10500;98.0625;105;59;0.41978
12028450;0.14000;100.4375;105;59;0.41563
12028460;0.17000;102.3750;105;59;0.41148
12028470;0.19500;103.9375;105;59;0.40757
12028480;0.23000;106.0000;105;59;0.40024
12028490;0.24500;106.5625;105;59;0.39780
12028500;0.24500;106.8750;105;59;0.39487
12028510;0.20500;106.9375;105;59;0.39145
12028520;0.14000;106.5000;105;59;0.38486
12028530;0.14000;106.5000;105;59;0.38486
12028540;-0.01000;105.5625;105;59;0.37900
12028550;-0.06500;105.0000;105;59;0.37607
12028560;-0.09500;103.5625;105;59;0.37021
12028570;-0.12000;102.7500;105;59;0.36703
12028580;-0.13000;101.8750;105;59;0.36386
12028590;-0.13500;100.9375;105;59;0.36166
12028600;-0.14500;98.8125;105;59;0.35873
12028610;-0.14500;97.6250;105;59;0.35800
12028620;-0.15000;96.3125;105;59;0.35873
12028630;-0.15500;94.8125;105;59;0.36190
12028640;-0.15500;91.5625;105;59;0.37900
12028650;-0.15500;89.8125;105;59;0.39414
12028660;-0.15000;88.0625;105;59;0.41392
12028670;-0.14500;86.3750;105;59;0.43834
12028680;-0.15000;83.2500;105;59;0.49426
12028690;-0.14500;81.8750;105;59;0.52137
12028700;-0.15000;80.5625;105;59;0.55336
12028710;-0.15000;79.3750;105;59;0.58730
12028720;-0.14500;77.4375;105;59;0.63175
12028730;-0.15000;76.6250;105;59;0.62686
12028740;-0.15000;75.8750;105;59;0.63541
12028750;-0.14500;75.3125;105;59;0.64933
12028760;-0.14500;74.2500;105;59;0.67888
12028770;-0.14500;73.8125;105;59;0.69158
12028780;-0.13500;73.5000;105;59;0.70281
12028790;-0.12500;73.1875;105;59;0.71038
12028800;-0.10500;72.6250;105;59;0.72063
12028810;-0.08500;72.3750;105;59;0.72479
12028820;-0.07500;72.1250;105;59;0.72772
12028830;-0.05500;71.9375;105;59;0.72943
12028840;-0.02500;71.5000;105;59;0.72918
12028850;-0.02500;71.2500;105;59;0.72747
12028860;-0.05500;71.0000;105;59;0.72454
12028870;-0.08000;70.7500;105;59;0.72063
12028880;-0.11000;70.2500;105;59;0.70965
12028890;-0.11000;70.2500;105;59;0.70965
12028900;-0.18000;69.7500;105;59;0.69451
12028910;-0.18000;69.5000;105;59;0.68547
12028920;-0.17500;68.8750;105;59;0.66471
12028930;-0.16500;68.5625;105;59;0.65299
12028940;-0.15000;68.1875;105;59;0.64078
12028950;-0.13500;67.8750;105;59;0.62808
12028960;-0.12500;67.2500;105;59;0.60147
12028970;-0.16000;67.0000;105;59;0.58803
12028980;-0.18000;66.6875;105;59;0.57558
12028990;0.10500;66.4375;105;59;0.56435
12029000;0.78500;65.8750;105;59;0.54066
12029010;1.50500;65.5625;105;59;0.52894
12029020;1.45000;65.3125;105;59;0.51746
12029030;0.57000;65.0000;105;59;0.50647
12029040;-0.13500;64.3750;105;59;0.48620
12029050;-0.30500;64.1250;105;59;0.47692
12029060;-0.27500;63.8125;105;59;0.46838
12029070;-0.25500;63.5625;105;59;0.46032
12029080;-0.24500;63.0000;105;59;0.44689
12029090;-0.24000;62.7500;105;59;0.44151
12029100;-0.23000;62.4375;105;59;0.43565
12029110;-0.23000;62.1875;105;59;0.42955
12029120;-0.23000;61.6250;105;59;0.41734
12029130;-0.22000;61.3125;105;59;0.41148
12029140;-0.21500;61.0625;105;59;0.40562
12029150;-0.21000;60.8125;105;59;0.40000
12029160;-0.20000;60.3125;105;59;0.38877
12029170;-0.18500;60.0625;105;59;0.38339
12029180;-0.17000;59.8750;105;59;0.37900
12029190;-0.15500;59.7500;105;59;0.37509
12029200;-0.13500;59.6875;105;59;0.36606
12029210;-0.11500;59.9375;105;59;0.36117
12029220;-0.10000;60.5625;105;59;0.35653
12029230;-0.08500;61.7500;105;59;0.35189
12029240;-0.06500;65.8750;105;59;0.34310
12029250;-0.04000;68.6875;105;59;0.33871
12029260;-0.01500;71.9375;105;59;0.33480
12029270;0.01500;75.4375;105;59;0.33065
12029280;0.04500;82.9375;105;59;0.32357
12029290;0.07000;86.6250;105;59;0.32112
